Data from blue_surface_keyboard_FLMS001491_010.txt Node
Date: Tue Feb 07 11:12:34 GMT 2017
User: dcchb
Spectrometer: FLMS00149
Trigger mode: 0
Integration Time (sec): 2.000000E-2
Scans to average: 10
Electric dark correction enabled: true
Nonlinearity correction enabled: false
Boxcar width: 0
XAxis mode: Wavelengths
Number of Pixels in Spectrum: 2048
>>>>>Begin Spectral Data<<<<<
341.393	-8.29
341.776	-8.29
342.16	-8.29
342.543	-55.52
342.927	-55.75
343.31	-69.08
343.693	-74.96
344.077	-72.47
344.46	-64.79
344.843	-47.84
345.226	-33.6
345.61	-26.82
345.993	-16.43
346.376	10.47
346.759	14.76
347.142	34.19
347.525	50.24
347.908	37.36
348.291	62.89
348.674	85.04
349.057	111.03
349.44	144.02
349.823	156
350.206	157.13
350.588	168.88
350.971	202.55
351.354	199.61
351.737	207.52
352.119	239.84
352.502	254.3
352.884	258.59
353.267	261.98
353.65	268.76
354.032	287.75
354.414	304.7
354.797	285.71
355.179	287.29
355.562	303.11
355.944	288.65
356.326	323.9
356.709	297.92
357.091	312.6
357.473	342.43
357.855	321.87
358.238	319.84
358.62	316.67
359.002	321.19
359.384	307.63
359.766	331.14
360.148	306.96
360.53	336.78
360.912	300.4
361.294	323
361.676	312.15
362.057	313.96
362.439	298.82
362.821	312.38
363.203	291.59
363.584	297.69
363.966	283
364.348	281.65
364.729	292.27
365.111	289.33
365.493	299.05
365.874	296.79
366.256	295.88
366.637	290.91
367.019	284.13
367.4	272.15
367.781	298.14
368.163	295.43
368.544	283.45
368.925	298.37
369.306	310.34
369.688	282.55
370.069	313.73
370.45	290.01
370.831	293.85
371.212	297.92
371.593	292.04
371.974	283.9
372.355	289.1
372.736	301.31
373.117	300.4
373.498	269.67
373.879	297.46
374.26	308.54
374.641	294.3
375.021	280.06
375.402	302.21
375.783	295.66
376.163	302.21
376.544	281.42
376.925	307.18
377.305	275.77
377.686	299.5
378.066	296.79
378.447	299.95
378.827	308.54
379.208	307.63
379.588	300.4
379.968	302.89
380.349	314.41
380.729	284.36
381.109	309.22
381.489	295.66
381.87	303.11
382.25	305.15
382.63	317.58
383.01	303.34
383.39	289.33
383.77	305.37
384.15	299.95
384.53	319.38
384.91	324.36
385.29	312.83
385.67	309.22
386.049	298.59
386.429	308.54
386.809	312.38
387.189	318.93
387.568	327.07
387.948	318.03
388.328	331.81
388.707	314.86
389.087	333.17
389.466	314.41
389.846	321.87
390.225	324.13
390.605	310.34
390.984	321.42
391.363	298.82
391.743	322.55
392.122	327.07
392.501	314.64
392.881	324.58
393.26	325.71
393.639	322.77
394.018	326.84
394.397	332.04
394.776	320.97
395.155	328.42
395.534	336.11
395.913	337.91
396.292	345.37
396.671	344.02
397.05	343.34
397.429	343.11
397.808	359.84
398.186	324.58
398.565	332.49
398.944	336.56
399.323	334.75
399.701	348.31
400.08	354.19
400.458	344.02
400.837	324.81
401.215	362.09
401.594	334.3
401.972	357.8
402.351	353.73
402.729	323.45
403.107	347.86
403.486	349.89
403.864	332.49
404.242	337.24
404.62	337.24
404.999	358.03
405.377	338.37
405.755	335.66
406.133	361.87
406.511	358.03
406.889	353.96
407.267	366.61
407.645	372.94
408.023	352.38
408.401	385.82
408.779	364.35
409.156	358.25
409.534	365.71
409.912	386.05
410.29	380.85
410.667	375.65
411.045	366.84
411.422	367.29
411.8	365.26
412.178	377.24
412.555	377.91
412.933	380.4
413.31	387.86
413.687	379.72
414.065	372.94
414.442	382.43
414.819	381.98
415.197	405.48
415.574	388.76
415.951	392.15
416.328	405.03
416.705	382.89
417.082	378.14
417.46	401.64
417.837	396.44
418.214	401.19
418.591	383.11
418.967	372.26
419.344	379.72
419.721	400.74
420.098	403.9
420.475	399.83
420.852	424.47
421.228	415.88
421.605	391.92
421.982	398.48
422.358	399.16
422.735	409.78
423.111	416.56
423.488	383.56
423.864	421.98
424.241	440.74
424.617	408.87
424.994	434.64
425.37	407.07
425.746	411.81
426.123	421.53
426.499	413.39
426.875	436.9
427.251	440.74
427.627	419.49
428.003	427.86
428.379	450.91
428.756	438.93
429.132	444.8
429.507	441.64
429.883	423.11
430.259	450.23
430.635	443.22
431.011	447.97
431.387	466.27
431.763	457.46
432.138	440.51
432.514	465.14
432.89	459.95
433.265	459.49
433.641	475.09
434.016	490.45
434.392	486.61
434.767	458.59
435.143	500.85
435.518	472.37
435.894	485.48
436.269	490.68
436.644	480.06
437.02	475.76
437.395	471.92
437.77	497.23
438.145	511.92
438.52	498.81
438.895	504.46
439.271	520.51
439.646	519.38
440.021	517.57
440.395	527.97
440.77	501.75
441.145	500.4
441.52	511.02
441.895	519.6
442.27	533.39
442.645	552.15
443.019	503.11
443.394	511.92
443.769	547.85
444.143	518.93
444.518	531.13
444.892	530.45
445.267	523.45
445.641	531.58
446.016	542.66
446.39	549.43
446.764	547.4
447.139	527.29
447.513	543.56
447.887	552.82
448.262	534.97
448.636	556.89
449.01	563.45
449.384	576.55
449.758	541.07
450.132	557.34
450.506	554.41
450.88	557.12
451.254	558.7
451.628	557.34
452.002	554.18
452.376	566.16
452.75	597.12
453.123	570
453.497	591.02
453.871	600.96
454.244	589.21
454.618	585.37
454.992	604.57
455.365	614.97
455.739	606.83
456.112	587.4
456.486	604.57
456.859	613.84
457.232	610.68
457.606	617.68
457.979	615.42
458.352	637.79
458.725	652.03
459.099	645.48
459.472	654.74
459.845	661.3
460.218	631.92
460.591	650.9
460.964	641.18
461.337	670.11
461.71	650.22
462.083	670.79
462.456	675.76
462.829	674.86
463.201	692.26
463.574	672.82
463.947	698.36
464.32	671.01
464.692	701.75
465.065	707.4
465.438	691.13
465.81	687.28
466.183	684.8
466.555	730.67
466.928	721.63
467.3	713.72
467.672	712.82
468.045	738.58
468.417	761.86
468.789	758.02
469.161	746.72
469.534	749.43
469.906	767.06
470.278	762.08
470.65	766.6
471.022	791.01
471.394	798.24
471.766	788.3
472.138	786.72
472.51	812.93
472.882	806.6
473.253	807.51
473.625	802.31
473.997	835.53
474.369	824.68
474.74	809.99
475.112	846.83
475.484	878.47
475.855	851.57
476.227	895.41
476.598	876.88
476.97	883.89
477.341	870.33
477.713	932.02
478.084	911.01
478.455	905.58
478.827	920.05
479.198	950.78
479.569	920.5
479.94	970.21
480.311	954.17
480.682	993.49
481.053	1005.69
481.424	1000.04
481.795	988.52
482.166	1008.18
482.537	1019.48
482.908	1027.16
483.279	1042.08
483.65	1030.78
484.021	1047.05
484.391	1054.05
484.762	1048.18
485.133	1091.12
485.503	1078.91
485.874	1081.85
486.244	1099.93
486.615	1097.67
486.985	1111
487.356	1135.63
487.726	1133.37
488.097	1150.55
488.467	1155.29
488.837	1163.88
489.207	1167.05
489.578	1173.83
489.948	1193.49
490.318	1195.52
490.688	1180.83
491.058	1197.78
491.428	1234.61
491.798	1253.15
492.168	1218.34
492.538	1210.43
492.908	1247.04
493.278	1243.43
493.648	1268.06
494.017	1276.42
494.387	1286.36
494.757	1266.03
495.126	1271
495.496	1301.05
495.866	1289.3
496.235	1279.58
496.605	1312.13
496.974	1329.3
497.344	1272.35
497.713	1304.22
498.082	1312.13
498.452	1323.65
498.821	1346.48
499.19	1322.52
499.559	1329.3
499.928	1327.27
500.298	1336.98
500.667	1352.35
501.036	1343.31
501.405	1334.72
501.774	1361.39
502.143	1362.97
502.512	1333.14
502.88	1348.28
503.249	1364.33
503.618	1379.02
503.987	1379.92
504.356	1360.71
504.724	1359.58
505.093	1363.65
505.462	1358.9
505.83	1403.42
506.199	1374.27
506.567	1375.85
506.936	1415.63
507.304	1401.84
507.672	1417.89
508.041	1408.4
508.409	1395.06
508.777	1404.1
509.145	1401.62
509.514	1429.86
509.882	1428.06
510.25	1413.82
510.618	1411.56
510.986	1436.64
511.354	1430.32
511.722	1426.93
512.09	1435.74
512.458	1438.45
512.826	1472.8
513.193	1459.24
513.561	1428.51
513.929	1429.41
514.297	1439.13
514.664	1466.7
515.032	1431.22
515.4	1466.92
515.767	1465.57
516.135	1464.21
516.502	1471.44
516.869	1477.55
517.237	1455.63
517.604	1455.17
517.972	1505.79
518.339	1529.75
518.706	1508.28
519.073	1482.74
519.44	1466.7
519.808	1508.51
520.175	1468.73
520.542	1479.58
520.909	1509.64
521.276	1519.8
521.643	1508.51
522.009	1500.37
522.376	1543.08
522.743	1534.49
523.11	1529.3
523.477	1496.98
523.843	1521.84
524.21	1527.49
524.577	1553.25
524.943	1527.71
525.31	1545.11
525.676	1574.04
526.043	1557.54
526.409	1546.47
526.776	1585.57
527.142	1538.79
527.508	1543.98
527.874	1586.92
528.241	1554.61
528.607	1588.73
528.973	1597.77
529.339	1598.9
529.705	1606.13
530.071	1598.67
530.437	1549.86
530.803	1592.8
531.169	1591.22
531.535	1600.25
531.901	1565.45
532.267	1576.3
532.632	1596.86
532.998	1637.77
533.364	1619.24
533.73	1591.22
534.095	1577.2
534.461	1595.28
534.826	1611.33
535.192	1603.64
535.557	1602.29
535.923	1612.01
536.288	1638.67
536.653	1644.1
537.019	1619.69
537.384	1627.37
537.749	1633.47
538.114	1621.95
538.479	1628.05
538.845	1641.61
539.21	1609.52
539.575	1603.19
539.94	1640.25
540.305	1637.77
540.67	1611.78
541.034	1617.88
541.399	1653.13
541.764	1646.58
542.129	1619.24
542.494	1630.08
542.858	1652.46
543.223	1644.32
543.587	1623.53
543.952	1643.87
544.316	1606.81
544.681	1628.05
545.045	1638.22
545.41	1614.27
545.774	1656.07
546.138	1630.08
546.503	1630.76
546.867	1630.08
547.231	1647.94
547.595	1598.9
547.959	1638.67
548.324	1657.88
548.688	1647.26
549.052	1646.58
549.416	1621.5
549.779	1652.23
550.143	1628.28
550.507	1648.16
550.871	1625.56
551.235	1633.47
551.599	1644.77
551.962	1682.51
552.326	1638.22
552.689	1655.39
553.053	1642.51
553.417	1659.24
553.78	1655.39
554.143	1630.54
554.507	1664.21
554.87	1632.57
555.234	1633.93
555.597	1637.99
555.96	1642.29
556.323	1659.91
556.686	1643.19
557.05	1656.07
557.413	1673.7
557.776	1662.17
558.139	1645.23
558.502	1675.28
558.865	1665.79
559.228	1669.63
559.59	1670.08
559.953	1672.12
560.316	1719.35
560.679	1716.64
561.041	1679.57
561.404	1706.24
561.767	1687.03
562.129	1682.74
562.492	1680.7
562.854	1686.35
563.217	1719.8
563.579	1692.91
563.941	1684.09
564.304	1726.13
564.666	1691.33
565.028	1697.2
565.39	1717.54
565.753	1732.68
566.115	1725
566.477	1729.74
566.839	1703.75
567.201	1719.57
567.563	1735.17
567.925	1728.16
568.287	1739.01
568.648	1725
569.01	1767.26
569.372	1750.31
569.734	1746.01
570.095	1722.29
570.457	1761.83
570.819	1760.02
571.18	1741.27
571.542	1746.69
571.903	1739.91
572.265	1755.73
572.626	1749.63
572.987	1755.73
573.349	1781.94
573.71	1765.45
574.071	1761.38
574.432	1757.99
574.794	1788.27
575.155	1760.25
575.516	1774.26
575.877	1766.58
576.238	1773.36
576.599	1802.06
576.96	1805.67
577.32	1779.23
577.681	1795.28
578.042	1817.42
578.403	1784.43
578.763	1772
579.124	1808.61
579.485	1804.77
579.845	1824.66
580.206	1818.1
580.566	1784.43
580.927	1837.08
581.287	1805.9
581.648	1783.75
582.008	1825.11
582.368	1800.93
582.728	1823.3
583.089	1807.48
583.449	1807.71
583.809	1823.07
584.169	1796.86
584.529	1790.31
584.889	1790.76
585.249	1813.58
585.609	1817.65
585.969	1841.6
586.329	1816.07
586.688	1821.94
587.048	1825.11
587.408	1806.35
587.768	1782.17
588.127	1833.02
588.487	1821.27
588.846	1838.67
589.206	1800.02
589.565	1812.9
589.925	1810.19
590.284	1821.27
590.643	1821.49
591.003	1826.24
591.362	1794.15
591.721	1798.89
592.08	1829.18
592.44	1825.56
592.799	1849.51
593.158	1850.64
593.517	1818.33
593.876	1836.41
594.235	1817.42
594.593	1821.94
594.952	1868.5
595.311	1861.26
595.67	1820.36
596.029	1829.63
596.387	1848.38
596.746	1834.37
597.104	1850.19
597.463	1844.99
597.822	1891.32
598.18	1843.86
598.538	1840.7
598.897	1872.56
599.255	1871.89
599.613	1836.18
599.972	1888.38
600.33	1855.39
600.688	1867.82
601.046	1852.68
601.404	1899.46
601.762	1887.25
602.12	1908.27
602.478	1892.22
602.836	1846.58
603.194	1861.49
603.552	1850.42
603.91	1880.47
604.268	1903.75
604.625	1908.04
604.983	1855.39
605.341	1869.4
605.698	1870.08
606.056	1908.04
606.413	1875.73
606.771	1882.51
607.128	1887.7
607.485	1903.07
607.843	1910.75
608.2	1873.02
608.557	1915.27
608.914	1897.2
609.272	1910.98
609.629	1935.16
609.986	1926.57
610.343	1885.44
610.7	1917.53
611.057	1941.26
611.414	1940.81
611.771	1936.97
612.127	1913.24
612.484	1923.64
612.841	1931.77
613.198	1934.26
613.554	1938.32
613.911	1951.66
614.267	1936.52
614.624	1960.7
614.98	1970.87
615.337	1959.34
615.693	1946.23
616.05	1967.93
616.406	1960.02
616.762	1965.44
617.118	1985.78
617.475	1969.06
617.831	1966.8
618.187	1983.3
618.543	1969.06
618.899	2026.68
619.255	1987.36
619.611	1991.2
619.967	1993.01
620.323	2008.38
620.678	2001.83
621.034	1987.36
621.39	2024.88
621.746	2028.72
622.101	2026.01
622.457	2016.74
622.812	2009.96
623.168	2008.61
623.523	2030.07
623.879	2025.33
624.234	2022.16
624.589	2026.68
624.945	2041.6
625.3	2039.57
625.655	2070.75
626.01	2041.6
626.365	2040.92
626.72	2044.31
627.075	2045.89
627.43	2061.71
627.785	2052.45
628.14	2087.7
628.495	2065.1
628.85	2048.38
629.205	2090.86
629.559	2068.26
629.914	2086.34
630.269	2050.86
630.623	2105.78
630.978	2105.78
631.332	2112.11
631.687	2082.95
632.041	2081.6
632.396	2093.57
632.75	2113.69
633.104	2117.08
633.459	2107.59
633.813	2098.77
634.167	2118.21
634.521	2122.95
634.875	2105.78
635.229	2126.34
635.583	2141.26
635.937	2143.74
636.291	2132.9
636.645	2120.47
636.999	2158.88
637.352	2172.89
637.706	2190.07
638.06	2169.05
638.413	2148.49
638.767	2162.05
639.121	2174.93
639.474	2159.11
639.828	2205.21
640.181	2169.28
640.534	2162.5
640.888	2181.26
641.241	2196.4
641.594	2208.6
641.947	2227.36
642.301	2223.06
642.654	2249.95
643.007	2251.54
643.36	2241.37
643.713	2231.2
644.066	2224.64
644.419	2243.85
644.771	2223.74
645.124	2260.8
645.477	2220.35
645.83	2232.33
646.182	2216.74
646.535	2236.17
646.888	2220.35
647.24	2246.79
647.593	2235.04
647.945	2262.16
648.298	2268.94
648.65	2265.1
649.002	2273.68
649.355	2266.9
649.707	2328.37
650.059	2311.65
650.411	2367.47
650.763	2383.74
651.115	2391.87
651.467	2383.28
651.819	2404.98
652.171	2432.55
652.523	2437.07
652.875	2441.36
653.227	2415.6
653.578	2462.6
653.93	2423.06
654.282	2473.9
654.633	2451.53
654.985	2469.16
655.337	2490.85
655.688	2504.86
656.039	2506.45
656.391	2495.82
656.742	2521.13
657.094	2544.64
657.445	2521.81
657.796	2567.91
658.147	2544.18
658.498	2580.34
658.849	2578.08
659.2	2600
659.551	2604.52
659.902	2596.84
660.253	2638.87
660.604	2661.24
660.955	2654.46
661.306	2691.07
661.656	2663.05
662.007	2683.62
662.358	2687.46
662.708	2722.94
663.059	2720.45
663.409	2725.65
663.76	2727.23
664.11	2781.69
664.461	2758.19
664.811	2790.51
665.161	2777.4
665.511	2806.78
665.862	2812.88
666.212	2850.62
666.562	2883.16
666.912	2883.16
667.262	2861.01
667.612	2902.14
667.962	2935.36
668.312	2923.38
668.662	2996.6
669.011	2957.73
669.361	2956.6
669.711	2975.36
670.06	2979.65
670.41	2973.55
670.76	2987.56
671.109	3021.01
671.459	3001.57
671.808	3021.46
672.157	3057.39
672.507	3072.76
672.856	3071.18
673.205	3101.46
673.554	3091.97
673.904	3104.85
674.253	3145.07
674.602	3122.25
674.951	3116.15
675.3	3100.33
675.649	3159.76
675.998	3207.9
676.346	3178.07
676.695	3207.67
677.044	3212.64
677.393	3241.79
677.741	3249.25
678.09	3256.93
678.438	3289.7
678.787	3301.23
679.135	3290.15
679.484	3286.09
679.832	3288.12
680.181	3327.44
680.529	3314.11
680.877	3355.01
681.225	3320.66
681.573	3344.16
681.922	3339.19
682.27	3337.16
682.618	3376.93
682.966	3419.42
683.314	3411.73
683.661	3374.67
684.009	3376.93
684.357	3418.51
684.705	3435.91
685.053	3402.69
685.4	3460.54
685.748	3423.94
686.095	3447.44
686.443	3457.83
686.79	3443.6
687.138	3511.16
687.485	3490.83
687.832	3460.77
688.18	3472.3
688.527	3505.29
688.874	3522.92
689.221	3549.36
689.568	3503.03
689.915	3529.92
690.262	3475.69
690.609	3483.37
690.956	3567.66
691.303	3554.1
691.65	3559.07
691.997	3488.11
692.344	3538.06
692.69	3518.85
693.037	3568.56
693.383	3533.99
693.73	3565.85
694.077	3539.19
694.423	3534.89
694.769	3548.23
695.116	3565.4
695.462	3548.68
695.808	3540.09
696.155	3559.07
696.501	3553.88
696.847	3527.21
697.193	3542.8
697.539	3536.25
697.885	3511.16
698.231	3556.14
698.577	3568.34
698.923	3510.49
699.269	3529.02
699.614	3538.28
699.96	3498.28
700.306	3516.14
700.651	3514.33
700.997	3513.42
701.342	3522.01
701.688	3501.22
702.033	3536.93
702.379	3526.53
702.724	3479.08
703.069	3512.75
703.415	3486.76
703.76	3499.87
704.105	3480.66
704.45	3485.18
704.795	3438.4
705.14	3435.69
705.485	3450.38
705.83	3458.06
706.175	3446.53
706.52	3453.99
706.865	3428
707.209	3444.5
707.554	3446.53
707.899	3438.62
708.243	3423.48
708.588	3444.95
708.932	3436.14
709.277	3385.07
709.621	3448.79
709.966	3439.3
710.31	3370.15
710.654	3397.5
710.998	3444.27
711.342	3427.1
711.687	3412.64
712.031	3357.27
712.375	3371.06
712.719	3382.13
713.063	3395.01
713.407	3407.89
713.75	3395.46
714.094	3420.32
714.438	3395.69
714.782	3410.6
715.125	3362.24
715.469	3369.47
715.812	3386.2
716.156	3402.92
716.499	3393.88
716.843	3440.66
717.186	3377.16
717.53	3409.47
717.873	3412.18
718.216	3388.91
718.559	3361.56
718.902	3341.68
719.246	3395.24
719.589	3364.5
719.932	3365.63
720.275	3379.87
720.617	3380.32
720.96	3358.17
721.303	3379.42
721.646	3380.55
721.989	3367.44
722.331	3350.94
722.674	3375.8
723.016	3366.99
723.359	3382.81
723.701	3373.77
724.044	3386.42
724.386	3358.17
724.729	3352.98
725.071	3406.08
725.413	3361.56
725.755	3374.22
726.097	3376.48
726.439	3382.81
726.782	3388.23
727.124	3377.61
727.465	3366.08
727.807	3401.34
728.149	3377.38
728.491	3393.43
728.833	3423.03
729.175	3392.07
729.516	3393.88
729.858	3366.08
730.199	3397.95
730.541	3379.19
730.882	3371.28
731.224	3396.59
731.565	3373.32
731.906	3402.02
732.248	3404.95
732.589	3384.84
732.93	3399.3
733.271	3392.75
733.612	3394.78
733.953	3402.69
734.294	3421.22
734.635	3355.46
734.976	3379.19
735.317	3366.99
735.658	3407.89
735.999	3452.18
736.339	3420.32
736.68	3432.3
737.021	3451.96
737.361	3421.68
737.702	3436.59
738.042	3432.75
738.383	3447.66
738.723	3476.82
739.063	3461.45
739.404	3470.04
739.744	3454.44
740.084	3452.64
740.424	3472.75
740.764	3484.95
741.104	3506.19
741.444	3506.87
741.784	3447.89
742.124	3530.6
742.464	3525.63
742.804	3504.84
743.143	3520.2
743.483	3556.14
743.823	3601.11
744.162	3568.56
744.502	3515.01
744.841	3594.33
745.181	3598.62
745.52	3580.99
745.86	3613.99
746.199	3622.8
746.538	3651.5
746.877	3667.32
747.216	3658.28
747.556	3668.22
747.895	3711.84
748.234	3689.92
748.573	3739.18
748.911	3709.8
749.25	3752.51
749.589	3770.14
749.928	3790.71
750.267	3818.95
750.605	3804.04
750.944	3835.9
751.283	3852.85
751.621	3893.53
751.96	3901.66
752.298	3903.47
752.636	3917.26
752.975	3913.41
753.313	3937.14
753.651	4015.33
753.989	3961.32
754.327	3994.32
754.666	3989.57
755.004	4033.64
755.342	4077.7
755.679	4040.87
756.017	4014.2
756.355	4110.25
756.693	4055.56
757.031	4108.44
757.368	4141.66
757.706	4199.06
758.044	4121.32
758.381	4247.42
758.719	4189.56
759.056	4245.61
759.394	4227.3
759.731	4276.34
760.068	4211.49
760.405	4274.99
760.743	4300.97
761.08	4329.67
761.417	4259.17
761.754	4309.11
762.091	4320.63
762.428	4344.14
762.765	4319.96
763.102	4320.86
763.438	4399.28
763.775	4372.61
764.112	4390.92
764.449	4377.81
764.785	4356.11
765.122	4371.03
765.458	4395.44
765.795	4369.45
766.131	4405.15
766.467	4394.76
766.804	4381.42
767.14	4384.36
767.476	4428.88
767.812	4408.09
768.148	4429.33
768.485	4391.82
768.821	4416.45
769.157	4379.84
769.492	4364.93
769.828	4431.37
770.164	4401.08
770.5	4376.45
770.836	4427.75
771.171	4357.47
771.507	4377.13
771.842	4394.08
772.178	4410.8
772.513	4374.42
772.849	4360.41
773.184	4327.64
773.519	4388.66
773.855	4352.5
774.19	4349.79
774.525	4287.64
774.86	4346.62
775.195	4346.85
775.53	4291.94
775.865	4274.08
776.2	4296.45
776.535	4245.38
776.87	4230.92
777.205	4232.5
777.539	4242.9
777.874	4243.57
778.209	4181.88
778.543	4203.35
778.878	4186.63
779.212	4230.02
779.547	4218.49
779.881	4206.29
780.215	4180.75
780.55	4172.84
780.884	4182.56
781.218	4153.63
781.552	4145.72
781.886	4110.25
782.22	4086.06
782.554	4096.69
782.888	4081.32
783.222	4123.35
783.556	4027.08
783.889	4053.98
784.223	4048.78
784.557	4022.11
784.89	4035.22
785.224	4006.52
785.557	4026.41
785.891	3983.69
786.224	3997.03
786.558	3968.33
786.891	3947.99
787.224	3957.48
787.557	3939.63
787.891	3940.08
788.224	3910.02
788.557	3940.08
788.89	3891.27
789.223	3940.53
789.556	3843.59
789.888	3844.04
790.221	3827.99
790.554	3815.11
790.887	3839.74
791.219	3811.5
791.552	3772.4
791.884	3800.42
792.217	3803.36
792.549	3805.17
792.882	3759.52
793.214	3749.35
793.546	3755.68
793.879	3704.83
794.211	3717.26
794.543	3733.31
794.875	3691.72
795.207	3721.1
795.539	3682.46
795.871	3689.24
796.203	3641.33
796.535	3658.73
796.867	3634.78
797.198	3638.84
797.53	3636.36
797.862	3614.21
798.193	3620.31
798.525	3596.36
798.856	3589.58
799.188	3553.2
799.519	3547.77
799.85	3547.1
800.182	3550.26
800.513	3522.24
800.844	3484.72
801.175	3520.66
801.506	3495.35
801.837	3502.8
802.168	3501.67
802.499	3469.36
802.83	3513.2
803.161	3431.84
803.491	3477.95
803.822	3496.48
804.153	3467.55
804.483	3409.25
804.814	3401.56
805.145	3407.44
805.475	3395.01
805.805	3441.79
806.136	3364.5
806.466	3383.03
806.796	3394.33
807.126	3377.83
807.457	3327.44
807.787	3381.22
808.117	3349.81
808.447	3366.76
808.777	3342.81
809.107	3353.88
809.436	3294.67
809.766	3306.65
810.096	3309.14
810.426	3296.26
810.755	3294.22
811.085	3275.69
811.414	3282.47
811.744	3273.43
812.073	3242.25
812.403	3264.39
812.732	3214.9
813.061	3206.09
813.39	3222.81
813.719	3219.87
814.049	3241.79
814.378	3222.58
814.707	3225.52
815.036	3171.74
815.365	3197.5
815.693	3120.21
816.022	3151.4
816.351	3163.6
816.68	3176.48
817.008	3152.3
817.337	3130.61
817.665	3114.56
817.994	3115.47
818.322	3121.12
818.651	3091.06
818.979	3079.09
819.307	3174.45
819.636	3088.58
819.964	3102.36
820.292	3109.82
820.62	3050.61
820.948	3068.24
821.276	3099.42
821.604	3107.33
821.932	3110.5
822.259	3093.55
822.587	3102.81
822.915	3086.32
823.243	3080.44
823.57	3065.98
823.898	3079.76
824.225	3054.68
824.553	3050.16
824.88	3043.38
825.207	3105.07
825.535	3058.75
825.862	3075.02
826.189	3047.67
826.516	3086.32
826.843	3083.38
827.17	3104.62
827.497	3080.89
827.824	3083.15
828.151	3110.5
828.478	3105.3
828.805	3105.07
829.131	3101.46
829.458	3086.32
829.785	3081.35
830.111	3077.05
830.438	3058.75
830.764	3073.44
831.09	3045.41
831.417	3071.85
831.743	3089.03
832.069	3062.59
832.395	3065.3
832.722	3065.98
833.048	3065.07
833.374	3088.58
833.7	3044.28
834.026	3075.7
834.351	3060.1
834.677	3040.67
835.003	3062.14
835.329	3079.09
835.654	3054.23
835.98	3023.27
836.306	3001.35
836.631	2993.21
836.956	3042.7
837.282	3042.48
837.607	3024.4
837.932	3014.23
838.258	3005.42
838.583	3002.25
838.908	3017.84
839.233	3013.1
839.558	3011.97
839.883	2970.16
840.208	2980.78
840.533	2964.51
840.858	2947.11
841.182	2980.78
841.507	2966.09
841.832	2950.28
842.156	2941.69
842.481	2958.41
842.805	2925.87
843.13	2948.92
843.454	2901.92
843.778	2955.25
844.103	2893.33
844.427	2900.11
844.751	2925.87
845.075	2895.14
845.399	2878.41
845.723	2901.01
846.047	2896.04
846.371	2875.25
846.695	2876.38
847.019	2844.29
847.343	2832.54
847.666	2774.01
847.99	2816.95
848.313	2811.52
848.637	2773.33
848.96	2821.47
849.284	2785.08
849.607	2766.78
849.931	2740.11
850.254	2769.94
850.577	2718.87
850.9	2691.3
851.223	2712.54
851.546	2702.6
851.869	2728.36
852.192	2661.92
852.515	2671.86
852.838	2685.88
853.161	2661.02
853.483	2664.63
853.806	2655.37
854.129	2627.35
854.451	2646.78
854.774	2641.81
855.096	2638.65
855.419	2604.3
855.741	2615.14
856.063	2581.92
856.385	2583.05
856.708	2575.82
857.03	2564.3
857.352	2555.48
857.674	2555.26
857.996	2563.85
858.318	2513.68
858.64	2561.59
858.961	2545.31
859.283	2533.11
859.605	2534.02
859.926	2559.78
860.248	2534.47
860.57	2498.76
860.891	2508.48
861.212	2511.64
861.534	2512.09
861.855	2489.72
862.176	2510.51
862.498	2473.45
862.819	2487.46
863.14	2479.55
863.461	2473.45
863.782	2469.84
864.103	2491.08
864.424	2456.28
864.745	2447.01
865.065	2437.75
865.386	2424.41
865.707	2441.81
866.027	2462.6
866.348	2454.47
866.668	2446.33
866.989	2437.29
867.309	2422.83
867.63	2440.01
867.95	2427.13
868.27	2419.89
868.59	2435.26
868.91	2390.06
869.23	2422.61
869.55	2428.93
869.87	2402.95
870.19	2402.72
870.51	2402.95
870.83	2395.26
871.15	2386
871.469	2392.1
871.789	2416.28
872.109	2383.06
872.428	2358.43
872.748	2399.1
873.067	2352.33
873.386	2389.16
873.706	2388.93
874.025	2348.26
874.344	2327.92
874.663	2348.71
874.982	2327.24
875.301	2383.28
875.62	2331.31
875.939	2344.19
876.258	2356.39
876.577	2331.99
876.896	2337.18
877.214	2341.93
877.533	2328.14
877.852	2327.47
878.17	2337.41
878.489	2307.13
878.807	2337.18
879.125	2301.48
879.444	2307.35
879.762	2313.46
880.08	2284.53
880.398	2275.04
880.716	2302.38
881.034	2259.22
881.352	2273.01
881.67	2273.68
881.988	2313.23
882.306	2284.76
882.624	2230.97
882.941	2245.44
883.259	2260.35
883.577	2270.75
883.894	2286.11
884.212	2238.43
884.529	2232.33
884.846	2222.84
885.164	2211.31
885.481	2233.23
885.798	2242.72
886.115	2198.43
886.432	2240.92
886.75	2210.18
887.067	2219.22
887.383	2192.1
887.7	2189.39
888.017	2208.15
888.334	2216.06
888.651	2197.53
888.967	2191.2
889.284	2174.7
889.6	2172.67
889.917	2155.72
890.233	2168.83
890.55	2149.84
890.866	2138.09
891.182	2170.41
891.498	2155.72
891.815	2126.34
892.131	2128.6
892.447	2160.69
892.763	2112.33
893.079	2131.54
893.395	2097.42
893.71	2100.58
894.026	2135.83
894.342	2136.29
894.657	2125.44
894.973	2081.37
895.289	2067.59
895.604	2065.33
895.92	2075.95
896.235	2051.54
896.55	2030.07
896.865	2027.59
897.181	2040.47
897.496	2005.89
897.811	2046.34
898.126	2023.07
898.441	2013.8
898.756	1997.53
899.071	2028.04
899.386	1996.63
899.7	1983.97
900.015	1986.01
900.33	1965.89
900.644	1969.51
900.959	1963.86
901.273	1997.08
901.588	1961.37
901.902	1966.12
902.216	1913.92
902.531	1961.83
902.845	1947.82
903.159	1916.4
903.473	1949.62
903.787	1937.87
904.101	1907.37
904.415	1934.93
904.729	1941.26
905.042	1869.4
905.356	1868.5
905.67	1876.86
905.984	1888.61
906.297	1877.31
906.611	1901.26
906.924	1878.21
907.237	1842.51
907.551	1848.38
907.864	1828.5
908.177	1838.44
908.491	1814.49
908.804	1839.34
909.117	1819.91
909.43	1802.28
909.743	1808.38
910.056	1793.92
910.368	1798.67
910.681	1791.44
910.994	1776.52
911.307	1807.48
911.619	1779.01
911.932	1748.05
912.244	1772.91
912.557	1766.8
912.869	1749.18
913.181	1739.23
913.494	1780.59
913.806	1730.42
914.118	1729.52
914.43	1709.18
914.742	1680.25
915.054	1682.96
915.366	1706.01
915.678	1718.22
915.99	1696.52
916.302	1702.4
916.613	1676.86
916.925	1707.14
917.236	1703.75
917.548	1687.26
917.859	1700.36
918.171	1644.32
918.482	1642.06
918.794	1615.17
919.105	1631.21
919.416	1642.74
919.727	1633.47
920.038	1628.5
920.349	1609.97
920.66	1623.08
920.971	1623.08
921.282	1629.63
921.593	1575.4
921.903	1583.53
922.214	1575.4
922.525	1584.44
922.835	1560.03
923.146	1578.11
923.456	1583.31
923.767	1541.27
924.077	1549.63
924.387	1544.21
924.697	1549.18
925.008	1534.04
925.318	1508.96
925.628	1543.98
925.938	1523.87
926.248	1506.47
926.558	1505.12
926.867	1483.2
927.177	1503.76
927.487	1518.9
927.796	1496.3
928.106	1473.03
928.416	1532.23
928.725	1490.65
929.034	1466.02
929.344	1469.64
929.653	1477.32
929.962	1451.56
930.271	1428.73
930.581	1459.02
930.89	1423.99
931.199	1417.43
931.508	1438.68
931.817	1443.65
932.125	1428.96
932.434	1402.07
932.743	1399.36
933.051	1401.62
933.36	1402.29
933.669	1434.38
933.977	1369.3
934.286	1403.88
934.594	1407.27
934.902	1393.25
935.21	1371.79
935.519	1388.96
935.827	1379.02
936.135	1362.75
936.443	1344.22
936.751	1341.73
937.059	1359.13
937.367	1352.8
937.674	1353.48
937.982	1348.51
938.29	1355.74
938.597	1352.35
938.905	1356.87
939.213	1354.84
939.52	1323.65
939.827	1322.07
940.135	1313.93
940.442	1332.46
940.749	1304.44
941.056	1310.77
941.363	1277.55
941.67	1294.27
941.977	1267.61
942.284	1278.68
942.591	1269.19
942.898	1257.66
943.205	1262.18
943.511	1271
943.818	1284.33
944.125	1242.75
944.431	1259.47
944.738	1266.93
945.044	1234.84
945.35	1242.52
945.657	1228.51
945.963	1227.83
946.269	1223.54
946.575	1219.25
946.881	1219.47
947.187	1226.71
947.493	1216.99
947.799	1225.12
948.105	1219.02
948.41	1203.2
948.716	1199.59
949.022	1195.52
949.327	1204.11
949.633	1186.71
949.938	1193.26
950.244	1192.13
950.549	1168.18
950.854	1155.97
951.16	1165.69
951.465	1144.9
951.77	1148.97
952.075	1133.15
952.38	1150.55
952.685	1124.11
952.99	1137.44
953.294	1147.16
953.599	1123.66
953.904	1098.57
954.209	1113.04
954.513	1126.82
954.818	1122.98
955.122	1120.49
955.426	1123.2
955.731	1107.61
956.035	1123.43
956.339	1111
956.643	1110.32
956.948	1064.9
957.252	1083.66
957.556	1097.44
957.86	1069.87
958.163	1092.92
958.467	1084.34
958.771	1084.11
959.075	1064
959.378	1078.23
959.682	1063.55
959.985	1084.34
960.289	1060.16
960.592	1035.3
960.896	1052.25
961.199	1037.11
961.502	1038.91
961.805	1046.82
962.108	1031.68
962.411	1028.52
962.714	1059.48
963.017	1035.3
963.32	1034.39
963.623	1008.41
963.926	1007.5
964.228	1036.43
964.531	1003.21
964.833	1001.63
965.136	991.46
965.438	1008.86
965.741	968.86
966.043	993.94
966.345	995.75
966.648	990.55
966.95	977.9
967.252	987.16
967.554	960.27
967.856	987.84
968.158	967.95
968.46	951.23
968.761	948.97
969.063	978.8
969.365	962.53
969.666	954.4
969.968	951.68
970.269	953.04
970.571	957.79
970.872	938.35
971.174	948.75
971.475	952.14
971.776	929.31
972.077	933.38
972.378	914.4
972.679	913.94
972.98	943.1
973.281	902.87
973.582	935.19
973.883	910.56
974.183	931.8
974.484	905.13
974.785	929.31
975.085	914.17
975.386	911.01
975.686	904.68
975.986	893.83
976.287	862.19
976.587	871.69
976.887	923.66
977.187	894.51
977.487	878.24
977.787	865.58
978.087	883.66
978.387	870.78
978.687	890.22
978.987	893.61
979.286	864
979.586	880.5
979.885	860.61
980.185	866.71
980.484	866.26
980.784	844.57
981.083	835.3
981.382	886.83
981.682	844.57
981.981	854.96
982.28	841.63
982.579	850.44
982.878	859.48
983.177	809.31
983.475	837.79
983.774	828.98
984.073	819.03
984.372	805.93
984.67	817.9
984.969	826.26
985.267	808.64
985.566	834.17
985.864	830.11
986.162	809.99
986.461	807.51
986.759	803.44
987.057	817.22
987.355	805.02
987.653	810.44
987.951	786.94
988.249	816.09
988.547	799.6
988.844	785.36
989.142	809.31
989.44	769.99
989.737	807.28
990.035	757.79
990.332	764.34
990.63	785.59
990.927	746.27
991.224	775.19
991.521	780.39
991.819	778.13
992.116	751.46
992.413	746.27
992.71	755.98
993.006	779.94
993.303	754.63
993.6	726.15
993.897	758.92
994.193	747.17
994.49	750.11
994.787	734.06
995.083	736.1
995.379	740.39
995.676	727.96
995.972	725.48
996.268	724.12
996.565	700.84
996.861	721.86
997.157	717.11
997.453	719.6
997.749	718.02
998.044	690.67
998.34	717.79
998.636	692.48
998.932	730.9
999.227	704.01
999.523	726.61
999.818	713.27
1000.114	698.13
1000.409	711.46
1000.704	698.81
1001	721.63
1001.295	706.72
1001.59	695.19
1001.885	682.09
1002.18	687.06
1002.475	712.82
1002.77	684.12
1003.065	668.3
1003.359	653.84
1003.654	687.51
1003.949	682.09
1004.243	672.14
1004.538	659.49
1004.832	678.7
1005.127	668.08
1005.421	657
1005.715	663.56
1006.009	650
1006.304	660.17
1006.598	656.55
1006.892	659.49
1007.186	626.72
1007.48	638.47
1007.773	633.27
1008.067	637.12
1008.361	668.98
1008.655	646.83
1008.948	627.17
1009.242	621.07
1009.535	625.14
1009.829	627.4
1010.122	648.19
1010.415	645.03
1010.708	612.03
1011.001	613.61
1011.295	610.68
1011.588	616.78
1011.881	615.2
1012.173	619.26
1012.466	616.33
1012.759	609.09
1013.052	595.31
1013.344	596.44
1013.637	601.86
1013.93	599.6
1014.222	605.48
1014.514	614.52
1014.807	601.18
1015.099	586.5
1015.391	601.86
1015.683	576.55
1015.976	583.78
1016.268	583.56
1016.56	579.72
1016.851	567.97
1017.143	580.17
1017.435	584.46
1017.727	565.71
1018.018	572.26
1018.31	555.54
1018.602	578.81
1018.893	586.5
1019.185	552.82
1019.476	578.81
1019.767	582.43
1020.058	572.48
1020.35	561.86
1020.641	549.89
1020.932	558.02
1021.223	558.7
1021.514	581.07
1021.804	533.62
1022.095	508.53
1022.386	542.66
1022.677	534.75
1022.967	548.08
1023.258	548.98
1023.548	543.79
1023.839	509.89
1024.129	517.35
1024.419	534.29
1024.709	523.22
1025	516.44
1025.29	499.94
1025.58	510.57
1025.87	530.45
1026.16	531.36
1026.449	523.45
1026.739	494.52
1027.029	537.68
1027.319	517.8
1027.608	501.98
1027.898	511.92
1028.187	515.09
1028.477	518.7
1028.766	527.74
1029.055	507.63
1029.344	492.26
1029.634	469.89
1029.923	492.49
1030.212	511.24
1030.501	501.07
1030.79	487.06
1031.078	482.77
1031.367	512.37
1031.656	502.43
1031.945	498.36
1032.233	467.63
1032.522	492.26
1032.81	502.2
1033.099	477.35
1033.387	493.39
1033.675	492.26
1033.963	473.28
1034.251	470.79
1034.54	474.86
1034.828	466.27
1035.116	482.09
1035.403	481.41
1035.691	461.53
1035.979	485.26
1036.267	462.88
1036.554	460.4
1036.842	464.01
1037.129	478.02
1037.417	453.17
1037.704	468.98
1037.992	446.84
1038.279	443.9
1038.566	454.52
1038.853	454.52
1039.14	454.52
