Data from blue_shiny_book_FLMS001491_00038.txt Node
Date: Wed Feb 08 15:26:53 GMT 2017
User: dcchb
Spectrometer: FLMS00149
Trigger mode: 0
Integration Time (sec): 2.000000E-2
Scans to average: 10
Electric dark correction enabled: true
Nonlinearity correction enabled: false
Boxcar width: 0
XAxis mode: Wavelengths
Number of Pixels in Spectrum: 2048
>>>>>Begin Spectral Data<<<<<
341.393	-9.05
341.776	-9.05
342.16	-9.05
342.543	-59.22
342.927	-76.85
343.31	-66.45
343.693	-80.24
344.077	-62.16
344.46	-49.73
344.843	-42.72
345.226	-51.54
345.61	-41.37
345.993	-8.83
346.376	-21.03
346.759	0.66
347.142	38.63
347.525	38.85
347.908	55.8
348.291	69.36
348.674	97.61
349.057	123.15
349.44	127.44
349.823	148.23
350.206	152.75
350.588	202.47
350.971	222.8
351.354	243.82
351.737	246.31
352.119	245.18
352.502	274.55
352.884	273.88
353.267	282.92
353.65	296.7
354.032	315.23
354.414	333.99
354.797	309.36
355.179	324.05
355.562	335.34
355.944	342.35
356.326	345.74
356.709	334.44
357.091	353.87
357.473	358.85
357.855	352.29
358.238	341.67
358.62	338.73
359.002	343.03
359.384	344.84
359.766	339.19
360.148	356.59
360.53	368.56
360.912	341.22
361.294	336.25
361.676	336.02
362.057	332.63
362.439	351.39
362.821	325.85
363.203	341.22
363.584	331.95
363.966	337.6
364.348	338.51
364.729	339.41
365.111	329.47
365.493	334.21
365.874	332.63
366.256	352.29
366.637	348.45
367.019	332.86
367.4	319.75
367.781	321.33
368.163	313.2
368.544	319.07
368.925	347.32
369.306	325.18
369.688	321.79
370.069	338.51
370.45	347.55
370.831	330.6
371.212	342.35
371.593	317.72
371.974	333.54
372.355	334.44
372.736	328.56
373.117	350.03
373.498	346.19
373.879	341.45
374.26	353.42
374.641	329.24
375.021	345.51
375.402	344.61
375.783	339.41
376.163	362.46
376.544	365.4
376.925	355.46
377.305	343.71
377.686	358.17
378.066	358.85
378.447	363.59
378.827	362.69
379.208	350.49
379.588	372.63
379.968	348.45
380.349	362.69
380.729	375.8
381.109	385.06
381.489	364.04
381.87	361.11
382.25	391.16
382.63	380.77
383.01	400.2
383.39	376.47
383.77	391.16
384.15	418.73
384.53	392.97
384.91	420.31
385.29	395.23
385.67	405.62
386.049	399.98
386.429	413.76
386.809	399.52
387.189	434.32
387.568	410.14
387.948	423.03
388.328	435.45
388.707	405.4
389.087	418.96
389.466	435.68
389.846	441.56
390.225	430.93
390.605	437.71
390.984	430.26
391.363	449.92
391.743	449.92
392.122	435.68
392.501	470.48
392.881	467.09
393.26	468.45
393.639	461.89
394.018	479.07
394.397	467.77
394.776	487.2
395.155	477.49
395.534	492.18
395.913	496.7
396.292	517.03
396.671	512.29
397.05	503.25
397.429	526.98
397.808	528.11
398.186	508.45
398.565	521.33
398.944	537.6
399.323	534.21
399.701	526.98
400.08	546.86
400.458	579.86
400.837	567.88
401.215	550.48
401.594	550.25
401.972	587.09
402.351	582.34
402.729	583.7
403.107	582.57
403.486	606.75
403.864	587.99
404.242	613.76
404.62	602.23
404.999	613.53
405.377	625.73
405.755	649.91
406.133	659.4
406.511	637.94
406.889	669.57
407.267	667.09
407.645	686.07
408.023	687.2
408.401	710.25
408.779	679.29
409.156	730.59
409.534	700.53
409.912	734.66
410.29	764.03
410.667	738.27
411.045	746.63
411.422	778.27
411.8	770.59
412.178	781.21
412.555	802.22
412.933	811.26
413.31	828.66
413.687	814.2
414.065	846.29
414.442	850.36
414.819	860.08
415.197	851.71
415.574	887.19
415.951	901.88
416.328	910.7
416.705	919.51
417.082	938.27
417.46	934.65
417.837	970.13
418.214	934.42
418.591	947.76
418.967	961.54
419.344	978.27
419.721	1004.93
420.098	991.37
420.475	1009.9
420.852	997.47
421.228	1071.14
421.605	1054.42
421.982	1051.94
422.358	1069.56
422.735	1070.69
423.111	1109.79
423.488	1100.52
423.864	1136.45
424.241	1136
424.617	1146.4
424.994	1126.06
425.37	1140.07
425.746	1171.93
426.123	1180.52
426.499	1207.41
426.875	1222.55
427.251	1243.79
427.627	1270.46
428.003	1262.55
428.379	1292.61
428.756	1321.08
429.132	1328.09
429.507	1338.03
429.883	1343.91
430.259	1399.05
430.635	1383.68
431.011	1402.43
431.387	1461.19
431.763	1465.94
432.138	1470.46
432.514	1508.19
432.89	1508.42
433.265	1525.37
433.641	1572.83
434.016	1554.07
434.392	1637.23
434.767	1651.92
435.143	1638.81
435.518	1667.74
435.894	1685.14
436.269	1693.27
436.644	1755.42
437.02	1742.76
437.395	1788.41
437.77	1798.13
438.145	1830.67
438.52	1817.34
438.895	1866.6
439.271	1860.5
439.646	1921.07
440.021	1912.7
440.395	1946.83
440.77	1923.55
441.145	1950.22
441.52	1995.19
441.895	2015.75
442.27	2032.47
442.645	2034.96
443.019	2052.36
443.394	2073.83
443.769	2080.16
444.143	2086.48
444.518	2150.21
444.892	2148.18
445.267	2155.64
445.641	2197.22
446.016	2199.48
446.39	2223.43
446.764	2197.89
447.139	2255.52
447.513	2305.46
447.887	2318.34
448.262	2270.21
448.636	2325.35
449.01	2335.07
449.384	2361.51
449.758	2394.5
450.132	2425.68
450.506	2444.22
450.88	2450.54
451.254	2444.22
451.628	2471.56
452.002	2513.82
452.376	2569.18
452.75	2597.88
453.123	2613.48
453.497	2662.51
453.871	2680.59
454.244	2763.53
454.618	2731.21
454.992	2764.43
455.365	2779.12
455.739	2871.55
456.112	2879.23
456.486	2934.82
456.859	2953.13
457.232	3001.04
457.606	3014.14
457.979	3021.83
458.352	3125.1
458.725	3201.71
459.099	3180.02
459.472	3278.09
459.845	3280.13
460.218	3323.74
460.591	3361.03
460.964	3389.95
461.337	3447.8
461.71	3512.89
462.083	3579.1
462.456	3537.07
462.829	3590.85
463.201	3675.6
463.574	3676.95
463.947	3739.32
464.32	3858.87
464.692	3831.98
465.065	3920.11
465.438	3925.98
465.81	4008.24
466.183	4041.01
466.555	4146.09
466.928	4189.71
467.3	4179.76
467.672	4283.49
468.045	4357.61
468.417	4371.85
468.789	4444.84
469.161	4420.66
469.534	4551.05
469.906	4592.86
470.278	4636.02
470.65	4717.38
471.022	4828.56
471.394	4919.86
471.766	5003.02
472.138	5045.5
472.51	5111.94
472.882	5220.64
473.253	5239.17
473.625	5327.53
473.997	5487.75
474.369	5463.12
474.74	5538.37
475.112	5615.88
475.484	5737.69
475.855	5887.29
476.227	5932.71
476.598	6049.09
476.97	6139.94
477.341	6275.75
477.713	6371.57
478.084	6414.96
478.455	6613.82
478.827	6671
479.198	6825.8
479.569	6830.09
479.94	7016.75
480.311	7068.27
480.682	7224.65
481.053	7389.85
481.424	7529.05
481.795	7632.78
482.166	7794.13
482.537	7905.99
482.908	8056.95
483.279	8209.71
483.65	8349.37
484.021	8524.96
484.391	8505.52
484.762	8648.8
485.133	8712.98
485.503	8833.65
485.874	9019.64
486.244	9107.32
486.615	9274.77
486.985	9388.44
487.356	9595.21
487.726	9677.25
488.097	9870.01
488.467	9946.17
488.837	10243.33
489.207	10314.97
489.578	10537.34
489.948	10592.7
490.318	10777.33
490.688	10799.7
491.058	10963.54
491.428	11071.11
491.798	11141.39
492.168	11415.05
492.538	11404.66
492.908	11608.95
493.278	11788.6
493.648	11828.38
494.017	11994.92
494.387	12134.58
494.757	12299.78
495.126	12376.16
495.496	12523.72
495.866	12624.96
496.235	12801.23
496.605	12979.31
496.974	13003.71
497.344	13092.75
497.713	13120.09
498.082	13243.48
498.452	13315.34
498.821	13472.4
499.19	13536.13
499.559	13647.99
499.928	13670.59
500.298	13861.32
500.667	13983.8
501.036	14023.8
501.405	14239.39
501.774	14329.78
502.143	14492.26
502.512	14580.62
502.88	14699.71
503.249	14591.01
503.618	14820.84
503.987	14952.14
504.356	14905.58
504.724	15061.28
505.093	14999.37
505.462	15148.06
505.83	15232.81
506.199	15334.05
506.567	15503.53
506.936	15570.42
507.304	15774.26
507.672	15886.12
508.041	16042.73
508.409	16185.1
508.777	16373.34
509.145	16441.36
509.514	16446.79
509.882	16581.47
510.25	16799.77
510.618	16747.57
510.986	16858.07
511.354	17034.34
511.722	17068.24
512.09	17198.4
512.458	17155.24
512.826	17368.57
513.193	17400.43
513.561	17569.47
513.929	17693.76
514.297	18051.26
514.664	18039.96
515.032	18259.39
515.4	18314.98
515.767	18516.34
516.135	18640.85
516.502	18595.66
516.869	18946.38
517.237	18919.71
517.604	18880.85
517.972	19060.5
518.339	19186.37
518.706	19252.59
519.073	19305.69
519.44	19459.81
519.808	19637.66
520.175	19606.25
520.542	19919.24
520.909	20110.42
521.276	20217.76
521.643	20415.49
522.009	20598.54
522.376	20842.83
522.743	20961.69
523.11	21165.76
523.477	21338.41
523.843	21528.46
524.21	21712.41
524.577	21788.79
524.943	21796.25
525.31	21909.92
525.676	22062.68
526.043	22196.24
526.409	22193.75
526.776	22454.31
527.142	22593.06
527.508	22860.4
527.874	22997.8
528.241	23104.92
528.607	23202.77
528.973	23504
529.339	23550.55
529.705	23883.65
530.071	23960.49
530.437	24216.3
530.803	24452
531.169	24491.55
531.535	24517.08
531.901	24539
532.267	24664.42
532.632	24780.58
532.998	24864.64
533.364	25021.7
533.73	24985.54
534.095	25162.26
534.461	25236.84
534.826	25424.18
535.192	25585.3
535.557	25676.6
535.923	25726.99
536.288	25932.64
536.653	26091.73
537.019	26189.58
537.384	26295.34
537.749	26507.09
538.114	26567.87
538.479	26540.3
538.845	26808.55
539.21	26577.82
539.575	26714.99
539.94	26847.87
540.305	26905.72
540.67	26813.29
541.034	26884.93
541.399	26996.56
541.764	27057.58
542.129	27069.33
542.494	27341.19
542.858	27409.21
543.223	27441.52
543.587	27769.65
543.952	27679.26
544.316	27886.03
544.681	27975.07
545.045	28121.05
545.41	28304.1
545.774	28400.14
546.138	28335.06
546.503	28362.63
546.867	28333.25
547.231	28560.59
547.595	28570.31
547.959	28600.82
548.324	28614.6
548.688	28582.51
549.052	28674.94
549.416	28659.57
549.779	28729.85
550.143	28756.74
550.507	28951.32
550.871	29012.56
551.235	29049.84
551.599	29272.44
551.962	29381.13
552.326	29547.91
552.689	29786.55
553.053	29759.43
553.417	29770.5
553.78	30307.21
554.143	30128.69
554.507	30184.73
554.87	30204.39
555.234	30530.71
555.597	30309.92
555.96	30451.61
556.323	30494.33
556.686	30413.65
557.05	30664.49
557.413	30743.81
557.776	30745.39
558.139	30848.89
558.502	30984.26
558.865	30979.28
559.228	31185.83
559.59	31188.54
559.953	31343.12
560.316	31662.88
560.679	31717.34
561.041	31957.56
561.404	32168.86
561.767	32260.83
562.129	32249.99
562.492	32607.26
562.854	32439.13
563.217	32496.53
563.579	32584.89
563.941	32803.64
564.304	32739.24
564.666	33030.3
565.028	32903.53
565.39	33047.7
565.753	33225.78
566.115	33308.94
566.477	33476.17
566.839	33366.57
567.201	33597.07
567.563	33663.73
567.925	33943.05
568.287	34124.06
568.648	34214.23
569.01	34262.36
569.372	34572.41
569.734	34373.09
570.095	34720.43
570.457	34846.53
570.819	35083.58
571.18	34921.78
571.542	35182.56
571.903	35231.83
572.265	35291.71
572.626	35288.32
572.987	35313.86
573.349	35531.93
573.71	35592.95
574.071	35670.91
574.432	35699.84
574.794	35766.05
575.155	35809.44
575.516	35713.85
575.877	35936.89
576.238	36010.34
576.599	36215.53
576.96	36208.53
577.32	36250.33
577.681	36552.47
578.042	36577.33
578.403	36838.57
578.763	36705.46
579.124	36875.17
579.485	37077.66
579.845	37100.93
580.206	36990.43
580.566	37130.31
580.927	37112.46
581.287	37148.16
581.648	37127.6
582.008	37298.89
582.368	37189.29
582.728	37124.89
583.089	37067.26
583.449	37105.45
583.809	37029.07
584.169	37268.84
584.529	37108.16
584.889	37354.03
585.249	37119.01
585.609	37234.94
585.969	37396.52
586.329	37140.93
586.688	37369.62
587.048	37268.16
587.408	37455.72
587.768	37497.31
588.127	37623.86
588.487	37624.53
588.846	37821.14
589.206	37566.91
589.565	37581.37
589.925	37620.47
590.284	37485.1
590.643	37741.37
591.003	37739.33
591.362	37676.06
591.721	37678.09
592.08	37665.89
592.44	37719.67
592.799	37726.9
593.158	37620.01
593.517	37728.03
593.876	37813.68
594.235	37730.29
594.593	37734.13
594.952	37867.92
595.311	37606
595.67	37807.13
596.029	37947.01
596.387	37998.76
596.746	38217.96
597.104	37965.99
597.463	38053.45
597.822	38297.74
598.18	38190.17
598.538	38176.16
598.897	38384.97
599.255	38016.84
599.613	38586.54
599.972	38195.37
600.33	38415.02
600.688	38342.03
601.046	38463.38
601.404	38443.95
601.762	38261.58
602.12	38633.09
602.478	38388.36
602.836	38495.24
603.194	38371.41
603.552	38424.06
603.91	38285.53
604.268	38541.8
604.625	38337.06
604.983	38420.67
605.341	38304.06
605.698	38584.96
606.056	38732.53
606.413	38655.01
606.771	38782.69
607.128	38790.6
607.485	38624.96
607.843	38866.99
608.2	39005.06
608.557	39093.2
608.914	39007.77
609.272	39198.5
609.629	39251.84
609.986	39318.95
610.343	39172.29
610.7	39387.42
611.057	39231.5
611.414	39354.88
611.771	39327.77
612.127	39347.2
612.484	39344.26
612.841	39463.81
613.198	39276.24
613.554	39329.35
613.911	39612.5
614.267	39536.35
614.624	39464.03
614.98	39500.64
615.337	39854.08
615.693	39530.02
616.05	39592.84
616.406	39976.34
616.762	39820.63
617.118	39781.54
617.475	39761.2
617.831	39978.82
618.187	40186.95
618.543	40233.5
618.899	40228.76
619.255	40255.65
619.611	40189.21
619.967	40281.86
620.323	40380.62
620.678	40203.67
621.034	40158.48
621.39	40195.54
621.746	40014.75
622.101	40516.66
622.457	40136.78
622.812	40150.12
623.168	40318.02
623.523	40163
623.879	40373.16
624.234	40115.77
624.589	40207.74
624.945	40382.88
625.3	40381.75
625.655	40237.12
626.01	40300.85
626.365	40388.53
626.72	40101.98
627.075	40352.82
627.43	40239.83
627.785	40261.75
628.14	40110.8
628.495	40282.32
628.85	40251.58
629.205	40173.62
629.559	40369.09
629.914	40306.5
630.269	40295.42
630.623	40290.23
630.978	40139.27
631.332	40339.72
631.687	40397.79
632.041	40151.92
632.396	40237.57
632.75	39927.75
633.104	40004.58
633.459	39947.41
633.813	39882.1
634.167	39753.52
634.521	39546.06
634.875	39623.35
635.229	39691.6
635.583	39473.07
635.937	39620.41
636.291	39570.92
636.645	39502.45
636.999	39452.51
637.352	39467.87
637.706	39353.75
638.06	39534.99
638.413	39381.32
638.767	39286.18
639.121	39297.94
639.474	38950.37
639.828	39073.76
640.181	39101.78
640.534	39005.97
640.888	39131.61
641.241	38941.33
641.594	39206.64
641.947	39290.03
642.301	39146.98
642.654	39184.72
643.007	39000.09
643.36	39040.09
643.713	39018.39
644.066	39031.73
644.419	38812.07
644.771	38731.4
645.124	38614.11
645.477	38596.03
645.83	38198.98
646.182	37924.64
646.535	37526.46
646.888	37447.81
647.24	37048.73
647.593	37145.22
647.945	36889.86
648.298	36823.42
648.65	36888.96
649.002	36776.42
649.355	37029.07
649.707	37171.66
650.059	37448.04
650.411	38041.25
650.763	38112.2
651.115	38369.37
651.467	38169.38
651.819	38068.59
652.171	38048.02
652.523	38069.95
652.875	38144.52
653.227	37920.34
653.578	38275.59
653.93	38078.31
654.282	37959.44
654.633	37644.19
654.985	37740.01
655.337	37876.28
655.688	37714.93
656.039	37933.23
656.391	37725.1
656.742	37631.54
657.094	37742.27
657.445	37831.08
657.796	37688.49
658.147	37672.89
658.498	37600.35
658.849	37540.47
659.2	37466.8
659.551	37371.88
659.902	37602.16
660.253	37453.46
660.604	37550.18
660.955	37489.85
661.306	37473.8
661.656	37460.47
662.007	37469.96
662.358	37528.04
662.708	37475.38
663.059	37409.62
663.409	37442.39
663.76	37615.49
664.11	37508.83
664.461	37570.75
664.811	37460.47
665.161	37554.48
665.511	37370.75
665.862	37560.81
666.212	37642.61
666.562	37621.37
666.912	37606.68
667.262	37439.23
667.612	37599.68
667.962	37568.49
668.312	37384.99
668.662	37381.38
669.011	37422.73
669.361	37343.41
669.711	37263.64
670.06	37168.27
670.41	37060.71
670.76	36945.68
671.109	37040.14
671.459	36954.95
671.808	36838.57
672.157	37080.14
672.507	36799.92
672.856	36752.47
673.205	36763.09
673.554	36996.53
673.904	36731.68
674.253	36982.74
674.602	36956.08
674.951	36232.25
675.3	36122.43
675.649	36824.55
675.998	36785.01
676.346	36770.54
676.695	36916.3
677.044	36642.19
677.393	36804.22
677.741	36730.77
678.09	36625.69
678.438	36427.28
678.787	36468.41
679.135	36697.78
679.484	36201.07
679.832	36514.96
680.181	36243.55
680.529	36352.7
680.877	36169.2
681.225	36224.12
681.573	36348.86
681.922	35937.57
682.27	35700.52
682.618	35877.01
682.966	35775.54
683.314	35742.32
683.661	35548.43
684.009	35439.05
684.357	35273.18
684.705	35198.16
685.053	35201.55
685.4	35230.92
685.748	35069.57
686.095	35009.23
686.443	35048.33
686.79	35153.64
687.138	35125.62
687.485	34993.87
687.832	34940.99
688.18	34911.38
688.527	34671.62
688.874	34705.51
689.221	34710.26
689.568	34566.08
689.915	34435.46
690.262	34504.39
690.609	34512.75
690.956	34299.42
691.303	34253.55
691.65	34030.5
691.997	34075.02
692.344	33802.94
692.69	33757.52
693.037	33622.38
693.383	33271.2
693.73	33404.98
694.077	33364.98
694.423	33076.63
694.769	33097.65
695.116	32897.88
695.462	32855.39
695.808	32814.04
696.155	32847.94
696.501	32596.19
696.847	32638.68
697.193	32224
697.539	32633.03
697.885	32195.07
698.231	32193.94
698.577	32150.55
698.923	32078.69
699.269	31962.99
699.614	31828.08
699.96	31661.53
700.306	31788.08
700.651	31677.57
700.997	31424.47
701.342	31431.02
701.688	31330.91
702.033	31303.8
702.379	31240.75
702.724	31223.35
703.069	31372.95
703.415	30977.48
703.76	30885.28
704.105	30804.37
704.45	30741.32
704.795	30559.41
705.14	30560.76
705.485	30478.05
705.83	30299.98
706.175	30306.31
706.52	30258.85
706.865	30057.5
707.209	29941.12
707.554	30008.24
707.899	29820.67
708.243	29661.58
708.588	29683.5
708.932	29513.33
709.277	29523.28
709.621	29533.22
709.966	29413.9
710.31	29405.31
710.654	29121.93
710.998	29258.65
711.342	29131.42
711.687	28989.96
712.031	29021.82
712.375	28815.5
712.719	28941.15
713.063	28869.96
713.407	28986.79
713.75	28747.7
714.094	28834.93
714.438	28663.86
714.782	28650.08
715.125	28674.26
715.469	28695.28
715.812	28458.22
716.156	28368.73
716.499	28351.78
716.843	28401.05
717.186	28320.82
717.53	28401.05
717.873	28380.71
718.216	28148.4
718.559	28137.33
718.902	27928.74
719.246	28037.21
719.589	27929.2
719.932	27846.49
720.275	27879.48
720.617	27696.88
720.96	27768.75
721.303	27584.35
721.646	27721.97
721.989	27582.31
722.331	27553.61
722.674	27585.48
723.016	27518.58
723.359	27566.49
723.701	27479.49
724.044	27328.08
724.386	27254.18
724.729	27388.19
725.071	27248.53
725.413	27198.82
725.755	27321.08
726.097	27197.69
726.439	27063.68
726.782	27105.26
727.124	27153.85
727.465	26900.07
727.807	26970.12
728.149	26937.58
728.491	26892.39
728.833	27008.09
729.175	26880.41
729.516	26869.56
729.858	26993.63
730.199	26970.58
730.541	27041.08
730.882	26858.26
731.224	27096.45
731.565	26859.17
731.906	26836.79
732.248	26906.4
732.589	26640.19
732.93	26794.08
733.271	26785.04
733.612	26821.2
733.953	26793.41
734.294	26689.68
734.635	26535.79
734.976	26640.64
735.317	26391.16
735.658	26587.08
735.999	26596.8
736.339	26741.88
736.68	26774.2
737.021	26456.47
737.361	26417.37
737.702	26468.22
738.042	26562.23
738.383	26418.95
738.723	26571.72
739.063	26412.62
739.404	26598.83
739.744	26430.7
740.084	26473.19
740.424	26488.55
740.764	26459.63
741.104	26536.01
741.444	26391.38
741.784	26536.69
742.124	26474.54
742.464	26444.94
742.804	26437.03
743.143	26469.57
743.483	26387.99
743.823	26461.66
744.162	26567.87
744.502	26680.64
744.841	26511.83
745.181	26624.37
745.52	26505.5
745.86	26710.92
746.199	26756.34
746.538	26720.64
746.877	26711.15
747.216	26803.35
747.556	26769.9
747.895	26773.52
748.234	26649.68
748.573	26641.09
748.911	26792.5
749.25	26663.01
749.589	26773.07
749.928	26802.22
750.267	26762.9
750.605	26819.62
750.944	26826.4
751.283	26824.37
751.621	26881.31
751.96	26773.29
752.298	26574.65
752.636	26817.36
752.975	26757.02
753.313	26771.49
753.651	26968.77
753.989	26783.01
754.327	26825.72
754.666	26628.44
755.004	26674.09
755.342	26944.36
755.679	26849
756.017	26714.76
756.355	26845.83
756.693	26760.64
757.031	26888.32
757.368	26720.87
757.706	26893.74
758.044	26859.39
758.381	26805.83
758.719	26845.38
759.056	26874.08
759.394	26902.1
759.731	26766.51
760.068	26796.8
760.405	26764.03
760.743	26763.35
761.08	26943.91
761.417	26814.87
761.754	26894.65
762.091	26792.05
762.428	26757.25
762.765	26728.1
763.102	26755.89
763.438	26707.98
763.775	26514.99
764.112	26588.44
764.449	26676.35
764.785	26432.06
765.122	26503.02
765.458	26364.04
765.795	26403.36
766.131	26417.37
766.467	26371.04
766.804	26301.67
767.14	26196.13
767.476	26279.07
767.812	26089.92
768.148	26254.21
768.485	26100.32
768.821	25938.51
769.157	25966.99
769.492	25787.78
769.828	25834.56
770.164	25733.32
770.5	25643.61
770.836	25658.07
771.171	25478.86
771.507	25457.62
771.842	25288.36
772.178	25340.56
772.513	25344.86
772.849	25269.38
773.184	25171.53
773.519	25107.35
773.855	25043.62
774.19	24918.65
774.525	24826.23
774.86	24941.48
775.195	24894.92
775.53	24757.08
775.865	24706
776.2	24636.63
776.535	24555.05
776.87	24555.05
777.205	24506.46
777.539	24380.81
777.874	24382.62
778.209	24155.51
778.543	24148.96
778.878	23965.23
779.212	24033.7
779.547	23870.54
779.881	23901.5
780.215	23752.58
780.55	23783.32
780.884	23678.23
781.218	23582.42
781.552	23613.15
781.886	23361.63
782.22	23291.58
782.554	23189.66
782.888	22967.52
783.222	22987.4
783.556	22889.55
783.889	22813.85
784.223	22724.36
784.557	22621.76
784.89	22628.32
785.224	22497.25
785.557	22395.1
785.891	22399.85
786.224	22256.8
786.558	22215.67
786.891	22058.61
787.224	21982.68
787.557	21970.03
787.891	22033.3
788.224	21964.61
788.557	21889.81
788.89	21789.02
789.223	21789.02
789.556	21648.46
789.888	21637.38
790.221	21382.47
790.554	21311.97
790.887	21325.53
791.219	21337.28
791.552	21125.31
791.884	21132.31
792.217	20969.6
792.549	20882.37
792.882	20796.95
793.214	20786.11
793.546	20877.63
793.879	20779.55
794.211	20599.67
794.543	20760.34
794.875	20481.48
795.207	20621.36
795.539	20433.8
795.871	20389.73
796.203	20166.46
796.535	20134.37
796.867	20187.93
797.198	20132.11
797.53	20212.56
797.862	19999.69
798.193	19985
798.525	19853.48
798.856	19917.2
799.188	19781.84
799.519	19725.34
799.85	19653.48
800.182	19611.67
800.513	19623.42
800.844	19386.37
801.175	19493.48
801.506	19398.12
801.837	19255.75
802.168	19240.38
802.499	19183.66
802.83	19106.15
803.161	19047.17
803.491	19068.19
803.822	18988.19
804.153	18917.68
804.483	18831.58
804.814	18684.24
805.145	18608.54
805.475	18618.93
805.805	18605.37
806.136	18545.71
806.466	18528.54
806.796	18432.27
807.126	18353.18
807.457	18333.29
807.787	18332.84
808.117	18189.79
808.447	18157.02
808.777	18244.25
809.107	18021.66
809.436	17990.02
809.766	17963.58
810.096	17921.77
810.426	17901.21
810.755	17853.75
811.085	17931.72
811.414	17847.88
811.744	17625.06
812.073	17649.92
812.403	17676.36
812.732	17579.86
813.061	17507.55
813.39	17528.11
813.719	17449.92
814.049	17576.47
814.378	17431.84
814.707	17356.37
815.036	17418.74
815.365	17338.06
815.693	17243.83
816.022	17247.89
816.351	17148.01
816.68	17046.09
817.008	17114.11
817.337	16990.27
817.665	16910.5
817.994	16967.22
818.322	16858.75
818.651	16864.18
818.979	16782.37
819.307	16747.34
819.636	16713.44
819.964	16708.25
820.292	16665.76
820.62	16625.54
820.948	16625.76
821.276	16676.84
821.604	16549.16
821.932	16597.97
822.259	16642.26
822.587	16616.27
822.915	16486.78
823.243	16597.52
823.57	16528.59
823.898	16551.19
824.225	16472.77
824.553	16489.04
824.88	16564.52
825.207	16585.76
825.535	16408.14
825.862	16532.66
826.189	16478.65
826.516	16566.1
826.843	16567.01
827.17	16551.87
827.497	16537.63
827.824	16450.4
828.151	16545.31
828.478	16419.67
828.805	16576.73
829.131	16440.91
829.458	16456.28
829.785	16372.21
830.111	16441.59
830.438	16514.35
830.764	16435.26
831.09	16487.91
831.417	16425.77
831.743	16538.08
832.069	16561.13
832.395	16383.74
832.722	16494.02
833.048	16512.32
833.374	16468.25
833.7	16344.19
834.026	16457.41
834.351	16509.83
834.677	16546.44
835.003	16526.11
835.329	16519.55
835.654	16348.48
835.98	16171.09
836.306	16302.38
836.631	16249.05
836.956	16329.73
837.282	16269.16
837.607	16195.49
837.932	16188.71
838.258	16103.74
838.583	16091.77
838.908	15994.82
839.233	16057.42
839.558	15947.59
839.883	15956.4
840.208	15929.51
840.533	15835.95
840.858	15825.78
841.182	15851.55
841.507	15893.35
841.832	15649.97
842.156	15702.17
842.481	15621.5
842.805	15643.42
843.13	15533.81
843.454	15470.09
843.778	15498.34
844.103	15531.78
844.427	15375.63
844.751	15334.05
845.075	15363.65
845.399	15351.9
845.723	15123.43
846.047	15173.37
846.371	15048.4
846.695	15106.48
847.019	14984
847.343	14924.34
847.666	14824
847.99	14730.45
848.313	14795.76
848.637	14780.61
848.96	14747.17
849.284	14614.97
849.607	14522.77
849.931	14534.07
850.254	14474.41
850.577	14356.67
850.9	14288.42
851.223	14236.22
851.546	14127.07
851.869	14125.49
852.192	14243.68
852.515	14026.51
852.838	14047.98
853.161	13939.05
853.483	13976.34
853.806	13894.99
854.129	13921.88
854.451	13810.47
854.774	13743.81
855.096	13586.52
855.419	13639.63
855.741	13612.28
856.063	13497.03
856.385	13544.49
856.708	13440.31
857.03	13409.12
857.352	13433.3
857.674	13355.79
857.996	13332.74
858.318	13305.4
858.64	13334.78
858.961	13212.52
859.283	13106.31
859.605	13011.85
859.926	13165.52
860.248	13148.57
860.57	12906.31
860.891	13043.03
861.212	12955.13
861.534	12905.86
861.855	12841.46
862.176	12856.6
862.498	12820.89
862.819	12834.45
863.14	12723.27
863.461	12747.9
863.782	12748.35
864.103	12684.17
864.424	12695.7
864.745	12710.61
865.065	12647.34
865.386	12588.58
865.707	12576.15
866.027	12521.69
866.348	12509.71
866.668	12519.2
866.989	12472.43
867.309	12474.91
867.63	12424.74
867.95	12431.3
868.27	12321.92
868.59	12387.91
868.91	12391.52
869.23	12292.54
869.55	12283.96
869.87	12330.28
870.19	12343.62
870.51	12271.98
870.83	12238.99
871.15	12210.96
871.469	12196.95
871.789	12288.7
872.109	12175.71
872.428	12046.22
872.748	12174.36
873.067	12100.01
873.386	12086.22
873.706	12116.28
874.025	12081.93
874.344	12089.16
874.663	12123.51
874.982	11916.51
875.301	12016.17
875.62	11962.38
875.939	11939.11
876.258	11884.42
876.577	11911.99
876.896	11891.88
877.214	11879.9
877.533	11975.04
877.852	11925.55
878.17	11871.54
878.489	11811.65
878.807	11884.42
879.125	11760.58
879.444	11687.14
879.762	11767.36
880.08	11741.37
880.398	11629.74
880.716	11638.78
881.034	11553.58
881.352	11550.64
881.67	11552.68
881.988	11464.54
882.306	11474.71
882.624	11499.12
882.941	11392.23
883.259	11439.46
883.577	11354.49
883.894	11400.14
884.212	11319.46
884.529	11327.82
884.846	11222.97
885.164	11261.84
885.481	11156.08
885.798	11130.99
886.115	11100.94
886.432	11098.23
886.75	11128.28
887.067	11087.83
887.383	11049.19
887.7	11008.28
888.017	10969.87
888.334	10973.71
888.651	10957.66
888.967	10914.5
889.284	10895.97
889.6	10832.92
889.917	10833.6
890.233	10842.64
890.55	10837.67
890.866	10747.95
891.182	10748.4
891.498	10702.98
891.815	10629.76
892.131	10678.35
892.447	10613.04
892.763	10598.8
893.079	10573.27
893.395	10493.27
893.71	10553.38
894.026	10485.59
894.342	10456.43
894.657	10426.6
894.973	10406.94
895.289	10442.2
895.604	10418.69
895.92	10254.41
896.235	10233.39
896.55	10285.37
896.865	10228.87
897.181	10246.95
897.496	10204.69
897.811	10130.11
898.126	10103.45
898.441	10044.47
898.756	10052.38
899.071	10002.89
899.386	9945.49
899.7	9840.41
900.015	9862.1
900.33	9824.81
900.644	9801.54
900.959	9807.19
901.273	9698.49
901.588	9739.16
901.902	9600.19
902.216	9674.53
902.531	9536.68
902.845	9558.38
903.159	9491.71
903.473	9505.72
903.787	9486.52
904.101	9326.29
904.415	9395.67
904.729	9387.99
905.042	9232.51
905.356	9215.34
905.67	9176.69
905.984	9205.39
906.297	9172.63
906.611	9088.11
906.924	9083.81
907.237	9035.68
907.551	8991.39
907.864	8875.91
908.177	8847.89
908.491	8808.34
908.804	8821.9
909.117	8791.62
909.43	8743.71
909.743	8738.51
910.056	8687.89
910.368	8655.35
910.681	8637.05
910.994	8542.59
911.307	8496.71
911.619	8484.28
911.932	8512.08
912.244	8421.01
912.557	8475.02
912.869	8396.6
913.181	8324.96
913.494	8331.07
913.806	8384.85
914.118	8246.1
914.43	8210.84
914.742	8239.32
915.054	8204.29
915.366	8157.06
915.678	8192.09
915.99	8112.54
916.302	8036.38
916.613	7981.47
916.925	8029.38
917.236	8036.61
917.548	7947.57
917.859	7915.48
918.171	7875.03
918.482	7842.94
918.794	7864.41
919.105	7805.2
919.416	7741.48
919.727	7754.13
920.038	7642.95
920.349	7621.25
920.66	7600.69
920.971	7609.5
921.282	7601.59
921.593	7569.05
921.903	7527.7
922.214	7472.33
922.525	7461.71
922.835	7442.05
923.146	7373.8
923.456	7387.36
923.767	7339
924.077	7349.17
924.387	7259
924.697	7195.28
925.008	7181.49
925.318	7105.11
925.628	7167.71
925.938	7087.48
926.248	7031.44
926.558	7059.69
926.867	7000.48
927.177	6963.87
927.487	6937.88
927.796	6874.38
928.106	6886.36
928.416	6851.78
928.725	6804.33
929.034	6726.59
929.344	6710.54
929.653	6725.01
929.962	6738.79
930.271	6657.21
930.581	6563.43
930.89	6600.26
931.199	6509.19
931.508	6540.83
931.817	6500.15
932.125	6449.31
932.434	6549.42
932.743	6406.15
933.051	6425.13
933.36	6333.38
933.669	6319.14
933.977	6287.5
934.286	6295.64
934.594	6281.4
934.902	6207.05
935.21	6230.56
935.519	6207.28
935.827	6088.64
936.135	6136.55
936.443	6111.69
936.751	6094.74
937.059	6081.63
937.367	6066.04
937.674	6032.6
937.982	6023.1
938.29	6024.69
938.597	6010
938.905	5981.98
939.213	5913.95
939.52	5887.29
939.827	5910.11
940.135	5866.5
940.442	5850
940.749	5792.6
941.056	5798.48
941.363	5810.68
941.67	5698.37
941.977	5725.03
942.284	5717.35
942.591	5696.11
942.898	5638.26
943.205	5625.37
943.511	5596
943.818	5580.63
944.125	5513.06
944.431	5509.22
944.738	5503.34
945.044	5440.52
945.35	5450.69
945.657	5400.52
945.963	5378.83
946.269	5394.87
946.575	5427.64
946.881	5332.28
947.187	5329.79
947.493	5273.52
947.799	5263.35
948.105	5236.91
948.41	5248.89
948.716	5225.39
949.022	5141.77
949.327	5156.01
949.633	5099.06
949.938	5119.63
950.244	5088.44
950.549	4993.98
950.854	5007.99
951.16	5024.03
951.465	5003.24
951.77	4975.45
952.075	4952.85
952.38	4879.18
952.685	4894.55
952.99	4868.78
953.294	4827.88
953.599	4811.16
953.904	4797.6
954.209	4783.59
954.513	4762.12
954.818	4712.86
955.122	4728.68
955.426	4697.26
955.731	4675.34
956.035	4655
956.339	4690.26
956.643	4619.53
956.948	4619.3
957.252	4564.16
957.556	4538.17
957.86	4545.63
958.163	4510.83
958.467	4486.2
958.771	4471.51
959.075	4485.52
959.378	4418.85
959.682	4450.94
959.985	4439.42
960.289	4392.86
960.592	4360.78
960.896	4351.96
961.199	4312.87
961.502	4368.91
961.805	4325.97
962.108	4294.79
962.411	4329.36
962.714	4264.73
963.017	4300.21
963.32	4274.45
963.623	4234
963.926	4254.34
964.228	4213.66
964.531	4140.44
964.833	4162.14
965.136	4162.14
965.438	4119.65
965.741	4098.86
966.043	4070.84
966.345	4031.29
966.648	4093.89
966.95	4050.27
967.252	3999.65
967.554	3992.42
967.856	3989.03
968.158	3999.43
968.46	3962.59
968.761	3944.74
969.063	3948.13
969.365	3928.7
969.666	3889.15
969.968	3864.07
970.269	3845.31
970.571	3839.66
970.872	3821.58
971.174	3815.93
971.475	3795.59
971.776	3780.23
972.077	3797.4
972.378	3783.39
972.679	3714.69
972.98	3741.58
973.281	3716.95
973.582	3700
973.883	3685.31
974.183	3649.38
974.484	3661.58
974.785	3640.79
975.085	3590.4
975.386	3574.13
975.686	3572.1
975.986	3518.09
976.287	3539.78
976.587	3486
976.887	3487.58
977.187	3443.29
977.487	3477.41
977.787	3415.04
978.087	3428.82
978.387	3383.63
978.687	3443.51
978.987	3330.52
979.286	3373.46
979.586	3334.36
979.885	3303.4
980.185	3276.51
980.484	3260.69
980.784	3262.5
981.083	3294.81
981.382	3224.08
981.682	3255.27
981.981	3224.53
982.28	3175.5
982.579	3182.28
982.878	3189.96
983.177	3179.79
983.475	3145.89
983.774	3102.05
984.073	3121.71
984.372	3111.99
984.67	3095.5
984.969	3107.02
985.267	3081.03
985.566	3079.45
985.864	3013.47
986.162	3058.21
986.461	3023.18
986.759	3033.35
987.057	2978.89
987.355	2981.83
987.653	2956.97
987.951	2961.72
988.249	2969.85
988.547	2967.82
988.844	2946.58
989.142	2917.2
989.44	2877.88
989.737	2872.9
990.035	2889.18
990.332	2858.89
990.63	2862.51
990.927	2861.38
991.224	2846.24
991.521	2803.3
991.819	2785.22
992.116	2826.8
992.413	2814.38
992.71	2771.66
993.006	2750.42
993.303	2767.82
993.6	2765.34
993.897	2734.6
994.193	2688.73
994.49	2659.35
994.787	2668.62
995.083	2688.28
995.379	2627.94
995.676	2660.48
995.972	2625.91
996.268	2625
996.565	2603.31
996.861	2585.23
997.157	2538.68
997.453	2551.56
997.749	2551.33
998.044	2501.16
998.34	2477.89
998.636	2483.54
998.932	2486.02
999.227	2469.07
999.523	2457.77
999.818	2454.61
1000.114	2429.75
1000.409	2445.12
1000.704	2416.65
1001	2406.93
1001.295	2396.76
1001.59	2413.03
1001.885	2363.99
1002.18	2372.35
1002.475	2332.13
1002.77	2360.38
1003.065	2312.92
1003.359	2312.24
1003.654	2298.23
1003.949	2266.82
1004.243	2249.42
1004.538	2233.15
1004.832	2224.11
1005.127	2206.48
1005.421	2193.6
1005.715	2190.89
1006.009	2192.02
1006.304	2154.73
1006.598	2148.18
1006.892	2144.56
1007.186	2131
1007.48	2126.26
1007.773	2095.3
1008.067	2102.53
1008.361	2062.3
1008.655	2065.02
1008.948	2028.86
1009.242	2069.54
1009.535	2060.27
1009.829	2039.25
1010.122	2027.73
1010.415	2047.84
1010.708	2010.78
1011.001	1990.44
1011.295	1960.39
1011.588	1963.78
1011.881	1917.9
1012.173	1920.16
1012.466	1930.33
1012.759	1937.11
1013.052	1913.83
1013.344	1906.38
1013.637	1906.6
1013.93	1912.48
1014.222	1895.08
1014.514	1865.7
1014.807	1859.15
1015.099	1836.77
1015.391	1828.64
1015.683	1835.42
1015.976	1798.58
1016.268	1805.59
1016.56	1759.71
1016.851	1752.93
1017.143	1762.65
1017.435	1733.5
1017.727	1733.5
1018.018	1735.53
1018.31	1731.69
1018.602	1728.75
1018.893	1695.76
1019.185	1714.52
1019.476	1668.19
1019.767	1676.78
1020.058	1678.36
1020.35	1668.19
1020.641	1645.14
1020.932	1647.17
1021.223	1618.93
1021.514	1600.85
1021.804	1622.09
1022.095	1597.01
1022.386	1597.91
1022.677	1575.09
1022.967	1574.86
1023.258	1558.36
1023.548	1539.83
1023.839	1533.5
1024.129	1517.69
1024.419	1508.19
1024.709	1524.47
1025	1486.73
1025.29	1495.99
1025.58	1477.46
1025.87	1468.87
1026.16	1471.13
1026.449	1442.66
1026.739	1428.65
1027.029	1441.76
1027.319	1438.14
1027.608	1405.15
1027.898	1416.45
1028.187	1391.36
1028.477	1376.45
1028.766	1371.48
1029.055	1374.86
1029.344	1371.7
1029.634	1334.41
1029.923	1327.41
1030.212	1336.22
1030.501	1320.18
1030.79	1313.85
1031.078	1279.95
1031.367	1281.53
1031.656	1276.79
1031.945	1282.66
1032.233	1235.89
1032.522	1247.86
1032.81	1255.09
1033.099	1232.95
1033.387	1219.39
1033.675	1203.12
1033.963	1200.86
1034.251	1193.17
1034.54	1186.17
1034.828	1207.86
1035.116	1180.75
1035.403	1156.79
1035.691	1162.67
1035.979	1186.4
1036.267	1131.26
1036.554	1125.15
1036.842	1154.08
1037.129	1147.98
1037.417	1129.67
1037.704	1121.09
1037.992	1107.3
1038.279	1099.62
1038.566	1088.32
1038.853	1088.32
1039.14	1088.32
