Data from blue_clamp_base_FLMS001491_00027.txt Node
Date: Wed Feb 08 15:15:46 GMT 2017
User: dcchb
Spectrometer: FLMS00149
Trigger mode: 0
Integration Time (sec): 2.000000E-2
Scans to average: 10
Electric dark correction enabled: true
Nonlinearity correction enabled: false
Boxcar width: 0
XAxis mode: Wavelengths
Number of Pixels in Spectrum: 2048
>>>>>Begin Spectral Data<<<<<
341.393	-8.43
341.776	-8.43
342.16	-8.43
342.543	-44.82
342.927	-76.9
343.31	-81.42
343.693	-64.93
344.077	-63.35
344.46	-54.76
344.843	-46.17
345.226	-44.36
345.61	-50.46
345.993	-9.79
346.376	-20.86
346.759	20.49
347.142	44.67
347.525	31.57
347.908	75.63
348.291	67.72
348.674	87.84
349.057	108.18
349.44	127.84
349.823	135.75
350.206	166.25
350.588	197.66
350.971	207.16
351.354	228.85
351.737	226.36
352.119	244.67
352.502	260.26
352.884	271.56
353.267	264.1
353.65	296.42
354.032	278.57
354.414	304.78
354.797	293.71
355.179	307.72
355.562	326.02
355.944	316.31
356.326	317.66
356.709	333.03
357.091	338.68
357.473	321.28
357.855	337.55
358.238	325.34
358.62	343.2
359.002	327.38
359.384	345.68
359.766	353.59
360.148	328.28
360.53	340.71
360.912	322.41
361.294	318.57
361.676	342.52
362.057	329.86
362.439	326.93
362.821	328.96
363.203	309.53
363.584	318.79
363.966	297.77
364.348	322.18
364.729	307.72
365.111	303.42
365.493	292.58
365.874	305.46
366.256	322.18
366.637	297.55
367.019	309.75
367.4	304.33
367.781	301.39
368.163	297.77
368.544	301.39
368.925	323.08
369.306	321.73
369.688	298
370.069	298.68
370.45	300.26
370.831	303.42
371.212	315.4
371.593	289.64
371.974	310.88
372.355	309.53
372.736	290.09
373.117	318.34
373.498	305.68
373.879	302.97
374.26	309.98
374.641	305.68
375.021	306.81
375.402	302.97
375.783	304.33
376.163	321.95
376.544	323.31
376.925	327.38
377.305	302.29
377.686	305.91
378.066	325.57
378.447	297.32
378.827	320.6
379.208	306.81
379.588	326.25
379.968	327.38
380.349	321.05
380.729	319.47
381.109	342.52
381.489	329.64
381.87	333.25
382.25	330.54
382.63	349.52
383.01	326.7
383.39	326.02
383.77	329.19
384.15	335.74
384.53	321.05
384.91	347.49
385.29	342.52
385.67	340.94
386.049	340.94
386.429	341.62
386.809	328.96
387.189	344.1
387.568	349.07
387.948	342.52
388.328	339.36
388.707	349.52
389.087	367.38
389.466	358.11
389.846	364.21
390.225	354.04
390.605	354.5
390.984	351.56
391.363	365.8
391.743	350.65
392.122	358.34
392.501	371.45
392.881	387.72
393.26	398.34
393.639	413.93
394.018	407.15
394.397	387.49
394.776	389.07
395.155	397.89
395.534	391.33
395.913	408.28
396.292	393.59
396.671	424.1
397.05	421.61
397.429	417.55
397.808	421.39
398.186	401.05
398.565	418.22
398.944	405.34
399.323	429.3
399.701	427.94
400.08	431.33
400.458	427.94
400.837	451.22
401.215	452.8
401.594	455.74
401.972	464.55
402.351	442.86
402.729	462.74
403.107	467.26
403.486	470.2
403.864	494.61
404.242	474.72
404.62	496.87
404.999	470.65
405.377	486.92
405.755	486.7
406.133	503.42
406.511	501.84
406.889	514.04
407.267	508.16
407.645	512.23
408.023	550.2
408.401	555.62
408.779	545.9
409.156	546.13
409.534	534.83
409.912	579.58
410.29	579.58
410.667	564.43
411.045	564.21
411.422	563.08
411.8	584.09
412.178	575.06
412.555	571.44
412.933	619.12
413.31	611.89
413.687	605.56
414.065	626.58
414.442	604.43
414.819	654.38
415.197	623.87
415.574	655.05
415.951	635.39
416.328	666.58
416.705	639.46
417.082	691.21
417.46	678.78
417.837	663.41
418.214	683.08
418.591	694.15
418.967	695.28
419.344	705.45
419.721	713.81
420.098	702.51
420.475	721.27
420.852	732.79
421.228	720.14
421.605	758.1
421.982	745.45
422.358	748.16
422.735	785.22
423.111	744.32
423.488	776.86
423.864	795.84
424.241	807.14
424.617	776.18
424.994	796.07
425.37	825.44
425.746	821.6
426.123	825.67
426.499	836.52
426.875	834.26
427.251	853.47
427.627	910.87
428.003	879.23
428.379	906.57
428.756	903.86
429.132	948.61
429.507	922.39
429.883	920.36
430.259	916.06
430.635	926.46
431.011	963.07
431.387	998.55
431.763	967.36
432.138	1020.69
432.514	1018.66
432.89	1031.54
433.265	1031.09
433.641	1075.83
434.016	1061.82
434.392	1054.14
434.767	1092.1
435.143	1102.27
435.518	1113.8
435.894	1113.8
436.269	1149.5
436.644	1150.41
437.02	1158.99
437.395	1169.39
437.77	1179.56
438.145	1196.96
438.52	1202.16
438.895	1220.69
439.271	1223.63
439.646	1248.48
440.021	1252.1
440.395	1245.32
440.77	1280.12
441.145	1305.66
441.52	1291.65
441.895	1331.19
442.27	1329.61
442.645	1349.95
443.019	1348.14
443.394	1347.92
443.769	1386.11
444.143	1377.07
444.518	1411.19
444.892	1416.39
445.267	1408.71
445.641	1427.24
446.016	1415.71
446.39	1433.11
446.764	1477.63
447.139	1450.74
447.513	1459.78
447.887	1479.44
448.262	1430.17
448.636	1495.03
449.01	1520.79
449.384	1521.92
449.758	1521.92
450.132	1588.14
450.506	1549.27
450.88	1570.51
451.254	1582.49
451.628	1629.94
452.002	1625.65
452.376	1657.74
452.75	1663.16
453.123	1661.35
453.497	1697.06
453.871	1717.62
454.244	1738.41
454.618	1740.45
454.992	1784.97
455.365	1765.08
455.739	1826.77
456.112	1815.02
456.486	1822.03
456.859	1867.9
457.232	1907.45
457.606	1894.12
457.979	1900.22
458.352	1941.12
458.725	1937.73
459.099	1988.8
459.472	2029.93
459.845	2034.45
460.218	2029.25
460.591	2068.35
460.964	2066.09
461.337	2093.43
461.71	2126.88
462.083	2154.22
462.456	2152.42
462.829	2173.43
463.201	2206.88
463.574	2232.19
463.947	2284.62
464.32	2285.29
464.692	2293.2
465.065	2320.32
465.438	2353.54
465.81	2386.53
466.183	2376.59
466.555	2457.04
466.928	2456.59
467.3	2428.34
467.672	2467.89
468.045	2543.14
468.417	2558.28
468.789	2552.18
469.161	2612.29
469.534	2640.31
469.906	2669.01
470.278	2657.94
470.65	2720.54
471.022	2754.21
471.394	2795.11
471.766	2852.96
472.138	2843.7
472.51	2920.76
472.882	2961.66
473.253	2969.79
473.625	3005.05
473.997	3075.78
474.369	3098.38
474.74	3070.13
475.112	3176.8
475.484	3208.66
475.855	3219.28
476.227	3299.5
476.598	3346.51
476.97	3380.41
477.341	3432.16
477.713	3466.28
478.084	3467.63
478.455	3560.51
478.827	3560.74
479.198	3679.15
479.569	3656.56
479.94	3771.13
480.311	3786.95
480.682	3825.82
481.053	3923.67
481.424	3993.95
481.795	3988.3
482.166	4007.28
482.537	4123.44
482.908	4170.67
483.279	4191.23
483.65	4240.27
484.021	4291.79
484.391	4302.87
484.762	4316.2
485.133	4378.35
485.503	4393.71
485.874	4460.38
486.244	4568.85
486.615	4575.18
486.985	4641.62
487.356	4696.76
487.726	4729.97
488.097	4784.21
488.467	4876.41
488.837	4898.56
489.207	4899.46
489.578	4966.13
489.948	5036.41
490.318	5078.67
490.688	5046.35
491.058	5105.56
491.428	5175.84
491.798	5205.44
492.168	5288.38
492.538	5274.37
492.908	5283.41
493.278	5368.6
493.648	5352.11
494.017	5441.59
494.387	5473.46
494.757	5493.34
495.126	5512.1
495.496	5489.95
495.866	5508.71
496.235	5562.49
496.605	5632.1
496.974	5645.43
497.344	5660.8
497.713	5683.17
498.082	5761.59
498.452	5751.42
498.821	5762.26
499.19	5747.12
499.559	5815.82
499.928	5856.05
500.298	5859.44
500.667	5927.46
501.036	5887.01
501.405	5887.91
501.774	5904.41
502.143	5958.19
502.512	6009.26
502.88	5942.6
503.249	6020.11
503.618	6023.05
503.987	5991.18
504.356	6020.79
504.724	6076.83
505.093	6118.41
505.462	6066.44
505.83	6143.95
506.199	6165.19
506.567	6242.25
506.936	6179.2
507.304	6298.97
507.672	6253.55
508.041	6256.71
508.409	6351.17
508.777	6346.43
509.145	6416.71
509.514	6363.15
509.882	6415.58
510.25	6421.23
510.618	6453.77
510.986	6460.55
511.354	6496.93
511.722	6557.27
512.09	6606.99
512.458	6538.74
512.826	6598.17
513.193	6584.84
513.561	6612.18
513.929	6653.99
514.297	6688.34
514.664	6688.57
515.032	6731.96
515.4	6713.43
515.767	6765.85
516.135	6765.63
516.502	6737.61
516.869	6860.54
517.237	6846.76
517.604	6798.62
517.972	6885.62
518.339	6891.5
518.706	6900.31
519.073	6868.68
519.44	6904.38
519.808	6996.81
520.175	6997.71
520.542	7075.68
520.909	7095.11
521.276	7043.81
521.643	7135.33
522.009	7153.87
522.376	7120.65
522.743	7139.63
523.11	7215.33
523.477	7227.99
523.843	7273.41
524.21	7368.55
524.577	7352.73
524.943	7409.68
525.31	7373.07
525.676	7449.23
526.043	7491.48
526.409	7559.05
526.776	7571.26
527.142	7571.93
527.508	7641.08
527.874	7686.73
528.241	7695.77
528.607	7717.24
528.973	7731.93
529.339	7726.28
529.705	7808.54
530.071	7793.62
530.437	7855.09
530.803	7896.44
531.169	7934.18
531.535	7889.67
531.901	7910.68
532.267	7959.95
532.632	7972.15
532.998	8043.79
533.364	8066.61
533.73	8047.85
534.095	8061.64
534.461	8113.39
534.826	8224.35
535.192	8156.1
535.557	8248.53
535.923	8262.54
536.288	8194.97
536.653	8271.58
537.019	8251.01
537.384	8272.03
537.749	8268.64
538.114	8328.98
538.479	8300.73
538.845	8368.75
539.21	8302.99
539.575	8374.17
539.94	8355.19
540.305	8494.62
540.67	8381.86
541.034	8427.05
541.399	8453.49
541.764	8472.7
542.129	8534.17
542.494	8521.97
542.858	8498.91
543.223	8561.51
543.587	8621.62
543.952	8575.75
544.316	8559.25
544.681	8556.09
545.045	8609.65
545.41	8698.68
545.774	8681.51
546.138	8697.78
546.503	8669.76
546.867	8681.06
547.231	8780.49
547.595	8806.25
547.959	8767.16
548.324	8844.89
548.688	8788.85
549.052	8843.09
549.416	8720.6
549.779	8814.61
550.143	8803.77
550.507	8883.99
550.871	8869.3
551.235	8860.94
551.599	8879.47
551.962	8892.8
552.326	8897.32
552.689	8961.5
553.053	8974.16
553.417	8954.04
553.78	9013.25
554.143	9015.74
554.507	9069.52
554.87	9048.73
555.234	9111.1
555.597	9015.29
555.96	9080.14
556.323	9113.14
556.686	9087.37
557.05	9135.51
557.413	9192.46
557.776	9187.94
558.139	9217.77
558.502	9274.94
558.865	9215.05
559.228	9208.05
559.59	9287.37
559.953	9300.93
560.316	9335.5
560.679	9336.41
561.041	9363.75
561.404	9394.71
561.767	9419.12
562.129	9463.64
562.492	9520.81
562.854	9533.01
563.217	9469.51
563.579	9514.26
563.941	9585.89
564.304	9600.81
564.666	9651.88
565.028	9599.45
565.39	9640.13
565.753	9691.65
566.115	9752.89
566.477	9751.76
566.839	9756.51
567.201	9902.27
567.563	9858.88
567.925	9917.41
568.287	9929.61
568.648	9981.81
569.01	10062.94
569.372	10042.6
569.734	9996.5
570.095	10049.38
570.457	10090.06
570.819	10095.48
571.18	10081.02
571.542	10142.71
571.903	10115.37
572.265	10192.43
572.626	10193.79
572.987	10244.63
573.349	10215.25
573.71	10323.73
574.071	10394.91
574.432	10327.79
574.794	10392.2
575.155	10436.94
575.516	10381.58
575.877	10407.79
576.238	10453.67
576.599	10516.26
576.96	10382.03
577.32	10539.77
577.681	10524.17
578.042	10586.32
578.403	10537.51
578.763	10570.05
579.124	10566.88
579.485	10655.69
579.845	10680.78
580.206	10591.52
580.566	10711.51
580.927	10692.53
581.287	10764.17
581.648	10666.09
582.008	10823.37
582.368	10760.78
582.728	10766.88
583.089	10773.43
583.449	10779.31
583.809	10809.81
584.169	10782.02
584.529	10805.52
584.889	10827.67
585.249	10839.64
585.609	10785.86
585.969	10838.97
586.329	10840.32
586.688	10837.84
587.048	10791.96
587.408	10768.23
587.768	10853.43
588.127	10823.37
588.487	10796.71
588.846	10946.53
589.206	10819.08
589.565	10805.29
589.925	10952.18
590.284	10868.12
590.643	10908.57
591.003	10925.97
591.362	10984.5
591.721	10930.26
592.08	10900.43
592.44	10927.1
592.799	10954.9
593.158	11005.97
593.517	11022.24
593.876	10978.17
594.235	10974.33
594.593	10975.91
594.952	11017.49
595.311	10969.36
595.67	10963.48
596.029	11085.06
596.387	11069.92
596.746	11085.74
597.104	11063.37
597.463	10975.91
597.822	11093.65
598.18	10972.52
598.538	11062.46
598.897	11090.71
599.255	11081.9
599.613	11144.5
599.972	11100.43
600.33	11112.86
600.688	11076.47
601.046	11107.66
601.404	11170.03
601.762	11146.08
602.12	11195.57
602.478	11137.94
602.836	11158.51
603.194	11059.07
603.552	11102.69
603.91	11116.25
604.268	11118.06
604.625	11153.76
604.983	11243.02
605.341	11125.96
605.698	11188.11
606.056	11224.94
606.413	11243.25
606.771	11214.32
607.128	11278.73
607.485	11154.66
607.843	11271.72
608.2	11323.25
608.557	11356.24
608.914	11314.43
609.272	11349.01
609.629	11305.39
609.986	11389.69
610.343	11227.2
610.7	11429.01
611.057	11341.1
611.414	11423.81
611.771	11414.54
612.127	11435.33
612.484	11488.89
612.841	11476.46
613.198	11433.08
613.554	11463.13
613.911	11488.89
614.267	11478.72
614.624	11445.5
614.98	11568.44
615.337	11530.93
615.693	11540.87
616.05	11559.63
616.406	11603.69
616.762	11563.69
617.118	11572.96
617.475	11578.16
617.831	11557.82
618.187	11632.84
618.543	11658.15
618.899	11712.84
619.255	11718.49
619.611	11725.27
619.967	11631.94
620.323	11764.59
620.678	11727.08
621.034	11746.51
621.39	11775.44
621.746	11693.86
622.101	11805.27
622.457	11774.08
622.812	11775.44
623.168	11800.52
623.523	11727.53
623.879	11894.53
624.234	11762.33
624.589	11890.92
624.945	11894.53
625.3	11906.73
625.655	11912.38
626.01	11867.87
626.365	11953.51
626.72	11826.06
627.075	11863.8
627.43	11866.51
627.785	11946.28
628.14	11947.64
628.495	11964.81
628.85	11971.37
629.205	11906.06
629.559	11968.65
629.914	11981.54
630.269	11960.74
630.623	12013.85
630.978	12007.98
631.332	12004.59
631.687	11996.22
632.041	12036.45
632.396	12065.83
632.75	12014.08
633.104	11969.11
633.459	12001.65
633.813	12093.17
634.167	12020.18
634.521	12006.85
634.875	11992.83
635.229	12011.14
635.583	11968.43
635.937	11951.03
636.291	12044.13
636.645	12040.52
636.999	11917.36
637.352	12156.67
637.706	11998.03
638.06	12054.3
638.413	12028.09
638.767	12034.64
639.121	12071.48
639.474	12081.87
639.828	12096.33
640.181	12053.17
640.534	12047.75
640.888	11994.64
641.241	11984.7
641.594	12155.54
641.947	12151.02
642.301	12200.96
642.654	12183.56
643.007	12148.76
643.36	12126.62
643.713	12035.55
644.066	12189.44
644.419	12136.33
644.771	12159.38
645.124	12113.51
645.477	12073.28
645.83	12046.17
646.182	11958.71
646.535	11901.09
646.888	11886.62
647.24	11766.4
647.593	11844.36
647.945	11835.32
648.298	11800.52
648.65	11773.18
649.002	11856.57
649.355	11955.55
649.707	11929.56
650.059	12050.91
650.411	12178.59
650.763	12162.77
651.115	12350.57
651.467	12261.98
651.819	12279.83
652.171	12329.32
652.523	12299.27
652.875	12250.91
653.227	12319.83
653.578	12440.05
653.93	12406.61
654.282	12314.18
654.633	12300.62
654.985	12335.65
655.337	12394.41
655.688	12383.56
656.039	12453.61
656.391	12374.52
656.742	12424.91
657.094	12349.89
657.445	12413.16
657.796	12417.23
658.147	12399.83
658.498	12428.98
658.849	12351.24
659.2	12485.25
659.551	12432.14
659.902	12466.04
660.253	12456.33
660.604	12517.11
660.955	12459.71
661.306	12464.91
661.656	12495.65
662.007	12445.03
662.358	12445.93
662.708	12424.91
663.059	12498.36
663.409	12432.82
663.76	12508.98
664.11	12435.76
664.461	12535.87
664.811	12504.23
665.161	12504.23
665.511	12466.04
665.862	12490.22
666.212	12537.45
666.562	12457.91
666.912	12494.06
667.262	12515.31
667.612	12508.08
667.962	12504.46
668.312	12435.76
668.662	12483.22
669.011	12393.73
669.361	12358.25
669.711	12288.65
670.06	12415.42
670.41	12388.53
670.76	12331.36
671.109	12302.88
671.459	12289.32
671.808	12257.01
672.157	12203.9
672.507	12145.37
672.856	12134.98
673.205	12122.77
673.554	12235.09
673.904	12109.22
674.253	12173.62
674.602	12166.16
674.951	11960.74
675.3	11881.65
675.649	12099.5
675.998	12026.28
676.346	12025.83
676.695	12129.78
677.044	11966.85
677.393	11935.21
677.741	11971.14
678.09	11970.24
678.438	11940.18
678.787	11887.98
679.135	11932.95
679.484	11793.74
679.832	11864.48
680.181	11787.87
680.529	11776.34
680.877	11683.92
681.225	11763.46
681.573	11843.23
681.922	11650.02
682.27	11659.96
682.618	11636.46
682.966	11557.14
683.314	11622
683.661	11613.64
684.009	11525.05
684.357	11511.94
684.705	11454.32
685.053	11494.09
685.4	11422
685.748	11443.02
686.095	11452.28
686.443	11365.05
686.79	11358.5
687.138	11300.42
687.485	11433.3
687.832	11323.93
688.18	11299.75
688.527	11288.9
688.874	11303.59
689.221	11204.15
689.568	11223.59
689.915	11255.68
690.262	11273.98
690.609	11175.91
690.956	11219.52
691.303	11157.83
691.65	11106.53
691.997	11130.26
692.344	11117.15
692.69	11095.46
693.037	11088.45
693.383	11057.27
693.73	11058.85
694.077	10993.99
694.423	10996.7
694.769	10963.26
695.116	10931.62
695.462	10870.83
695.808	10877.16
696.155	10859.53
696.501	10884.61
696.847	10935.46
697.193	10755.13
697.539	10890.04
697.885	10720.78
698.231	10749.25
698.577	10713.77
698.923	10730.49
699.269	10725.3
699.614	10746.09
699.96	10706.54
700.306	10671.97
700.651	10580.22
700.997	10609.14
701.342	10636.49
701.688	10584.06
702.033	10577.28
702.379	10625.41
702.724	10565.08
703.069	10587.9
703.415	10543.15
703.76	10589.71
704.105	10564.4
704.45	10577.28
704.795	10513.1
705.14	10481.01
705.485	10515.81
705.83	10426.32
706.175	10530.27
706.52	10462.25
706.865	10439.43
707.209	10432.88
707.554	10414.57
707.899	10418.64
708.243	10418.19
708.588	10360.11
708.932	10338.87
709.277	10358.75
709.621	10371.86
709.966	10277.85
710.31	10331.41
710.654	10274.24
710.998	10244.63
711.342	10299.09
711.687	10271.3
712.031	10218.64
712.375	10242.6
712.719	10186.1
713.063	10210.28
713.407	10252.32
713.75	10265.42
714.094	10262.48
714.438	10180.45
714.782	10195.59
715.125	10128.7
715.469	10203.05
715.812	10178.42
716.156	10075.82
716.499	10061.36
716.843	10052.32
717.186	10087.35
717.53	10081.47
717.873	10166.67
718.216	10123.51
718.559	10055.94
718.902	10048.7
719.246	10038.76
719.589	10045.09
719.932	9962.15
720.275	9977.75
720.617	10050.96
720.96	10000.34
721.303	9931.65
721.646	10050.06
721.989	9955.83
722.331	10058.65
722.674	9957.18
723.016	10050.74
723.359	10020
723.701	9988.82
724.044	9945.66
724.386	9934.13
724.729	9906.79
725.071	9916.73
725.413	9897.97
725.755	9884.42
726.097	9861.14
726.439	9879.44
726.782	9885.55
727.124	9917.86
727.465	9911.76
727.807	9913.34
728.149	9892.1
728.491	9881.03
728.833	9925.54
729.175	9944.07
729.516	9933.91
729.858	9923.74
730.199	9959.22
730.541	9929.16
730.882	9885.55
731.224	9933.68
731.565	9910.86
731.906	9914.7
732.248	9938.43
732.589	9899.33
732.93	9846.45
733.271	9866.11
733.612	9926
733.953	9935.49
734.294	9953.34
734.635	9893.68
734.976	9970.97
735.317	9926.22
735.658	9942.27
735.999	9947.69
736.339	9983.4
736.68	10002.83
737.021	9987.01
737.361	9937.3
737.702	10002.6
738.042	10025.2
738.383	10017.97
738.723	10018.87
739.063	10045.99
739.404	10091.19
739.744	10065.43
740.084	10051.87
740.424	10082.38
740.764	10129.38
741.104	10050.74
741.444	10113.11
741.784	10079.66
742.124	10180.68
742.464	10114.24
742.804	10228.81
743.143	10160.34
743.483	10242.6
743.823	10173.45
744.162	10180
744.502	10241.92
744.841	10321.47
745.181	10302.71
745.52	10236.27
745.86	10360.11
746.199	10371.63
746.538	10363.5
746.877	10429.94
747.216	10424.51
747.556	10403.72
747.895	10369.15
748.234	10380.45
748.573	10437.85
748.911	10476.49
749.25	10549.71
749.589	10473.1
749.928	10537.73
750.267	10605.75
750.605	10561.91
750.944	10678.97
751.283	10598.75
751.621	10610.05
751.96	10568.47
752.298	10756.48
752.636	10690.04
752.975	10724.85
753.313	10667.45
753.651	10786.76
753.989	10687.78
754.327	10746.09
754.666	10755.8
755.004	10786.09
755.342	10880.32
755.679	10861.34
756.017	10798.06
756.355	10909.25
756.693	10837.38
757.031	10942.47
757.368	10895.69
757.706	10914.9
758.044	10952.64
758.381	10964.84
758.719	10921.9
759.056	11001.9
759.394	11039.87
759.731	10942.92
760.068	10973.2
760.405	11010.26
760.743	10966.42
761.08	11010.26
761.417	10997.15
761.754	11004.39
762.091	11025.85
762.428	11104.5
762.765	11003.03
763.102	11135.23
763.438	11074.67
763.775	11001.67
764.112	11088
764.449	11117.6
764.785	11112.86
765.122	11043.48
765.458	11111.73
765.795	11073.99
766.131	11063.82
766.467	11142.69
766.804	11098.85
767.14	11109.02
767.476	11109.02
767.812	11121.67
768.148	11139.52
768.485	11082.58
768.821	11138.17
769.157	11168
769.492	11064.72
769.828	11130.26
770.164	11063.14
770.5	11062.24
770.836	11152.18
771.171	11082.12
771.507	11105.4
771.842	11066.31
772.178	11079.41
772.513	11085.06
772.849	11038.74
773.184	11059.98
773.519	11116.93
773.855	11082.35
774.19	11102.01
774.525	11101.11
774.86	11053.88
775.195	11091.84
775.53	11092.75
775.865	11009.13
776.2	10993.31
776.535	11049.13
776.87	11051.16
777.205	11041.67
777.539	10992.18
777.874	11023.59
778.209	10956.7
778.543	10970.04
778.878	10912.86
779.212	10967.78
779.547	10925.74
779.881	10927.55
780.215	10882.36
780.55	10959.19
780.884	10921.45
781.218	10886.2
781.552	10966.87
781.886	10849.81
782.22	10885.07
782.554	10811.62
782.888	10707.22
783.222	10735.92
783.556	10725.98
783.889	10772.3
784.223	10701.12
784.557	10792.87
784.89	10769.82
785.224	10698.41
785.557	10706.99
785.891	10693.89
786.224	10715.13
786.558	10716.71
786.891	10655.92
787.224	10594.23
787.557	10625.64
787.891	10674.9
788.224	10618.63
788.557	10626.77
788.89	10705.64
789.223	10617.73
789.556	10596.03
789.888	10590.61
790.221	10582.48
790.554	10558.3
790.887	10498.86
791.219	10527.11
791.552	10445.76
791.884	10478.75
792.217	10449.6
792.549	10497.73
792.882	10405.08
793.214	10327.34
793.546	10461.12
793.879	10356.95
794.211	10381.13
794.543	10395.36
794.875	10375.93
795.207	10428.13
795.539	10358.53
795.871	10320.34
796.203	10282.6
796.535	10307.91
796.867	10310.17
797.198	10262.48
797.53	10250.51
797.862	10227.68
798.193	10268.13
798.525	10188.81
798.856	10230.62
799.188	10145.43
799.519	10146.78
799.85	10070.63
800.182	10109.04
800.513	10096.61
800.844	10114.92
801.175	10127.35
801.506	10117.63
801.837	10038.31
802.168	10028.14
802.499	10091.42
802.83	10051.42
803.161	9990.63
803.491	10035.37
803.822	10007.35
804.153	9932.55
804.483	9871.53
804.814	9916.05
805.145	9914.92
805.475	9908.6
805.805	9890.97
806.136	9933.91
806.466	9908.6
806.796	9889.39
807.126	9822.95
807.457	9767.58
807.787	9821.14
808.117	9763.29
808.447	9752.22
808.777	9771.2
809.107	9771.65
809.436	9651.43
809.766	9729.39
810.096	9676.06
810.426	9689.62
810.755	9667.92
811.085	9714.25
811.414	9620.69
811.744	9560.13
812.073	9566.68
812.403	9590.19
812.732	9535.95
813.061	9594.03
813.39	9521.49
813.719	9460.02
814.049	9603.07
814.378	9453.92
814.707	9488.95
815.036	9480.81
815.365	9468.16
815.693	9411.21
816.022	9417.76
816.351	9342.73
816.68	9365.11
817.008	9365.78
817.337	9316.07
817.665	9343.19
817.994	9294.15
818.322	9298.44
818.651	9285.33
818.979	9272.68
819.307	9264.54
819.636	9230.2
819.964	9240.14
820.292	9236.52
820.62	9268.84
820.948	9215.51
821.276	9310.42
821.604	9240.59
821.932	9271.55
822.259	9268.61
822.587	9245.56
822.915	9206.47
823.243	9306.13
823.57	9163.76
823.898	9309.97
824.225	9243.53
824.553	9226.81
824.88	9288.05
825.207	9368.5
825.535	9301.38
825.862	9307.71
826.189	9236.07
826.516	9336.18
826.843	9331.21
827.17	9319.91
827.497	9364.65
827.824	9362.17
828.151	9376.18
828.478	9359.91
828.805	9419.57
829.131	9277.88
829.458	9312.45
829.785	9232.68
830.111	9314.94
830.438	9382.28
830.764	9286.46
831.09	9346.12
831.417	9325.11
831.743	9335.5
832.069	9414.15
832.395	9333.24
832.722	9301.38
833.048	9276.3
833.374	9305
833.7	9252.57
834.026	9313.58
834.351	9321.94
834.677	9314.03
835.003	9337.31
835.329	9299.8
835.654	9266.8
835.98	9309.52
836.306	9294.83
836.631	9291.89
836.956	9310.65
837.282	9249.4
837.607	9259.57
837.932	9249.4
838.258	9196.07
838.583	9198.56
838.908	9180.48
839.233	9210.31
839.558	9170.76
839.883	9083.31
840.208	9116.53
840.533	9120.37
840.858	9123.31
841.182	9033.14
841.507	9144.77
841.832	9097.09
842.156	9090.09
842.481	9037.43
842.805	9026.36
843.13	9043.99
843.454	9053.7
843.778	8967.6
844.103	8970.31
844.427	8966.7
844.751	8950.88
845.075	8983.87
845.399	8889.19
845.723	8915.4
846.047	8903.42
846.371	8880.83
846.695	8781.85
847.019	8742.75
847.343	8672.47
847.666	8693.71
847.99	8680.61
848.313	8681.06
848.637	8595.41
848.96	8556.99
849.284	8533.94
849.607	8497.11
849.931	8533.26
850.254	8477.45
850.577	8425.02
850.9	8411.91
851.223	8318.35
851.546	8325.36
851.869	8298.02
852.192	8361.74
852.515	8241.75
852.838	8227.74
853.161	8276.77
853.483	8154.07
853.806	8153.16
854.129	8162.2
854.451	8110.9
854.774	8095.54
855.096	8058.7
855.419	8034.07
855.741	8026.16
856.063	7985.48
856.385	7898.25
856.708	7924.92
857.03	7873.39
857.352	7887.63
857.674	7834.07
857.996	7852.6
858.318	7834.3
858.64	7798.37
858.961	7788.2
859.283	7761.08
859.605	7751.14
859.926	7759.05
860.248	7742.1
860.57	7683.8
860.891	7717.24
861.212	7691.25
861.534	7649.22
861.855	7660.52
862.176	7606.51
862.498	7617.81
862.819	7646.96
863.14	7584.81
863.461	7631.59
863.782	7570.8
864.103	7572.61
864.424	7591.37
864.745	7562.22
865.065	7555.44
865.386	7479.51
865.707	7522.44
866.027	7500.52
866.348	7434.76
866.668	7441.32
866.989	7443.58
867.309	7423.01
867.63	7388.21
867.95	7475.21
868.27	7345.05
868.59	7374.88
868.91	7360.87
869.23	7330.13
869.55	7317.48
869.87	7321.32
870.19	7318.61
870.51	7316.12
870.83	7355.44
871.15	7279.29
871.469	7266.18
871.789	7357.48
872.109	7286.07
872.428	7216.69
872.748	7253.98
873.067	7289.91
873.386	7214.65
873.706	7227.54
874.025	7195.22
874.344	7174.88
874.663	7209.91
874.982	7179.4
875.301	7218.5
875.62	7166.52
875.939	7129.69
876.258	7111.15
876.577	7142.79
876.896	7125.39
877.214	7120.42
877.533	7090.36
877.852	7104.15
878.17	7097.14
878.489	7095.11
878.807	7100.53
879.125	7063.7
879.444	7057.6
879.762	7017.6
880.08	7044.49
880.398	6991.16
880.716	6993.87
881.034	7030.48
881.352	6896.92
881.67	6971.05
881.988	6954.32
882.306	6900.76
882.624	6894.66
882.941	6906.87
883.259	6832.52
883.577	6900.31
883.894	6868.22
884.212	6803.59
884.529	6794.33
884.846	6816.93
885.164	6767.44
885.481	6812.63
885.798	6765.85
886.115	6753.2
886.432	6713.88
886.75	6731.73
887.067	6705.52
887.383	6689.47
887.7	6717.72
888.017	6666.42
888.334	6665.74
888.651	6616.93
888.967	6672.52
889.284	6593.88
889.6	6625.74
889.917	6563.37
890.233	6556.14
890.55	6534.22
890.866	6598.4
891.182	6559.3
891.498	6479.08
891.815	6494.9
892.131	6479.76
892.447	6429.82
892.763	6361.8
893.079	6384.17
893.395	6300.1
893.71	6330.38
894.026	6371.51
894.342	6334.68
894.657	6302.14
894.973	6229.14
895.289	6291.52
895.604	6292.65
895.92	6180.33
896.235	6228.01
896.55	6251.74
896.865	6139.65
897.181	6092.65
897.496	6150.05
897.811	6098.98
898.126	6061.24
898.441	6081.13
898.756	6004.29
899.071	6079.77
899.386	6023.73
899.7	5981.02
900.015	6001.81
900.33	5936.95
900.644	5944.86
900.959	5962.26
901.273	5939.89
901.588	5870.28
901.902	5870.06
902.216	5833.67
902.531	5844.3
902.845	5775.6
903.159	5791.19
903.473	5762.72
903.787	5750.29
904.101	5683.17
904.415	5707.35
904.729	5705.99
905.042	5633.45
905.356	5629.39
905.67	5587.35
905.984	5593.45
906.297	5599.33
906.611	5525.89
906.924	5545.32
907.237	5468.71
907.551	5470.97
907.864	5446.34
908.177	5474.36
908.491	5439.33
908.804	5397.75
909.117	5379.67
909.43	5384.42
909.743	5348.04
910.056	5317.76
910.368	5308.04
910.681	5328.6
910.994	5253.58
911.307	5237.08
911.619	5209.28
911.932	5235.05
912.244	5188.27
912.557	5127.25
912.869	5141.26
913.181	5122.73
913.494	5139.23
913.806	5097.87
914.118	5055.62
914.43	5016.52
914.742	5064.2
915.054	5014.26
915.366	4947.14
915.678	4974.49
915.99	4978.56
916.302	4897.2
916.613	4874.83
916.925	4878.45
917.236	4871.67
917.548	4855.85
917.859	4852.68
918.171	4805.23
918.482	4765.45
918.794	4771.78
919.105	4791.67
919.416	4744.89
919.727	4725.91
920.038	4702.18
920.349	4673.03
920.66	4664.21
920.971	4651.78
921.282	4632.8
921.593	4612.46
921.903	4546.48
922.214	4598.9
922.525	4532.92
922.835	4564.78
923.146	4507.61
923.456	4472.35
923.767	4446.59
924.077	4485.91
924.387	4436.87
924.697	4411.56
925.008	4374.05
925.318	4384.9
925.628	4379.93
925.938	4341.96
926.248	4282.98
926.558	4231.91
926.867	4298.57
927.177	4300.83
927.487	4224.23
927.796	4223.77
928.106	4254.28
928.416	4202.08
928.725	4231.68
929.034	4172.48
929.344	4118.24
929.653	4169.09
929.962	4143.55
930.271	4115.08
930.581	4075.98
930.89	4063.55
931.199	4049.77
931.508	4058.35
931.817	4022.65
932.125	4007.06
932.434	4004.34
932.743	3984.91
933.051	3962.54
933.36	3958.92
933.669	3915.76
933.977	3915.08
934.286	3893.16
934.594	3902.43
934.902	3834.86
935.21	3842.99
935.519	3822.43
935.827	3795.54
936.135	3779.94
936.443	3754.63
936.751	3747.18
937.059	3740.85
937.367	3702.43
937.674	3722.77
937.982	3703.56
938.29	3676.22
938.597	3677.8
938.905	3677.8
939.213	3644.81
939.52	3664.69
939.827	3643
940.135	3620.4
940.442	3606.16
940.749	3568.2
941.056	3554.86
941.363	3555.32
941.67	3542.66
941.977	3522.1
942.284	3483.68
942.591	3476.45
942.898	3499.27
943.205	3490.91
943.511	3442.55
943.818	3430.57
944.125	3424.25
944.431	3415.43
944.738	3412.04
945.044	3363.91
945.35	3363.23
945.657	3348.99
945.963	3378.6
946.269	3327.3
946.575	3322.33
946.881	3282.1
947.187	3279.17
947.493	3301.31
947.799	3276.23
948.105	3267.87
948.41	3245.72
948.716	3180.18
949.022	3237.13
949.327	3210.92
949.633	3163.46
949.938	3220.64
950.244	3174.08
950.549	3159.62
950.854	3124.14
951.16	3126.17
951.465	3145.16
951.77	3092.05
952.075	3068.55
952.38	3066.74
952.685	3076.23
952.99	3005.73
953.294	2992.85
953.599	3009.34
953.904	3019.29
954.209	2955.11
954.513	2985.16
954.818	2963.02
955.122	2957.14
955.426	2950.59
955.731	2931.83
956.035	2927.76
956.339	2911.94
956.643	2946.52
956.948	2890.02
957.252	2881.89
957.556	2902.68
957.86	2826.97
958.163	2850.02
958.467	2816.58
958.771	2853.41
959.075	2806.86
959.378	2771.83
959.682	2786.75
959.985	2770.7
960.289	2738.84
960.592	2743.36
960.896	2749.01
961.199	2714.21
961.502	2719.18
961.805	2731.38
962.108	2706.98
962.411	2672.4
962.714	2643.48
963.017	2675.79
963.32	2640.54
963.623	2659.97
963.926	2644.15
964.228	2603.25
964.531	2631.05
964.833	2608.45
965.136	2625.17
965.438	2565.06
965.741	2550.14
966.043	2538.62
966.345	2552.86
966.648	2534.1
966.95	2533.2
967.252	2516.47
967.554	2527.32
967.856	2510.82
968.158	2469.24
968.46	2428.79
968.761	2502.01
969.063	2468.34
969.365	2469.69
969.666	2410.26
969.968	2383.37
970.269	2413.65
970.571	2377.72
970.872	2385.18
971.174	2396.7
971.475	2361.9
971.776	2349.02
972.077	2337.95
972.378	2360.55
972.679	2314.67
972.98	2308.57
973.281	2345.4
973.582	2309.02
973.883	2297.95
974.183	2302.69
974.484	2287.1
974.785	2273.99
975.085	2254.33
975.386	2234.67
975.686	2219.98
975.986	2213.43
976.287	2235.8
976.587	2212.3
976.887	2189.25
977.187	2206.43
977.487	2196.03
977.787	2222.02
978.087	2170.27
978.387	2150.38
978.687	2190.61
978.987	2139.08
979.286	2139.99
979.586	2102.92
979.885	2118.07
980.185	2097.73
980.484	2094.56
980.784	2118.07
981.083	2048.92
981.382	2065.41
981.682	2083.49
981.981	2049.14
982.28	2063.38
982.579	2018.18
982.878	2029.03
983.177	2002.59
983.475	2005.53
983.774	1989.03
984.073	2001.68
984.372	1970.27
984.67	1955.58
984.969	1944.74
985.267	1982.48
985.566	1945.19
985.864	1937.05
986.162	1936.6
986.461	1909.26
986.759	1886.66
987.057	1902.03
987.355	1906.77
987.653	1886.43
987.951	1892.08
988.249	1893.44
988.547	1902.48
988.844	1856.38
989.142	1835.59
989.44	1833.78
989.737	1854.57
990.035	1819.54
990.332	1832.42
990.63	1838.53
990.927	1825.42
991.224	1784.29
991.521	1796.94
991.819	1770.73
992.116	1777.51
992.413	1749.94
992.71	1751.97
993.006	1733.44
993.303	1737.06
993.6	1770.5
993.897	1734.35
994.193	1729.83
994.49	1698.42
994.787	1738.87
995.083	1702.71
995.379	1715.14
995.676	1696.16
995.972	1667.68
996.268	1681.24
996.565	1678.3
996.861	1639.66
997.157	1633.11
997.453	1640.11
997.749	1625.42
998.044	1619.77
998.34	1634.69
998.636	1628.81
998.932	1603.96
999.227	1595.59
999.523	1571.19
999.818	1591.07
1000.114	1570.51
1000.409	1569.15
1000.704	1562.83
1001	1573.45
1001.295	1542.04
1001.59	1542.04
1001.885	1525.31
1002.18	1494.81
1002.475	1526.89
1002.77	1511.75
1003.065	1466.33
1003.359	1493.68
1003.654	1479.44
1003.949	1473.11
1004.243	1486.22
1004.538	1441.93
1004.832	1455.71
1005.127	1431.98
1005.421	1422.72
1005.715	1407.58
1006.009	1407.58
1006.304	1423.39
1006.598	1413.45
1006.892	1383.17
1007.186	1391.31
1007.48	1375.03
1007.773	1377.52
1008.067	1380.23
1008.361	1369.61
1008.655	1337.07
1008.948	1371.42
1009.242	1344.53
1009.535	1322.38
1009.829	1321.25
1010.122	1323.96
1010.415	1327.35
1010.708	1257.52
1011.001	1327.35
1011.295	1275.6
1011.588	1311.99
1011.881	1285.55
1012.173	1282.38
1012.466	1255.04
1012.759	1271.08
1013.052	1263.17
1013.344	1238.77
1013.637	1240.12
1013.93	1203.97
1014.222	1238.99
1014.514	1225.89
1014.807	1208.94
1015.099	1223.17
1015.391	1191.54
1015.683	1198.77
1015.976	1188.37
1016.268	1185.43
1016.56	1194.25
1016.851	1156.96
1017.143	1195.83
1017.435	1158.54
1017.727	1141.37
1018.018	1157.64
1018.31	1143.63
1018.602	1145.66
1018.893	1151.54
1019.185	1149.73
1019.476	1079.9
1019.767	1118.09
1020.058	1090.75
1020.35	1100.47
1020.641	1071.31
1020.932	1078.55
1021.223	1061.14
1021.514	1093.23
1021.804	1063.4
1022.095	1059.56
1022.386	1047.13
1022.677	1017.08
1022.967	1033.12
1023.258	1041.94
1023.548	1027.25
1023.839	1039
1024.129	994.93
1024.419	1016.63
1024.709	995.16
1025	999.45
1025.29	978.66
1025.58	993.12
1025.87	978.66
1026.16	962.16
1026.449	994.48
1026.739	966.01
1027.029	967.36
1027.319	949.06
1027.608	938.66
1027.898	927.14
1028.187	907.25
1028.477	928.04
1028.766	941.83
1029.055	919
1029.344	912.67
1029.634	923.97
1029.923	884.2
1030.212	901.6
1030.501	883.97
1030.79	873.8
1031.078	900.7
1031.367	881.71
1031.656	873.58
1031.945	870.64
1032.233	872.22
1032.522	883.75
1032.81	846.46
1033.099	862.28
1033.387	870.19
1033.675	832.68
1033.963	818.21
1034.251	850.08
1034.54	825.44
1034.828	806.46
1035.116	827.7
1035.403	822.05
1035.691	816.63
1035.979	813.24
1036.267	781.38
1036.554	794.71
1036.842	795.16
1037.129	792.68
1037.417	780.93
1037.704	789.97
1037.992	782.96
1038.279	751.77
1038.566	764.66
1038.853	764.66
1039.14	764.66
