Data from blue_surface_keyboard_FLMS001491_001.txt Node
Date: Tue Feb 07 11:12:32 GMT 2017
User: dcchb
Spectrometer: FLMS00149
Trigger mode: 0
Integration Time (sec): 2.000000E-2
Scans to average: 10
Electric dark correction enabled: true
Nonlinearity correction enabled: false
Boxcar width: 0
XAxis mode: Wavelengths
Number of Pixels in Spectrum: 2048
>>>>>Begin Spectral Data<<<<<
341.393	-7.84
341.776	-7.84
342.16	-7.84
342.543	-73.37
342.927	-80.38
343.31	-57.55
343.693	-92.81
344.077	-45.58
344.46	-52.58
344.843	-39.02
345.226	-29.76
345.61	-30.89
345.993	-30.21
346.376	-8.29
346.759	13.18
347.142	27.87
347.525	22.67
347.908	43.46
348.291	70.58
348.674	99.95
349.057	108.99
349.44	120.07
349.823	145.38
350.206	146.51
350.588	178.37
350.971	178.15
351.354	203.46
351.737	236.67
352.119	231.48
352.502	250.46
352.884	231.02
353.267	264.47
353.65	256.79
354.032	266.28
354.414	279.61
354.797	286.39
355.179	285.94
355.562	294.98
355.944	305.37
356.326	298.82
356.709	316.67
357.091	326.39
357.473	331.36
357.855	304.92
358.238	312.15
358.62	309.67
359.002	318.71
359.384	302.66
359.766	295.2
360.148	325.49
360.53	304.24
360.912	319.16
361.294	286.39
361.676	301.53
362.057	298.82
362.439	290.23
362.821	302.66
363.203	290.46
363.584	304.92
363.966	286.62
364.348	290.68
364.729	300.85
365.111	307.86
365.493	276.45
365.874	288.42
366.256	280.74
366.637	272.83
367.019	296.11
367.4	278.71
367.781	296.11
368.163	290.68
368.544	278.93
368.925	320.29
369.306	295.2
369.688	300.4
370.069	277.13
370.45	262.21
370.831	283.23
371.212	278.71
371.593	280.52
371.974	285.03
372.355	261.08
372.736	295.88
373.117	270.35
373.498	271.7
373.879	295.88
374.26	271.48
374.641	273.96
375.021	291.59
375.402	291.59
375.783	283.23
376.163	298.14
376.544	284.36
376.925	304.47
377.305	289.55
377.686	273.96
378.066	282.78
378.447	304.02
378.827	290.23
379.208	276.22
379.588	310.8
379.968	294.07
380.349	314.64
380.729	289.33
381.109	325.49
381.489	302.66
381.87	279.61
382.25	297.01
382.63	289.55
383.01	299.72
383.39	311.7
383.77	295.43
384.15	302.21
384.53	303.57
384.91	280.29
385.29	296.11
385.67	307.41
386.049	298.82
386.429	313.73
386.809	311.47
387.189	314.64
387.568	318.03
387.948	306.96
388.328	313.06
388.707	308.76
389.087	312.15
389.466	313.96
389.846	314.86
390.225	298.14
390.605	315.54
390.984	313.28
391.363	314.86
391.743	311.7
392.122	321.87
392.501	310.34
392.881	310.57
393.26	323.9
393.639	324.81
394.018	320.29
394.397	323.68
394.776	320.06
395.155	333.17
395.534	347.18
395.913	328.42
396.292	338.14
396.671	320.29
397.05	330.23
397.429	334.3
397.808	314.19
398.186	333.4
398.565	321.42
398.944	346.5
399.323	334.75
399.701	320.06
400.08	320.74
400.458	325.49
400.837	336.78
401.215	351.02
401.594	351.47
401.972	335.88
402.351	351.47
402.729	337.01
403.107	356.9
403.486	346.95
403.864	337.69
404.242	353.28
404.62	359.84
404.999	346.95
405.377	370.68
405.755	353.73
406.133	374.98
406.511	348.99
406.889	351.47
407.267	352.83
407.645	362.09
408.023	330.91
408.401	364.35
408.779	351.93
409.156	376.11
409.534	363
409.912	364.58
410.29	358.03
410.667	361.19
411.045	364.81
411.422	363.22
411.8	368.42
412.178	380.4
412.555	371.13
412.933	355.09
413.31	375.88
413.687	364.58
414.065	381.76
414.442	370.68
414.819	372.49
415.197	365.26
415.574	413.17
415.951	388.31
416.328	396.22
416.705	394.86
417.082	370
417.46	377.91
417.837	390.57
418.214	394.18
418.591	383.34
418.967	385.6
419.344	381.76
419.721	378.59
420.098	382.43
420.475	383.11
420.852	401.64
421.228	406.61
421.605	393.73
421.982	422.43
422.358	392.38
422.735	412.94
423.111	406.16
423.488	403.9
423.864	405.48
424.241	412.72
424.617	405.71
424.994	409.33
425.37	405.26
425.746	406.16
426.123	410.68
426.499	416.56
426.875	439.38
427.251	437.12
427.627	459.95
428.003	438.25
428.379	434.41
428.756	424.01
429.132	420.4
429.507	436.9
429.883	450
430.259	463.79
430.635	429.21
431.011	440.51
431.387	443.45
431.763	439.61
432.138	444.13
432.514	457.69
432.89	448.87
433.265	468.08
433.641	463.11
434.016	455.2
434.392	455.65
434.767	454.75
435.143	481.64
435.518	473.96
435.894	470.11
436.269	474.41
436.644	471.02
437.02	500.17
437.395	470.34
437.77	491.58
438.145	492.94
438.52	502.2
438.895	490.45
439.271	510.79
439.646	528.87
440.021	490.91
440.395	492.71
440.77	501.98
441.145	528.19
441.52	503.11
441.895	510.34
442.27	518.48
442.645	507.85
443.019	525.03
443.394	511.02
443.769	515.09
444.143	512.15
444.518	516.67
444.892	506.95
445.267	543.56
445.641	525.71
446.016	541.3
446.39	524.35
446.764	517.35
447.139	508.31
447.513	542.2
447.887	515.31
448.262	538.36
448.636	541.53
449.01	527.29
449.384	546.27
449.758	556.89
450.132	563.45
450.506	566.16
450.88	543.56
451.254	554.86
451.628	555.31
452.002	573.61
452.376	595.54
452.75	570.68
453.123	561.41
453.497	567.06
453.871	573.16
454.244	568.64
454.618	583.78
454.992	602.77
455.365	598.02
455.739	594.18
456.112	600.51
456.486	604.12
456.859	611.35
457.232	617.23
457.606	595.08
457.979	607.06
458.352	624.23
458.725	626.95
459.099	626.72
459.472	636.44
459.845	642.77
460.218	652.93
460.591	655.42
460.964	639.15
461.337	651.35
461.71	642.77
462.083	656.55
462.456	650
462.829	664.01
463.201	657.45
463.574	671.69
463.947	658.13
464.32	688.41
464.692	676.44
465.065	678.47
465.438	699.26
465.81	669.88
466.183	707.17
466.555	708.07
466.928	719.37
467.3	747.4
467.672	729.99
468.045	732.25
468.417	744.01
468.789	734.51
469.161	714.18
469.534	730.67
469.906	739.49
470.278	749.2
470.65	755.76
471.022	780.62
471.394	783.33
471.766	761.63
472.138	805.47
472.51	801.18
472.882	804.34
473.253	793.72
473.625	815.87
473.997	813.38
474.369	832.37
474.74	831.91
475.112	845.47
475.484	828.07
475.855	855.87
476.227	859.48
476.598	875.3
476.97	872.82
477.341	888.18
477.713	887.96
478.084	892.7
478.455	932.25
478.827	932.25
479.198	957.33
479.569	932.25
479.94	970.89
480.311	951.46
480.682	945.81
481.053	986.03
481.424	995.3
481.795	1005.92
482.166	1008.86
482.537	1010.89
482.908	1024
483.279	1052.7
483.65	1017.67
484.021	1068.97
484.391	1060.83
484.762	1066.03
485.133	1059.25
485.503	1107.61
485.874	1081.62
486.244	1080.72
486.615	1117.56
486.985	1108.29
487.356	1121.4
487.726	1129.53
488.097	1153.71
488.467	1147.16
488.837	1169.76
489.207	1151.45
489.578	1188.74
489.948	1195.07
490.318	1201.17
490.688	1190.77
491.058	1207.72
491.428	1213.6
491.798	1220.83
492.168	1219.7
492.538	1228.06
492.908	1247.95
493.278	1254.95
493.648	1276.2
494.017	1282.52
494.387	1247.72
494.757	1263.77
495.126	1270.09
495.496	1279.13
495.866	1309.19
496.235	1302.86
496.605	1288.17
496.974	1288.17
497.344	1298.12
497.713	1313.03
498.082	1302.64
498.452	1290.88
498.821	1334.05
499.19	1331.56
499.559	1363.42
499.928	1306.02
500.298	1302.86
500.667	1327.04
501.036	1337.44
501.405	1357.32
501.774	1306.93
502.143	1339.92
502.512	1356.42
502.88	1376.53
503.249	1361.62
503.618	1377.44
503.987	1334.05
504.356	1354.39
504.724	1360.49
505.093	1391.9
505.462	1351.22
505.83	1379.92
506.199	1392.58
506.567	1390.32
506.936	1378.79
507.304	1405.68
507.672	1400.49
508.041	1423.31
508.409	1423.54
508.777	1365.68
509.145	1423.08
509.514	1402.29
509.882	1444.78
510.25	1433.03
510.618	1399.36
510.986	1430.54
511.354	1435.06
511.722	1452.46
512.09	1422.86
512.458	1445
512.826	1442.07
513.193	1447.72
513.561	1470.77
513.929	1456.3
514.297	1441.61
514.664	1447.49
515.032	1448.85
515.4	1449.98
515.767	1454.27
516.135	1447.94
516.502	1480.48
516.869	1472.12
517.237	1452.01
517.604	1438.68
517.972	1456.3
518.339	1483.87
518.706	1477.77
519.073	1475.96
519.44	1467.38
519.808	1516.19
520.175	1486.13
520.542	1501.95
520.909	1518.22
521.276	1500.6
521.643	1465.79
522.009	1518
522.376	1509.86
522.743	1489.07
523.11	1526.58
523.477	1522.97
523.843	1527.71
524.21	1511.44
524.577	1532.46
524.943	1515.29
525.31	1537.66
525.676	1546.92
526.043	1562.97
526.409	1536.98
526.776	1550.99
527.142	1565
527.508	1540.14
527.874	1589.18
528.241	1580.82
528.607	1552.35
528.973	1582.63
529.339	1608.16
529.705	1569.75
530.071	1589.41
530.437	1581.27
530.803	1583.98
531.169	1590.09
531.535	1581.05
531.901	1586.7
532.267	1591.22
532.632	1602.74
532.998	1614.72
533.364	1623.53
533.73	1604.55
534.095	1593.93
534.461	1617.43
534.826	1585.11
535.192	1602.06
535.557	1621.72
535.923	1596.64
536.288	1597.77
536.653	1623.98
537.019	1628.28
537.384	1609.29
537.749	1621.95
538.114	1595.96
538.479	1617.88
538.845	1613.36
539.21	1617.88
539.575	1630.99
539.94	1601.84
540.305	1625.11
540.67	1621.27
541.034	1627.6
541.399	1637.32
541.764	1614.94
542.129	1616.75
542.494	1609.29
542.858	1629.86
543.223	1623.98
543.587	1598.45
543.952	1635.51
544.316	1646.81
544.681	1614.04
545.045	1603.19
545.41	1646.81
545.774	1619.24
546.138	1633.25
546.503	1640.25
546.867	1642.51
547.231	1641.38
547.595	1643.42
547.959	1634.6
548.324	1618.11
548.688	1602.97
549.052	1622.17
549.416	1636.64
549.779	1637.54
550.143	1645.68
550.507	1637.99
550.871	1666.02
551.235	1631.21
551.599	1635.73
551.962	1634.6
552.326	1665.34
552.689	1647.26
553.053	1626.92
553.417	1617.66
553.78	1636.41
554.143	1633.25
554.507	1670.76
554.87	1644.55
555.234	1679.12
555.597	1623.08
555.96	1646.81
556.323	1663.08
556.686	1658.11
557.05	1659.46
557.413	1635.28
557.776	1646.36
558.139	1647.94
558.502	1661.95
558.865	1669.18
559.228	1671.44
559.59	1654.72
559.953	1646.36
560.316	1674.38
560.679	1661.27
561.041	1677.31
561.404	1686.13
561.767	1687.26
562.129	1671.89
562.492	1666.24
562.854	1666.02
563.217	1684.32
563.579	1680.25
563.941	1694.04
564.304	1701.04
564.666	1728.61
565.028	1708.95
565.39	1682.96
565.753	1710.31
566.115	1717.77
566.477	1706.24
566.839	1754.37
567.201	1706.69
567.563	1728.39
567.925	1750.76
568.287	1720.48
568.648	1756.18
569.01	1744.88
569.372	1719.35
569.734	1715.96
570.095	1743.3
570.457	1769.97
570.819	1739.69
571.18	1732.68
571.542	1757.31
571.903	1736.97
572.265	1732.45
572.626	1755.05
572.987	1770.42
573.349	1785.33
573.71	1747.14
574.071	1757.99
574.432	1756.63
574.794	1766.13
575.155	1798.22
575.516	1752.34
575.877	1784.43
576.238	1795.96
576.599	1760.25
576.96	1768.61
577.32	1764.32
577.681	1785.79
578.042	1773.81
578.403	1762.28
578.763	1813.13
579.124	1793.7
579.485	1779.01
579.845	1795.28
580.206	1789.18
580.566	1798.89
580.927	1791.66
581.287	1809.29
581.648	1788.72
582.008	1808.61
582.368	1811.77
582.728	1793.92
583.089	1820.59
583.449	1795.5
583.809	1815.84
584.169	1787.59
584.529	1762.51
584.889	1824.2
585.249	1802.06
585.609	1789.18
585.969	1799.57
586.329	1829.4
586.688	1821.27
587.048	1789.85
587.408	1797.54
587.768	1800.48
588.127	1823.75
588.487	1783.07
588.846	1823.3
589.206	1795.5
589.565	1804.54
589.925	1829.85
590.284	1815.84
590.643	1813.58
591.003	1805.45
591.362	1822.85
591.721	1804.99
592.08	1836.86
592.44	1811.55
592.799	1837.08
593.158	1806.12
593.517	1803.86
593.876	1828.05
594.235	1842.51
594.593	1865.78
594.952	1807.71
595.311	1842.96
595.67	1843.64
596.029	1802.96
596.387	1848.16
596.746	1825.79
597.104	1831.21
597.463	1849.29
597.822	1854.26
598.18	1860.81
598.538	1862.17
598.897	1822.4
599.255	1851.1
599.613	1834.6
599.972	1837.54
600.33	1869.4
600.688	1825.11
601.046	1867.14
601.404	1871.66
601.762	1864.43
602.12	1894.03
602.478	1897.87
602.836	1869.85
603.194	1821.94
603.552	1855.39
603.91	1857.87
604.268	1878.21
604.625	1899
604.983	1881.83
605.341	1863.3
605.698	1859
606.056	1897.2
606.413	1901.26
606.771	1901.72
607.128	1873.69
607.485	1904.2
607.843	1894.48
608.2	1911.66
608.557	1928.61
608.914	1891.32
609.272	1940.81
609.629	1923.18
609.986	1937.87
610.343	1913.24
610.7	1920.47
611.057	1915.73
611.414	1929.96
611.771	1918.44
612.127	1940.13
612.484	1917.53
612.841	1910.53
613.198	1904.2
613.554	1934.26
613.911	1956.18
614.267	1949.85
614.624	1926.57
614.98	1968.38
615.337	1953.24
615.693	1960.7
616.05	1978.78
616.406	1958.44
616.762	1957.08
617.118	1972.22
617.475	1998.66
617.831	2000.92
618.187	1986.91
618.543	2000.92
618.899	1999.11
619.255	1971.54
619.611	1986.69
619.967	2000.92
620.323	2023.75
620.678	2016.51
621.034	1997.98
621.39	1995.05
621.746	2024.88
622.101	1984.65
622.457	2025.33
622.812	2013.13
623.168	2015.61
623.523	1999.34
623.879	2008.15
624.234	2027.36
624.589	2006.8
624.945	2019.23
625.3	2053.8
625.655	2065.55
626.01	2046.34
626.365	2035.72
626.72	2050.64
627.075	2036.63
627.43	2072.56
627.785	2053.35
628.14	2037.31
628.495	2063.75
628.85	2076.63
629.205	2072.56
629.559	2090.64
629.914	2082.95
630.269	2094.48
630.623	2072.33
630.978	2066.68
631.332	2082.5
631.687	2084.99
632.041	2070.52
632.396	2104.65
632.75	2120.01
633.104	2112.78
633.459	2065.1
633.813	2107.59
634.167	2132.9
634.521	2118.88
634.875	2121.37
635.229	2096.96
635.583	2127.47
635.937	2101.48
636.291	2133.12
636.645	2140.35
636.999	2103.07
637.352	2164.76
637.706	2126.57
638.06	2170.64
638.413	2171.09
638.767	2150.07
639.121	2174.25
639.474	2149.62
639.828	2171.09
640.181	2146.45
640.534	2197.3
640.888	2167.02
641.241	2180.58
641.594	2178.77
641.947	2190.97
642.301	2193.91
642.654	2208.6
643.007	2214.93
643.36	2204.31
643.713	2233.23
644.066	2251.31
644.419	2240.69
644.771	2247.92
645.124	2256.73
645.477	2262.84
645.83	2224.42
646.182	2222.39
646.535	2249.95
646.888	2231.42
647.24	2236.17
647.593	2233.91
647.945	2251.54
648.298	2301.25
648.65	2225.55
649.002	2219.45
649.355	2285.66
649.707	2308.71
650.059	2268.26
650.411	2359.33
650.763	2334.02
651.115	2366.56
651.467	2361.82
651.819	2390.74
652.171	2431.87
652.523	2426.9
652.875	2420.35
653.227	2425.77
653.578	2449.27
653.93	2480.46
654.282	2439.1
654.633	2472.1
654.985	2485.2
655.337	2456.28
655.688	2509.61
656.039	2526.56
656.391	2513.68
656.742	2525.65
657.094	2512.77
657.445	2544.64
657.796	2554.58
658.147	2563.17
658.498	2553.22
658.849	2579.66
659.2	2628.02
659.551	2581.02
659.902	2649.27
660.253	2641.81
660.604	2662.37
660.955	2626.22
661.306	2665.54
661.656	2704.18
662.007	2701.69
662.358	2685.88
662.708	2755.93
663.059	2705.99
663.409	2725.87
663.76	2752.31
664.11	2767.46
664.461	2792.09
664.811	2773.11
665.161	2820.11
665.511	2814.46
665.862	2820.56
666.212	2833.89
666.562	2864.85
666.912	2861.24
667.262	2821.01
667.612	2879.99
667.962	2910.95
668.312	2914.34
668.662	2950.05
669.011	2953.89
669.361	2947.11
669.711	2964.51
670.06	2961.8
670.41	2994.12
670.76	2994.12
671.109	3032.99
671.459	3039.54
671.808	3014.23
672.157	3041.57
672.507	3044.96
672.856	3027.11
673.205	3094
673.554	3095.13
673.904	3160.89
674.253	3140.55
674.602	3148.91
674.951	3070.95
675.3	3114.79
675.649	3171.06
675.998	3200.21
676.346	3208.12
676.695	3242.47
677.044	3220.1
677.393	3223.94
677.741	3225.07
678.09	3228.01
678.438	3245.41
678.787	3235.92
679.135	3259.42
679.484	3268.01
679.832	3297.61
680.181	3265.97
680.529	3315.46
680.877	3335.58
681.225	3323.83
681.573	3355.46
681.922	3353.2
682.27	3336.03
682.618	3369.93
682.966	3400.66
683.314	3371.73
683.661	3416.48
684.009	3398.63
684.357	3396.59
684.705	3416.93
685.053	3420.55
685.4	3445.18
685.748	3396.37
686.095	3437.95
686.443	3410.6
686.79	3446.53
687.138	3460.32
687.485	3447.44
687.832	3471.39
688.18	3501.9
688.527	3524.05
688.874	3469.36
689.221	3519.3
689.568	3481.56
689.915	3498.74
690.262	3483.82
690.609	3497.83
690.956	3506.42
691.303	3516.81
691.65	3512.07
691.997	3569.69
692.344	3509.13
692.69	3543.71
693.037	3514.33
693.383	3493.99
693.73	3559.07
694.077	3543.71
694.423	3536.7
694.769	3557.72
695.116	3539.19
695.462	3524.05
695.808	3566.08
696.155	3576.7
696.501	3517.49
696.847	3558.62
697.193	3524.95
697.539	3493.76
697.885	3504.39
698.231	3508.23
698.577	3565.17
698.923	3531.73
699.269	3519.3
699.614	3487.44
699.96	3540.32
700.306	3470.26
700.651	3509.36
700.997	3510.26
701.342	3516.81
701.688	3499.19
702.033	3481.79
702.379	3502.8
702.724	3507.77
703.069	3508.68
703.415	3499.87
703.76	3469.81
704.105	3494.89
704.45	3458.74
704.795	3466.87
705.14	3448.79
705.485	3468.91
705.83	3438.17
706.175	3456.25
706.52	3429.81
706.865	3438.4
707.209	3442.24
707.554	3425.07
707.899	3415.35
708.243	3437.49
708.588	3454.67
708.932	3383.03
709.277	3421.68
709.621	3406.99
709.966	3404.73
710.31	3430.94
710.654	3414.44
710.998	3432.97
711.342	3380.32
711.687	3399.53
712.031	3366.76
712.375	3386.87
712.719	3380.32
713.063	3393.65
713.407	3430.71
713.75	3350.72
714.094	3414.44
714.438	3410.38
714.782	3412.41
715.125	3374.67
715.469	3395.69
715.812	3388.23
716.156	3404.05
716.499	3380.55
716.843	3389.36
717.186	3343.03
717.53	3397.5
717.873	3385.07
718.216	3373.77
718.559	3386.87
718.902	3368.57
719.246	3337.38
719.589	3329.93
719.932	3352.52
720.275	3398.17
720.617	3362.47
720.96	3371.28
721.303	3371.96
721.646	3365.86
721.989	3349.59
722.331	3398.63
722.674	3334.22
723.016	3387.33
723.359	3385.07
723.701	3378.51
724.044	3391.85
724.386	3352.98
724.729	3419.19
725.071	3332.19
725.413	3384.16
725.755	3376.7
726.097	3381.45
726.439	3305.97
726.782	3306.42
727.124	3363.15
727.465	3348.46
727.807	3367.44
728.149	3362.69
728.491	3363.82
728.833	3375.35
729.175	3319.53
729.516	3348.23
729.858	3363.15
730.199	3357.27
730.541	3370.15
730.882	3381.22
731.224	3406.99
731.565	3369.93
731.906	3391.17
732.248	3373.09
732.589	3360.89
732.93	3365.86
733.271	3362.69
733.612	3377.61
733.953	3367.67
734.294	3405.86
734.635	3357.95
734.976	3388.46
735.317	3406.08
735.658	3407.44
735.999	3440.88
736.339	3449.25
736.68	3453.77
737.021	3419.42
737.361	3406.53
737.702	3451.96
738.042	3456.93
738.383	3481.56
738.723	3468.91
739.063	3456.48
739.404	3458.51
739.744	3467.1
740.084	3473.43
740.424	3468
740.764	3466.19
741.104	3486.98
741.444	3502.8
741.784	3474.56
742.124	3483.14
742.464	3575.57
742.804	3509.81
743.143	3533.76
743.483	3526.31
743.823	3573.99
744.162	3554.1
744.502	3548.68
744.841	3550.03
745.181	3587.77
745.52	3576.47
745.86	3635.68
746.199	3627.32
746.538	3634.78
746.877	3675.45
747.216	3657.38
747.556	3665.74
747.895	3712.52
748.234	3661.9
748.573	3712.97
748.911	3711.61
749.25	3747.54
749.589	3777.82
749.928	3766.75
750.267	3826.86
750.605	3816.02
750.944	3825.96
751.283	3824.15
751.621	3839.52
751.96	3870.03
752.298	3866.64
752.636	3907.09
752.975	3888.1
753.313	3872.74
753.651	3979.85
753.989	3983.24
754.327	3976.92
754.666	4009.23
755.004	4036.8
755.342	4070.92
755.679	4052.39
756.017	4061.21
756.355	4096.23
756.693	4098.27
757.031	4107.31
757.368	4135.1
757.706	4144.82
758.044	4179.17
758.381	4161.32
758.719	4212.39
759.056	4244.03
759.394	4229.34
759.731	4219.62
760.068	4220.75
760.405	4206.06
760.743	4284.93
761.08	4291.48
761.417	4281.77
761.754	4299.84
762.091	4347.07
762.428	4312.05
762.765	4305.95
763.102	4340.97
763.438	4366.96
763.775	4302.33
764.112	4331.48
764.449	4349.79
764.785	4380.97
765.122	4388.66
765.458	4368.32
765.795	4398.6
766.131	4376.23
766.467	4361.76
766.804	4404.7
767.14	4356.57
767.476	4427.75
767.812	4358.6
768.148	4437.69
768.485	4428.65
768.821	4383.91
769.157	4362.44
769.492	4413.97
769.828	4387.3
770.164	4354.98
770.5	4387.53
770.836	4391.14
771.171	4381.88
771.507	4382.33
771.842	4345.72
772.178	4401.76
772.513	4326.06
772.849	4366.06
773.184	4314.08
773.519	4331.93
773.855	4335.1
774.19	4335.1
774.525	4339.17
774.86	4320.86
775.195	4294.65
775.53	4307.98
775.865	4291.03
776.2	4292.39
776.535	4269.11
776.87	4167.42
777.205	4246.96
777.539	4246.51
777.874	4242.9
778.209	4169.68
778.543	4186.85
778.878	4170.13
779.212	4201.77
779.547	4205.61
779.881	4200.86
780.215	4154.54
780.55	4207.87
780.884	4145.95
781.218	4161.54
781.552	4173.75
781.886	4139.17
782.22	4076.57
782.554	4113.18
782.888	4112.05
783.222	4065.95
783.556	4043.35
783.889	4034.31
784.223	4012.39
784.557	3982.11
784.89	4035.67
785.224	4052.85
785.557	4008.1
785.891	3999.51
786.224	4013.98
786.558	3968.78
786.891	3931.94
787.224	3920.42
787.557	3962.23
787.891	3905.05
788.224	3891.72
788.557	3917.93
788.89	3913.87
789.223	3884.26
789.556	3839.07
789.888	3848.56
790.221	3807.88
790.554	3804.94
790.887	3846.52
791.219	3808.33
791.552	3792.29
791.884	3779.63
792.217	3783.02
792.549	3774.66
792.882	3708.67
793.214	3791.16
793.546	3729.24
793.879	3695.79
794.211	3704.61
794.543	3721.55
794.875	3695.11
795.207	3724.04
795.539	3668.9
795.871	3693.53
796.203	3680.65
796.535	3638.62
796.867	3579.41
797.198	3591.16
797.53	3593.2
797.862	3620.54
798.193	3627.32
798.525	3551.62
798.856	3587.32
799.188	3567.89
799.519	3560.2
799.85	3581.45
800.182	3490.6
800.513	3515.46
800.844	3531.05
801.175	3500.77
801.506	3520.66
801.837	3496.48
802.168	3511.62
802.499	3458.96
802.83	3459.19
803.161	3513.42
803.491	3465.29
803.822	3463.48
804.153	3455.12
804.483	3428.23
804.814	3401.79
805.145	3419.19
805.475	3434.1
805.805	3394.78
806.136	3345.75
806.466	3368.8
806.796	3389.36
807.126	3340.55
807.457	3325.63
807.787	3362.24
808.117	3331.28
808.447	3329.02
808.777	3306.88
809.107	3331.28
809.436	3300.32
809.766	3305.52
810.096	3283.37
810.426	3284.5
810.755	3253.77
811.085	3281.57
811.414	3277.27
811.744	3231.62
812.073	3253.54
812.403	3251.28
812.732	3215.81
813.061	3238.18
813.39	3230.49
813.719	3204.28
814.049	3253.32
814.378	3210.16
814.707	3219.65
815.036	3185.98
815.365	3194.34
815.693	3166.32
816.022	3166.32
816.351	3190.5
816.68	3127.9
817.008	3176.94
817.337	3162.93
817.665	3139.42
817.994	3116.15
818.322	3134.45
818.651	3103.27
818.979	3092.42
819.307	3104.17
819.636	3127.9
819.964	3101.01
820.292	3080.22
820.62	3087.9
820.948	3056.04
821.276	3084.96
821.604	3084.74
821.932	3074.79
822.259	3081.57
822.587	3063.04
822.915	3064.85
823.243	3058.3
823.57	3080.44
823.898	3060.78
824.225	3050.16
824.553	3045.41
824.88	3063.72
825.207	3032.53
825.535	3040.44
825.862	3085.19
826.189	3074.11
826.516	3064.4
826.843	3079.54
827.17	3081.57
827.497	3105.07
827.824	3077.28
828.151	3075.92
828.478	3054.68
828.805	3074.34
829.131	3047.9
829.458	3068.24
829.785	3044.51
830.111	3081.12
830.438	3056.49
830.764	3048.35
831.09	3101.01
831.417	3074.34
831.743	3077.28
832.069	3080.89
832.395	3083.83
832.722	3078.86
833.048	3032.53
833.374	3053.55
833.7	3039.54
834.026	3036.6
834.351	3061.91
834.677	3071.18
835.003	3044.96
835.329	3032.99
835.654	3042.02
835.98	3027.11
836.306	3048.13
836.631	3016.94
836.956	3080.22
837.282	3011.29
837.607	3062.14
837.932	2978.3
838.258	3003.83
838.583	2991.86
838.908	2983.95
839.233	3007.22
839.558	3009.71
839.883	2967
840.208	2974.91
840.533	2980.33
840.858	3006.09
841.182	2958.64
841.507	2962.48
841.832	2956.38
842.156	2920.45
842.481	2928.81
842.805	2957.96
843.13	2940.78
843.454	2875.25
843.778	2942.59
844.103	2922.25
844.427	2897.4
844.751	2933.33
845.075	2904.63
845.399	2919.99
845.723	2890.62
846.047	2885.19
846.371	2858.98
846.695	2850.84
847.019	2871.18
847.343	2848.58
847.666	2823.5
847.99	2796.16
848.313	2794.12
848.637	2777.62
848.96	2761.58
849.284	2774.01
849.607	2726.55
849.931	2778.98
850.254	2740.79
850.577	2710.28
850.9	2698.3
851.223	2727.23
851.546	2699.21
851.869	2669.6
852.192	2728.59
852.515	2690.62
852.838	2657.85
853.161	2695.59
853.483	2649.04
853.806	2631.41
854.129	2628.25
854.451	2599.32
854.774	2632.54
855.096	2585.31
855.419	2577.4
855.741	2627.57
856.063	2607.69
856.385	2538.99
856.708	2537.86
857.03	2563.39
857.352	2575.6
857.674	2567.23
857.996	2586.44
858.318	2547.8
858.64	2562.04
858.961	2543.05
859.283	2548.25
859.605	2512.55
859.926	2546.9
860.248	2526.11
860.57	2525.2
860.891	2509.16
861.212	2508.03
861.534	2493.11
861.855	2494.24
862.176	2459.67
862.498	2494.69
862.819	2468.25
863.14	2453.57
863.461	2445.2
863.782	2478.42
864.103	2444.75
864.424	2459.67
864.745	2451.53
865.065	2462.83
865.386	2435.03
865.707	2450.85
866.027	2425.77
866.348	2444.3
866.668	2464.86
866.989	2438.2
867.309	2452.44
867.63	2434.81
867.95	2435.94
868.27	2395.49
868.59	2414.92
868.91	2395.49
869.23	2408.59
869.55	2388.03
869.87	2405.66
870.19	2383.06
870.51	2391.19
870.83	2388.03
871.15	2381.25
871.469	2380.12
871.789	2392.1
872.109	2371.53
872.428	2357.3
872.748	2370.86
873.067	2379.22
873.386	2381.25
873.706	2327.69
874.025	2353.23
874.344	2334.02
874.663	2323.4
874.982	2343.06
875.301	2357.97
875.62	2290.63
875.939	2340.12
876.258	2337.18
876.577	2306.68
876.896	2332.89
877.214	2357.3
877.533	2300.58
877.852	2323.63
878.17	2351.2
878.489	2310.74
878.807	2323.17
879.125	2305.32
879.444	2330.63
879.762	2285.21
880.08	2289.73
880.398	2261.71
880.716	2264.19
881.034	2268.26
881.352	2288.15
881.67	2292.67
881.988	2295.38
882.306	2268.94
882.624	2268.26
882.941	2213.12
883.259	2262.61
883.577	2216.28
883.894	2223.74
884.212	2260.58
884.529	2255.6
884.846	2260.12
885.164	2224.87
885.481	2237.07
885.798	2247.24
886.115	2209.5
886.432	2163.18
886.75	2221.03
887.067	2200.01
887.383	2214.93
887.7	2186.91
888.017	2187.81
888.334	2182.39
888.651	2165.44
888.967	2182.16
889.284	2190.52
889.6	2209.28
889.917	2180.8
890.233	2156.4
890.55	2148.71
890.866	2146.68
891.182	2145.32
891.498	2151.43
891.815	2120.01
892.131	2129.28
892.447	2105.78
892.763	2134.93
893.079	2109.39
893.395	2083.41
893.71	2080.92
894.026	2100.35
894.342	2097.42
894.657	2047.7
894.973	2073.69
895.289	2076.4
895.604	2057.19
895.92	2081.6
896.235	2042.05
896.55	2043.86
896.865	2053.35
897.181	2051.32
897.496	2034.82
897.811	2012.45
898.126	2000.24
898.441	1966.57
898.756	1967.93
899.071	1989.85
899.386	2004.54
899.7	2030.3
900.015	2009.06
900.33	1982.17
900.644	1954.14
900.959	1976.06
901.273	1958.89
901.588	1955.95
901.902	1945.78
902.216	1929.74
902.531	1953.47
902.845	1940.58
903.159	1938.55
903.473	1931.55
903.787	1885.9
904.101	1873.24
904.415	1901.04
904.729	1911.66
905.042	1898.33
905.356	1888.83
905.67	1886.35
905.984	1884.77
906.297	1854.49
906.611	1875.28
906.924	1896.74
907.237	1860.59
907.551	1850.19
907.864	1827.37
908.177	1854.26
908.491	1841.83
908.804	1841.83
909.117	1790.98
909.43	1772.45
909.743	1782.85
910.056	1798.67
910.368	1797.31
910.681	1786.24
910.994	1777.88
911.307	1789.63
911.619	1768.61
911.932	1773.36
912.244	1760.48
912.557	1768.16
912.869	1778.55
913.181	1731.1
913.494	1718.67
913.806	1729.52
914.118	1739.01
914.43	1729.52
914.742	1711.89
915.054	1682.29
915.366	1700.59
915.678	1708.05
915.99	1691.78
916.302	1684.32
916.613	1663.98
916.925	1662.4
917.236	1684.09
917.548	1674.38
917.859	1690.42
918.171	1647.48
918.482	1657.88
918.794	1633.47
919.105	1627.37
919.416	1606.36
919.727	1613.81
920.038	1603.64
920.349	1604.77
920.66	1603.42
920.971	1598.9
921.282	1597.32
921.593	1576.98
921.903	1596.19
922.214	1586.47
922.525	1586.24
922.835	1585.11
923.146	1565.68
923.456	1573.59
923.767	1530.43
924.077	1531.1
924.387	1553.02
924.697	1532.69
925.008	1553.02
925.318	1520.26
925.628	1525.45
925.938	1512.57
926.248	1509.64
926.558	1491.33
926.867	1493.59
927.177	1507.15
927.487	1483.87
927.796	1480.48
928.106	1476.42
928.416	1477.77
928.725	1483.42
929.034	1439.13
929.344	1466.02
929.653	1459.69
929.962	1455.4
930.271	1429.64
930.581	1434.61
930.89	1422.18
931.199	1442.07
931.508	1430.99
931.817	1427.15
932.125	1414.04
932.434	1415.63
932.743	1415.85
933.051	1412.69
933.36	1381.96
933.669	1388.96
933.977	1397.32
934.286	1383.31
934.594	1395.29
934.902	1403.42
935.21	1380.6
935.519	1381.96
935.827	1392.35
936.135	1418.34
936.443	1364.33
936.751	1368.17
937.059	1351.67
937.367	1359.81
937.674	1347.15
937.982	1351.67
938.29	1319.36
938.597	1320.26
938.905	1314.39
939.213	1304.44
939.52	1318.91
939.827	1330.66
940.135	1302.41
940.442	1336.31
940.749	1301.28
941.056	1314.84
941.363	1289.53
941.67	1289.3
941.977	1279.13
942.284	1314.16
942.591	1262.64
942.898	1278.91
943.205	1284.56
943.511	1260.38
943.818	1238.23
944.125	1245.69
944.431	1269.42
944.738	1248.4
945.044	1221.51
945.35	1232.81
945.657	1245.46
945.963	1249.76
946.269	1239.81
946.575	1220.38
946.881	1216.54
947.187	1192.58
947.493	1198.23
947.799	1180.38
948.105	1197.55
948.41	1178.12
948.716	1202.75
949.022	1159.14
949.327	1180.15
949.633	1173.15
949.938	1176.31
950.244	1191.45
950.549	1180.6
950.854	1133.15
951.16	1150.32
951.465	1155.07
951.77	1145.58
952.075	1139.02
952.38	1153.71
952.685	1127.05
952.99	1113.04
953.294	1099.93
953.599	1127.5
953.904	1131.11
954.209	1104.67
954.513	1129.08
954.818	1132.7
955.122	1090.44
955.426	1125.24
955.731	1110.55
956.035	1124.33
956.339	1112.58
956.643	1098.8
956.948	1074.84
957.252	1081.85
957.556	1074.62
957.86	1072.13
958.163	1072.36
958.467	1048.86
958.771	1061.29
959.075	1050.44
959.378	1061.29
959.682	1041.17
959.985	1045.01
960.289	1031.46
960.592	1046.82
960.896	1047.95
961.199	1054.73
961.502	1026.26
961.805	1040.72
962.108	1035.75
962.411	1029.65
962.714	1051.34
963.017	1009.76
963.32	1039.59
963.623	1030.78
963.926	1041.85
964.228	1013.6
964.531	991.68
964.833	1017.44
965.136	988.07
965.438	986.71
965.741	1009.99
966.043	976.99
966.345	980.61
966.648	979.03
966.95	989.88
967.252	973.83
967.554	992.36
967.856	983.77
968.158	968.41
968.46	958.69
968.761	969.54
969.063	987.39
969.365	951.68
969.666	942.19
969.968	937.45
970.269	943.55
970.571	946.94
970.872	935.41
971.174	945.36
971.475	926.6
971.776	919.14
972.077	935.19
972.378	939.48
972.679	910.56
972.98	912.36
973.281	917.79
973.582	918.24
973.883	912.14
974.183	916.43
974.484	906.04
974.785	883.21
975.085	911.91
975.386	886.15
975.686	880.5
975.986	896.54
976.287	902.42
976.587	875.3
976.887	892.7
977.187	875.75
977.487	889.31
977.787	865.13
978.087	884.57
978.387	867.39
978.687	889.76
978.987	833.27
979.286	867.84
979.586	857.22
979.885	837.56
980.185	833.5
980.484	844.57
980.784	831.24
981.083	858.81
981.382	836.21
981.682	849.31
981.981	833.5
982.28	848.41
982.579	835.3
982.878	841.18
983.177	831.46
983.475	826.04
983.774	833.95
984.073	808.18
984.372	820.39
984.67	811.57
984.969	792.59
985.267	796.66
985.566	816.09
985.864	800.95
986.162	802.31
986.461	806.6
986.759	805.47
987.057	795.98
987.355	780.16
987.653	791.91
987.951	776.77
988.249	777.45
988.547	794.17
988.844	790.11
989.142	799.6
989.44	765.7
989.737	772.71
990.035	797.11
990.332	773.38
990.63	769.09
990.927	753.72
991.224	770.9
991.521	722.54
991.819	751.92
992.116	755.3
992.413	739.26
992.71	715.76
993.006	724.12
993.303	736.77
993.6	753.95
993.897	741.97
994.193	744.91
994.49	725.7
994.787	740.39
995.083	717.79
995.379	724.35
995.676	715.08
995.972	726.83
996.268	728.41
996.565	727.06
996.861	713.72
997.157	720.5
997.453	711.92
997.749	694.97
998.044	693.39
998.34	677.11
998.636	713.5
998.932	719.15
999.227	710.11
999.523	692.48
999.818	694.06
1000.114	716.21
1000.409	696.78
1000.704	683.89
1001	697.23
1001.295	669.21
1001.59	663.56
1001.885	656.78
1002.18	669.88
1002.475	675.31
1002.77	666.72
1003.065	693.61
1003.359	665.82
1003.654	668.3
1003.949	661.52
1004.243	651.58
1004.538	663.56
1004.832	647.29
1005.127	658.13
1005.421	662.65
1005.715	651.35
1006.009	639.83
1006.304	657
1006.598	648.42
1006.892	668.75
1007.186	635.31
1007.48	640.96
1007.773	635.53
1008.067	626.49
1008.361	634.4
1008.655	639.83
1008.948	620.17
1009.242	631.92
1009.535	625.36
1009.829	622.88
1010.122	618.59
1010.415	602.54
1010.708	619.04
1011.001	619.04
1011.295	607.29
1011.588	622.65
1011.881	610.22
1012.173	600.28
1012.466	605.93
1012.759	605.03
1013.052	619.49
1013.344	594.86
1013.637	626.49
1013.93	589.66
1014.222	593.28
1014.514	570.68
1014.807	589.66
1015.099	568.87
1015.391	559.6
1015.683	591.02
1015.976	590.34
1016.268	589.43
1016.56	577
1016.851	572.94
1017.143	565.71
1017.435	568.19
1017.727	596.89
1018.018	559.15
1018.31	558.02
1018.602	565.71
1018.893	562.77
1019.185	563.45
1019.476	568.42
1019.767	544.01
1020.058	553.05
1020.35	547.4
1020.641	544.01
1020.932	560.73
1021.223	543.33
1021.514	541.53
1021.804	525.48
1022.095	551.02
1022.386	539.04
1022.677	560.06
1022.967	532.49
1023.258	520.51
1023.548	537.23
1023.839	542.66
1024.129	508.53
1024.419	537.23
1024.709	543.56
1025	536.55
1025.29	527.97
1025.58	532.49
1025.87	528.42
1026.16	501.98
1026.449	520.28
1026.739	522.32
1027.029	519.83
1027.319	517.12
1027.608	504.01
1027.898	496.55
1028.187	503.11
1028.477	509.44
1028.766	492.04
1029.055	487.06
1029.344	477.35
1029.634	482.77
1029.923	494.75
1030.212	473.05
1030.501	508.31
1030.79	488.19
1031.078	481.87
1031.367	470.57
1031.656	512.83
1031.945	491.58
1032.233	478.25
1032.522	463.56
1032.81	480.06
1033.099	485.26
1033.387	474.86
1033.675	492.26
1033.963	479.38
1034.251	467.18
1034.54	473.73
1034.828	476.89
1035.116	473.28
1035.403	447.74
1035.691	471.02
1035.979	449.55
1036.267	456.56
1036.554	462.21
1036.842	457.69
1037.129	458.14
1037.417	447.74
1037.704	456.33
1037.992	431.92
1038.279	456.33
1038.566	437.12
1038.853	437.12
1039.14	437.12
