Data from blue_chair_FLMS001491_00098.txt Node
Date: Wed Feb 08 10:32:19 GMT 2017
User: dcchb
Spectrometer: FLMS00149
Trigger mode: 0
Integration Time (sec): 2.000000E-2
Scans to average: 10
Electric dark correction enabled: true
Nonlinearity correction enabled: false
Boxcar width: 0
XAxis mode: Wavelengths
Number of Pixels in Spectrum: 2048
>>>>>Begin Spectral Data<<<<<
341.393	3.22
341.776	3.22
342.16	3.22
342.543	-48.3
342.927	-72.94
343.31	-81.52
343.693	-58.25
344.077	-73.61
344.46	-46.95
344.843	-55.31
345.226	-47.4
345.61	-37.23
345.993	-17.8
346.376	-11.92
346.759	31.69
347.142	30.34
347.525	38.02
347.908	39.6
348.291	71.69
348.674	104.23
349.057	114.4
349.44	102.43
349.823	154.63
350.206	153.05
350.588	177
350.971	189.2
351.354	202.31
351.737	222.65
352.119	215.42
352.502	230.56
352.884	246.83
353.267	248.19
353.65	273.27
354.032	270.78
354.414	293.16
354.797	271.69
355.179	285.25
355.562	288.41
355.944	302.87
356.326	297
356.709	315.08
357.091	310.56
357.473	317.79
357.855	318.01
358.238	315.98
358.62	302.42
359.002	323.44
359.384	301.97
359.766	295.87
360.148	308.52
360.53	290.44
360.912	302.87
361.294	299.26
361.676	302.42
362.057	317.79
362.439	292.7
362.821	294.29
363.203	299.26
363.584	307.62
363.966	287.05
364.348	279.6
364.729	295.42
365.111	285.47
365.493	280.5
365.874	270.56
366.256	281.18
366.637	293.61
367.019	264.23
367.4	281.86
367.781	273.72
368.163	266.26
368.544	301.29
368.925	264.91
369.306	282.53
369.688	272.59
370.069	276.66
370.45	278.24
370.831	265.81
371.212	291.35
371.593	259.26
371.974	288.64
372.355	281.41
372.736	280.28
373.117	275.08
373.498	276.66
373.879	295.87
374.26	299.03
374.641	299.26
375.021	289.99
375.402	292.7
375.783	298.35
376.163	283.21
376.544	271.69
376.925	268.75
377.305	277.56
377.686	274.63
378.066	284.34
378.447	283.66
378.827	282.08
379.208	290.44
379.588	297.45
379.968	288.64
380.349	276.66
380.729	291.35
381.109	288.41
381.489	289.09
381.87	296.55
382.25	287.96
382.63	284.57
383.01	274.63
383.39	303.55
383.77	307.17
384.15	303.1
384.53	291.35
384.91	304.23
385.29	307.39
385.67	302.87
386.049	316.88
386.429	299.71
386.809	306.94
387.189	307.39
387.568	320.95
387.948	297
388.328	327.28
388.707	288.86
389.087	313.72
389.466	309.2
389.846	321.86
390.225	310.1
390.605	322.99
390.984	313.04
391.363	292.93
391.743	301.07
392.122	338.35
392.501	303.55
392.881	334.28
393.26	301.07
393.639	312.36
394.018	323.21
394.397	330.22
394.776	320.27
395.155	307.17
395.534	314.85
395.913	316.21
396.292	327.51
396.671	323.44
397.05	321.63
397.429	331.57
397.808	305.81
398.186	318.01
398.565	346.49
398.944	344
399.323	333.16
399.701	322.08
400.08	322.31
400.458	329.77
400.837	338.58
401.215	330.44
401.594	329.09
401.972	339.48
402.351	344.91
402.729	353.49
403.107	336.77
403.486	327.28
403.864	327.05
404.242	359.14
404.62	375.41
404.999	339.71
405.377	356.88
405.755	339.71
406.133	355.08
406.511	351.01
406.889	363.66
407.267	348.07
407.645	369.31
408.023	351.01
408.401	367.73
408.779	353.49
409.156	375.64
409.534	369.09
409.912	350.78
410.29	382.65
410.667	371.35
411.045	384.91
411.422	366.83
411.8	366.37
412.178	382.87
412.555	373.38
412.933	404.57
413.31	384.91
413.687	388.97
414.065	387.16
414.442	378.13
414.819	406.15
415.197	384.45
415.574	412.25
415.951	396.88
416.328	401.63
416.705	408.18
417.082	398.92
417.46	405.02
417.837	400.72
418.214	397.56
418.591	400.5
418.967	401.18
419.344	397.33
419.721	406.15
420.098	404.79
420.475	418.58
420.852	419.48
421.228	420.38
421.605	425.81
421.982	426.71
422.358	426.26
422.735	416.09
423.111	416.99
423.488	416.99
423.864	445.69
424.241	446.6
424.617	436.88
424.994	453.15
425.37	462.42
425.746	447.05
426.123	464.68
426.499	462.64
426.875	439.14
427.251	474.39
427.627	450.21
428.003	475.07
428.379	445.92
428.756	481.63
429.132	485.47
429.507	482.76
429.883	493.83
430.259	480.27
430.635	479.82
431.011	471.91
431.387	485.47
431.763	526.14
432.138	512.13
432.514	504.45
432.89	487.05
433.265	524.34
433.641	519.59
434.016	518.91
434.392	508.07
434.767	526.14
435.143	526.14
435.518	546.93
435.894	548.74
436.269	552.81
436.644	564.34
437.02	561.85
437.395	572.47
437.77	578.57
438.145	579.25
438.52	574.05
438.895	593.04
439.271	597.55
439.646	608.85
440.021	593.04
440.395	606.82
440.77	604.56
441.145	640.04
441.52	638.01
441.895	634.62
442.27	649.98
442.645	656.54
443.019	641.4
443.394	654.73
443.769	648.85
444.143	661.51
444.518	656.08
444.892	663.54
445.267	670.55
445.641	678
446.016	678.91
446.39	680.26
446.764	683.88
447.139	717.1
447.513	707.38
447.887	694.05
448.262	691.79
448.636	697.44
449.01	701.96
449.384	715.29
449.758	723.43
450.132	713.71
450.506	730.66
450.88	729.75
451.254	756.42
451.628	740.83
452.002	739.7
452.376	745.8
452.75	762.3
453.123	781.5
453.497	785.8
453.871	791.45
454.244	788.06
454.618	781.96
454.992	780.83
455.365	783.31
455.739	783.09
456.112	828.06
456.486	829.64
456.859	813.37
457.232	849.3
457.606	819.24
457.979	833.93
458.352	853.14
458.725	821.96
459.099	848.17
459.472	889.52
459.845	851.56
460.218	886.13
460.591	879.13
460.964	866.47
461.337	891.78
461.71	885.46
462.083	913.48
462.456	903.54
462.829	917.55
463.201	907.15
463.574	921.61
463.947	955.51
464.32	945.12
464.692	957.77
465.065	970.65
465.438	975.17
465.81	988.73
466.183	950.09
466.555	1004.32
466.928	998.22
467.3	1002.52
467.672	1012.91
468.045	1001.16
468.417	1038.45
468.789	1053.36
469.161	1048.84
469.534	1050.42
469.906	1060.14
470.278	1065.57
470.65	1111.67
471.022	1080.48
471.394	1098.56
471.766	1111.67
472.138	1139.69
472.51	1150.08
472.882	1128.39
473.253	1145.79
473.625	1172.46
473.997	1192.34
474.369	1184.66
474.74	1195.96
475.112	1218.78
475.484	1199.8
475.855	1215.17
476.227	1232.57
476.598	1269.63
476.97	1265.11
477.341	1280.93
477.713	1291.77
478.084	1304.65
478.455	1345.33
478.827	1325.67
479.198	1345.78
479.569	1357.08
479.94	1384.2
480.311	1395.5
480.682	1400.02
481.053	1436.63
481.424	1469.85
481.795	1422.39
482.166	1436.85
482.537	1481.83
482.908	1489.51
483.279	1501.94
483.65	1521.37
484.021	1541.26
484.391	1522.73
484.762	1543.07
485.133	1529.96
485.503	1533.35
485.874	1549.17
486.244	1593.69
486.615	1568.83
486.985	1610.64
487.356	1638.66
487.726	1621.48
488.097	1667.36
488.467	1688.37
488.837	1691.99
489.207	1687.47
489.578	1681.37
489.948	1728.82
490.318	1707.58
490.688	1702.61
491.058	1743.29
491.428	1751.65
491.798	1750.52
492.168	1769.5
492.538	1746.23
492.908	1760.24
493.278	1751.65
493.648	1783.06
494.017	1801.14
494.387	1819.44
494.757	1776.73
495.126	1819.9
495.496	1797.07
495.866	1817.86
496.235	1839.56
496.605	1863.28
496.974	1822.16
497.344	1836.39
497.713	1818.31
498.082	1849.5
498.452	1870.29
498.821	1859.22
499.19	1828.48
499.559	1885.2
499.928	1867.8
500.298	1860.12
500.667	1877.3
501.036	1844.98
501.405	1853.12
501.774	1855.37
502.143	1846.34
502.512	1881.81
502.88	1859.67
503.249	1876.62
503.618	1885.66
503.987	1847.47
504.356	1868.03
504.724	1841.36
505.093	1880.23
505.462	1861.48
505.83	1884.75
506.199	1834.13
506.567	1895.37
506.936	1854.47
507.304	1858.09
507.672	1857.86
508.041	1848.82
508.409	1884.53
508.777	1842.72
509.145	1889.72
509.514	1891.98
509.882	1900.57
510.25	1851.99
510.618	1891.53
510.986	1880.69
511.354	1890.85
511.722	1878.88
512.09	1851.99
512.458	1871.42
512.826	1895.37
513.193	1871.65
513.561	1869.39
513.929	1866
514.297	1884.07
514.664	1901.25
515.032	1840.69
515.4	1856.96
515.767	1867.8
516.135	1844.98
516.502	1850.86
516.869	1864.41
517.237	1850.86
517.604	1853.57
517.972	1851.08
518.339	1850.4
518.706	1853.79
519.073	1810.86
519.44	1841.14
519.808	1818.54
520.175	1838.65
520.542	1820.8
520.909	1841.82
521.276	1844.98
521.643	1842.72
522.009	1789.16
522.376	1811.99
522.743	1821.03
523.11	1839.78
523.477	1845.21
523.843	1802.72
524.21	1813.34
524.577	1792.55
524.943	1816.05
525.31	1830.74
525.676	1809.95
526.043	1820.57
526.409	1806.34
526.776	1793.91
527.142	1779.67
527.508	1799.78
527.874	1793.23
528.241	1797.07
528.607	1805.88
528.973	1786.68
529.339	1787.35
529.705	1770.86
530.071	1803.85
530.437	1768.82
530.803	1766.11
531.169	1789.61
531.535	1799.78
531.901	1765.43
532.267	1759.56
532.632	1740.58
532.998	1754.59
533.364	1756.39
533.73	1778.54
534.095	1761.59
534.461	1788.71
534.826	1726.56
535.192	1773.57
535.557	1727.92
535.923	1766.34
536.288	1759.11
536.653	1729.73
537.019	1708.49
537.384	1717.53
537.749	1701.71
538.114	1715.94
538.479	1691.09
538.845	1719.79
539.21	1695.83
539.575	1718.43
539.94	1692.67
540.305	1701.71
540.67	1679.33
541.034	1684.76
541.399	1669.39
541.764	1690.63
542.129	1689.96
542.494	1659.67
542.858	1661.26
543.223	1660.13
543.587	1647.02
543.952	1634.14
544.316	1622.84
544.681	1641.37
545.045	1625.1
545.41	1618.77
545.774	1610.64
546.138	1614.03
546.503	1633.91
546.867	1605.21
547.231	1597.3
547.595	1589.62
547.959	1590.3
548.324	1563.18
548.688	1581.03
549.052	1548.04
549.416	1593.69
549.779	1549.17
550.143	1556.63
550.507	1514.59
550.871	1555.04
551.235	1508.49
551.599	1529.28
551.962	1510.75
552.326	1533.58
552.689	1544.87
553.053	1505.33
553.417	1508.94
553.78	1531.54
554.143	1486.57
554.507	1492.9
554.87	1486.8
555.234	1507.59
555.597	1498.1
555.96	1496.74
556.323	1503.29
556.686	1478.21
557.05	1492.45
557.413	1489.73
557.776	1460.36
558.139	1479.11
558.502	1478.66
558.865	1450.64
559.228	1487.93
559.59	1477.08
559.953	1503.97
560.316	1471.66
560.679	1470.3
561.041	1457.42
561.404	1498.32
561.767	1465.78
562.129	1449.96
562.492	1489.73
562.854	1453.35
563.217	1457.65
563.579	1437.31
563.941	1467.36
564.304	1461.26
564.666	1442.5
565.028	1470.75
565.39	1457.42
565.753	1460.81
566.115	1444.09
566.477	1448.15
566.839	1454.03
567.201	1489.73
567.563	1477.98
567.925	1464.65
568.287	1481.83
568.648	1469.62
569.01	1453.35
569.372	1480.92
569.734	1480.47
570.095	1483.41
570.457	1483.63
570.819	1500.58
571.18	1480.92
571.542	1500.81
571.903	1495.38
572.265	1477.76
572.626	1489.28
572.987	1493.8
573.349	1497.42
573.71	1501.03
574.071	1489.96
574.432	1487.93
574.794	1516.17
575.155	1488.15
575.516	1517.98
575.877	1532.22
576.238	1571.99
576.599	1518.21
576.96	1522.95
577.32	1556.4
577.681	1563.18
578.042	1546.23
578.403	1543.74
578.763	1531.77
579.124	1556.63
579.485	1557.3
579.845	1526.34
580.206	1553.24
580.566	1564.76
580.927	1576.51
581.287	1575.61
581.648	1548.72
582.008	1576.96
582.368	1541.03
582.728	1586.91
583.089	1565.44
583.449	1590.07
583.809	1587.81
584.169	1566.57
584.529	1557.98
584.889	1603.18
585.249	1557.98
585.609	1583.29
585.969	1578.32
586.329	1578.09
586.688	1570.18
587.048	1581.26
587.408	1590.75
587.768	1580.35
588.127	1575.16
588.487	1581.03
588.846	1586.23
589.206	1588.72
589.565	1557.53
589.925	1576.29
590.284	1579.68
590.643	1591.88
591.003	1601.82
591.362	1587.36
591.721	1591.65
592.08	1611.31
592.44	1619.67
592.799	1600.24
593.158	1590.75
593.517	1584.42
593.876	1620.13
594.235	1581.94
594.593	1588.49
594.952	1603.18
595.311	1577.19
595.67	1563.41
596.029	1575.16
596.387	1615.38
596.746	1573.57
597.104	1576.74
597.463	1591.2
597.822	1544.2
598.18	1598.43
598.538	1597.98
598.897	1547.13
599.255	1533.35
599.613	1589.62
599.972	1564.08
600.33	1592.78
600.688	1598.88
601.046	1574.7
601.404	1572.67
601.762	1550.98
602.12	1581.48
602.478	1570.41
602.836	1578.32
603.194	1562.95
603.552	1617.19
603.91	1586.23
604.268	1582.39
604.625	1590.98
604.983	1600.01
605.341	1582.84
605.698	1555.04
606.056	1582.61
606.413	1575.83
606.771	1608.6
607.128	1586.68
607.485	1567.02
607.843	1580.13
608.2	1589.62
608.557	1589.17
608.914	1577.42
609.272	1571.54
609.629	1608.83
609.986	1586.68
610.343	1606.57
610.7	1611.31
611.057	1571.77
611.414	1601.37
611.771	1607.25
612.127	1583.97
612.484	1597.53
612.841	1600.47
613.198	1601.6
613.554	1597.75
613.911	1614.03
614.267	1586
614.624	1587.36
614.98	1567.25
615.337	1614.93
615.693	1608.38
616.05	1613.12
616.406	1620.58
616.762	1629.62
617.118	1628.26
617.475	1614.03
617.831	1618.09
618.187	1626.68
618.543	1624.87
618.899	1604.31
619.255	1599.56
619.611	1635.49
619.967	1604.76
620.323	1641.14
620.678	1608.38
621.034	1640.01
621.39	1665.55
621.746	1645.89
622.101	1626.68
622.457	1632.33
622.812	1610.86
623.168	1622.39
623.523	1630.3
623.879	1614.93
624.234	1633.91
624.589	1608.38
624.945	1666.45
625.3	1627.13
625.655	1626.68
626.01	1618.09
626.365	1658.09
626.72	1656.06
627.075	1609.73
627.43	1606.34
627.785	1652.22
628.14	1600.69
628.495	1638.66
628.85	1607.47
629.205	1623.29
629.559	1606.12
629.914	1610.41
630.269	1595.95
630.623	1626.68
630.978	1619.9
631.332	1638.43
631.687	1616.51
632.041	1635.27
632.396	1620.8
632.75	1606.12
633.104	1621.48
633.459	1624.42
633.813	1662.61
634.167	1638.43
634.521	1633.23
634.875	1628.49
635.229	1636.62
635.583	1635.72
635.937	1617.87
636.291	1626.68
636.645	1626.45
636.999	1606.57
637.352	1577.64
637.706	1612.22
638.06	1628.49
638.413	1598.21
638.767	1578.55
639.121	1630.07
639.474	1620.8
639.828	1590.3
640.181	1612.9
640.534	1614.7
640.888	1626.23
641.241	1587.59
641.594	1594.36
641.947	1627.58
642.301	1622.16
642.654	1632.1
643.007	1623.74
643.36	1625.78
643.713	1610.41
644.066	1593.91
644.419	1628.04
644.771	1602.95
645.124	1598.66
645.477	1600.92
645.83	1590.98
646.182	1611.77
646.535	1558.43
646.888	1591.88
647.24	1590.75
647.593	1584.87
647.945	1581.26
648.298	1577.87
648.65	1592.78
649.002	1578.09
649.355	1581.71
649.707	1593.46
650.059	1595.95
650.411	1600.01
650.763	1596.4
651.115	1629.62
651.467	1629.62
651.819	1606.57
652.171	1644.98
652.523	1632.56
652.875	1611.77
653.227	1618.77
653.578	1640.69
653.93	1642.73
654.282	1614.7
654.633	1622.84
654.985	1623.06
655.337	1616.74
655.688	1615.83
656.039	1645.21
656.391	1650.18
656.742	1628.26
657.094	1633.91
657.445	1686.34
657.796	1656.06
658.147	1666.45
658.498	1653.8
658.849	1616.29
659.2	1636.62
659.551	1628.04
659.902	1647.24
660.253	1663.29
660.604	1647.47
660.955	1647.24
661.306	1644.08
661.656	1637.98
662.007	1639.56
662.358	1685.89
662.708	1654.25
663.059	1650.18
663.409	1643.86
663.76	1640.01
664.11	1645.89
664.461	1685.89
664.811	1625.1
665.161	1674.36
665.511	1625.78
665.862	1646.79
666.212	1645.89
666.562	1660.35
666.912	1646.34
667.262	1674.36
667.612	1646.57
667.962	1652.67
668.312	1652.22
668.662	1676.62
669.011	1635.27
669.361	1651.76
669.711	1640.47
670.06	1622.16
670.41	1651.31
670.76	1627.13
671.109	1635.04
671.459	1663.29
671.808	1616.74
672.157	1635.04
672.507	1618.77
672.856	1624.19
673.205	1637.3
673.554	1620.13
673.904	1632.33
674.253	1613.57
674.602	1605.21
674.951	1647.7
675.3	1597.75
675.649	1610.64
675.998	1618.32
676.346	1635.27
676.695	1576.96
677.044	1608.83
677.393	1582.16
677.741	1617.87
678.09	1596.17
678.438	1597.3
678.787	1557.98
679.135	1603.18
679.484	1587.13
679.832	1636.4
680.181	1580.58
680.529	1584.65
680.877	1585.78
681.225	1574.93
681.573	1577.64
681.922	1583.74
682.27	1562.73
682.618	1555.04
682.966	1591.65
683.314	1569.96
683.661	1568.15
684.009	1536.51
684.357	1548.04
684.705	1570.86
685.053	1576.96
685.4	1569.73
685.748	1534.71
686.095	1561.6
686.443	1526.34
686.79	1519.11
687.138	1536.74
687.485	1547.13
687.832	1505.78
688.18	1560.24
688.527	1522.95
688.874	1510.53
689.221	1514.14
689.568	1499.68
689.915	1513.01
690.262	1505.78
690.609	1487.93
690.956	1473.24
691.303	1480.47
691.65	1455.16
691.997	1501.49
692.344	1478.66
692.69	1483.41
693.037	1470.98
693.383	1460.58
693.73	1468.72
694.077	1500.81
694.423	1467.59
694.769	1473.69
695.116	1451.09
695.462	1463.07
695.808	1473.69
696.155	1428.72
696.501	1449.51
696.847	1425.33
697.193	1444.54
697.539	1420.13
697.885	1430.98
698.231	1433.01
698.577	1441.6
698.923	1422.17
699.269	1416.06
699.614	1398.44
699.96	1436.63
700.306	1433.69
700.651	1409.74
700.997	1404.54
701.342	1391.66
701.688	1411.77
702.033	1391.21
702.379	1385.56
702.724	1416.29
703.069	1395.95
703.415	1386.91
703.76	1384.43
704.105	1354.37
704.45	1401.83
704.795	1379.23
705.14	1358.44
705.485	1364.99
705.83	1376.29
706.175	1364.99
706.52	1407.48
706.865	1364.54
707.209	1371.77
707.554	1350.3
707.899	1363.86
708.243	1380.13
708.588	1353.92
708.932	1355.73
709.277	1369.51
709.621	1385.33
709.966	1364.09
710.31	1371.09
710.654	1383.52
710.998	1385.56
711.342	1351.89
711.687	1363.86
712.031	1377.42
712.375	1373.13
712.719	1385.56
713.063	1379.91
713.407	1373.58
713.75	1367.7
714.094	1372
714.438	1404.99
714.782	1406.8
715.125	1377.2
715.469	1399.79
715.812	1370.87
716.156	1356.63
716.499	1358.44
716.843	1404.77
717.186	1401.15
717.53	1395.27
717.873	1376.29
718.216	1401.83
718.559	1411.54
718.902	1417.42
719.246	1432.79
719.589	1389.17
719.932	1392.79
720.275	1373.81
720.617	1414.26
720.96	1427.14
721.303	1448.15
721.646	1409.74
721.989	1416.06
722.331	1413.8
722.674	1419.23
723.016	1435.95
723.359	1465.78
723.701	1451.32
724.044	1459.91
724.386	1409.96
724.729	1449.51
725.071	1426.46
725.413	1443.41
725.755	1480.24
726.097	1442.05
726.439	1472.79
726.782	1443.18
727.124	1467.14
727.465	1480.24
727.807	1472.56
728.149	1500.58
728.491	1479.57
728.833	1517.76
729.175	1498.55
729.516	1489.28
729.858	1513.46
730.199	1519.79
730.541	1523.41
730.882	1528.38
731.224	1551.43
731.565	1536.97
731.906	1543.52
732.248	1552.33
732.589	1574.48
732.93	1528.38
733.271	1569.51
733.612	1578.77
733.953	1568.15
734.294	1592.11
734.635	1609.05
734.976	1564.76
735.317	1600.24
735.658	1599.34
735.999	1619
736.339	1619.22
736.68	1644.76
737.021	1651.09
737.361	1660.13
737.702	1654.93
738.042	1672.33
738.383	1708.26
738.723	1715.49
739.063	1697.41
739.404	1734.7
739.744	1689.28
740.084	1721.37
740.424	1754.59
740.764	1743.51
741.104	1778.54
741.444	1759.33
741.784	1792.33
742.124	1822.61
742.464	1821.03
742.804	1827.13
743.143	1858.09
743.483	1900.8
743.823	1892.66
744.162	1905.54
744.502	1956.84
744.841	1965.65
745.181	1971.98
745.52	1982.15
745.86	2047.01
746.199	2031.87
746.538	2034.81
746.877	2092.2
747.216	2124.52
747.556	2146.21
747.895	2165.2
748.234	2200.45
748.573	2182.6
748.911	2196.16
749.25	2250.17
749.589	2280.67
749.928	2320
750.267	2355.47
750.605	2387.79
750.944	2405.42
751.283	2462.14
751.621	2492.87
751.96	2524.51
752.298	2581.68
752.636	2602.25
752.975	2622.59
753.313	2677.73
753.651	2708.69
753.989	2736.71
754.327	2806.99
754.666	2838.17
755.004	2861.9
755.342	2959.07
755.679	2989.13
756.017	3017.83
756.355	3058.51
756.693	3140.99
757.031	3169.92
757.368	3211.05
757.706	3263.02
758.044	3301.44
758.381	3388.67
758.719	3398.61
759.056	3461.21
759.394	3504.6
759.731	3520.87
760.068	3567.19
760.405	3610.58
760.743	3691.26
761.08	3716.12
761.417	3740.07
761.754	3824.36
762.091	3829.56
762.428	3879.5
762.765	3911.37
763.102	3997.01
763.438	4045.37
763.775	4051.25
764.112	4132.15
764.449	4196.1
764.785	4216.44
765.122	4228.42
765.458	4284.92
765.795	4318.36
766.131	4358.13
766.467	4426.61
766.804	4452.37
767.14	4460.96
767.476	4528.3
767.812	4521.97
768.148	4591.8
768.485	4674.28
768.821	4614.62
769.157	4654.4
769.492	4707.5
769.828	4740.27
770.164	4755.19
770.5	4740.27
770.836	4764.45
771.171	4825.24
771.507	4858.91
771.842	4863.21
772.178	4898.01
772.513	4922.19
772.849	4979.36
773.184	4954.95
773.519	4980.94
773.855	4994.28
774.19	5023.2
774.525	5076.53
774.86	5046.03
775.195	5059.13
775.53	5073.82
775.865	5122.41
776.2	5107.94
776.535	5094.61
776.87	5069.3
777.205	5101.62
777.539	5125.12
777.874	5182.29
778.209	5146.59
778.543	5149.07
778.878	5157.89
779.212	5185
779.547	5156.31
779.881	5208.73
780.215	5165.34
780.55	5222.29
780.884	5223.65
781.218	5241.73
781.552	5235.4
781.886	5232.01
782.22	5218.9
782.554	5231.56
782.888	5178.9
783.222	5240.37
783.556	5142.29
783.889	5180.26
784.223	5185.46
784.557	5163.54
784.89	5218
785.224	5197.43
785.557	5206.25
785.891	5215.96
786.224	5178
786.558	5226.36
786.891	5136.87
787.224	5194.5
787.557	5180.03
787.891	5131
788.224	5213.7
788.557	5227.72
788.89	5194.72
789.223	5216.64
789.556	5154.27
789.888	5179.58
790.221	5158.34
790.554	5114.5
790.887	5137.55
791.219	5127.38
791.552	5137.55
791.884	5093.93
792.217	5112.69
792.549	5104.56
792.882	5074.27
793.214	5161.5
793.546	5135.06
793.879	5065.23
794.211	5031.11
794.543	5079.7
794.875	5029.98
795.207	5069.98
795.539	5098.23
795.871	5079.7
796.203	5015.74
796.535	5031.79
796.867	5021.85
797.198	5024.56
797.53	5005.8
797.862	4970.1
798.193	5015.74
798.525	4992.47
798.856	4993.6
799.188	4970.32
799.519	4937.33
799.85	4925.8
800.182	4975.74
800.513	4920.83
800.844	4892.13
801.175	4962.41
801.506	4965.35
801.837	4935.07
802.168	4868.4
802.499	4921.28
802.83	4874.73
803.161	4867.95
803.491	4905.92
803.822	4880.15
804.153	4858.91
804.483	4804.9
804.814	4800.38
805.145	4800.38
805.475	4827.95
805.805	4809.42
806.136	4763.1
806.466	4809.42
806.796	4808.29
807.126	4786.15
807.457	4731.91
807.787	4747.95
808.117	4761.51
808.447	4764.23
808.777	4773.72
809.107	4702.53
809.436	4700.27
809.766	4715.41
810.096	4696.88
810.426	4771.68
810.755	4694.4
811.085	4702.53
811.414	4712.47
811.744	4715.41
812.073	4654.4
812.403	4632.25
812.732	4675.87
813.061	4687.16
813.39	4615.98
813.719	4627.96
814.049	4621.4
814.378	4646.04
814.707	4599.71
815.036	4625.02
815.365	4631.8
815.693	4538.24
816.022	4572.37
816.351	4587.05
816.68	4523.33
817.008	4551.12
817.337	4537.79
817.665	4510.45
817.994	4553.16
818.322	4513.84
818.651	4543.89
818.979	4512.48
819.307	4542.31
819.636	4560.39
819.964	4508.86
820.292	4493.05
820.62	4532.59
820.948	4538.47
821.276	4499.83
821.604	4493.05
821.932	4526.04
822.259	4530.78
822.587	4518.81
822.915	4495.98
823.243	4531.01
823.57	4561.52
823.898	4510.9
824.225	4538.47
824.553	4515.87
824.88	4537.79
825.207	4492.14
825.535	4554.74
825.862	4545.7
826.189	4514.51
826.516	4542.54
826.843	4564.46
827.17	4541.18
827.497	4574.63
827.824	4549.99
828.151	4522.88
828.478	4554.29
828.805	4595.19
829.131	4573.04
829.458	4570.33
829.785	4511.35
830.111	4534.63
830.438	4562.65
830.764	4582.53
831.09	4538.02
831.417	4574.85
831.743	4542.54
832.069	4559.03
832.395	4529.2
832.722	4564.23
833.048	4508.41
833.374	4596.55
833.7	4552.48
834.026	4535.08
834.351	4533.5
834.677	4570.11
835.003	4587.28
835.329	4581.18
835.654	4552.93
835.98	4542.54
836.306	4495.53
836.631	4545.47
836.956	4570.33
837.282	4558.81
837.607	4499.15
837.932	4509.77
838.258	4506.15
838.583	4462.54
838.908	4463.22
839.233	4493.5
839.558	4422.31
839.883	4453.95
840.208	4454.4
840.533	4504.12
840.858	4458.92
841.182	4427.28
841.507	4452.37
841.832	4424.57
842.156	4425.7
842.481	4391.35
842.805	4391.58
843.13	4359.49
843.454	4382.31
843.778	4352.48
844.103	4365.14
844.427	4372.6
844.751	4341.64
845.075	4331.47
845.399	4310.9
845.723	4348.64
846.047	4306.16
846.371	4240.17
846.695	4273.16
847.019	4259.38
847.343	4252.6
847.666	4197.23
847.99	4147.07
848.313	4192.71
848.637	4154.98
848.96	4195.88
849.284	4188.42
849.607	4100.97
849.931	4110
850.254	4113.39
850.577	4069.78
850.9	4074.07
851.223	4059.16
851.546	4029.33
851.869	4013.74
852.192	4040.18
852.515	4020.74
852.838	4021.65
853.161	4026.84
853.483	3947.07
853.806	3964.92
854.129	3901.42
854.451	3949.33
854.774	3948.2
855.096	3900.07
855.419	3907.3
855.741	3923.57
856.063	3858.71
856.385	3866.62
856.708	3860.75
857.03	3839.28
857.352	3837.47
857.674	3850.58
857.996	3806.51
858.318	3817.58
858.64	3817.36
858.961	3781.2
859.283	3775.1
859.605	3753.4
859.926	3776.68
860.248	3736.46
860.57	3747.53
860.891	3745.95
861.212	3758.15
861.534	3729.9
861.855	3713.18
862.176	3730.35
862.498	3697.36
862.819	3710.24
863.14	3685.84
863.461	3719.51
863.782	3651.71
864.103	3629.57
864.424	3668.66
864.745	3707.53
865.065	3689.9
865.386	3639.96
865.707	3653.75
866.027	3671.6
866.348	3641.77
866.668	3654.65
866.989	3609.23
867.309	3592.73
867.63	3642.22
867.95	3594.76
868.27	3597.93
868.59	3608.32
868.91	3613.52
869.23	3625.72
869.55	3563.13
869.87	3580.98
870.19	3578.27
870.51	3581.21
870.83	3583.24
871.15	3515.44
871.469	3569.68
871.789	3580.98
872.109	3553.41
872.428	3534.43
872.748	3524.26
873.067	3520.42
873.386	3533.75
873.706	3542.79
874.025	3506.18
874.344	3482.9
874.663	3533.97
874.982	3495.78
875.301	3483.81
875.62	3489
875.939	3485.61
876.258	3448.1
876.577	3479.06
876.896	3449.23
877.214	3458.27
877.533	3455.56
877.852	3472.73
878.17	3444.71
878.489	3423.24
878.807	3463.24
879.125	3460.53
879.444	3461.89
879.762	3480.64
880.08	3419.85
880.398	3409.68
880.716	3427.54
881.034	3406.97
881.352	3398.39
881.67	3407.42
881.988	3447.88
882.306	3392.28
882.624	3370.82
882.941	3319.74
883.259	3346.18
883.577	3351.61
883.894	3354.09
884.212	3345.96
884.529	3328.1
884.846	3269.8
885.164	3285.17
885.481	3315.22
885.798	3279.29
886.115	3255.79
886.432	3269.12
886.75	3275.9
887.067	3250.37
887.383	3255.56
887.7	3242.01
888.017	3248.33
888.334	3252.63
888.651	3241.1
888.967	3249.24
889.284	3210.82
889.6	3194.77
889.917	3194.55
890.233	3206.53
890.55	3185.96
890.866	3168.56
891.182	3171.05
891.498	3162.23
891.815	3149.35
892.131	3105.51
892.447	3099.64
892.763	3144.61
893.079	3126.53
893.395	3096.7
893.71	3085.17
894.026	3055.12
894.342	3071.84
894.657	3070.03
894.973	3071.61
895.289	3054.89
895.604	3082.69
895.92	3028.45
896.235	3056.25
896.55	3035.91
896.865	3023.48
897.181	3015.12
897.496	2981.22
897.811	2977.15
898.126	2984.84
898.441	2976.25
898.756	2950.04
899.071	2949.36
899.386	2964.5
899.7	2916.59
900.015	2906.19
900.33	2877.27
900.644	2887.21
900.959	2881.56
901.273	2893.77
901.588	2898.96
901.902	2828
902.216	2826.65
902.531	2825.97
902.845	2833.88
903.159	2801.56
903.473	2802.24
903.787	2758.63
904.101	2764.96
904.415	2722.47
904.729	2752.07
905.042	2711.62
905.356	2751.4
905.67	2719.76
905.984	2704.62
906.297	2729.25
906.611	2744.17
906.924	2682.02
907.237	2702.58
907.551	2690.83
907.864	2639.08
908.177	2653.55
908.491	2641.57
908.804	2628.24
909.117	2630.04
909.43	2623.26
909.743	2582.36
910.056	2616.48
910.368	2590.27
910.681	2574.45
910.994	2569.25
911.307	2550.05
911.619	2519.76
911.932	2553.44
912.244	2502.82
912.557	2525.64
912.869	2492.65
913.181	2507.34
913.494	2488.35
913.806	2466.66
914.118	2469.37
914.43	2435.02
914.742	2445.42
915.054	2428.92
915.366	2433.66
915.678	2421.91
915.99	2423.72
916.302	2418.52
916.613	2417.17
916.925	2393.89
917.236	2397.06
917.548	2347.11
917.859	2388.24
918.171	2350.5
918.482	2378.07
918.794	2322.93
919.105	2343.95
919.416	2294.46
919.727	2299.66
920.038	2292.65
920.349	2286.55
920.66	2309.6
920.971	2280.9
921.282	2289.04
921.593	2243.84
921.903	2275.7
922.214	2266.89
922.525	2218.98
922.835	2245.42
923.146	2211.07
923.456	2219.21
923.767	2214.91
924.077	2190.73
924.387	2185.54
924.697	2169.49
925.008	2147.57
925.318	2151.41
925.628	2193.9
925.938	2155.03
926.248	2150.73
926.558	2127.46
926.867	2132.43
927.177	2155.48
927.487	2109.61
927.796	2140.34
928.106	2105.31
928.416	2094.01
928.725	2103.96
929.034	2078.42
929.344	2084.3
929.653	2052.21
929.962	2017.18
930.271	2059.66
930.581	2030.29
930.89	2017.86
931.199	2013.56
931.508	2006.33
931.817	2036.61
932.125	2018.53
932.434	2011.98
932.743	1981.02
933.051	1975.15
933.36	1974.02
933.669	1955.03
933.977	1942.15
934.286	1953.45
934.594	1947.58
934.902	1949.16
935.21	1945.77
935.519	1937.63
935.827	1906.9
936.135	1906.45
936.443	1859.44
936.751	1902.83
937.059	1917.29
937.367	1876.62
937.674	1900.57
937.982	1870.52
938.29	1835.26
938.597	1880.69
938.905	1817.64
939.213	1857.63
939.52	1837.07
939.827	1835.71
940.135	1799.56
940.442	1833.23
940.749	1784.19
941.056	1769.5
941.363	1788.94
941.67	1750.97
941.977	1758.88
942.284	1748.03
942.591	1785.32
942.898	1759.78
943.205	1770.63
943.511	1735.83
943.818	1711.42
944.125	1721.82
944.431	1735.38
944.738	1704.87
945.044	1722.95
945.35	1698.32
945.657	1678.88
945.963	1692.67
946.269	1685.44
946.575	1697.86
946.881	1704.42
947.187	1677.75
947.493	1656.28
947.799	1673.23
948.105	1635.04
948.41	1667.81
948.716	1638.88
949.022	1634.82
949.327	1637.3
949.633	1631.43
949.938	1633.23
950.244	1602.27
950.549	1572.22
950.854	1609.28
951.16	1623.29
951.465	1604.08
951.77	1586.46
952.075	1563.18
952.38	1556.17
952.685	1576.29
952.99	1564.76
953.294	1553.69
953.599	1553.69
953.904	1554.59
954.209	1535.61
954.513	1537.87
954.818	1525.44
955.122	1536.74
955.426	1518.43
955.731	1494.25
956.035	1538.1
956.339	1494.71
956.643	1487.02
956.948	1484.76
957.252	1473.69
957.556	1518.89
957.86	1479.79
958.163	1473.01
958.467	1453.58
958.771	1465.55
959.075	1484.99
959.378	1441.37
959.682	1445.44
959.985	1433.69
960.289	1418.55
960.592	1425.1
960.896	1421.71
961.199	1415.39
961.502	1397.08
961.805	1422.39
962.108	1400.92
962.411	1367.93
962.714	1393.69
963.017	1393.92
963.32	1402.73
963.623	1357.08
963.926	1373.58
964.228	1371.77
964.531	1367.03
964.833	1355.5
965.136	1329.29
965.438	1372.22
965.741	1358.66
966.043	1344.43
966.345	1354.15
966.648	1346.91
966.95	1313.47
967.252	1337.65
967.554	1305.78
967.856	1287.48
968.158	1289.29
968.46	1296.75
968.761	1286.58
969.063	1303.98
969.365	1270.98
969.666	1294.94
969.968	1285.67
970.269	1296.97
970.571	1287.03
970.872	1277.31
971.174	1268.95
971.475	1249.06
971.776	1247.26
972.077	1249.74
972.378	1272.11
972.679	1216.3
972.98	1196.18
973.281	1241.38
973.582	1218.56
973.883	1226.24
974.183	1212
974.484	1216.3
974.785	1236.41
975.085	1232.34
975.386	1229.63
975.686	1204.54
975.986	1218.78
976.287	1178.33
976.587	1184.66
976.887	1186.92
977.187	1181.95
977.487	1191.89
977.787	1169.07
978.087	1155.51
978.387	1155.73
978.687	1152.12
978.987	1174.49
979.286	1162.06
979.586	1157.54
979.885	1146.02
980.185	1146.92
980.484	1151.21
980.784	1130.2
981.083	1136.07
981.382	1113.25
981.682	1113.93
981.981	1127.26
982.28	1125
982.579	1119.35
982.878	1115.96
983.177	1097.2
983.475	1096.07
983.774	1098.56
984.073	1070.08
984.372	1071.21
984.67	1062.18
984.969	1075.51
985.267	1040.93
985.566	1065.11
985.864	1059.24
986.162	1050.2
986.461	1059.69
986.759	1046.81
987.057	1030.76
987.355	1027.15
987.653	1071.89
987.951	1031.22
988.249	1027.15
988.547	1024.21
988.844	1031.67
989.142	1019.01
989.44	1037.09
989.737	1033.25
990.035	1034.61
990.332	993.93
990.63	1005.45
990.927	999.13
991.224	996.64
991.521	1005.45
991.819	999.58
992.116	965.45
992.413	990.09
992.71	985.79
993.006	977.88
993.303	978.11
993.6	961.16
993.897	991.89
994.193	1004.32
994.49	938.56
994.787	940.37
995.083	947.83
995.379	974.72
995.676	924.55
995.972	935.17
996.268	935.17
996.565	922.07
996.861	939.69
997.157	936.53
997.453	914.83
997.749	907.83
998.044	925.91
998.34	897.89
998.636	881.62
998.932	898.79
999.227	917.55
999.523	892.69
999.818	887.26
1000.114	875.51
1000.409	875.74
1000.704	881.16
1001	872.12
1001.295	859.47
1001.59	868.96
1001.885	874.84
1002.18	860.82
1002.475	862.63
1002.77	864.21
1003.065	831.22
1003.359	835.97
1003.654	834.16
1003.949	826.93
1004.243	849.3
1004.538	844.78
1004.832	864.21
1005.127	834.16
1005.421	803.88
1005.715	818.11
1006.009	826.25
1006.304	806.36
1006.598	805.69
1006.892	804.56
1007.186	786.48
1007.48	790.54
1007.773	789.41
1008.067	799.81
1008.361	774.95
1008.655	798.45
1008.948	785.8
1009.242	775.18
1009.535	768.85
1009.829	774.95
1010.122	788.74
1010.415	789.64
1010.708	756.19
1011.001	780.6
1011.295	768.4
1011.588	753.93
1011.881	758.45
1012.173	747.38
1012.466	729.08
1012.759	762.52
1013.052	704.67
1013.344	711.22
1013.637	713.03
1013.93	733.14
1014.222	707.38
1014.514	735.86
1014.807	697.44
1015.099	727.95
1015.391	698.12
1015.683	686.14
1015.976	699.25
1016.268	704.44
1016.56	678.68
1016.851	698.12
1017.143	707.38
1017.435	684.11
1017.727	725.69
1018.018	680.94
1018.31	678.68
1018.602	693.37
1018.893	661.06
1019.185	671.9
1019.476	667.61
1019.767	659.47
1020.058	652.69
1020.35	664.67
1020.641	645.92
1020.932	671.23
1021.223	641.17
1021.514	649.98
1021.804	653.6
1022.095	625.8
1022.386	649.53
1022.677	629.42
1022.967	654.95
1023.258	644.56
1023.548	604.79
1023.839	606.82
1024.129	655.18
1024.419	633.26
1024.709	649.76
1025	587.61
1025.29	594.62
1025.58	610.89
1025.87	607.72
1026.16	590.78
1026.449	588.06
1026.739	594.84
1027.029	601.85
1027.319	583.77
1027.608	568.86
1027.898	607.27
1028.187	580.61
1028.477	589.19
1028.766	593.71
1029.055	580.83
1029.344	573.15
1029.634	588.29
1029.923	598.01
1030.212	568.63
1030.501	574.05
1030.79	568.4
1031.078	553.49
1031.367	542.87
1031.656	555.07
1031.945	560.27
1032.233	552.36
1032.522	574.96
1032.81	564.11
1033.099	550.1
1033.387	527.95
1033.675	520.72
1033.963	561.85
1034.251	539.93
1034.54	520.95
1034.828	520.95
1035.116	522.75
1035.403	514.85
1035.691	525.24
1035.979	548.97
1036.267	490.67
1036.554	511
1036.842	538.8
1037.129	532.02
1037.417	508.97
1037.704	532.25
1037.992	523.88
1038.279	519.59
1038.566	530.44
1038.853	530.44
1039.14	530.44
