Data from blue_surface_keyboard_FLMS001491_008.txt Node
Date: Tue Feb 07 11:12:33 GMT 2017
User: dcchb
Spectrometer: FLMS00149
Trigger mode: 0
Integration Time (sec): 2.000000E-2
Scans to average: 10
Electric dark correction enabled: true
Nonlinearity correction enabled: false
Boxcar width: 0
XAxis mode: Wavelengths
Number of Pixels in Spectrum: 2048
>>>>>Begin Spectral Data<<<<<
341.393	-22.78
341.776	-22.78
342.16	-22.78
342.543	-53.29
342.927	-84.02
343.31	-72.95
343.693	-46.06
344.077	-85.38
344.46	-54.65
344.843	-58.49
345.226	-43.35
345.61	-29.11
345.993	-15.32
346.376	5.24
346.759	15.86
347.142	9.99
347.525	43.66
347.908	47.05
348.291	75.52
348.674	104.22
349.057	103.77
349.44	121.4
349.823	149.42
350.206	162.3
350.588	180.83
350.971	191.9
351.354	218.79
351.737	212.92
352.119	226.03
352.502	225.57
352.884	254.72
353.267	254.27
353.65	281.16
354.032	285.01
354.414	284.55
354.797	280.94
355.179	305.8
355.562	302.41
355.944	297.44
356.326	314.16
356.709	306.47
357.091	328.62
357.473	310.32
357.855	308.51
358.238	317.77
358.62	321.62
359.002	305.8
359.384	310.54
359.766	318.23
360.148	299.24
360.53	329.3
360.912	328.62
361.294	301.73
361.676	305.35
362.057	304.22
362.439	307.38
362.821	310.54
363.203	308.51
363.584	310.99
363.966	282.29
364.348	305.8
364.729	317.55
365.111	282.97
365.493	295.18
365.874	277.78
366.256	293.59
366.637	309.19
367.019	285.23
367.4	269.41
367.781	281.62
368.163	297.21
368.544	290.43
368.925	272.8
369.306	304.67
369.688	274.61
370.069	280.71
370.45	280.71
370.831	289.53
371.212	273.26
371.593	303.09
371.974	269.41
372.355	308.51
372.736	286.14
373.117	281.84
373.498	270.09
373.879	275.97
374.26	286.59
374.641	295.4
375.021	279.81
375.402	275.97
375.783	286.81
376.163	293.37
376.544	268.28
376.925	278.68
377.305	278.23
377.686	287.27
378.066	292.01
378.447	276.87
378.827	277.1
379.208	282.97
379.588	300.37
379.968	274.61
380.349	281.39
380.729	310.54
381.109	285.01
381.489	301.73
381.87	299.7
382.25	290.88
382.63	286.36
383.01	299.24
383.39	300.83
383.77	312.58
384.15	308.28
384.53	298.34
384.91	307.83
385.29	323.2
385.67	327.04
386.049	306.47
386.429	299.47
386.809	314.61
387.189	305.8
387.568	293.82
387.948	306.93
388.328	311.67
388.707	310.32
389.087	306.7
389.466	326.36
389.846	311.9
390.225	330.88
390.605	322.29
390.984	339.02
391.363	317.32
391.743	326.36
392.122	325.91
392.501	319.58
392.881	357.32
393.26	325.68
393.639	316.42
394.018	322.52
394.397	306.93
394.776	332.46
395.155	332.46
395.534	320.26
395.913	319.81
396.292	347.6
396.671	325.01
397.05	345.12
397.429	324.33
397.808	317.1
398.186	332.46
398.565	323.88
398.944	328.62
399.323	324.1
399.701	340.37
400.08	336.76
400.458	341.28
400.837	338.56
401.215	366.81
401.594	340.15
401.972	344.89
402.351	334.95
402.729	327.04
403.107	359.58
403.486	338.56
403.864	340.6
404.242	343.54
404.62	359.58
404.999	348.73
405.377	349.41
405.755	368.17
406.133	354.16
406.511	362.07
406.889	369.75
407.267	376.76
407.645	359.58
408.023	383.54
408.401	351.22
408.779	344.44
409.156	367.94
409.534	353.71
409.912	362.74
410.29	364.78
410.667	370.88
411.045	349.86
411.422	363.65
411.8	364.33
412.178	367.94
412.555	362.29
412.933	386.7
413.31	394.16
413.687	384.67
414.065	384.67
414.442	380.6
414.819	395.51
415.197	381.28
415.574	403.65
415.951	385.34
416.328	384.89
416.705	386.25
417.082	385.34
417.46	383.99
417.837	383.99
418.214	398.45
418.591	386.47
418.967	393.7
419.344	401.61
419.721	398.45
420.098	406.59
420.475	390.99
420.852	406.36
421.228	393.48
421.605	403.2
421.982	392.12
422.358	405.68
422.735	412.69
423.111	400.03
423.488	407.49
423.864	413.14
424.241	426.92
424.617	409.07
424.994	411.56
425.37	405.46
425.746	397.32
426.123	415.85
426.499	421.27
426.875	415.62
427.251	412.91
427.627	420.37
428.003	435.96
428.379	428.73
428.756	438.67
429.132	444.55
429.507	444.32
429.883	434.83
430.259	426.92
430.635	463.31
431.011	433.93
431.387	445.91
431.763	465.11
432.138	427.15
432.514	463.98
432.89	470.31
433.265	470.31
433.641	455.4
434.016	472.8
434.392	477.54
434.767	493.14
435.143	481.61
435.518	487.04
435.894	474.15
436.269	510.31
436.644	492.68
437.02	499.69
437.395	500.37
437.77	501.05
438.145	500.59
438.52	506.7
438.895	482.74
439.271	482.74
439.646	484.1
440.021	503.98
440.395	514.83
440.77	499.46
441.145	502.85
441.52	521.84
441.895	494.94
442.27	529.07
442.645	525.68
443.019	517.32
443.394	527.26
443.769	527.03
444.143	548.28
444.518	552.57
444.892	516.86
445.267	538.11
445.641	542.4
446.016	561.16
446.39	551.89
446.764	536.98
447.139	536.75
447.513	548.05
447.887	547.82
448.262	561.84
448.636	560.93
449.01	551.44
449.384	586.02
449.758	570.2
450.132	557.32
450.506	561.38
450.88	556.64
451.254	560.25
451.628	564.1
452.002	560.93
452.376	582.85
452.75	557.32
453.123	567.03
453.497	557.09
453.871	579.24
454.244	583.53
454.618	581.5
454.992	606.58
455.365	593.93
455.739	597.77
456.112	603.87
456.486	608.16
456.859	615.39
457.232	600.25
457.606	637.54
457.979	617.2
458.352	637.31
458.725	630.76
459.099	650.87
459.472	637.09
459.845	626.92
460.218	631.21
460.591	672.57
460.964	640.03
461.337	646.58
461.71	649.52
462.083	675.5
462.456	667.82
462.829	645.45
463.201	669.63
463.574	673.47
463.947	664.43
464.32	694.26
464.692	684.54
465.065	708.72
465.438	700.14
465.81	716.41
466.183	705.56
466.555	695.62
466.928	736.29
467.3	712.11
467.672	705.79
468.045	746.92
468.417	751.44
468.789	732
469.161	727.25
469.534	742.17
469.906	755.28
470.278	779
470.65	777.88
471.022	754.82
471.394	778.33
471.766	804.77
472.138	798.67
472.51	803.41
472.882	800.25
473.253	801.38
473.625	781.94
473.997	821.94
474.369	832.11
474.74	833.01
475.112	842.05
475.484	843.18
475.855	850.42
476.227	860.81
476.598	877.76
476.97	883.63
477.341	910.98
477.713	924.54
478.084	898.32
478.455	893.35
478.827	925.22
479.198	925.22
479.569	929.96
479.94	943.97
480.311	972.67
480.682	955.27
481.053	1005.21
481.424	979.45
481.795	990.52
482.166	1003.86
482.537	1015.61
482.908	1034.59
483.279	1013.58
483.65	1046.12
484.021	1080.01
484.391	1061.94
484.762	1064.2
485.133	1057.87
485.503	1082.95
485.874	1077.3
486.244	1086.34
486.615	1106.45
486.985	1130.18
487.356	1138.32
487.726	1133.12
488.097	1138.77
488.467	1135.38
488.837	1161.59
489.207	1179.9
489.578	1188.71
489.948	1190.07
490.318	1200.01
490.688	1192.33
491.058	1201.14
491.428	1211.08
491.798	1221.03
492.168	1222.84
492.538	1242.04
492.908	1247.92
493.278	1263.74
493.648	1257.64
494.017	1265.09
494.387	1253.34
494.757	1272.33
495.126	1267.81
495.496	1279.1
495.866	1309.39
496.235	1289.95
496.605	1279.78
496.974	1305.77
497.344	1297.64
497.713	1283.62
498.082	1308.93
498.452	1314.13
498.821	1299.44
499.19	1339.44
499.559	1324.98
499.928	1310.52
500.298	1319.33
500.667	1322.72
501.036	1353
501.405	1331.31
501.774	1371.98
502.143	1355.03
502.512	1350.97
502.88	1338.54
503.249	1350.06
503.618	1393.45
503.987	1350.06
504.356	1355.03
504.724	1359.33
505.093	1390.29
505.462	1382.6
505.83	1393.68
506.199	1371.76
506.567	1374.24
506.936	1388.93
507.304	1407.24
507.672	1403.85
508.041	1405.88
508.409	1402.27
508.777	1410.63
509.145	1389.38
509.514	1409.95
509.882	1403.4
510.25	1408.59
510.618	1413.11
510.986	1407.01
511.354	1416.05
511.722	1443.17
512.09	1452.89
512.458	1444.07
512.826	1409.04
513.193	1432.77
513.561	1438.2
513.929	1444.98
514.297	1447.24
514.664	1466.9
515.032	1418.99
515.4	1458.76
515.767	1469.61
516.135	1447.01
516.502	1461.7
516.869	1493.34
517.237	1481.81
517.604	1474.35
517.972	1484.3
518.339	1475.48
518.706	1509.61
519.073	1483.85
519.44	1525.2
519.808	1508.03
520.175	1471.42
520.542	1499.66
520.909	1489.04
521.276	1498.53
521.643	1477.97
522.009	1504.41
522.376	1481.13
522.743	1484.98
523.11	1500.34
523.477	1529.72
523.843	1512.77
524.21	1520.45
524.577	1521.13
524.943	1545.54
525.31	1547.12
525.676	1550.28
526.043	1549.38
526.409	1554.8
526.776	1543.05
527.142	1534.92
527.508	1565.65
527.874	1564.07
528.241	1574.01
528.607	1575.82
528.973	1573.79
529.339	1557.06
529.705	1561.13
530.071	1580.57
530.437	1597.97
530.803	1592.99
531.169	1583.28
531.535	1596.61
531.901	1590.28
532.267	1581.7
532.632	1561.58
532.998	1578.08
533.364	1592.77
533.73	1596.61
534.095	1613.79
534.461	1567.46
534.826	1613.11
535.192	1595.03
535.557	1616.72
535.923	1615.14
536.288	1619.21
536.653	1625.08
537.019	1574.01
537.384	1605.2
537.749	1595.25
538.114	1625.76
538.479	1640
538.845	1597.97
539.21	1597.29
539.575	1632.09
539.94	1610.85
540.305	1602.49
540.67	1632.77
541.034	1617.17
541.399	1605.65
541.764	1631.86
542.129	1611.75
542.494	1645.65
542.858	1633.67
543.223	1618.76
543.587	1638.42
543.952	1624.18
544.316	1631.86
544.681	1635.93
545.045	1641.13
545.41	1648.36
545.774	1615.82
546.138	1617.85
546.503	1622.6
546.867	1605.42
547.231	1621.24
547.595	1617.85
547.959	1640.9
548.324	1651.75
548.688	1629.6
549.052	1641.58
549.416	1628.93
549.779	1647.46
550.143	1648.36
550.507	1625.99
550.871	1628.47
551.235	1613.79
551.599	1620.79
551.962	1613.56
552.326	1656.95
552.689	1662.6
553.053	1666.21
553.417	1651.75
553.78	1647.68
554.143	1641.81
554.507	1680
554.87	1646.55
555.234	1659.43
555.597	1632.32
555.96	1636.38
556.323	1654.01
556.686	1655.59
557.05	1647.68
557.413	1643.16
557.776	1685.2
558.139	1682.26
558.502	1654.46
558.865	1678.64
559.228	1666.67
559.59	1680.22
559.953	1655.59
560.316	1681.58
560.679	1645.87
561.041	1701.92
561.404	1671.64
561.767	1705.31
562.129	1698.08
562.492	1665.31
562.854	1686.55
563.217	1695.37
563.579	1697.4
563.941	1679.77
564.304	1722.48
564.666	1708.7
565.028	1694.91
565.39	1708.02
565.753	1723.16
566.115	1689.26
566.477	1702.14
566.839	1699.66
567.201	1735.36
567.563	1736.49
567.925	1745.99
568.287	1758.19
568.648	1711.18
569.01	1724.97
569.372	1738.75
569.734	1746.66
570.095	1734.91
570.457	1745.53
570.819	1749.37
571.18	1737.85
571.542	1744.63
571.903	1745.99
572.265	1782.59
572.626	1731.52
572.987	1732.65
573.349	1752.31
573.71	1744.18
574.071	1770.17
574.432	1762.71
574.794	1752.76
575.155	1775.81
575.516	1755.48
575.877	1777.4
576.238	1803.16
576.599	1769.04
576.96	1770.17
577.32	1749.15
577.681	1778.3
578.042	1800.67
578.403	1785.31
578.763	1778.53
579.124	1801.35
579.485	1789.37
579.845	1787.34
580.206	1781.69
580.566	1812.42
580.927	1781.01
581.287	1782.59
581.648	1800.67
582.008	1792.09
582.368	1804.74
582.728	1779.43
583.089	1778.3
583.449	1797.06
583.809	1806.77
584.169	1814.01
584.529	1819.66
584.889	1812.42
585.249	1786.44
585.609	1796.83
585.969	1801.8
586.329	1819.66
586.688	1813.1
587.048	1807.23
587.408	1823.27
587.768	1816.72
588.127	1842.48
588.487	1791.63
588.846	1804.74
589.206	1802.03
589.565	1797.96
589.925	1818.07
590.284	1819.66
590.643	1835.93
591.003	1812.2
591.362	1830.5
591.721	1821.24
592.08	1852.65
592.44	1844.97
592.799	1795.48
593.158	1820.11
593.517	1836.6
593.876	1843.38
594.235	1830.73
594.593	1813.78
594.952	1843.61
595.311	1832.76
595.67	1856.26
596.029	1852.2
596.387	1832.76
596.746	1834.34
597.104	1846.55
597.463	1833.21
597.822	1831.18
598.18	1849.03
598.538	1849.94
598.897	1884.29
599.255	1854.91
599.613	1868.69
599.972	1868.24
600.33	1834.12
600.688	1866.66
601.046	1864.4
601.404	1860.56
601.762	1872.08
602.12	1852.42
602.478	1890.39
602.836	1864.17
603.194	1871.86
603.552	1867.11
603.91	1877.51
604.268	1889.71
604.625	1889.94
604.983	1894
605.341	1880.22
605.698	1887
606.056	1871.41
606.413	1858.07
606.771	1873.67
607.128	1897.85
607.485	1890.39
607.843	1913.44
608.2	1903.27
608.557	1940.56
608.914	1925.19
609.272	1927.45
609.629	1904.17
609.986	1907.11
610.343	1920.9
610.7	1925.19
611.057	1925.42
611.414	1910.73
611.771	1911.18
612.127	1934.68
612.484	1943.27
612.841	1947.79
613.198	1889.26
613.554	1925.64
613.911	1950.73
614.267	1944.85
614.624	1920.22
614.98	1944.17
615.337	1933.78
615.693	1965.64
616.05	1920.44
616.406	1951.63
616.762	1961.12
617.118	1958.63
617.475	1970.39
617.831	1999.09
618.187	1962.25
618.543	1991.18
618.899	1973.55
619.255	1964.51
619.611	1962.48
619.967	2007.45
620.323	2003.15
620.678	1981.01
621.034	1982.59
621.39	2025.75
621.746	2001.57
622.101	2051.06
622.457	2025.75
622.812	1996.6
623.168	2036.82
623.523	2040.44
623.879	2019.65
624.234	1995.24
624.589	2038.86
624.945	2035.02
625.3	2056.26
625.655	2024.4
626.01	2045.19
626.365	2043.83
626.72	2056.71
627.075	2040.21
627.43	2059.42
627.785	2027.11
628.14	2072.98
628.495	2061.01
628.85	2056.94
629.205	2095.81
629.559	2086.54
629.914	2095.13
630.269	2092.64
630.623	2079.08
630.978	2087.9
631.332	2091.96
631.687	2105.75
632.041	2062.36
632.396	2104.17
632.75	2120.21
633.104	2108.46
633.459	2070.95
633.813	2119.99
634.167	2115.47
634.521	2139.42
634.875	2122.02
635.229	2134
635.583	2121.79
635.937	2117.73
636.291	2161.12
636.645	2156.37
636.999	2119.99
637.352	2156.6
637.706	2144.84
638.06	2152.75
638.413	2175.13
638.767	2154.11
639.121	2170.61
639.474	2182.13
639.828	2163.38
640.181	2152.75
640.534	2170.83
640.888	2191.17
641.241	2191.85
641.594	2168.8
641.947	2184.17
642.301	2213.09
642.654	2178.29
643.007	2239.53
643.36	2221
643.713	2233.88
644.066	2254.45
644.419	2237.95
644.771	2236.82
645.124	2238.18
645.477	2225.75
645.83	2216.26
646.182	2232.3
646.535	2239.31
646.888	2228.46
647.24	2243.83
647.593	2249.25
647.945	2270.49
648.298	2241.34
648.65	2248.34
649.002	2262.36
649.355	2291.73
649.707	2282.69
650.059	2304.61
650.411	2379.19
650.763	2362.24
651.115	2385.29
651.467	2402.24
651.819	2379.19
652.171	2436.36
652.523	2401.56
652.875	2441.11
653.227	2413.54
653.578	2479.75
653.93	2442.92
654.282	2475.91
654.633	2460.09
654.985	2444.95
655.337	2452.41
655.688	2509.35
656.039	2482.91
656.391	2518.85
656.742	2515.23
657.094	2513.65
657.445	2570.82
657.796	2550.26
658.147	2580.54
658.498	2565.4
658.849	2626.19
659.2	2599.75
659.551	2611.27
659.902	2585.29
660.253	2627.09
660.604	2640.42
660.955	2674.1
661.306	2672.06
661.656	2685.17
662.007	2673.87
662.358	2707.54
662.708	2750.93
663.059	2702.8
663.409	2687.43
663.76	2732.63
664.11	2762
664.461	2753.42
664.811	2804.49
665.161	2807.2
665.511	2831.38
665.862	2854.66
666.212	2855.11
666.562	2880.42
666.912	2853.98
667.262	2885.16
667.612	2897.37
667.962	2904.6
668.312	2919.51
668.662	2928.1
669.011	2953.86
669.361	2968.55
669.711	2951.6
670.06	2962.45
670.41	2973.3
670.76	3030.92
671.109	3013.52
671.459	2979.17
671.808	3041.32
672.157	3072.05
672.507	3025.95
672.856	3080.64
673.205	3049.23
673.554	3124.48
673.904	3095.55
674.253	3141.43
674.602	3197.47
674.951	3126.51
675.3	3113.86
675.649	3160.64
675.998	3143.91
676.346	3190.01
676.695	3219.39
677.044	3233.63
677.393	3241.99
677.741	3268.66
678.09	3243.57
678.438	3263.91
678.787	3265.49
679.135	3289.9
679.484	3249.22
679.832	3330.8
680.181	3280.18
680.529	3299.39
680.877	3352.04
681.225	3308.88
681.573	3375.32
681.922	3324.7
682.27	3359.73
682.618	3367.86
682.966	3364.93
683.314	3372.84
683.661	3359.73
684.009	3408.09
684.357	3402.89
684.705	3415.32
685.053	3424.13
685.4	3450.8
685.748	3391.59
686.095	3432.49
686.443	3446.28
686.79	3440.18
687.138	3479.5
687.485	3466.39
687.832	3488.09
688.18	3491.93
688.527	3489.67
688.874	3528.31
689.221	3471.59
689.568	3493.51
689.915	3480.4
690.262	3533.73
690.609	3516.79
690.956	3491.02
691.303	3500.52
691.65	3527.86
691.997	3556.79
692.344	3521.31
692.69	3529.67
693.037	3571.47
693.383	3519.27
693.73	3532.83
694.077	3523.57
694.423	3528.31
694.769	3543.9
695.116	3556.79
695.462	3530.8
695.808	3533.73
696.155	3539.61
696.501	3579.16
696.847	3504.13
697.193	3541.87
697.539	3527.18
697.885	3542.77
698.231	3526.05
698.577	3526.96
698.923	3545.03
699.269	3527.41
699.614	3509.33
699.96	3501.87
700.306	3500.97
700.651	3479.05
700.997	3471.82
701.342	3511.81
701.688	3474.75
702.033	3491.02
702.379	3509.78
702.724	3458.26
703.069	3504.36
703.415	3473.62
703.76	3472.95
704.105	3507.29
704.45	3489.44
704.795	3519.95
705.14	3467.52
705.485	3428.43
705.83	3456.22
706.175	3451.93
706.52	3424.59
706.865	3448.54
707.209	3424.59
707.554	3396.34
707.899	3459.61
708.243	3416
708.588	3416.68
708.932	3374.87
709.277	3404.92
709.621	3412.16
709.966	3413.51
710.31	3441.53
710.654	3417.13
710.998	3416.9
711.342	3392.72
711.687	3415.77
712.031	3386.62
712.375	3394.76
712.719	3351.82
713.063	3378.94
713.407	3396.56
713.75	3440.18
714.094	3402.21
714.438	3389.33
714.782	3398.6
715.125	3360.18
715.469	3383.68
715.812	3338.26
716.156	3357.24
716.499	3402.21
716.843	3402.66
717.186	3387.98
717.53	3380.97
717.873	3377.58
718.216	3378.94
718.559	3380.52
718.902	3349.56
719.246	3396.11
719.589	3362.21
719.932	3370.58
720.275	3355.21
720.617	3394.76
720.96	3390.24
721.303	3372.38
721.646	3348.88
721.989	3382.1
722.331	3370.35
722.674	3366.28
723.016	3362.89
723.359	3376.45
723.701	3371.93
724.044	3366.73
724.386	3343.01
724.729	3392.04
725.071	3367.19
725.413	3336.68
725.755	3357.69
726.097	3383
726.439	3375.77
726.782	3339.16
727.124	3362.44
727.465	3340.75
727.807	3330.8
728.149	3347.3
728.491	3366.06
728.833	3394.3
729.175	3369.67
729.516	3388.88
729.858	3421.65
730.199	3402.66
730.541	3369.67
730.882	3385.49
731.224	3411.7
731.565	3373.29
731.906	3408.31
732.248	3397.24
732.589	3387.52
732.93	3414.19
733.271	3396.56
733.612	3365.83
733.953	3465.49
734.294	3372.16
734.635	3416.68
734.976	3387.3
735.317	3407.64
735.658	3420.74
735.999	3403.34
736.339	3391.37
736.68	3416.68
737.021	3427.52
737.361	3404.02
737.702	3443.12
738.042	3466.39
738.383	3440.86
738.723	3441.76
739.063	3430.91
739.404	3486.73
739.744	3466.62
740.084	3430.23
740.424	3488.76
740.764	3498.48
741.104	3512.72
741.444	3511.59
741.784	3502.78
742.124	3498.48
742.464	3523.57
742.804	3502.1
743.143	3521.31
743.483	3516.56
743.823	3560.17
744.162	3571.47
744.502	3593.85
744.841	3599.04
745.181	3634.52
745.52	3618.93
745.86	3606.05
746.199	3662.32
746.538	3637.23
746.877	3686.05
747.216	3688.53
747.556	3666.16
747.895	3698.7
748.234	3685.6
748.573	3710
748.911	3719.94
749.25	3770.11
749.589	3763.33
749.928	3749.77
750.267	3755.2
750.605	3825.25
750.944	3813.5
751.283	3836.1
751.621	3835.42
751.96	3867.06
752.298	3875.19
752.636	3907.96
752.975	3929.66
753.313	3915.19
753.651	3987.06
753.989	3982.54
754.327	3966.94
754.666	3990.9
755.004	4008.07
755.342	4055.08
755.679	4079.71
756.017	4034.29
756.355	4085.81
756.693	4086.26
757.031	4102.08
757.368	4111.57
757.706	4143.21
758.044	4168.97
758.381	4182.08
758.719	4173.04
759.056	4209.88
759.394	4269.08
759.731	4220.72
760.068	4261.4
760.405	4251.46
760.743	4238.8
761.08	4288.29
761.417	4301.4
761.754	4279.93
762.091	4329.19
762.428	4308.86
762.765	4313.6
763.102	4358.57
763.438	4329.42
763.775	4300.95
764.112	4313.83
764.449	4379.59
764.785	4399.47
765.122	4392.24
765.458	4367.84
765.795	4388.18
766.131	4368.29
766.467	4350.89
766.804	4421.85
767.14	4357.22
767.476	4382.3
767.812	4395.86
768.148	4412.58
768.485	4365.35
768.821	4411
769.157	4379.14
769.492	4402.86
769.828	4410.1
770.164	4360.38
770.5	4389.98
770.836	4399.25
771.171	4374.16
771.507	4342.98
771.842	4371.9
772.178	4375.97
772.513	4402.41
772.849	4328.06
773.184	4351.11
773.519	4300.95
773.855	4308.86
774.19	4359.93
774.525	4294.39
774.86	4307.95
775.195	4321.51
775.53	4301.62
775.865	4285.35
776.2	4284
776.535	4235.86
776.87	4238.57
777.205	4250.78
777.539	4241.06
777.874	4209.88
778.209	4220.5
778.543	4248.74
778.878	4213.26
779.212	4213.49
779.547	4150.89
779.881	4180.05
780.215	4169.42
780.55	4180.72
780.884	4150.67
781.218	4136.2
781.552	4170.55
781.886	4146.15
782.22	4096.66
782.554	4096.66
782.888	4013.95
783.222	4046.49
783.556	3999.94
783.889	4030.44
784.223	4038.58
784.557	4021.86
784.89	4064.79
785.224	4001.52
785.557	3986.83
785.891	4020.73
786.224	3940.05
786.558	3979.37
786.891	3950.45
787.224	3922.43
787.557	3914.74
787.891	3884.23
788.224	3909.09
788.557	3942.31
788.89	3921.07
789.223	3883.33
789.556	3879.49
789.888	3868.64
790.221	3818.02
790.554	3856.66
790.887	3802.43
791.219	3824.8
791.552	3820.73
791.884	3768.76
792.217	3779.83
792.549	3724.24
792.882	3725.37
793.214	3708.65
793.546	3713.84
793.879	3742.99
794.211	3683.79
794.543	3717.01
794.875	3705.71
795.207	3688.31
795.539	3677.91
795.871	3691.7
796.203	3676.1
796.535	3629.33
796.867	3609.44
797.198	3602.66
797.53	3628.65
797.862	3633.17
798.193	3625.94
798.525	3561.08
798.856	3583.45
799.188	3568.08
799.519	3561.3
799.85	3526.5
800.182	3572.83
800.513	3518.82
800.844	3513.17
801.175	3499.61
801.506	3521.76
801.837	3481.53
802.168	3470.01
802.499	3495.54
802.83	3475.43
803.161	3463.45
803.491	3444.92
803.822	3462.32
804.153	3450.8
804.483	3449.22
804.814	3407.18
805.145	3434.75
805.475	3436.56
805.805	3393.63
806.136	3395.21
806.466	3388.88
806.796	3394.08
807.126	3390.24
807.457	3336.68
807.787	3373.96
808.117	3369.67
808.447	3321.54
808.777	3333.97
809.107	3350.46
809.436	3312.27
809.766	3290.35
810.096	3296
810.426	3320.86
810.755	3307.53
811.085	3283.57
811.414	3261.43
811.744	3240.41
812.073	3244.25
812.403	3245.83
812.732	3204.03
813.061	3253.74
813.39	3220.52
813.719	3202.9
814.049	3226.17
814.378	3190.01
814.707	3226.4
815.036	3187.53
815.365	3182.11
815.693	3183.01
816.022	3122.9
816.351	3172.16
816.68	3117.93
817.008	3122.45
817.337	3165.38
817.665	3126.74
817.994	3095.55
818.322	3148.66
818.651	3093.07
818.979	3096.23
819.307	3113.18
819.636	3076.35
819.964	3051.94
820.292	3080.64
820.62	3128.1
820.948	3098.04
821.276	3082.9
821.604	3086.74
821.932	3118.15
822.259	3088.55
822.587	3095.33
822.915	3100.53
823.243	3099.17
823.57	3052.17
823.898	3092.84
824.225	3050.36
824.553	3054.88
824.88	3098.04
825.207	3091.71
825.535	3081.54
825.862	3111.15
826.189	3037.48
826.516	3076.8
826.843	3106.85
827.17	3060.75
827.497	3088.32
827.824	3063.69
828.151	3073.86
828.478	3064.37
828.805	3090.36
829.131	3065.05
829.458	3106.18
829.785	3030.92
830.111	3063.46
830.438	3072.28
830.764	3085.84
831.09	3072.96
831.417	3044.48
831.743	3059.85
832.069	3067.76
832.395	3065.5
832.722	3091.03
833.048	3020.53
833.374	3040.87
833.7	3051.49
834.026	3038.38
834.351	3054.65
834.677	3053.3
835.003	3058.72
835.329	3046.29
835.654	3015.56
835.98	3036.35
836.306	3045.61
836.631	3017.14
836.956	3015.78
837.282	2996.8
837.607	3049.91
837.932	2993.18
838.258	3005.61
838.583	3009.45
838.908	3009.91
839.233	2999.51
839.558	2953.41
839.883	2993.86
840.208	2955.22
840.533	2962
840.858	2989.12
841.182	2985.05
841.507	2933.98
841.832	2960.42
842.156	2965.39
842.481	2962.45
842.805	2940.3
843.13	2926.29
843.454	2940.76
843.778	2929.91
844.103	2921.32
844.427	2910.7
844.751	2941.21
845.075	2950.47
845.399	2919.97
845.723	2848.1
846.047	2886.29
846.371	2805.62
846.695	2879.51
847.019	2833.64
847.343	2805.84
847.666	2794.55
847.99	2807.88
848.313	2783.7
848.637	2766.98
848.96	2777.14
849.284	2772.62
849.607	2791.38
849.931	2734.21
850.254	2756.81
850.577	2724.49
850.9	2722.23
851.223	2716.36
851.546	2701.21
851.869	2648.11
852.192	2670.03
852.515	2702.12
852.838	2657.15
853.161	2647.66
853.483	2647.66
853.806	2648.33
854.129	2675
854.451	2632.97
854.774	2634.55
855.096	2629.13
855.419	2616.47
855.741	2585.74
856.063	2606.98
856.385	2601.78
856.708	2592.97
857.03	2568.56
857.352	2572.63
857.674	2555.91
857.996	2547.09
858.318	2550.26
858.64	2538.96
858.961	2520.65
859.283	2516.81
859.605	2524.72
859.926	2550.03
860.248	2518.62
860.57	2502.35
860.891	2524.04
861.212	2563.82
861.534	2491.95
861.855	2462.12
862.176	2485.17
862.498	2461.22
862.819	2507.55
863.14	2461.45
863.461	2477.04
863.782	2456.02
864.103	2463.25
864.424	2458.06
864.745	2488.11
865.065	2446.76
865.386	2406.98
865.707	2435.46
866.027	2437.72
866.348	2428.91
866.668	2450.37
866.989	2446.98
867.309	2420.32
867.63	2425.97
867.95	2412.86
868.27	2385.52
868.59	2404.5
868.91	2427.1
869.23	2386.87
869.55	2406.31
869.87	2422.35
870.19	2421
870.51	2391.39
870.83	2367.44
871.15	2371.05
871.469	2366.99
871.789	2416.7
872.109	2372.64
872.428	2362.47
872.748	2387.1
873.067	2347.1
873.386	2379.87
873.706	2372.41
874.025	2346.87
874.344	2368.34
874.663	2367.89
874.982	2333.77
875.301	2365.63
875.62	2344.16
875.939	2364.95
876.258	2338.51
876.577	2348.91
876.896	2307.55
877.214	2307.1
877.533	2326.76
877.852	2308
878.17	2310.72
878.489	2328.12
878.807	2296.93
879.125	2314.33
879.444	2286.08
879.762	2274.56
880.08	2265.97
880.398	2297.61
880.716	2316.14
881.034	2290.38
881.352	2303.48
881.67	2275.24
881.988	2273.88
882.306	2245.41
882.624	2269.14
882.941	2238.18
883.259	2240.89
883.577	2248.8
883.894	2263.03
884.212	2242.02
884.529	2220.1
884.846	2218.29
885.164	2231.4
885.481	2215.13
885.798	2236.14
886.115	2211.96
886.432	2195.24
886.75	2223.49
887.067	2248.57
887.383	2176.48
887.7	2187.56
888.017	2195.69
888.334	2138.74
888.651	2154.79
888.967	2179.19
889.284	2155.69
889.6	2187.78
889.917	2145.52
890.233	2163.15
890.55	2145.07
890.866	2142.36
891.182	2130.38
891.498	2130.38
891.815	2143.71
892.131	2141.23
892.447	2103.04
892.763	2111.4
893.079	2109.82
893.395	2106.65
893.71	2137.84
894.026	2100.78
894.342	2068.46
894.657	2075.69
894.973	2076.82
895.289	2078.41
895.604	2063.04
895.92	2068.46
896.235	2049.93
896.55	2051.51
896.865	2038.63
897.181	2044.96
897.496	2061.23
897.811	2005.87
898.126	2025.53
898.441	2022.81
898.756	2001.8
899.071	2010.84
899.386	2000.22
899.7	1992.53
900.015	1997.05
900.33	1959.76
900.644	1974.91
900.959	1958.86
901.273	1964.96
901.588	1936.49
901.902	1944.85
902.216	1946.21
902.531	1954.79
902.845	1939.2
903.159	1905.98
903.473	1913.89
903.787	1901.46
904.101	1931.74
904.415	1891.74
904.729	1870.95
905.042	1863.95
905.356	1906.88
905.67	1844.51
905.984	1864.17
906.297	1842.25
906.611	1878.19
906.924	1862.82
907.237	1861.46
907.551	1857.62
907.864	1828.02
908.177	1827.56
908.491	1828.24
908.804	1820.56
909.117	1804.06
909.43	1836.15
909.743	1787.79
910.056	1805.64
910.368	1804.51
910.681	1781.01
910.994	1759.54
911.307	1768.13
911.619	1781.46
911.932	1771.75
912.244	1751.63
912.557	1750.73
912.869	1744.86
913.181	1743.27
913.494	1732.2
913.806	1739.66
914.118	1721.81
914.43	1730.39
914.742	1691.3
915.054	1696.27
915.366	1709.38
915.678	1677.06
915.99	1699.88
916.302	1690.17
916.613	1673.9
916.925	1671.18
917.236	1686.33
917.548	1666.44
917.859	1714.35
918.171	1644.52
918.482	1630.73
918.794	1644.29
919.105	1650.39
919.416	1657.85
919.727	1613.79
920.038	1630.06
920.349	1623.05
920.66	1594.35
920.971	1604.75
921.282	1592.77
921.593	1585.09
921.903	1620.11
922.214	1578.53
922.525	1577.63
922.835	1562.94
923.146	1565.42
923.456	1564.3
923.767	1561.81
924.077	1539.21
924.387	1560
924.697	1539.21
925.008	1529.72
925.318	1501.92
925.628	1519.1
925.938	1528.59
926.248	1510.96
926.558	1518.42
926.867	1523.17
927.177	1526.33
927.487	1488.82
927.796	1487.46
928.106	1505.54
928.416	1468.25
928.725	1509.61
929.034	1490.85
929.344	1475.94
929.653	1464.18
929.962	1447.69
930.271	1468.7
930.581	1479.1
930.89	1481.13
931.199	1418.99
931.508	1429.61
931.817	1437.74
932.125	1412.66
932.434	1426.22
932.743	1411.76
933.051	1430.97
933.36	1399.1
933.669	1394.36
933.977	1370.4
934.286	1397.29
934.594	1399.78
934.902	1374.92
935.21	1363.4
935.519	1368.59
935.827	1368.82
936.135	1370.85
936.443	1360.68
936.751	1356.62
937.059	1365.43
937.367	1347.8
937.674	1352.78
937.982	1338.76
938.29	1333.11
938.597	1309.39
938.905	1299.44
939.213	1324.08
939.52	1292.44
939.827	1312.78
940.135	1284.53
940.442	1280.23
940.749	1294.02
941.056	1334.24
941.363	1275.94
941.67	1282.72
941.977	1295.83
942.284	1268.71
942.591	1266.22
942.898	1304.19
943.205	1248.6
943.511	1274.59
943.818	1251.08
944.125	1271.65
944.431	1242.27
944.738	1274.59
945.044	1238.65
945.35	1239.78
945.657	1237.52
945.963	1231.2
946.269	1237.3
946.575	1205.21
946.881	1214.7
947.187	1211.76
947.493	1207.02
947.799	1191.42
948.105	1197.98
948.41	1178.32
948.716	1176.06
949.022	1180.12
949.327	1189.84
949.633	1188.94
949.938	1163.63
950.244	1155.04
950.549	1174.02
950.854	1139.45
951.16	1142.84
951.465	1138.09
951.77	1143.52
952.075	1138.77
952.38	1156.17
952.685	1142.39
952.99	1136.51
953.294	1113.91
953.599	1115.27
953.904	1119.33
954.209	1117.3
954.513	1124.76
954.818	1119.33
955.122	1125.21
955.426	1106
955.731	1099.9
956.035	1114.36
956.339	1056.51
956.643	1086.79
956.948	1085.21
957.252	1083.86
957.556	1079.56
957.86	1078.43
958.163	1077.3
958.467	1085.21
958.771	1056.74
959.075	1056.29
959.378	1075.95
959.682	1073.91
959.985	1075.95
960.289	1064.87
960.592	1042.73
960.896	1065.1
961.199	1041.82
961.502	1033.24
961.805	1040.24
962.108	1028.94
962.411	1047.7
962.714	1008.83
963.017	1019.9
963.32	1019.68
963.623	999.56
963.926	992.33
964.228	996.17
964.531	992.11
964.833	999.56
965.136	1014.93
965.438	1010.19
965.741	971.09
966.043	995.04
966.345	984.88
966.648	998.66
966.95	997.76
967.252	973.12
967.554	959.11
967.856	982.16
968.158	969.96
968.46	983.52
968.761	955.72
969.063	964.54
969.365	944.42
969.666	975.84
969.968	948.72
970.269	950.3
970.571	951.88
970.872	938.77
971.174	936.29
971.475	920.24
971.776	913.24
972.077	951.43
972.378	934.26
972.679	910.75
972.98	909.4
973.281	913.92
973.582	915.27
973.883	931.54
974.183	918.66
974.484	916.85
974.785	894.48
975.085	903.07
975.386	906.91
975.686	884.54
975.986	874.82
976.287	895.61
976.587	894.93
976.887	888.15
977.187	888.15
977.487	887.25
977.787	884.54
978.087	881.83
978.387	873.01
978.687	859.45
978.987	886.8
979.286	850.87
979.586	866.46
979.885	886.35
980.185	872.34
980.484	850.64
980.784	850.42
981.083	839.12
981.382	829.85
981.682	846.35
981.981	845.67
982.28	827.14
982.579	817.87
982.878	819
983.177	846.57
983.475	841.83
983.774	840.92
984.073	832.11
984.372	825.33
984.67	811.32
984.969	843.18
985.267	840.47
985.566	828.04
985.864	827.59
986.162	795.28
986.461	802.28
986.759	818.78
987.057	814.94
987.355	790.76
987.653	791.21
987.951	767.03
988.249	779.68
988.547	783.07
988.844	803.19
989.142	809.06
989.44	790.98
989.737	826.24
990.035	769.29
990.332	784.88
990.63	786.91
990.927	783.98
991.224	772.23
991.521	760.93
991.819	767.25
992.116	770.19
992.413	735.16
992.71	741.27
993.006	754.37
993.303	746.01
993.6	759.12
993.897	750.53
994.193	755.73
994.49	763.86
994.787	713.92
995.083	735.39
995.379	735.39
995.676	740.36
995.972	741.49
996.268	726.8
996.565	719.57
996.861	716.18
997.157	718.22
997.453	699.01
997.749	735.84
998.044	710.31
998.34	706.46
998.636	695.39
998.932	720.48
999.227	695.84
999.523	695.62
999.818	706.92
1000.114	690.42
1000.409	691.78
1000.704	703.07
1001	677.31
1001.295	701.49
1001.59	692
1001.885	696.52
1002.18	679.12
1002.475	680.02
1002.77	695.62
1003.065	663.98
1003.359	669.86
1003.654	648.16
1003.949	654.26
1004.243	668.27
1004.538	662.85
1004.832	661.95
1005.127	638.9
1005.421	652
1005.715	654.26
1006.009	649.29
1006.304	631.44
1006.598	626.01
1006.892	654.71
1007.186	630.31
1007.48	663.98
1007.773	637.54
1008.067	651.1
1008.361	635.73
1008.655	652.91
1008.948	650.65
1009.242	629.18
1009.535	638.44
1009.829	636.64
1010.122	622.4
1010.415	626.69
1010.708	623.08
1011.001	619.91
1011.295	624.21
1011.588	600.25
1011.881	617.88
1012.173	614.26
1012.466	609.29
1012.759	603.19
1013.052	626.24
1013.344	624.66
1013.637	576.52
1013.93	594.83
1014.222	606.13
1014.514	603.87
1014.807	572.91
1015.099	589.86
1015.391	580.37
1015.683	586.92
1015.976	579.01
1016.268	571.33
1016.56	558.22
1016.851	578.56
1017.143	574.49
1017.435	577.43
1017.727	560.71
1018.018	573.81
1018.31	543.98
1018.602	574.04
1018.893	591.67
1019.185	552.12
1019.476	561.61
1019.767	552.8
1020.058	540.14
1020.35	556.19
1020.641	545.11
1020.932	548.5
1021.223	547.6
1021.514	549.18
1021.804	541.95
1022.095	539.24
1022.386	526.13
1022.677	544.21
1022.967	548.5
1023.258	544.66
1023.548	545.11
1023.839	529.52
1024.129	512.8
1024.419	519.12
1024.709	527.94
1025	521.84
1025.29	508.73
1025.58	509.86
1025.87	520.48
1026.16	507.15
1026.449	502.4
1026.739	514.38
1027.029	517.09
1027.319	507.37
1027.608	505.79
1027.898	530.65
1028.187	493.36
1028.477	506.02
1028.766	512.57
1029.055	494.04
1029.344	493.81
1029.634	508.05
1029.923	505.34
1030.212	506.7
1030.501	485.68
1030.79	481.61
1031.078	504.21
1031.367	489.97
1031.656	497.2
1031.945	482.74
1032.233	494.94
1032.522	479.8
1032.81	498.79
1033.099	454.04
1033.387	499.01
1033.675	486.36
1033.963	468.73
1034.251	470.54
1034.54	463.31
1034.828	464.89
1035.116	477.32
1035.403	463.08
1035.691	447.04
1035.979	470.54
1036.267	475.51
1036.554	459.47
1036.842	462.63
1037.129	463.98
1037.417	453.59
1037.704	458.56
1037.992	482.06
1038.279	462.18
1038.566	463.76
1038.853	463.76
1039.14	463.76
