Data from blue_shiny_book_FLMS001491_00075.txt Node
Date: Wed Feb 08 15:27:31 GMT 2017
User: dcchb
Spectrometer: FLMS00149
Trigger mode: 0
Integration Time (sec): 2.000000E-2
Scans to average: 10
Electric dark correction enabled: true
Nonlinearity correction enabled: false
Boxcar width: 0
XAxis mode: Wavelengths
Number of Pixels in Spectrum: 2048
>>>>>Begin Spectral Data<<<<<
341.393	-18.98
341.776	-18.98
342.16	-18.98
342.543	-63.95
342.927	-86.1
343.31	-64.41
343.693	-55.82
344.077	-64.86
344.46	-52.88
344.843	-35.03
345.226	-24.41
345.61	-44.52
345.993	-24.41
346.376	-15.59
346.759	13.56
347.142	29.83
347.525	50.17
347.908	49.72
348.291	52.43
348.674	92.2
349.057	94.01
349.44	128.13
349.823	131.75
350.206	169.49
350.588	178.98
350.971	202.93
351.354	220.11
351.737	242.48
352.119	227.56
352.502	256.94
352.884	254.91
353.267	290.39
353.65	287.45
354.032	296.04
354.414	294.23
354.797	318.18
355.179	323.61
355.562	314.34
355.944	330.39
356.326	335.58
356.709	331.06
357.091	361.35
357.473	336.04
357.855	335.36
358.238	339.43
358.62	346.43
359.002	324.51
359.384	333.55
359.766	336.49
360.148	328.13
360.53	334.91
360.912	345.3
361.294	345.75
361.676	336.94
362.057	342.14
362.439	327
362.821	334
363.203	327.45
363.584	322.48
363.966	305.08
364.348	349.14
364.729	329.93
365.111	336.49
365.493	332.65
365.874	330.61
366.256	331.29
366.637	326.77
367.019	316.6
367.4	309.37
367.781	318.86
368.163	334.68
368.544	343.72
368.925	294.46
369.306	334
369.688	320.22
370.069	326.32
370.45	314.79
370.831	326.32
371.212	307.34
371.593	326.77
371.974	325.19
372.355	318.86
372.736	342.36
373.117	304.62
373.498	322.7
373.879	349.82
374.26	334.45
374.641	321.8
375.021	332.87
375.402	327.45
375.783	316.38
376.163	354.79
376.544	355.02
376.925	339.2
377.305	347.34
377.686	337.17
378.066	325.19
378.447	343.95
378.827	340.33
379.208	341.23
379.588	357.73
379.968	349.37
380.349	371.97
380.729	345.3
381.109	364.28
381.489	341.23
381.87	361.12
382.25	379.65
382.63	371.29
383.01	359.09
383.39	357.96
383.77	343.04
384.15	383.94
384.53	380.1
384.91	370.39
385.29	392.31
385.67	411.29
386.049	410.38
386.429	398.86
386.809	398.63
387.189	384.85
387.568	397.28
387.948	394.57
388.328	422.36
388.707	408.8
389.087	387.79
389.466	425.53
389.846	415.58
390.225	425.53
390.605	434.11
390.984	423.49
391.363	438.41
391.743	473.43
392.122	452.42
392.501	451.74
392.881	457.62
393.26	455.13
393.639	473.66
394.018	441.34
394.397	479.99
394.776	464.17
395.155	487.9
395.534	471.4
395.913	459.2
396.292	493.77
396.671	471.63
397.05	489.03
397.429	495.13
397.808	502.81
398.186	482.93
398.565	507.11
398.944	517.27
399.323	518.4
399.701	486.77
400.08	519.53
400.458	531.74
400.837	525.64
401.215	540.78
401.594	531.29
401.972	550.95
402.351	547.56
402.729	557.95
403.107	579.19
403.486	563.38
403.864	569.25
404.242	586.43
404.62	592.3
404.999	592.53
405.377	614.9
405.755	606.76
406.133	629.36
406.511	638.18
406.889	635.01
407.267	634.79
407.645	629.59
408.023	678.17
408.401	665.97
408.779	649.47
409.156	670.49
409.534	661
409.912	697.16
410.29	721.11
410.667	729.25
411.045	716.59
411.422	723.6
411.8	730.6
412.178	750.04
412.555	770.38
412.933	779.41
413.31	783.26
413.687	796.14
414.065	794.33
414.442	812.18
414.819	805.85
415.197	830.26
415.574	842.24
415.951	852.18
416.328	846.53
416.705	876.14
417.082	882.01
417.46	871.16
417.837	900.09
418.214	923.37
418.591	903.25
418.967	921.78
419.344	925.85
419.721	943.25
420.098	934.44
420.475	950.71
420.852	975.34
421.228	982.35
421.605	1011.95
421.982	1018.05
422.358	1038.84
422.735	1037.49
423.111	1040.88
423.488	1035.45
423.864	1054.89
424.241	1059.86
424.617	1093.08
424.994	1097.15
425.37	1117.94
425.746	1128.56
426.123	1111.16
426.499	1147.54
426.875	1176.24
427.251	1174.43
427.627	1194.09
428.003	1201.78
428.379	1240.87
428.756	1232.74
429.132	1232.74
429.507	1275.22
429.883	1296.69
430.259	1285.39
430.635	1348.44
431.011	1340.98
431.387	1379.85
431.763	1400.19
432.138	1417.82
432.514	1442.9
432.89	1431.83
433.265	1468.89
433.641	1483.8
434.016	1508.21
434.392	1521.99
434.767	1544.82
435.143	1554.76
435.518	1568.09
435.894	1576.68
436.269	1623.46
436.644	1684.25
437.02	1671.82
437.395	1713.85
437.77	1706.85
438.145	1739.62
438.52	1779.39
438.895	1758.82
439.271	1782.33
439.646	1819.84
440.021	1811.93
440.395	1842.89
440.77	1848.54
441.145	1867.3
441.52	1924.7
441.895	1928.99
442.27	1966.73
442.645	1939.38
443.019	1958.14
443.394	1981.19
443.769	2022.77
444.143	1998.14
444.518	2035.43
444.892	2023.22
445.267	2040.62
445.641	2104.13
446.016	2102.77
446.39	2120.85
446.764	2162.43
447.139	2154.29
447.513	2173.5
447.887	2190.22
448.262	2178.93
448.636	2214.41
449.01	2211.02
449.384	2276.55
449.758	2251.92
450.132	2277.23
450.506	2307.96
450.88	2346.15
451.254	2374.63
451.628	2386.6
452.002	2413.95
452.376	2432.93
452.75	2493.27
453.123	2490.1
453.497	2560.61
453.871	2542.53
454.244	2625.24
454.618	2617.33
454.992	2637.44
455.365	2650.1
455.739	2716.76
456.112	2743.43
456.486	2766.93
456.859	2814.39
457.232	2879.7
457.606	2912.69
457.979	2929.87
458.352	2959.02
458.725	3026.36
459.099	3050.32
459.472	3103.2
459.845	3146.36
460.218	3151.78
460.591	3195.17
460.964	3173.93
461.337	3281.72
461.71	3338.22
462.083	3371.89
462.456	3421.6
462.829	3453.92
463.201	3528.27
463.574	3499.79
463.947	3577.53
464.32	3650.53
464.692	3679.45
465.065	3682.39
465.438	3728.72
465.81	3821.82
466.183	3819.11
466.555	3906.34
466.928	3964.19
467.3	3980.01
467.672	4044.87
468.045	4177.97
468.417	4168.93
468.789	4252.09
469.161	4256.39
469.534	4344.74
469.906	4425.65
470.278	4451.63
470.65	4508.81
471.022	4608.01
471.394	4626.55
471.766	4656.37
472.138	4756.94
472.51	4873.09
472.882	4969.81
473.253	5019.3
473.625	5106.08
473.997	5220.43
474.369	5257.71
474.74	5311.27
475.112	5428.78
475.484	5484.83
475.855	5599.4
476.227	5663.35
476.598	5806.63
476.97	5826.29
477.341	5994.42
477.713	6047.98
478.084	6133.85
478.455	6281.64
478.827	6353.05
479.198	6518.25
479.569	6546.49
479.94	6675.53
480.311	6751.91
480.682	6966.6
481.053	7135.18
481.424	7185.35
481.795	7276.19
482.166	7383.31
482.537	7495.4
482.908	7604.09
483.279	7813.35
483.65	7848.83
484.021	8047.7
484.391	8119.33
484.762	8246.34
485.133	8296.96
485.503	8408.82
485.874	8658.98
486.244	8739.66
486.615	8841.8
486.985	8969.48
487.356	9184.84
487.726	9221.68
488.097	9477.26
488.467	9455.8
488.837	9689.24
489.207	9806.97
489.578	9943.92
489.948	10035.67
490.318	10156.34
490.688	10302.78
491.058	10472.04
491.428	10611.7
491.798	10726.27
492.168	10908.19
492.538	10978.47
492.908	11048.75
493.278	11267.5
493.648	11297.78
494.017	11462.98
494.387	11504.33
494.757	11601.73
495.126	11745.45
495.496	11810.08
495.866	12001.49
496.235	12059.8
496.605	12210.3
496.974	12323.29
497.344	12438.99
497.713	12522.83
498.082	12669.5
498.452	12751.98
498.821	12855.03
499.19	12861.58
499.559	13100.67
499.928	13093.67
500.298	13140.67
500.667	13376.82
501.036	13328.92
501.405	13468.35
501.774	13541.34
502.143	13683.71
502.512	13814.1
502.88	13939.07
503.249	14009.35
503.618	14098.61
503.987	14127.09
504.356	14266.29
504.724	14318.72
505.093	14417.47
505.462	14454.54
505.83	14680.29
506.199	14776.33
506.567	14938.36
506.936	14871.25
507.304	15056.55
507.672	15098.36
508.041	15153.73
508.409	15282.76
508.777	15559.14
509.145	15707.16
509.514	15728.63
509.882	15796.87
510.25	15934.27
510.618	16030.54
510.986	16104.21
511.354	16259.46
511.722	16418.1
512.09	16534.03
512.458	16481.83
512.826	16674.14
513.193	16757.98
513.561	16896.73
513.929	16867.13
514.297	17076.39
514.664	17125.43
515.032	17232.54
515.4	17447.45
515.767	17555.47
516.135	17654.9
516.502	17643.38
516.869	17971.96
517.237	17931.28
517.604	18095.8
517.972	18321.55
518.339	18363.36
518.706	18504.15
519.073	18613.52
519.44	18726.74
519.808	18836.11
520.175	18797.92
520.542	19029.33
520.909	19207.18
521.276	19201.3
521.643	19448.75
522.009	19546.38
522.376	19629.31
522.743	19852.81
523.11	20072.24
523.477	20283.08
523.843	20469.07
524.21	20674.71
524.577	20820.24
524.943	21053.46
525.31	21058.88
525.676	21403.51
526.043	21476.05
526.409	21536.38
526.776	21658.64
527.142	21790.84
527.508	21756.04
527.874	22061.79
528.241	22039.87
528.607	22166.2
528.973	22345.85
529.339	22404.83
529.705	22627.88
530.071	22825.16
530.437	23012.5
530.803	23251.14
531.169	23358.93
531.535	23500.4
531.901	23636.89
532.267	23692.26
532.632	23960.05
532.998	24056.54
533.364	24098.58
533.73	24260.15
534.095	24293.37
534.461	24352.35
534.826	24408.4
535.192	24603.65
535.557	24630.54
535.923	24521.62
536.288	24649.07
536.653	24786.24
537.019	24853.58
537.384	24932.68
537.749	25250.41
538.114	25244.99
538.479	25212.44
538.845	25457.18
539.21	25546.22
539.575	25842.94
539.94	25903.5
540.305	26007.45
540.67	25961.58
541.034	25985.76
541.399	26200.22
541.764	26158.63
542.129	26269.82
542.494	26333.77
542.858	26270.27
543.223	26364.5
543.587	26490.15
543.952	26392.53
544.316	26574.67
544.681	26492.86
545.045	26741.44
545.41	26769.47
545.774	26845.62
546.138	26937.82
546.503	27174.2
546.867	27152.73
547.231	27508.88
547.595	27531.25
547.959	27705.49
548.324	27615.09
548.688	27780.96
549.052	27864.35
549.416	27769.21
549.779	27895.09
550.143	27704.13
550.507	27888.53
550.871	27798.82
551.235	27847.86
551.599	28022.09
551.962	27999.26
552.326	28051.47
552.689	28229.09
553.053	28090.79
553.417	28198.81
553.78	28678.12
554.143	28440.83
554.507	28739.58
554.87	28960.59
555.234	29224.99
555.597	29068.39
555.96	29295.27
556.323	29309.29
556.686	29488.49
557.05	29481.71
557.413	29616.62
557.776	29573.01
558.139	29787.24
558.502	29813.23
558.865	29632.89
559.228	29785.21
559.59	29796.28
559.953	29687.81
560.316	29981.58
560.679	30144.97
561.041	30247.79
561.404	30452.76
561.767	30593.55
562.129	30583.15
562.492	30812.75
562.854	30920.09
563.217	31028.11
563.579	31271.95
563.941	31465.39
564.304	31529.11
564.666	31803.91
565.028	31921.42
565.39	31864.7
565.753	32128.19
566.115	32164.35
566.477	32304.91
566.839	32313.27
567.201	32347.62
567.563	32353.05
567.925	32382.43
568.287	32369.32
568.648	32414.51
569.01	32573.83
569.372	32699.25
569.734	32656.32
570.095	32837.33
570.457	33072.58
570.819	33177.88
571.18	33264.66
571.542	33545.11
571.903	33470.76
572.265	33806.57
572.626	33898.09
572.987	34096.96
573.349	34199.33
573.71	34302.83
574.071	34431.64
574.432	34482.94
574.794	34576.72
575.155	34508.47
575.516	34347.12
575.877	34484.74
576.238	34476.61
576.599	34537.62
576.96	34476.83
577.32	34433.22
577.681	34562.48
578.042	34721.57
578.403	34566.55
578.763	34667.79
579.124	34764.28
579.485	34943.71
579.845	35101.22
580.206	35106.2
580.566	35100.77
580.927	35387.09
581.287	35469.12
581.648	35470.25
582.008	35721.55
582.368	35496.02
582.728	35879.06
583.089	35816.69
583.449	35703.02
583.809	35693.98
584.169	35669.12
584.529	35576.01
584.889	35790.7
585.249	35545.51
585.609	35266.64
585.969	35587.31
586.329	35286.53
586.688	35250.37
587.048	35455.79
587.408	35385.28
587.768	35316.81
588.127	35475.23
588.487	35342.35
588.846	35669.57
589.206	35380.54
589.565	35532.63
589.925	35933.74
590.284	35771.26
590.643	35891.49
591.003	36152.72
591.362	36335.99
591.721	36166.73
592.08	36183
592.44	36381.19
592.799	36292.61
593.158	36323.56
593.517	36222.32
593.876	36249.67
594.235	35989.79
594.593	36167.86
594.952	36079.73
595.311	35945.72
595.67	35835.22
596.029	36076.11
596.387	36072.95
596.746	36046.06
597.104	35659.63
597.463	35938.26
597.822	35960.64
598.18	36108.88
598.538	36068.88
598.897	36144.59
599.255	35947.08
599.613	36528.53
599.972	36198.14
600.33	36461.64
600.688	36348.87
601.046	36728.75
601.404	36844.23
601.762	36678.13
602.12	36942.31
602.478	36913.38
602.836	36814.63
603.194	36646.27
603.552	36644.23
603.91	36438.59
604.268	36647.17
604.625	36456.44
604.983	36516.55
605.341	36308.88
605.698	36392.04
606.056	36481.53
606.413	36611.69
606.771	36490.57
607.128	36482.88
607.485	36466.61
607.843	36506.16
608.2	36827.51
608.557	36887.62
608.914	36859.37
609.272	36996.09
609.629	37152.47
609.986	37365.8
610.343	37291
610.7	37328.06
611.057	37365.12
611.414	37506.36
611.771	37535.51
612.127	37728.05
612.484	37777.99
612.841	37773.92
613.198	37655.06
613.554	37815.5
613.911	37968.72
614.267	37936.86
614.624	37641.27
614.98	37749.74
615.337	37954.03
615.693	37620.25
616.05	37462.52
616.406	37713.36
616.762	37567.37
617.118	37590.65
617.475	37683.75
617.831	37772.11
618.187	37709.74
618.543	37734.6
618.899	38213.68
619.255	38074.93
619.611	37992.45
619.967	38208.49
620.323	38287.58
620.678	38225.44
621.034	38271.54
621.39	38382.95
621.746	38419.55
622.101	39006.43
622.457	38573
622.812	38632.66
623.168	38638.31
623.523	38742.48
623.879	38748.36
624.234	38637.18
624.589	38513.11
624.945	38670.62
625.3	38602.37
625.655	38500.46
626.01	38493.9
626.365	38455.03
626.72	38277.64
627.075	38306.56
627.43	38246.68
627.785	38095.72
628.14	38134.59
628.495	38201.03
628.85	38069.51
629.205	37986.57
629.559	38314.92
629.914	38113.57
630.269	38119.22
630.623	38173.91
630.978	38143.18
631.332	38412.32
631.687	38483.28
632.041	38372.32
632.396	38355.15
632.75	38214.81
633.104	38503.17
633.459	38115.83
633.813	38220.69
634.167	38271.76
634.521	38122.16
634.875	38228.15
635.229	37997.87
635.583	37872.45
635.937	37802.85
636.291	37798.55
636.645	37788.16
636.999	37574.61
637.352	37662.06
637.706	37420.49
638.06	37597.2
638.413	37423.42
638.767	37222.52
639.121	37140.72
639.474	37008.74
639.828	36878.8
640.181	36941.4
640.534	36846.71
640.888	36883.1
641.241	36831.12
641.594	36999.03
641.947	37124.22
642.301	36985.02
642.654	37112.24
643.007	37068.18
643.36	37061.17
643.713	37060.04
644.066	37195.18
644.419	37019.59
644.771	37144.56
645.124	37071.79
645.477	36893.04
645.83	36779.37
646.182	36593.61
646.535	36221.65
646.888	35995.66
647.24	35598.16
647.593	35671.83
647.945	35566.75
648.298	35431.38
648.65	35246.08
649.002	35270.71
649.355	35406.3
649.707	35424.61
650.059	35682.68
650.411	36145.04
650.763	36092.84
651.115	36488.98
651.467	36199.27
651.819	36343.23
652.171	36222.1
652.523	36164.7
652.875	36075.66
653.227	36008.32
653.578	36201.31
653.93	36208.09
654.282	36130.12
654.633	35981.65
654.985	36179.84
655.337	36272.04
655.688	36134.42
656.039	36435.43
656.391	36131.25
656.742	36268.2
657.094	36330.34
657.445	36484.24
657.796	36291.48
658.147	36239.95
658.498	36287.86
658.849	36240.18
659.2	36225.26
659.551	36020.52
659.902	36197.01
660.253	36030.69
660.604	36113.17
660.955	35975.33
661.306	36024.59
661.656	35793.64
662.007	35796.57
662.358	35717.7
662.708	35746.4
663.059	35729
663.409	35475.45
663.76	35722
664.11	35608.1
664.461	35545.05
664.811	35426.87
665.161	35439.29
665.511	35484.26
665.862	35532.85
666.212	35726.52
666.562	35597.71
666.912	35616.69
667.262	35741.89
667.612	35817.36
667.962	35945.27
668.312	35948.21
668.662	36129.67
669.011	35918.6
669.361	35973.07
669.711	35905.5
670.06	35914.76
670.41	35828.66
670.76	35805.61
671.109	35762.9
671.459	35725.39
671.808	35625.73
672.157	35632.74
672.507	35522.91
672.856	35381.22
673.205	35448.56
673.554	35500.99
673.904	35209.47
674.253	35397.71
674.602	34992.53
674.951	34472.09
675.3	34360.9
675.649	34957.95
675.998	34909.36
676.346	34863.94
676.695	34932.64
677.044	34542.59
677.393	34649.26
677.741	34813.55
678.09	34772.87
678.438	34578.75
678.787	34691.74
679.135	34642.25
679.484	34470.28
679.832	34738.75
680.181	34460.34
680.529	34814.68
680.877	34791.85
681.225	34954.11
681.573	35102.13
681.922	34598.41
682.27	34688.13
682.618	34868.24
682.966	34632.08
683.314	34695.58
683.661	34531.97
684.009	34222.15
684.357	34130.4
684.705	34268.48
685.053	34214.47
685.4	34129.27
685.748	33849.51
686.095	33768.38
686.443	33620.36
686.79	33541.49
687.138	33466.01
687.485	33491.77
687.832	33237.54
688.18	33231.89
688.527	33006.14
688.874	32856.99
689.221	32812.47
689.568	32798.91
689.915	32587.17
690.262	32806.37
690.609	32583.1
690.956	32377.91
691.303	32433.27
691.65	32216.78
691.997	32278.93
692.344	31988.09
692.69	32078.93
693.037	32158.7
693.383	31999.38
693.73	32058.59
694.077	31998.93
694.423	31931.82
694.769	31913.51
695.116	31845.04
695.462	31680.07
695.808	31666.29
696.155	31788.54
696.501	31644.14
696.847	31593.52
697.193	31289.12
697.539	31379.74
697.885	31243.47
698.231	30964.61
698.577	30868.57
698.923	30620.21
699.269	30544.73
699.614	30499.31
699.96	30325.3
700.306	30264.29
700.651	30021.58
700.997	29901.36
701.342	29774.81
701.688	29761.03
702.033	29460.02
702.379	29489.17
702.724	29281.49
703.069	29419.11
703.415	29129.4
703.76	29078.78
704.105	29159.46
704.45	29046.24
704.795	28822.52
705.14	28873.59
705.485	28851.22
705.83	28708.62
706.175	28859.58
706.52	28720.37
706.865	28667.04
707.209	28907.49
707.554	28814.16
707.899	28631.11
708.243	28547.27
708.588	28598.34
708.932	28507.95
709.277	28508.63
709.621	28597.21
709.966	28348.86
710.31	28532.36
710.654	28140.73
710.998	28046.95
711.342	28091.46
711.687	28110.9
712.031	27882.43
712.375	27759.95
712.719	27857.8
713.063	27703.68
713.407	27618.93
713.75	27524.47
714.094	27405.83
714.438	27199.96
714.782	27243.35
715.125	27003.13
715.469	26986.86
715.812	26835.23
716.156	26591.84
716.499	26670.03
716.843	26675
717.186	26587.32
717.53	26705.51
717.873	26666.87
718.216	26633.2
718.559	26573.54
718.902	26426.42
719.246	26580.32
719.589	26618.74
719.932	26487.89
720.275	26434.33
720.617	26461.68
720.96	26342.58
721.303	26411.51
721.646	26458.74
721.989	26413.99
722.331	26672.97
722.674	26524.73
723.016	26616.7
723.359	26583.03
723.701	26535.12
724.044	26480.89
724.386	26238.41
724.729	26489.02
725.071	26271.4
725.413	26324.05
725.755	26285.41
726.097	26233.66
726.439	26028.92
726.782	25918.19
727.124	26106.21
727.465	25940.79
727.807	25845.42
728.149	25692.88
728.491	25674.81
728.833	25741.24
729.175	25525.66
729.516	25604.98
729.858	25401.37
730.199	25531.76
730.541	25397.3
730.882	25396.62
731.224	25379.45
731.565	25194.82
731.906	25265.32
732.248	25252.9
732.589	25193.91
732.93	25180.81
733.271	25254.48
733.612	25254.93
733.953	25237.98
734.294	25211.99
734.635	25174.25
734.976	25264.65
735.317	25206.79
735.658	25321.82
735.999	25347.13
736.339	25323.18
736.68	25430.07
737.021	25515.71
737.361	25366.34
737.702	25569.95
738.042	25309.17
738.383	25449.27
738.723	25595.49
739.063	25565.2
739.404	25651.75
739.744	25533.11
740.084	25445.43
740.424	25614.02
740.764	25441.59
741.104	25559.78
741.444	25303.74
741.784	25213.57
742.124	25250.86
742.464	25179.68
742.804	25080.92
743.143	25216.51
743.483	25284.76
743.823	25049.74
744.162	25045.22
744.502	25113.69
744.841	24943.07
745.181	25111.2
745.52	24891.32
745.86	24927.71
746.199	25034.37
746.538	25005.44
746.877	25000.7
747.216	24983.07
747.556	24987.14
747.895	25150.98
748.234	24902.4
748.573	24931.55
748.911	25013.13
749.25	25031.66
749.589	25127.02
749.928	25112.11
750.267	25185.78
750.605	25213.57
750.944	25230.98
751.283	25237.08
751.621	25454.02
751.96	25354.36
752.298	25445.43
752.636	25567.46
752.975	25500.12
753.313	25476.17
753.651	25727.01
753.989	25545.99
754.327	25587.58
754.666	25551.87
755.004	25662.15
755.342	25701.92
755.679	25856.04
756.017	25557.97
756.355	25713
756.693	25649.72
757.031	25731.75
757.368	25662.83
757.706	25717.97
758.044	25559.1
758.381	25598.65
758.719	25538.76
759.056	25560.23
759.394	25503.28
759.731	25303.52
760.068	25435.49
760.405	25401.37
760.743	25272.33
761.08	25341.48
761.417	25169.06
761.754	25238.21
762.091	25117.08
762.428	25201.37
762.765	24972.22
763.102	25083.41
763.438	25088.61
763.775	24905.56
764.112	24953.47
764.449	25002.73
764.785	24956.86
765.122	24895.39
765.458	24931.55
765.795	24921.6
766.131	24985.56
766.467	24977.42
766.804	24905.79
767.14	24986.46
767.476	24888.16
767.812	24904.66
768.148	24923.41
768.485	24805.9
768.821	24725.9
769.157	24623.08
769.492	24591.9
769.828	24590.54
770.164	24417.44
770.5	24476.19
770.836	24479.36
771.171	24399.36
771.507	24478.45
771.842	24259.02
772.178	24279.59
772.513	24233.94
772.849	24173.38
773.184	24080.95
773.519	24015.19
773.855	23910.78
774.19	23847.28
774.525	23802.99
774.86	23714.63
775.195	23682.99
775.53	23539.27
775.865	23422.89
776.2	23264.92
776.535	23103.12
776.87	23165.94
777.205	22988.77
777.539	22960.07
777.874	23046.4
778.209	22760.31
778.543	22751.27
778.878	22590.37
779.212	22555.34
779.547	22417.72
779.881	22487.32
780.215	22356.02
780.55	22295.01
780.884	22169.59
781.218	22181.34
781.552	22058.4
781.886	21954.68
782.22	22003.26
782.554	21824.51
782.888	21630.62
783.222	21661.35
783.556	21562.14
783.889	21637.62
784.223	21529.83
784.557	21495.25
784.89	21458.87
785.224	21297.52
785.557	21281.25
785.891	21318.08
786.224	21262.94
786.558	21243.74
786.891	21009.39
787.224	21031.99
787.557	20839.45
787.891	20893.91
788.224	20877.42
788.557	20884.42
788.89	20775.5
789.223	20841.49
789.556	20701.15
789.888	20681.49
790.221	20485.11
790.554	20337.54
790.887	20384.55
791.219	20333.93
791.552	20236.98
791.884	20113.14
792.217	20011.23
792.549	19836.99
792.882	19844.9
793.214	19729.65
793.546	19836.31
793.879	19748.41
794.211	19604.68
794.543	19634.51
794.875	19480.17
795.207	19402.43
795.539	19311.36
795.871	19274.07
796.203	19128.31
796.535	18979.39
796.867	19049.89
797.198	19034.3
797.53	18954.08
797.862	18869.11
798.193	18848.54
798.525	18844.7
798.856	18761.09
799.188	18607.87
799.519	18500.53
799.85	18331.5
800.182	18421.66
800.513	18525.84
800.844	18259.86
801.175	18499.4
801.506	18385.05
801.837	18280.2
802.168	18227.77
802.499	18246.75
802.83	18103.25
803.161	18115
803.491	18090.82
803.822	18108.9
804.153	17986.65
804.483	17801.34
804.814	17819.42
805.145	17857.84
805.475	17898.51
805.805	17759.76
806.136	17687.44
806.466	17804.73
806.796	17732.87
807.126	17618.52
807.457	17638.63
807.787	17591.18
808.117	17507.34
808.447	17500.78
808.777	17540.78
809.107	17338.98
809.436	17306.44
809.766	17301.01
810.096	17148.93
810.426	17178.31
810.755	17176.72
811.085	17077.07
811.414	16995.49
811.744	16912.55
812.073	16896.28
812.403	16877.97
812.732	16783.97
813.061	16726.57
813.39	16622.61
813.719	16466.91
814.049	16614.25
814.378	16626
814.707	16435.27
815.036	16485.89
815.365	16477.53
815.693	16228.05
816.022	16221.04
816.351	16218.33
816.68	16073.02
817.008	16112.12
817.337	15950.77
817.665	16037.09
817.994	16014.27
818.322	15869.19
818.651	15861.73
818.979	15840.49
819.307	15855.63
819.636	15793.26
819.964	15665.12
820.292	15814.27
820.62	15791.9
820.948	15771.79
821.276	15901.05
821.604	15713.94
821.932	15776.08
822.259	15851.11
822.587	15804.33
822.915	15769.08
823.243	15835.29
823.57	15739.25
823.898	15819.92
824.225	15747.16
824.553	15800.94
824.88	15803.43
825.207	15900.15
825.535	15862.18
825.862	15932.46
826.189	15875.29
826.516	15955.96
826.843	15868.96
827.17	15909.41
827.497	15950.32
827.824	15853.37
828.151	15902.63
828.478	15893.59
828.805	15953.93
829.131	15840.49
829.458	15846.36
829.785	15828.96
830.111	15833.71
830.438	15810.88
830.764	15757.1
831.09	15821.96
831.417	15657.22
831.743	15733.82
832.069	15709.87
832.395	15699.93
832.722	15697.67
833.048	15584.22
833.374	15569.99
833.7	15389.43
834.026	15464.45
834.351	15497.45
834.677	15368.18
835.003	15435.07
835.329	15440.72
835.654	15421.97
835.98	15390.78
836.306	15377.67
836.631	15208.19
836.956	15386.26
837.282	15261.75
837.607	15271.01
837.932	15175.42
838.258	15247.28
838.583	15216.1
838.908	15104.24
839.233	15178.58
839.558	15073.95
839.883	15003.67
840.208	15082.32
840.533	14980.85
840.858	15035.31
841.182	15087.74
841.507	15033.28
841.832	14935.88
842.156	15071.92
842.481	14989.44
842.805	14944.47
843.13	14948.08
843.454	14897.24
843.778	14787.63
844.103	14938.14
844.427	14695.66
844.751	14837.35
845.075	14703.79
845.399	14786.73
845.723	14678.94
846.047	14689.33
846.371	14552.16
846.695	14600.29
847.019	14459.28
847.343	14437.36
847.666	14280.98
847.99	14316.23
848.313	14346.06
848.637	14178.84
848.96	14184.71
849.284	14182.45
849.607	14050.93
849.931	13976.36
850.254	13875.57
850.577	13771.62
850.9	13689.36
851.223	13661.34
851.546	13518.97
851.869	13387.9
852.192	13507.89
852.515	13327.11
852.838	13241.23
853.161	13296.6
853.483	13171.86
853.806	13152.87
854.129	13063.39
854.451	13048.92
854.774	13014.8
855.096	12838.98
855.419	12903.84
855.741	12880.79
856.063	12741.59
856.385	12743.39
856.708	12755.14
857.03	12656.62
857.352	12627.24
857.674	12535.04
857.996	12516.06
858.318	12537.75
858.64	12575.71
858.961	12520.57
859.283	12332.78
859.605	12375.27
859.926	12440.8
860.248	12325.1
860.57	12312.9
860.891	12315.16
861.212	12343.4
861.534	12241.26
861.855	12292.11
862.176	12263.18
862.498	12265.21
862.819	12297.08
863.14	12269.06
863.461	12233.12
863.782	12193.8
864.103	12236.29
864.424	12234.93
864.745	12250.75
865.065	12173.47
865.386	12119.68
865.707	12092.11
866.027	12092.56
866.348	12048.5
866.668	12208.04
866.989	12011.44
867.309	11859.8
867.63	11966.92
867.95	12010.76
868.27	11973.47
868.59	11973.47
868.91	11875.62
869.23	11915.62
869.55	11849.41
869.87	11845.34
870.19	11832.68
870.51	11865.22
870.83	11774.61
871.15	11679.24
871.469	11718.34
871.789	11712.91
872.109	11590.88
872.428	11617.1
872.748	11626.13
873.067	11550.2
873.386	11567.15
873.706	11513.37
874.025	11470.43
874.344	11414.39
874.663	11406.25
874.982	11301.85
875.301	11309.99
875.62	11258.91
875.939	11250.55
876.258	11221.17
876.577	11176.66
876.896	11212.13
877.214	11097.11
877.533	11063.89
877.852	11244.45
878.17	11196.09
878.489	11117.67
878.807	11165.36
879.125	11119.26
879.444	11089.2
879.762	11060.27
880.08	11077.9
880.398	10916.78
880.716	10960.16
881.034	10920.84
881.352	10961.29
881.67	10907.51
881.988	10912.48
882.306	10922.42
882.624	10912.48
882.941	10782.54
883.259	10818.25
883.577	10850.11
883.894	10858.25
884.212	10775.31
884.529	10726.5
884.846	10809.21
885.164	10719.94
885.481	10675.65
885.798	10681.53
886.115	10631.81
886.432	10639.49
886.75	10660.06
887.067	10574.19
887.383	10604.92
887.7	10617.57
888.017	10619.83
888.334	10628.42
888.651	10549.78
888.967	10560.17
889.284	10493.06
889.6	10498.03
889.917	10424.13
890.233	10422.78
890.55	10404.92
890.866	10464.36
891.182	10380.07
891.498	10423.68
891.815	10241.09
892.131	10237.92
892.447	10252.84
892.763	10130.81
893.079	10115.21
893.395	10078.15
893.71	10028.66
894.026	9973.07
894.342	9900.3
894.657	9880.64
894.973	9920.87
895.289	9810.14
895.604	9783.47
895.92	9758.61
896.235	9731.72
896.55	9672.97
896.865	9625.74
897.181	9579.86
897.496	9567.88
897.811	9531.27
898.126	9443.82
898.441	9401.33
898.756	9401.11
899.071	9305.52
899.386	9391.62
899.7	9214.9
900.015	9165.41
900.33	9148.23
900.644	9125.86
900.959	9239.53
901.273	9126.54
901.588	9037.95
901.902	9008.58
902.216	8985.07
902.531	9043.6
902.845	9011.97
903.159	8941.69
903.473	8967
903.787	8882.25
904.101	8856.04
904.415	8887.45
904.729	8776.04
905.042	8731.3
905.356	8814.23
905.67	8776.49
905.984	8766.55
906.297	8723.84
906.611	8655.37
906.924	8651.75
907.237	8698.98
907.551	8597.06
907.864	8550.06
908.177	8525.65
908.491	8557.52
908.804	8463.28
909.117	8458.31
909.43	8400.68
909.743	8373.57
910.056	8443.85
910.368	8364.53
910.681	8343.96
910.994	8324.3
911.307	8321.82
911.619	8197.98
911.932	8210.18
912.244	8160.92
912.557	8192.55
912.869	8095.38
913.181	8075.95
913.494	8067.81
913.806	8075.04
914.118	8076.4
914.43	7960.24
914.742	7899.23
915.054	7864.2
915.366	7876.4
915.678	7751.43
915.99	7746.91
916.302	7686.8
916.613	7643.64
916.925	7628.05
917.236	7623.98
917.548	7530.2
917.859	7505.79
918.171	7501.27
918.482	7431.44
918.794	7378.79
919.105	7388.96
919.416	7307.15
919.727	7247.95
920.038	7273.71
920.349	7178.34
920.66	7201.39
920.971	7180.15
921.282	7098.8
921.593	7063.09
921.903	7069.19
922.214	7032.13
922.525	6995.75
922.835	6943.55
923.146	6917.78
923.456	6866.71
923.767	6856.99
924.077	6888.18
924.387	6767.05
924.697	6776.77
925.008	6764.57
925.318	6733.38
925.628	6729.99
925.938	6722.99
926.248	6616.1
926.558	6610.9
926.867	6556.44
927.177	6592.14
927.487	6472.37
927.796	6505.37
928.106	6452.49
928.416	6463.33
928.725	6494.29
929.034	6419.27
929.344	6397.35
929.653	6395.54
929.962	6390.11
930.271	6261.98
930.581	6301.3
930.89	6304.47
931.199	6253.39
931.508	6271.93
931.817	6241.64
932.125	6228.08
932.434	6266.05
932.743	6136.11
933.051	6196.45
933.36	6130.46
933.669	6127.75
933.977	6069.67
934.286	6068.09
934.594	6070.12
934.902	5990.58
935.21	6024.47
935.519	5987.64
935.827	5982.67
936.135	5919.62
936.443	5834.87
936.751	5893.63
937.059	5822.67
937.367	5875.55
937.674	5881.43
937.982	5842.78
938.29	5798.94
938.597	5753.3
938.905	5702.22
939.213	5661.09
939.52	5588.1
939.827	5607.76
940.135	5603.24
940.442	5624.71
940.749	5517.14
941.056	5487.54
941.363	5472.4
941.67	5430.59
941.977	5377.49
942.284	5410.03
942.591	5356.24
942.898	5333.87
943.205	5301.78
943.511	5217.72
943.818	5259.52
944.125	5276.92
944.431	5203.7
944.738	5207.09
945.044	5139.3
945.35	5108.11
945.657	5078.96
945.963	5046.87
946.269	5021.34
946.575	5041.9
946.881	4961
947.187	5002.58
947.493	4907.89
947.799	4899.53
948.105	4894.56
948.41	4866.76
948.716	4867.67
949.022	4838.97
949.327	4798.52
949.633	4757.84
949.938	4769.59
950.244	4782.7
950.549	4718.52
950.854	4731.4
951.16	4692.08
951.465	4672.65
951.77	4674.68
952.075	4619.54
952.38	4609.6
952.685	4621.8
952.99	4532.08
953.294	4560.11
953.599	4563.27
953.904	4547.68
954.209	4519.66
954.513	4551.52
954.818	4472.88
955.122	4477.85
955.426	4502.03
955.731	4477.85
956.035	4462.48
956.339	4434.91
956.643	4439.21
956.948	4415.93
957.252	4459.77
957.556	4434.69
957.86	4379.09
958.163	4356.5
958.467	4355.14
958.771	4355.14
959.075	4313.56
959.378	4245.09
959.682	4300.9
959.985	4285.09
960.289	4242.15
960.592	4257.97
960.896	4202.38
961.199	4204.86
961.502	4191.98
961.805	4173
962.108	4139.1
962.411	4116.28
962.714	4103.62
963.017	4027.46
963.32	4050.06
963.623	3995.6
963.926	4014.13
964.228	3993.34
964.531	4035.6
964.833	3994.02
965.136	3934.59
965.438	3893.46
965.741	3859.11
966.043	3843.51
966.345	3830.63
966.648	3826.11
966.95	3811.88
967.252	3800.35
967.554	3782.27
967.856	3754.48
968.158	3721.71
968.46	3718.09
968.761	3720.13
969.063	3673.12
969.365	3669.51
969.666	3629.96
969.968	3634.71
970.269	3576.63
970.571	3576.86
970.872	3593.58
971.174	3551.55
971.475	3519.91
971.776	3516.52
972.077	3513.58
972.378	3533.92
972.679	3434.03
972.98	3470.87
973.281	3434.71
973.582	3435.62
973.883	3384.54
974.183	3380.02
974.484	3341.61
974.785	3302.74
975.085	3341.16
975.386	3325.79
975.686	3333.25
975.986	3307.03
976.287	3307.94
976.587	3287.37
976.887	3217.09
977.187	3254.15
977.487	3187.94
977.787	3222.51
978.087	3227.71
978.387	3215.73
978.687	3183.87
978.987	3193.81
979.286	3179.58
979.586	3169.18
979.885	3166.47
980.185	3152.91
980.484	3134.61
980.784	3100.26
981.083	3141.39
981.382	3119.69
981.682	3099.35
981.981	3080.82
982.28	3064.33
982.579	3068.39
982.878	3062.07
983.177	3001.5
983.475	3042.41
983.774	2999.47
984.073	2998.57
984.372	2947.95
984.67	2967.61
984.969	2986.14
985.267	2981.16
985.566	2968.74
985.864	2971
986.162	2929.64
986.461	2926.93
986.759	2912.24
987.057	2864.56
987.355	2852.81
987.653	2840.15
987.951	2835.41
988.249	2850.77
988.547	2834.5
988.844	2821.62
989.142	2781.85
989.44	2743.88
989.737	2743.2
990.035	2734.84
990.332	2749.31
990.63	2715.86
990.927	2725.13
991.224	2685.13
991.521	2680.61
991.819	2672.92
992.116	2641.29
992.413	2634.96
992.71	2613.49
993.006	2628.63
993.303	2580.05
993.6	2569.65
993.897	2590.44
994.193	2583.89
994.49	2541.85
994.787	2549.09
995.083	2493.04
995.379	2472.25
995.676	2502.99
995.972	2470.9
996.268	2453.27
996.565	2445.81
996.861	2430.44
997.157	2429.31
997.453	2400.84
997.749	2396.55
998.044	2340.96
998.34	2365.59
998.636	2321.07
998.932	2361.75
999.227	2317.23
999.523	2313.84
999.818	2319.94
1000.114	2272.71
1000.409	2275.65
1000.704	2236.78
1001	2276.55
1001.295	2200.62
1001.59	2202.2
1001.885	2214.41
1002.18	2248.3
1002.475	2184.58
1002.77	2203.56
1003.065	2129.66
1003.359	2170.79
1003.654	2176.89
1003.949	2146.84
1004.243	2164.24
1004.538	2083.56
1004.832	2116.78
1005.127	2087.85
1005.421	2054.41
1005.715	2074.3
1006.009	2066.16
1006.304	2035.2
1006.598	2036.1
1006.892	2051.47
1007.186	2046.73
1007.48	2018.48
1007.773	2035.43
1008.067	1984.13
1008.361	1998.14
1008.655	1972.83
1008.948	1960.85
1009.242	1969.89
1009.535	1942.55
1009.829	1954.75
1010.122	1940.51
1010.415	1930.57
1010.708	1891.48
1011.001	1892.38
1011.295	1910.46
1011.588	1888.09
1011.881	1896.9
1012.173	1870.01
1012.466	1880.4
1012.759	1853.51
1013.052	1878.82
1013.344	1846.73
1013.637	1829.56
1013.93	1849.67
1014.222	1837.24
1014.514	1791.59
1014.807	1796.34
1015.099	1804.7
1015.391	1745.04
1015.683	1760.41
1015.976	1717.24
1016.268	1726.96
1016.56	1703.68
1016.851	1710.69
1017.143	1713.18
1017.435	1696.68
1017.727	1675.89
1018.018	1651.03
1018.31	1639.5
1018.602	1644.7
1018.893	1634.99
1019.185	1627.75
1019.476	1618.49
1019.767	1621.2
1020.058	1591.6
1020.35	1575.1
1020.641	1579.39
1020.932	1527.42
1021.223	1517.47
1021.514	1528.77
1021.804	1521.54
1022.095	1524.93
1022.386	1509.11
1022.677	1512.95
1022.967	1476.57
1023.258	1452.17
1023.548	1449.45
1023.839	1436.35
1024.129	1442
1024.419	1439.51
1024.709	1411.04
1025	1429.79
1025.29	1387.99
1025.58	1378.72
1025.87	1371.04
1026.16	1371.26
1026.449	1362
1026.739	1359.74
1027.029	1326.07
1027.319	1328.55
1027.608	1328.33
1027.898	1333.98
1028.187	1325.39
1028.477	1314.32
1028.766	1280.42
1029.055	1276.58
1029.344	1277.48
1029.634	1263.92
1029.923	1233.87
1030.212	1236.8
1030.501	1247.88
1030.79	1235
1031.078	1235.9
1031.367	1210.14
1031.656	1217.82
1031.945	1203.13
1032.233	1168.56
1032.522	1170.36
1032.81	1183.92
1033.099	1158.61
1033.387	1150.03
1033.675	1152.74
1033.963	1152.06
1034.251	1159.74
1034.54	1142.79
1034.828	1141.44
1035.116	1145.28
1035.403	1120.65
1035.691	1122.68
1035.979	1130.37
1036.267	1098.73
1036.554	1110.71
1036.842	1093.76
1037.129	1098.28
1037.417	1079.07
1037.704	1067.54
1037.992	1066.86
1038.279	1061.22
1038.566	1042.01
1038.853	1042.01
1039.14	1042.01
