Data from blue_shiny_book_FLMS001491_00026.txt Node
Date: Wed Feb 08 15:26:45 GMT 2017
User: dcchb
Spectrometer: FLMS00149
Trigger mode: 0
Integration Time (sec): 2.000000E-2
Scans to average: 10
Electric dark correction enabled: true
Nonlinearity correction enabled: false
Boxcar width: 0
XAxis mode: Wavelengths
Number of Pixels in Spectrum: 2048
>>>>>Begin Spectral Data<<<<<
341.393	-5.72
341.776	-5.72
342.16	-5.72
342.543	-65.83
342.927	-50.69
343.31	-53.4
343.693	-73.97
344.077	-49.79
344.46	-73.29
344.843	-57.02
345.226	-41.43
345.61	-53.4
345.993	-26.74
346.376	-3.23
346.759	11.23
347.142	40.83
347.525	54.17
347.908	39.7
348.291	63.88
348.674	118.57
349.057	103.88
349.44	126.03
349.823	161.06
350.206	170.55
350.588	209.42
350.971	239.02
351.354	240.38
351.737	237.21
352.119	248.96
352.502	262.07
352.884	263.43
353.267	284.89
353.65	279.02
354.032	300.03
354.414	310.88
354.797	322.41
355.179	333.03
355.562	330.99
355.944	328.96
356.326	350.2
356.709	346.13
357.091	338.68
357.473	374.61
357.855	359.92
358.238	341.16
358.62	364.89
359.002	349.52
359.384	342.75
359.766	332.35
360.148	355.4
360.53	360.6
360.912	366.47
361.294	359.24
361.676	341.84
362.057	331.9
362.439	341.16
362.821	346.81
363.203	329.86
363.584	343.42
363.966	351.78
364.348	344.55
364.729	340.71
365.111	320.15
365.493	363.99
365.874	333.48
366.256	362.18
366.637	340.49
367.019	334.61
367.4	327.6
367.781	337.32
368.163	334.84
368.544	333.03
368.925	344.1
369.306	353.59
369.688	351.33
370.069	337.77
370.45	336.42
370.831	348.39
371.212	322.63
371.593	344.1
371.974	350.65
372.355	333.93
372.736	359.92
373.117	349.3
373.498	348.85
373.879	356.98
374.26	366.47
374.641	355.17
375.021	312.24
375.402	365.8
375.783	348.17
376.163	381.39
376.544	385.68
376.925	369.19
377.305	375.96
377.686	383.87
378.066	371.67
378.447	371.45
378.827	391.33
379.208	385.68
379.588	407.38
379.968	382.74
380.349	385.46
380.729	394.04
381.109	415.74
381.489	402.18
381.87	403.99
382.25	403.31
382.63	404.89
383.01	405.79
383.39	415.74
383.77	418.22
384.15	426.36
384.53	422.97
384.91	433.36
385.29	418.22
385.67	448.28
386.049	439.69
386.429	451.22
386.809	450.99
387.189	441.27
387.568	470.88
387.948	451.67
388.328	463.65
388.707	479.69
389.087	472.46
389.466	473.14
389.846	470.88
390.225	483.98
390.605	482.85
390.984	504.77
391.363	509.29
391.743	491.44
392.122	518.56
392.501	523.08
392.881	530.54
393.26	511.33
393.639	519.24
394.018	525.57
394.397	544.1
394.776	557.65
395.155	542.29
395.534	554.72
395.913	546.13
396.292	561.95
396.671	589.52
397.05	597.65
397.429	597.43
397.808	588.84
398.186	599.91
398.565	609.86
398.944	596.75
399.323	611.89
399.701	628.16
400.08	631.78
400.458	612.12
400.837	632
401.215	633.81
401.594	639.91
401.972	650.08
402.351	667.03
402.729	690.76
403.107	684.21
403.486	695.05
403.864	683.08
404.242	695.73
404.62	730.98
404.999	737.09
405.377	719.91
405.755	732.79
406.133	730.08
406.511	750.19
406.889	766.69
407.267	770.3
407.645	776.18
408.023	796.07
408.401	813.69
408.779	810.53
409.156	829.06
409.534	839.91
409.912	848.49
410.29	871.32
410.667	877.87
411.045	889.17
411.422	889.17
411.8	921.49
412.178	919.68
412.555	927.59
412.933	944.31
413.31	982.28
413.687	974.59
414.065	959.9
414.442	1004.42
414.819	1018.21
415.197	1038.09
415.574	1040.81
415.951	1069.96
416.328	1078.32
416.705	1085.55
417.082	1102.73
417.46	1114.02
417.837	1114.48
418.214	1149.28
418.591	1136.4
418.967	1121.26
419.344	1157.41
419.721	1174.36
420.098	1182.95
420.475	1197.41
420.852	1220.24
421.228	1244.87
421.605	1246.22
421.982	1250.97
422.358	1291.87
422.735	1288.94
423.111	1290.06
423.488	1321.02
423.864	1323.51
424.241	1369.61
424.617	1359.44
424.994	1373.45
425.37	1394.47
425.746	1435.37
426.123	1448.93
426.499	1465.65
426.875	1466.78
427.251	1512.21
427.627	1548.36
428.003	1562.83
428.379	1542.71
428.756	1561.7
429.132	1615.48
429.507	1591.75
429.883	1641.92
430.259	1663.16
430.635	1709.71
431.011	1730.28
431.387	1760.56
431.763	1766.89
432.138	1808.02
432.514	1803.27
432.89	1849.37
433.265	1883.5
433.641	1886.43
434.016	1897.28
434.392	1922.14
434.767	1984.28
435.143	1992.87
435.518	2039.65
435.894	2042.36
436.269	2135.69
436.644	2153.32
437.02	2139.76
437.395	2175.92
437.77	2188.12
438.145	2189.02
438.52	2238.74
438.895	2275.12
439.271	2254.56
439.646	2350.83
440.021	2350.38
440.395	2398.06
440.77	2379.3
441.145	2395.57
441.52	2437.83
441.895	2477.15
442.27	2478.96
442.645	2512.63
443.019	2528.9
443.394	2518.51
443.769	2566.64
444.143	2565.51
444.518	2598.28
444.892	2594.44
445.267	2651.39
445.641	2683.7
446.016	2721.21
446.39	2730.71
446.764	2787.2
447.139	2772.06
447.513	2790.36
447.887	2800.76
448.262	2782.46
448.636	2816.8
449.01	2873.98
449.384	2894.77
449.758	2929.57
450.132	2947.42
450.506	3005.27
450.88	3001.66
451.254	3019.29
451.628	3072.16
452.002	3158.94
452.376	3141.09
452.75	3177.47
453.123	3224.93
453.497	3213.4
453.871	3284.81
454.244	3343.8
454.618	3356.45
454.992	3425.83
455.365	3475.77
455.739	3522.1
456.112	3550.12
456.486	3617.01
456.859	3666.5
457.232	3753.95
457.606	3687.29
457.979	3784.91
458.352	3838.25
458.725	3901.97
459.099	3943.1
459.472	3995.76
459.845	4049.54
460.218	4098.8
460.591	4141.97
460.964	4153.04
461.337	4288.18
461.71	4318.91
462.083	4430.32
462.456	4451.34
462.829	4484.11
463.201	4543.54
463.574	4576.53
463.947	4660.82
464.32	4760.48
464.692	4789.18
465.065	4812.23
465.438	4897.88
465.81	4918.9
466.183	5038.89
466.555	5161.6
466.928	5186.69
467.3	5194.37
467.672	5264.65
468.045	5430.97
468.417	5478.43
468.789	5486.56
469.161	5557.3
469.534	5669.84
469.906	5783.51
470.278	5787.12
470.65	5903.5
471.022	5969.72
471.394	6112.54
471.766	6167.9
472.138	6250.61
472.51	6385.75
472.882	6437.5
473.253	6571.06
473.625	6703.03
473.997	6826.87
474.369	6865.51
474.74	7009.24
475.112	7135.79
475.484	7216.91
475.855	7337.14
476.227	7372.16
476.598	7571.03
476.97	7693.74
477.341	7815.09
477.713	7981.87
478.084	8016.89
478.455	8257.57
478.827	8299.37
479.198	8647.39
479.569	8669.98
479.94	8852.58
480.311	8937.77
480.682	9167.82
481.053	9307.03
481.424	9479
481.795	9627.7
482.166	9738.66
482.537	9852.1
482.908	10067.24
483.279	10234.01
483.65	10450.5
484.021	10624.96
484.391	10684.85
484.762	10887.1
485.133	10958.74
485.503	11130.03
485.874	11468.55
486.244	11497.48
486.615	11721.66
486.985	11888.2
487.356	12090.01
487.726	12210.46
488.097	12543.78
488.467	12630.33
488.837	12760.05
489.207	12958.46
489.578	13179.02
489.948	13348.96
490.318	13494.72
490.688	13583.98
491.058	13804.99
491.428	14036.17
491.798	14183.51
492.168	14531.98
492.538	14523.62
492.908	14658.53
493.278	14816.49
493.648	14862.36
494.017	15101.23
494.387	15293.54
494.757	15450.82
495.126	15638.61
495.496	15712.96
495.866	15856.91
496.235	16080.64
496.605	16178.71
496.974	16301.42
497.344	16512.72
497.713	16613.73
498.082	16728.98
498.452	16978.24
498.821	17069.76
499.19	17118.58
499.559	17326.03
499.928	17433.37
500.298	17538.23
500.667	17648.05
501.036	17748.62
501.405	17995.16
501.774	18028.61
502.143	18081.49
502.512	18260.47
502.88	18506.56
503.249	18463.62
503.618	18643.06
503.987	18749.94
504.356	18859.09
504.724	19030.16
505.093	19101.57
505.462	19150.61
505.83	19345.64
506.199	19507.21
506.567	19708.79
506.936	19675.8
507.304	19914.89
507.672	20124.37
508.041	20176.8
508.409	20339.96
508.777	20680.74
509.145	20745.37
509.514	20842.77
509.882	21068.75
510.25	21091.58
510.618	21286.15
510.986	21391.68
511.354	21468.07
511.722	21686.82
512.09	21811.11
512.458	21815.4
512.826	22054.26
513.193	22133.13
513.561	22214.03
513.929	22503.74
514.297	22617.87
514.664	22758.65
515.032	22922.04
515.4	23124.29
515.767	23285.87
516.135	23498.29
516.502	23558.86
516.869	24025.96
517.237	24060.77
517.604	24012.18
517.972	24326.75
518.339	24521.32
518.706	24446.74
519.073	24604.25
519.44	24689
519.808	24959.95
520.175	25102.55
520.542	25488.75
520.909	25542.76
521.276	25568.3
521.643	25796.77
522.009	26052.35
522.376	26309.07
522.743	26438.56
523.11	26760.58
523.477	27097.3
523.843	27198.08
524.21	27427.91
524.577	27821.34
524.943	27737.28
525.31	27929.82
525.676	28134.78
526.043	28370.03
526.409	28573.64
526.776	28713.98
527.142	28777.03
527.508	28949.22
527.874	29158.26
528.241	29335.43
528.607	29584.01
528.973	29836.21
529.339	29951.91
529.705	30229.42
530.071	30554.83
530.437	30772.91
530.803	30964.99
531.169	31190.07
531.535	31185.55
531.901	31345.32
532.267	31491.3
532.632	31815.59
532.998	31838.64
533.364	31954.57
533.73	31872.31
534.095	32195.69
534.461	32228.01
534.826	32469.81
535.192	32507.32
535.557	32802.68
535.923	32716.81
536.288	32867.99
536.653	33027.99
537.019	33261.43
537.384	33340.97
537.749	33672.72
538.114	33839.94
538.479	33992.48
538.845	34058.02
539.21	34038.58
539.575	34305.92
539.94	34324.22
540.305	34645.57
540.67	34485.8
541.034	34647.83
541.399	34685.12
541.764	34773.93
542.129	34901.61
542.494	34839.69
542.858	34997.43
543.223	34929.41
543.587	35154.03
543.952	35216.86
544.316	35447.13
544.681	35596.51
545.045	35777.07
545.41	35955.37
545.774	36047.12
546.138	36160.33
546.503	36276.72
546.867	36475.58
547.231	36677.61
547.595	36727.33
547.959	36849.13
548.324	36881.22
548.688	36949.01
549.052	37001.44
549.416	36912.63
549.779	37068.56
550.143	37042.8
550.507	37218.39
550.871	37356.01
551.235	37227.2
551.599	37405.27
551.962	37548.55
552.326	37776.79
552.689	37903.57
553.053	37920.97
553.417	38091.81
553.78	38492.93
554.143	38570.67
554.507	38706.71
554.87	38895.18
555.234	39339.23
555.597	39096.75
555.96	39289.07
556.323	39414.26
556.686	39488.38
557.05	39659.45
557.413	39680.47
557.776	39713.91
558.139	39851.31
558.502	39760.01
558.865	39767.47
559.228	39908.03
559.59	40110.74
559.953	40162.04
560.316	40596.83
560.679	40669.82
561.041	40966.99
561.404	41103.03
561.767	41460.53
562.129	41330.14
562.492	41929.45
562.854	41898.49
563.217	42117.92
563.579	42303
563.941	42459.6
564.304	42646.49
564.666	42784.57
565.028	42857.79
565.39	42888.75
565.753	42986.37
566.115	42957.67
566.477	43295.51
566.839	43249.64
567.201	43279.02
567.563	43181.17
567.925	43479.01
568.287	43532.34
568.648	43658.89
569.01	43807.14
569.372	44102.72
569.734	44129.62
570.095	44409.38
570.457	44624.52
570.819	44674.91
571.18	44743.16
571.542	45012.31
571.903	45294.78
572.265	45501.33
572.626	45581.33
572.987	45660.65
573.349	45958.95
573.71	45970.02
574.071	46085.95
574.432	46127.98
574.794	46158.94
575.155	45889.34
575.516	45917.82
575.877	46084.37
576.238	46077.14
576.599	46111.26
576.96	46167.76
577.32	46168.66
577.681	46383.57
578.042	46471.25
578.403	46442.78
578.763	46669.21
579.124	46738.36
579.485	46950.56
579.845	47166.82
580.206	47301.51
580.566	47325.24
580.927	47350.77
581.287	47595.29
581.648	47460.83
582.008	47745.57
582.368	47536.31
582.728	47788.5
583.089	47624.89
583.449	47601.39
583.809	47670.99
584.169	47578.57
584.529	47450.43
584.889	47616.98
585.249	47382.41
585.609	47136.09
585.969	47390.55
586.329	47249.08
586.688	47254.28
587.048	47197.78
587.408	47267.61
587.768	47433.71
588.127	47543.54
588.487	47519.58
588.846	47783.98
589.206	47612.24
589.565	47787.6
589.925	47927.93
590.284	47819.01
590.643	47918.67
591.003	48088.61
591.362	48226.91
591.721	48025.79
592.08	48087.93
592.44	48251.32
592.799	48174.26
593.158	48096.74
593.517	47944.66
593.876	47981.94
594.235	47930.42
594.593	47927.93
594.952	47988.95
595.311	47774.49
595.67	47752.35
596.029	47833.7
596.387	48000.25
596.746	47963.87
597.104	47704.44
597.463	47899.23
597.822	48044.54
598.18	48076.18
598.538	48037.08
598.897	48265.55
599.255	48084.77
599.613	48641.36
599.972	48472.1
600.33	48659.89
600.688	48503.29
601.046	48732.43
601.404	48940.34
601.762	48730.17
602.12	48861.47
602.478	48907.12
602.836	48712.55
603.194	48617.41
603.552	48660.57
603.91	48491.54
604.268	48488.82
604.625	48366.57
604.983	48374.7
605.341	48221.26
605.698	48519.56
606.056	48463.06
606.413	48533.34
606.771	48578.54
607.128	48639.1
607.485	48413.57
607.843	48620.12
608.2	48965.2
608.557	49091.29
608.914	48952.77
609.272	49168.58
609.629	49187.79
609.986	49412.64
610.343	49305.53
610.7	49599.53
611.057	49645.18
611.414	49549.14
611.771	49646.08
612.127	49856.02
612.484	49820.77
612.841	49818.96
613.198	49643.37
613.554	49709.13
613.911	49788.22
614.267	49612.86
614.624	49596.59
614.98	49680.21
615.337	49743.71
615.693	49659.19
616.05	49441.12
616.406	49761.56
616.762	49604.05
617.118	49618.51
617.475	49486.76
617.831	49671.62
618.187	49679.98
618.543	49851.73
618.899	50058.95
619.255	50183.02
619.611	50087.2
619.967	50296.69
620.323	50381.43
620.678	50411.94
621.034	50467.08
621.39	50384.14
621.746	50382.79
622.101	50700.29
622.457	50447.87
622.812	50546.85
623.168	50615.32
623.523	50539.84
623.879	50658.94
624.234	50302.11
624.589	50373.29
624.945	50251.04
625.3	50254.88
625.655	50309.34
626.01	50205.16
626.365	50086.07
626.72	49939.86
627.075	50027.54
627.43	50075.9
627.785	49970.14
628.14	49960.65
628.495	50015.11
628.85	49957.03
629.205	49927.2
629.559	50131.72
629.914	50055.56
630.269	50158.61
630.623	50202.45
630.978	50137.37
631.332	50378.49
631.687	50502.56
632.041	50484.93
632.396	50510.01
632.75	50224.37
633.104	50403.8
633.459	50181.43
633.813	50238.83
634.167	50132.17
634.521	50018.28
634.875	50045.62
635.229	49950.03
635.583	49728.79
635.937	49743.71
636.291	49648.12
636.645	49675.01
636.999	49495.58
637.352	49495.58
637.706	49219.43
638.06	49352.3
638.413	49207
638.767	49053.55
639.121	48930.39
639.474	48813.11
639.828	48791.87
640.181	48863.28
640.534	49049.26
640.888	48917.74
641.241	48866.89
641.594	49041.8
641.947	49156.15
642.301	49128.13
642.654	49164.96
643.007	49152.99
643.36	49054.23
643.713	49128.58
644.066	49280.44
644.419	49101.01
644.771	49105.98
645.124	48987.34
645.477	48929.72
645.83	48548.71
646.182	48229.85
646.535	47893.36
646.888	47752.57
647.24	47305.13
647.593	47398.01
647.945	47235.98
648.298	47089.09
648.65	46900.17
649.002	46729.55
649.355	46937.68
649.707	47032.14
650.059	47306.26
650.411	47646.36
650.763	47753.7
651.115	48060.81
651.467	47948.27
651.819	47919.57
652.171	47761.61
652.523	47731.56
652.875	47869.18
653.227	47810.65
653.578	48161.37
653.93	48096.29
654.282	47989.18
654.633	47874.6
654.985	47910.08
655.337	48000.02
655.688	48040.25
656.039	48206.12
656.391	47790.54
656.742	47913.92
657.094	47916.86
657.445	48048.84
657.796	48070.53
658.147	47758.67
658.498	47867.82
658.849	47923.87
659.2	47750.09
659.551	47579.24
659.902	47768.16
660.253	47599.36
660.604	47533.82
660.955	47372.47
661.306	47480.71
661.656	47256.31
662.007	47266.03
662.358	47103.1
662.708	47147.16
663.059	47082.08
663.409	46848.64
663.76	47214.51
664.11	47191.68
664.461	47126.15
664.811	47164.34
665.161	47154.62
665.511	47293.83
665.862	47382.19
666.212	47578.57
666.562	47578.11
666.912	47485.69
667.262	47551
667.612	47602.52
667.962	47775.62
668.312	47493.14
668.662	47855.62
669.011	47764.32
669.361	47703.53
669.711	47565.46
670.06	47527.95
670.41	47399.59
670.76	47402.98
671.109	47467.16
671.459	47285.01
671.808	47146.49
672.157	47226.71
672.507	46931.58
672.856	46896.32
673.205	46914.4
673.554	46992.59
673.904	46712.83
674.253	46987.17
674.602	46533.85
674.951	45932.73
675.3	45824.71
675.649	46431.48
675.998	46290.69
676.346	46263.12
676.695	46385.15
677.044	46146.74
677.393	46394.64
677.741	46501.31
678.09	46266.06
678.438	46326.17
678.787	46483
679.135	46584.24
679.484	46186.06
679.832	46602.55
680.181	46311.93
680.529	46514.64
680.877	46478.26
681.225	46384.7
681.573	46567.29
681.922	46153.74
682.27	46299.28
682.618	46260.86
682.966	46088.21
683.314	46290.92
683.661	45986.52
684.009	45723.47
684.357	45483.71
684.705	45374.33
685.053	45411.62
685.4	45351.51
685.748	45020.21
686.095	44897.51
686.443	44800.33
686.79	44665.42
687.138	44488.25
687.485	44533.22
687.832	44206.9
688.18	44338.65
688.527	44144.76
688.874	44030.86
689.221	43892.79
689.568	43780.93
689.915	43803.98
690.262	43841.04
690.609	43798.55
690.956	43631.55
691.303	43548.61
691.65	43566.24
691.997	43733.47
692.344	43375.29
692.69	43415.74
693.037	43424.1
693.383	43283.09
693.73	43565.11
694.077	43274.05
694.423	43211
694.769	43100.04
695.116	42913.6
695.462	42822.98
695.808	42840.84
696.155	42822.08
696.501	42532.82
696.847	42352.49
697.193	42048.99
697.539	42165.6
697.885	41816.01
698.231	41696.01
698.577	41626.18
698.923	41501.66
699.269	41265.29
699.614	40953.2
699.96	40868.23
700.306	40712.08
700.651	40518.41
700.997	40409.26
701.342	40191.19
701.688	40074.36
702.033	39895.15
702.379	39854.25
702.724	39905.55
703.069	40015.37
703.415	39529.96
703.76	39533.13
704.105	39545.1
704.45	39533.58
704.795	39367.26
705.14	39229.86
705.485	39235.06
705.83	39225.56
706.175	39394.83
706.52	39304.88
706.865	39280.7
707.209	39292.46
707.554	39308.5
707.899	39233.25
708.243	38902.86
708.588	38980.83
708.932	38735.41
709.277	38693.83
709.621	38802.3
709.966	38521.63
710.31	38569.99
710.654	38172.03
710.998	38215.65
711.342	38258.81
711.687	38022.21
712.031	37627.41
712.375	37608.88
712.719	37726.17
713.063	37454.09
713.407	37593.29
713.75	37085.51
714.094	37200.99
714.438	36910.6
714.782	37054.55
715.125	36853.2
715.469	36756.03
715.812	36437.84
716.156	36253.44
716.499	36258.64
716.843	36303.38
717.186	36026.1
717.53	36097.06
717.873	36208.24
718.216	36024.52
718.559	36203.27
718.902	35907.46
719.246	36207.56
719.589	36225.64
719.932	36244.85
720.275	36132.31
720.617	36034.46
720.96	35960.34
721.303	36037.17
721.646	36074.91
721.989	35982.49
722.331	36140.67
722.674	36109.49
723.016	36003.5
723.359	36095.93
723.701	36042.82
724.044	35922.37
724.386	35744.75
724.729	35793.34
725.071	35786.33
725.413	35648.03
725.755	35561.25
726.097	35550.63
726.439	35210.53
726.782	35052.12
727.124	35179.8
727.465	34871.55
727.807	34742.29
728.149	34612.8
728.491	34704.33
728.833	34693.48
729.175	34620.26
729.516	34461.85
729.858	34462.75
730.199	34455.75
730.541	34394.28
730.882	34354.28
731.224	34464.79
731.565	34113.61
731.906	34160.84
732.248	34283.32
732.589	34093.95
732.93	34149.99
733.271	34226.6
733.612	34273.6
733.953	34291.46
734.294	34177.79
734.635	34233.38
734.976	34319.03
735.317	34246.03
735.658	34219.37
735.999	34434.28
736.339	34430.66
736.68	34688.51
737.021	34427.27
737.361	34293.04
737.702	34517.44
738.042	34375.3
738.383	34313.15
738.723	34513.37
739.063	34367.39
739.404	34534.16
739.744	34244.23
740.084	34216.66
740.424	34226.83
740.764	34284.9
741.104	34288.07
741.444	33898.7
741.784	33895.08
742.124	33952.93
742.464	33743.22
742.804	33717.01
743.143	33525.38
743.483	33667.29
743.823	33486.73
744.162	33473.4
744.502	33557.69
744.841	33423.01
745.181	33470.91
745.52	33375.77
745.86	33299.17
746.199	33327.41
746.538	33433.4
746.877	33634.75
747.216	33514.3
747.556	33517.47
747.895	33518.6
748.234	33481.53
748.573	33551.59
748.911	33429.11
749.25	33528.77
749.589	33476.34
749.928	33545.26
750.267	33718.82
750.605	33670
750.944	33657.8
751.283	33606.5
751.621	33840.4
751.96	33663
752.298	33917.23
752.636	33876.78
752.975	33881.75
753.313	33769.89
753.651	33993.84
753.989	33887.17
754.327	33833.39
754.666	33721.75
755.004	33943.9
755.342	33913.61
755.679	33940.05
756.017	33754.75
756.355	33863.45
756.693	33613.28
757.031	33810.79
757.368	33583.23
757.706	33624.58
758.044	33506.62
758.381	33462.55
758.719	33261.65
759.056	33344.59
759.394	33212.84
759.731	33021.21
760.068	32880.65
760.405	32948.22
760.743	32886.3
761.08	33028.21
761.417	32708.22
761.754	32862.57
762.091	32888.1
762.428	32701.67
762.765	32494.67
763.102	32776.92
763.438	32633.42
763.775	32422.58
764.112	32546.87
764.449	32531.5
764.785	32475.46
765.122	32369.25
765.458	32432.07
765.795	32271.62
766.131	32356.59
766.467	32331.06
766.804	32310.27
767.14	32214.22
767.476	32282.24
767.812	32308.46
768.148	32492.41
768.485	32215.81
768.821	31990.5
769.157	31973.55
769.492	31979.65
769.828	31881.35
770.164	31894.23
770.5	31793.44
770.836	31753.22
771.171	31471.42
771.507	31540.34
771.842	31344.87
772.178	31501.47
772.513	31434.13
772.849	31237.07
773.184	30947.36
773.519	30926.12
773.855	30874.37
774.19	30677.31
774.525	30636.41
774.86	30686.58
775.195	30494.95
775.53	30282.75
775.865	30198.01
776.2	30059.48
776.535	29796.66
776.87	29747.17
777.205	29654.52
777.539	29485.03
777.874	29426.5
778.209	29108.99
778.543	29099.96
778.878	28904.03
779.212	28877.59
779.547	28719.4
779.881	28878.27
780.215	28794.88
780.55	28694.77
780.884	28523.02
781.218	28499.74
781.552	28488.45
781.886	28417.26
782.22	28163.03
782.554	28077.16
782.888	27936.6
783.222	27975.24
783.556	27816.37
783.889	27873.77
784.223	27725.53
784.557	27613.21
784.89	27729.6
785.224	27561.92
785.557	27525.99
785.891	27535.93
786.224	27402.6
786.558	27373.22
786.891	27178.88
787.224	27128.71
787.557	26961.48
787.891	26944.53
788.224	26969.62
788.557	26819.11
788.89	26747.47
789.223	26707.02
789.556	26524.43
789.888	26448.05
790.221	26318.56
790.554	26145
790.887	26143.42
791.219	26182.74
791.552	25891.45
791.884	25737.78
792.217	25653.94
792.549	25595.19
792.882	25377.34
793.214	25417.79
793.546	25354.97
793.879	25127.4
794.211	25021.19
794.543	25029.33
794.875	24946.62
795.207	24884.47
795.539	24603.58
795.871	24640.19
796.203	24499.17
796.535	24298.95
796.867	24144.38
797.198	24167.66
797.53	24239.97
797.862	24051.95
798.193	24087.88
798.525	23922.69
798.856	24021.44
799.188	23927.66
799.519	23799.98
799.85	23705.75
800.182	23641.12
800.513	23773.09
800.844	23476.6
801.175	23598.4
801.506	23635.24
801.837	23454.45
802.168	23496.26
802.499	23418.75
802.83	23258.53
803.161	23286.55
803.491	23225.76
803.822	23314.57
804.153	22988.7
804.483	22890.85
804.814	22913.45
805.145	23020.12
805.475	22961.81
805.805	22868.03
806.136	22761.59
806.466	22842.94
806.796	22893.11
807.126	22576.74
807.457	22528.15
807.787	22685.66
808.117	22454.03
808.447	22337.2
808.777	22458.55
809.107	22136.3
809.436	22167.93
809.766	22124.55
810.096	22063.76
810.426	21838.45
810.755	21830.32
811.085	21791.45
811.414	21673.48
811.744	21507.61
812.073	21483.43
812.403	21337
812.732	21148.3
813.061	21255.64
813.39	21145.14
813.719	21077.34
814.049	21161.18
814.378	20988.76
814.707	20805.48
815.036	20870.79
815.365	20786.05
815.693	20652.72
816.022	20692.04
816.351	20598.26
816.68	20461.09
817.008	20602.33
817.337	20359.85
817.665	20362.78
817.994	20536.79
818.322	20345.84
818.651	20299.06
818.979	20285.95
819.307	20401.43
819.636	20242.79
819.964	20167.99
820.292	20364.59
820.62	20323.69
820.948	20254.31
821.276	20386.74
821.604	20330.69
821.932	20322.78
822.259	20351.71
822.587	20220.19
822.915	20232.17
823.243	20301.09
823.57	20262.67
823.898	20324.37
824.225	20317.81
824.553	20199.85
824.88	20418.15
825.207	20412.95
825.535	20331.15
825.862	20394.42
826.189	20224.03
826.516	20372.28
826.843	20461.54
827.17	20442.33
827.497	20333.63
827.824	20403.46
828.151	20357.81
828.478	20293.18
828.805	20411.82
829.131	20206.18
829.458	20185.39
829.785	20004.15
830.111	20146.07
830.438	20186.07
830.764	20149
831.09	20059.06
831.417	19854.32
831.743	20133.64
832.069	19975.22
832.395	19892.97
832.722	19892.06
833.048	19919.18
833.374	19835.79
833.7	19810.93
834.026	19760.09
834.351	19785.17
834.677	19664.27
835.003	19794.89
835.329	19740.88
835.654	19689.58
835.98	19523.26
836.306	19580.21
836.631	19513.31
836.956	19596.25
837.282	19595.35
837.607	19398.97
837.932	19407.55
838.258	19583.82
838.583	19446.65
838.908	19396.48
839.233	19394.9
839.558	19430.6
839.883	19395.35
840.208	19295.69
840.533	19299.99
840.858	19392.64
841.182	19419.08
841.507	19244.62
841.832	19265.64
842.156	19214.79
842.481	19198.52
842.805	19226.54
843.13	19234.68
843.454	19064.06
843.778	19026.32
844.103	18975.48
844.427	19049.6
844.751	18954.91
845.075	18870.62
845.399	18900
845.723	18799.66
846.047	18841.24
846.371	18604.19
846.695	18683.51
847.019	18564.64
847.343	18373.91
847.666	18309.5
847.99	18279.22
848.313	18254.82
848.637	18151.54
848.96	18027.03
849.284	17942.51
849.607	17791.55
849.931	17642.18
850.254	17604.44
850.577	17507.04
850.9	17366.25
851.223	17362.86
851.546	17249.65
851.869	17230.66
852.192	17208.97
852.515	16968.52
852.838	16879.26
853.161	16858.24
853.483	16725.14
853.806	16744.8
854.129	16628.64
854.451	16642.88
854.774	16581.41
855.096	16448.54
855.419	16413.74
855.741	16303.91
856.063	16287.41
856.385	16220.97
856.708	16251.93
857.03	16107.3
857.352	16069.56
857.674	16141.65
857.996	16051.71
858.318	15973.52
858.64	15896.23
858.961	15960.64
859.283	15950.02
859.605	15841.32
859.926	15882.68
860.248	15905.5
860.57	15771.94
860.891	15726.3
861.212	15780.31
861.534	15853.98
861.855	15800.87
862.176	15729.46
862.498	15767.65
862.819	15729.23
863.14	15623.25
863.461	15681.55
863.782	15604.04
864.103	15641.33
864.424	15623.93
864.745	15670.03
865.065	15603.13
865.386	15520.2
865.707	15503.7
866.027	15478.62
866.348	15463.93
866.668	15383.71
866.989	15340.77
867.309	15220.55
867.63	15294.67
867.95	15254.22
868.27	15082.92
868.59	15112.53
868.91	15171.51
869.23	15179.87
869.55	14990.27
869.87	15101.68
870.19	15015.13
870.51	15003.15
870.83	15016.03
871.15	14892.19
871.469	14889.26
871.789	14818.97
872.109	14798.41
872.428	14595.03
872.748	14599.32
873.067	14581.47
873.386	14604.07
873.706	14523.16
874.025	14495.37
874.344	14392.55
874.663	14407.69
874.982	14330.63
875.301	14400.68
875.62	14335.37
875.939	14275.26
876.258	14286.33
876.577	14231.19
876.896	14287.69
877.214	14191.87
877.533	14212.66
877.852	14289.95
878.17	14291.53
878.489	14185.32
878.807	14146
879.125	14166.56
879.444	14230.06
879.762	14113
880.08	14191.65
880.398	14037.07
880.716	14031.88
881.034	14075.72
881.352	13967.02
881.67	13979
881.988	13941.03
882.306	13960.24
882.624	13961.14
882.941	13850.19
883.259	13958.43
883.577	13936.06
883.894	14005.66
884.212	13913.69
884.529	13870.75
884.846	13948.04
885.164	13823.07
885.481	13843.86
885.798	13858.77
886.115	13724.54
886.432	13773.58
886.75	13656.07
887.067	13715.05
887.383	13657.88
887.7	13700.59
888.017	13564.54
888.334	13608.61
888.651	13506.92
888.967	13519.12
889.284	13339.24
889.6	13390.09
889.917	13238
890.233	13277.32
890.55	13167.72
890.866	13234.84
891.182	13261.5
891.498	13146.02
891.815	13108.96
892.131	13023.09
892.447	12988.29
892.763	12919.14
893.079	12826.71
893.395	12738.35
893.71	12659.71
894.026	12680.27
894.342	12710.56
894.657	12525.48
894.973	12527.96
895.289	12405.03
895.604	12473.5
895.92	12307.18
896.235	12242.77
896.55	12298.14
896.865	12194.86
897.181	12197.12
897.496	12152.38
897.811	12084.13
898.126	11987.41
898.441	11978.82
898.756	11865.61
899.071	11847.98
899.386	11864.93
899.7	11845.95
900.015	11820.86
900.33	11724.37
900.644	11719.85
900.959	11728.89
901.273	11699.28
901.588	11605.5
901.902	11611.38
902.216	11528.21
902.531	11514.65
902.845	11545.61
903.159	11475.79
903.473	11396.69
903.787	11398.73
904.101	11344.72
904.415	11354.43
904.729	11325.28
905.042	11206.87
905.356	11326.64
905.67	11261.78
905.984	11212.52
906.297	11154.89
906.611	11074.21
906.924	11182.46
907.237	11073.54
907.551	11134.55
907.864	10969.36
908.177	10923.71
908.491	10955.12
908.804	10807.33
909.117	10800.78
909.43	10761.68
909.743	10755.58
910.056	10625.64
910.368	10636.49
910.681	10651.4
910.994	10575.02
911.307	10487.56
911.619	10413.89
911.932	10485.98
912.244	10389.49
912.557	10386.32
912.869	10247.57
913.181	10240.11
913.494	10255.48
913.806	10069.95
914.118	10101.81
914.43	10051.87
914.742	10015.71
915.054	9883.29
915.366	9884.42
915.678	9774.36
915.99	9794.93
916.302	9704.08
916.613	9712.89
916.925	9617.98
917.236	9658.43
917.548	9494.59
917.859	9504.31
918.171	9450.3
918.482	9453.01
918.794	9276.52
919.105	9335.73
919.416	9182.06
919.727	9250.99
920.038	9170.08
920.349	9145.23
920.66	9035.62
920.971	9046.47
921.282	9053.48
921.593	8978.68
921.903	8875.85
922.214	8856.87
922.525	8890.54
922.835	8825.23
923.146	8787.49
923.456	8752.69
923.767	8746.59
924.077	8704.79
924.387	8623.88
924.697	8597.9
925.008	8560.83
925.318	8549.31
925.628	8571.91
925.938	8579.36
926.248	8427.5
926.558	8459.59
926.867	8418.92
927.177	8505.24
927.487	8377.34
927.796	8306.83
928.106	8261.86
928.416	8244.23
928.725	8259.83
929.034	8199.49
929.344	8193.16
929.653	8138.92
929.962	8146.83
930.271	8069.32
930.581	8116.33
930.89	8050.34
931.199	8012.83
931.508	7970.34
931.817	7976.44
932.125	7979.38
932.434	7923.11
932.743	7916.56
933.051	7840.4
933.36	7844.47
933.669	7853.73
933.977	7682.89
934.286	7701.87
934.594	7684.25
934.902	7573.29
935.21	7568.77
935.519	7597.47
935.827	7563.12
936.135	7560.86
936.443	7405.61
936.751	7405.16
937.059	7465.04
937.367	7328.1
937.674	7297.14
937.982	7301.88
938.29	7300.98
938.597	7209.01
938.905	7167.2
939.213	7145.28
939.52	7107.77
939.827	7041.78
940.135	7046.98
940.442	6993.64
940.749	6954.1
941.056	6920.65
941.363	6921.33
941.67	6833.87
941.977	6773.31
942.284	6744.16
942.591	6721.79
942.898	6682.47
943.205	6666.19
943.511	6632.75
943.818	6611.28
944.125	6563.15
944.431	6512.3
944.738	6532.64
945.044	6416.48
945.35	6433.21
945.657	6402.02
945.963	6399.08
946.269	6322.48
946.575	6280.22
946.881	6298.29
947.187	6304.62
947.493	6234.79
947.799	6197.51
948.105	6227.11
948.41	6125.42
948.716	6201.8
949.022	6145.3
949.327	6125.87
949.633	6048.58
949.938	6044.74
950.244	6063.05
950.549	5995.48
950.854	5959.09
951.16	5985.53
951.465	5946.44
951.77	5935.82
952.075	5867.35
952.38	5866.89
952.685	5843.17
952.99	5851.53
953.294	5819.66
953.599	5774.24
953.904	5781.25
954.209	5789.38
954.513	5761.59
954.818	5741.47
955.122	5724.52
955.426	5693.11
955.731	5679.78
956.035	5653.11
956.339	5608.82
956.643	5602.27
956.948	5607.01
957.252	5590.06
957.556	5519.56
957.86	5523.63
958.163	5481.59
958.467	5474.81
958.771	5470.75
959.075	5483.63
959.378	5381.48
959.682	5392.33
959.985	5321.15
960.289	5309.85
960.592	5298.1
960.896	5241.37
961.199	5249.96
961.502	5258.1
961.805	5206.8
962.108	5177.42
962.411	5185.56
962.714	5155.95
963.017	5096.97
963.32	5130.87
963.623	5084.99
963.926	4974.49
964.228	4964.77
964.531	4997.99
964.833	4978.33
965.136	4933.13
965.438	4916.86
965.741	4851.1
966.043	4813.59
966.345	4843.42
966.648	4760.71
966.95	4808.62
967.252	4708.28
967.554	4720.03
967.856	4689.3
968.158	4598.9
968.46	4640.49
968.761	4602.52
969.063	4586.25
969.365	4592.13
969.666	4553.93
969.968	4568.4
970.269	4528.17
970.571	4459.93
970.872	4479.13
971.174	4449.76
971.475	4443.88
971.776	4438.68
972.077	4414.5
972.378	4364.79
972.679	4413.15
972.98	4318.23
973.281	4315.3
973.582	4333.37
973.883	4294.96
974.183	4236.65
974.484	4266.94
974.785	4238.46
975.085	4237.11
975.386	4213.6
975.686	4197.79
975.986	4162.53
976.287	4120.27
976.587	4139.26
976.887	4121.18
977.187	4110.1
977.487	4105.81
977.787	4083.66
978.087	4054.29
978.387	4053.38
978.687	4053.16
978.987	4002.08
979.286	4034.4
979.586	3988.98
979.885	3963.89
980.185	3948.98
980.484	3978.36
980.784	3978.58
981.083	3930.67
981.382	3967.73
981.682	3898.58
981.981	3906.27
982.28	3838.02
982.579	3838.47
982.878	3856.78
983.177	3780.85
983.475	3834.63
983.774	3779.49
984.073	3790.56
984.372	3785.14
984.67	3743.79
984.969	3781.07
985.267	3721.64
985.566	3719.83
985.864	3672.6
986.162	3691.13
986.461	3666.5
986.759	3611.59
987.057	3591.47
987.355	3624.01
987.653	3567.97
987.951	3567.07
988.249	3543.34
988.547	3504.92
988.844	3486.84
989.142	3498.14
989.44	3482.1
989.737	3498.37
990.035	3416.56
990.332	3414.98
990.63	3403
990.927	3382.67
991.224	3355.77
991.521	3352.16
991.819	3313.51
992.116	3266.74
992.413	3247.3
992.71	3219.05
993.006	3231.93
993.303	3242.33
993.6	3192.84
993.897	3164.14
994.193	3116.01
994.49	3113.52
994.787	3100.19
995.083	3110.13
995.379	3043.24
995.676	3025.84
995.972	3045.05
996.268	3022.45
996.565	3044.6
996.861	3011.15
997.157	3014.99
997.453	2936.35
997.749	2967.99
998.044	2962.79
998.34	2944.03
998.636	2926.86
998.932	2857.26
999.227	2868.55
999.523	2893.41
999.818	2869.01
1000.114	2845.5
1000.409	2859.06
1000.704	2857.48
1001	2798.73
1001.295	2771.61
1001.59	2768.22
1001.885	2765.73
1002.18	2768.9
1002.475	2738.39
1002.77	2718.95
1003.065	2719.18
1003.359	2679.63
1003.654	2692.51
1003.949	2674.89
1004.243	2641.89
1004.538	2601.22
1004.832	2616.81
1005.127	2596.47
1005.421	2579.07
1005.715	2594.66
1006.009	2588.79
1006.304	2556.25
1006.598	2532.74
1006.892	2530.03
1007.186	2518.51
1007.48	2525.74
1007.773	2451.62
1008.067	2453.88
1008.361	2444.16
1008.655	2445.51
1008.948	2426.98
1009.242	2425.4
1009.535	2436.48
1009.829	2394.44
1010.122	2379.75
1010.415	2408.45
1010.708	2364.39
1011.001	2386.31
1011.295	2327.78
1011.588	2314.67
1011.881	2295.46
1012.173	2307.67
1012.466	2266.99
1012.759	2270.83
1013.052	2267.89
1013.344	2258.4
1013.637	2209.36
1013.93	2233.32
1014.222	2240.1
1014.514	2194.22
1014.807	2181.34
1015.099	2166.88
1015.391	2143.83
1015.683	2137.05
1015.976	2124.62
1016.268	2082.13
1016.56	2078.52
1016.851	2075.36
1017.143	2038.52
1017.435	2033.1
1017.727	2011.4
1018.018	2038.29
1018.31	2023.83
1018.602	2042.14
1018.893	1952.19
1019.185	1974.34
1019.476	1972.31
1019.767	1946.54
1020.058	1932.99
1020.35	1925.08
1020.641	1897.51
1020.932	1884.85
1021.223	1875.13
1021.514	1848.47
1021.804	1850.5
1022.095	1825.87
1022.386	1852.31
1022.677	1814.8
1022.967	1806.21
1023.258	1790.16
1023.548	1793.1
1023.839	1765.53
1024.129	1768.7
1024.419	1758.3
1024.709	1715.82
1025	1702.03
1025.29	1729.83
1025.58	1669.26
1025.87	1675.59
1026.16	1668.81
1026.449	1661.58
1026.739	1665.65
1027.029	1629.94
1027.319	1618.19
1027.608	1618.64
1027.898	1612.32
1028.187	1561.92
1028.477	1589.49
1028.766	1585.65
1029.055	1561.47
1029.344	1568.93
1029.634	1524.18
1029.923	1508.14
1030.212	1500.45
1030.501	1501.58
1030.79	1489.16
1031.078	1458.87
1031.367	1462.72
1031.656	1454.35
1031.945	1429.5
1032.233	1441.47
1032.522	1441.25
1032.81	1432.66
1033.099	1403.73
1033.387	1437.63
1033.675	1409.61
1033.963	1386.56
1034.251	1386.11
1034.54	1394.92
1034.828	1360.57
1035.116	1372.1
1035.403	1322.38
1035.691	1346.11
1035.979	1326.9
1036.267	1318.76
1036.554	1320.35
1036.842	1335.94
1037.129	1316.05
1037.417	1307.47
1037.704	1292.55
1037.992	1271.31
1038.279	1264.08
1038.566	1236.51
1038.853	1236.51
1039.14	1236.51
