Data from blue_surface_keyboard_FLMS001491_043.txt Node
Date: Tue Feb 07 11:13:10 GMT 2017
User: dcchb
Spectrometer: FLMS00149
Trigger mode: 0
Integration Time (sec): 2.000000E-2
Scans to average: 10
Electric dark correction enabled: true
Nonlinearity correction enabled: false
Boxcar width: 0
XAxis mode: Wavelengths
Number of Pixels in Spectrum: 2048
>>>>>Begin Spectral Data<<<<<
341.393	-8.09
341.776	-8.09
342.16	-8.09
342.543	-46.51
342.927	-37.47
343.31	-65.27
343.693	-76.57
344.077	-64.14
344.46	-34.76
344.843	-42.44
345.226	-71.59
345.61	-23.46
345.993	-29.56
346.376	-12.84
346.759	12.92
347.142	11.12
347.525	37.78
347.908	68.52
348.291	78.91
348.674	113.94
349.057	97.44
349.44	145.12
349.823	150.77
350.206	157.1
350.588	161.62
350.971	199.59
351.354	231.67
351.737	213.37
352.119	228.74
352.502	250.21
352.884	243.2
353.267	269.41
353.65	302.41
354.032	280.94
354.414	277.1
354.797	290.88
355.179	279.81
355.562	332.46
355.944	298.11
356.326	318.9
356.709	323.42
357.091	290.66
357.473	319.36
357.855	312.35
358.238	328.17
358.62	303.99
359.002	320.03
359.384	310.32
359.766	321.16
360.148	312.8
360.53	324.55
360.912	305.8
361.294	310.77
361.676	297.21
362.057	308.28
362.439	307.83
362.821	311.67
363.203	311.45
363.584	296.53
363.966	284.78
364.348	308.51
364.729	311.9
365.111	293.14
365.493	304.67
365.874	285.46
366.256	298.79
366.637	285.01
367.019	298.57
367.4	271
367.781	299.7
368.163	280.94
368.544	290.88
368.925	285.68
369.306	297.66
369.688	285.68
370.069	288.85
370.45	285.68
370.831	306.02
371.212	282.75
371.593	276.87
371.974	272.8
372.355	297.89
372.736	293.82
373.117	284.55
373.498	292.92
373.879	267.15
374.26	288.4
374.641	266.25
375.021	268.51
375.402	266.93
375.783	280.71
376.163	279.81
376.544	311.22
376.925	306.7
377.305	303.09
377.686	288.17
378.066	290.2
378.447	291.79
378.827	276.19
379.208	308.06
379.588	278.45
379.968	299.24
380.349	291.56
380.729	315.51
381.109	295.63
381.489	298.57
381.87	302.63
382.25	286.36
382.63	309.19
383.01	282.75
383.39	302.18
383.77	307.83
384.15	305.8
384.53	291.79
384.91	318.9
385.29	324.1
385.67	310.09
386.049	298.57
386.429	312.35
386.809	327.04
387.189	309.64
387.568	325.01
387.948	311.9
388.328	314.84
388.707	310.99
389.087	303.54
389.466	314.38
389.846	303.31
390.225	305.57
390.605	302.86
390.984	297.44
391.363	319.81
391.743	305.8
392.122	324.33
392.501	328.4
392.881	302.18
393.26	332.69
393.639	325.46
394.018	333.14
394.397	322.52
394.776	326.14
395.155	330.43
395.534	326.36
395.913	342.86
396.292	314.16
396.671	323.2
397.05	340.15
397.429	318.68
397.808	313.48
398.186	320.71
398.565	329.07
398.944	329.53
399.323	344.67
399.701	325.01
400.08	342.18
400.458	362.07
400.837	349.19
401.215	331.56
401.594	338.11
401.972	351.67
402.351	350.77
402.729	338.56
403.107	367.04
403.486	349.64
403.864	328.17
404.242	346.93
404.62	355.06
404.999	361.84
405.377	355.51
405.755	335.63
406.133	329.07
406.511	346.93
406.889	366.36
407.267	349.41
407.645	359.13
408.023	356.42
408.401	354.61
408.779	375.63
409.156	381.05
409.534	372.01
409.912	361.39
410.29	366.13
410.667	348.06
411.045	374.95
411.422	406.13
411.8	365.23
412.178	376.3
412.555	382.41
412.933	373.14
413.31	361.16
413.687	374.5
414.065	390.31
414.442	383.76
414.819	373.14
415.197	391.67
415.574	375.4
415.951	377.66
416.328	389.86
416.705	375.63
417.082	372.91
417.46	384.67
417.837	392.35
418.214	393.7
418.591	394.38
418.967	395.29
419.344	417.43
419.721	397.77
420.098	401.61
420.475	428.73
420.852	408.17
421.228	398.22
421.605	390.54
421.982	410.43
422.358	413.36
422.735	412.91
423.111	395.29
423.488	394.83
423.864	410.88
424.241	412.91
424.617	437.32
424.994	416.75
425.37	400.94
425.746	419.01
426.123	413.36
426.499	427.38
426.875	439.35
427.251	434.38
427.627	417.21
428.003	432.57
428.379	437.32
428.756	436.42
429.132	443.19
429.507	432.12
429.883	449.3
430.259	454.49
430.635	466.47
431.011	441.61
431.387	442.52
431.763	446.81
432.138	433.93
432.514	434.61
432.89	468.96
433.265	471.22
433.641	452.91
434.016	467.83
434.392	471.44
434.767	468.28
435.143	488.84
435.518	460.14
435.894	484.1
436.269	477.54
436.644	470.54
437.02	477.77
437.395	494.04
437.77	483.19
438.145	476.41
438.52	520.03
438.895	462.18
439.271	494.72
439.646	495.4
440.021	507.6
440.395	516.41
440.77	487.71
441.145	503.31
441.52	509.86
441.895	532.91
442.27	510.31
442.645	506.24
443.019	528.62
443.394	525.68
443.769	533.14
444.143	519.12
444.518	523.19
444.892	520.03
445.267	525.45
445.641	544.66
446.016	529.52
446.39	534.04
446.764	524.32
447.139	538.33
447.513	535.62
447.887	539.24
448.262	547.37
448.636	546.24
449.01	563.42
449.384	539.69
449.758	547.37
450.132	551.21
450.506	549.63
450.88	555.73
451.254	558.67
451.628	561.16
452.002	590.31
452.376	561.61
452.75	580.82
453.123	571.55
453.497	576.07
453.871	579.46
454.244	578.33
454.618	587.82
454.992	605.9
455.365	570.87
455.739	570.87
456.112	603.64
456.486	605.9
456.859	598.9
457.232	627.37
457.606	589.63
457.979	615.17
458.352	616.75
458.725	627.14
459.099	625.56
459.472	628.73
459.845	635.96
460.218	662.17
460.591	642.29
460.964	645
461.337	644.09
461.71	677.31
462.083	654.71
462.456	647.48
462.829	645.22
463.201	647.26
463.574	669.4
463.947	676.63
464.32	698.56
464.692	679.35
465.065	677.76
465.438	708.27
465.81	708.95
466.183	705.79
466.555	732.23
466.928	709.85
467.3	712.57
467.672	730.42
468.045	726.8
468.417	730.64
468.789	734.71
469.161	745.11
469.534	741.94
469.906	739.46
470.278	762.06
470.65	789.17
471.022	777.65
471.394	766.12
471.766	795.5
472.138	775.62
472.51	810.87
472.882	814.26
473.253	821.26
473.625	818.55
473.997	828.04
474.369	848.61
474.74	837.31
475.112	835.05
475.484	843.18
475.855	851.77
476.227	869.17
476.598	882.05
476.97	878.66
477.341	881.83
477.713	907.36
478.084	895.84
478.455	921.15
478.827	931.09
479.198	956.4
479.569	929.06
479.94	924.99
480.311	959.11
480.682	963.41
481.053	980.81
481.424	994.14
481.795	990.52
482.166	1002.5
482.537	1010.64
482.908	1016.51
483.279	1011.09
483.65	1051.54
484.021	1041.14
484.391	1087.47
484.762	1073.69
485.133	1081.14
485.503	1056.96
485.874	1083.63
486.244	1104.42
486.615	1115.27
486.985	1110.07
487.356	1136.51
487.726	1122.27
488.097	1144.87
488.467	1169.5
488.837	1142.84
489.207	1186.45
489.578	1181.03
489.948	1194.81
490.318	1190.75
490.688	1187.81
491.058	1216.73
491.428	1222.84
491.798	1228.48
492.168	1213.12
492.538	1229.16
492.908	1220.58
493.278	1234.36
493.648	1234.36
494.017	1275.72
494.387	1275.49
494.757	1291.08
495.126	1288.14
495.496	1267.58
495.866	1271.42
496.235	1269.39
496.605	1304.64
496.974	1303.06
497.344	1274.81
497.713	1302.16
498.082	1298.31
498.452	1306.22
498.821	1343.06
499.19	1296.28
499.559	1362.49
499.928	1307.8
500.298	1355.71
500.667	1335.83
501.036	1318.88
501.405	1357.52
501.774	1315.71
502.143	1347.58
502.512	1345.32
502.88	1354.13
503.249	1341.93
503.618	1336.96
503.987	1370.85
504.356	1362.72
504.724	1361.14
505.093	1377.86
505.462	1383.73
505.83	1366.33
506.199	1384.86
506.567	1413.34
506.936	1376.73
507.304	1392.55
507.672	1387.12
508.041	1401.81
508.409	1407.46
508.777	1385.99
509.145	1397.97
509.514	1423.51
509.882	1399.78
510.25	1432.32
510.618	1405.88
510.986	1433.9
511.354	1389.38
511.722	1422.38
512.09	1435.26
512.458	1415.37
512.826	1437.29
513.193	1434.13
513.561	1442.72
513.929	1429.16
514.297	1433.23
514.664	1428.25
515.032	1451.98
515.4	1447.91
515.767	1454.69
516.135	1416.5
516.502	1464.64
516.869	1469.83
517.237	1445.43
517.604	1464.41
517.972	1469.38
518.339	1442.94
518.706	1476.84
519.073	1461.7
519.44	1486.78
519.808	1482.04
520.175	1451.98
520.542	1479.33
520.909	1478.2
521.276	1498.76
521.643	1506.44
522.009	1482.72
522.376	1486.78
522.743	1513.45
523.11	1512.77
523.477	1507.35
523.843	1519.1
524.21	1497.4
524.577	1564.07
524.943	1539.89
525.31	1527.46
525.676	1518.19
526.043	1520.68
526.409	1539.44
526.776	1568.36
527.142	1576.72
527.508	1563.17
527.874	1569.27
528.241	1553.45
528.607	1565.2
528.973	1555.71
529.339	1541.7
529.705	1549.15
530.071	1593.9
530.437	1575.59
530.803	1581.47
531.169	1576.05
531.535	1605.42
531.901	1576.05
532.267	1573.11
532.632	1547.12
532.998	1595.25
533.364	1588.25
533.73	1598.64
534.095	1634.35
534.461	1597.29
534.826	1602.03
535.192	1616.05
535.557	1585.99
535.923	1600.23
536.288	1596.38
536.653	1634.8
537.019	1616.95
537.384	1643.16
537.749	1596.84
538.114	1586.89
538.479	1616.95
538.845	1594.58
539.21	1619.43
539.575	1620.56
539.94	1610.17
540.305	1625.31
540.67	1600.23
541.034	1632.54
541.399	1625.31
541.764	1625.99
542.129	1670.05
542.494	1616.95
542.858	1606.78
543.223	1618.98
543.587	1625.99
543.952	1610.17
544.316	1632.09
544.681	1629.6
545.045	1649.49
545.41	1622.15
545.774	1664.41
546.138	1636.61
546.503	1644.07
546.867	1636.38
547.231	1616.5
547.595	1630.96
547.959	1614.01
548.324	1640.45
548.688	1639.1
549.052	1642.03
549.416	1647.23
549.779	1618.76
550.143	1606.1
550.507	1660.11
550.871	1655.14
551.235	1666.21
551.599	1665.76
551.962	1652.88
552.326	1657.63
552.689	1638.64
553.053	1668.02
553.417	1664.86
553.78	1673.9
554.143	1674.57
554.507	1652.88
554.87	1646.33
555.234	1659.66
555.597	1660.34
555.96	1658.3
556.323	1655.37
556.686	1657.63
557.05	1670.28
557.413	1663.05
557.776	1647.68
558.139	1696.72
558.502	1689.49
558.865	1660.11
559.228	1685.65
559.59	1685.42
559.953	1640
560.316	1701.47
560.679	1724.52
561.041	1724.74
561.404	1691.52
561.767	1692.88
562.129	1698.98
562.492	1742.37
562.854	1682.03
563.217	1699.66
563.579	1698.98
563.941	1719.77
564.304	1691.3
564.666	1708.25
565.028	1703.5
565.39	1740.34
565.753	1737.62
566.115	1704.86
566.477	1749.15
566.839	1757.74
567.201	1765.42
567.563	1746.21
567.925	1760.45
568.287	1759.77
568.648	1743.27
569.01	1756.83
569.372	1760.22
569.734	1737.62
570.095	1766.1
570.457	1773.56
570.819	1762.48
571.18	1764.97
571.542	1765.65
571.903	1745.99
572.265	1775.81
572.626	1771.75
572.987	1758.41
573.349	1756.38
573.71	1779.66
574.071	1810.39
574.432	1817.4
574.794	1811.07
575.155	1803.61
575.516	1772.65
575.877	1833.89
576.238	1790.28
576.599	1803.38
576.96	1814.91
577.32	1814.46
577.681	1819.66
578.042	1788.47
578.403	1828.24
578.763	1825.31
579.124	1842.71
579.485	1825.08
579.845	1832.31
580.206	1849.71
580.566	1833.21
580.927	1836.38
581.287	1859.2
581.648	1842.71
582.008	1850.62
582.368	1819.43
582.728	1833.67
583.089	1864.17
583.449	1825.31
583.809	1811.07
584.169	1837.73
584.529	1837.06
584.889	1844.29
585.249	1825.98
585.609	1831.18
585.969	1819.2
586.329	1841.8
586.688	1844.97
587.048	1827.56
587.408	1833.44
587.768	1870.28
588.127	1827.79
588.487	1810.84
588.846	1823.5
589.206	1845.64
589.565	1811.29
589.925	1867.56
590.284	1866.43
590.643	1874.12
591.003	1846.1
591.362	1882.25
591.721	1834.34
592.08	1861.24
592.44	1859.65
592.799	1860.33
593.158	1826.21
593.517	1850.62
593.876	1844.06
594.235	1889.94
594.593	1881.57
594.952	1854
595.311	1865.76
595.67	1861.01
596.029	1859.88
596.387	1889.94
596.746	1887.45
597.104	1855.81
597.463	1902.59
597.822	1865.76
598.18	1898.98
598.538	1867.34
598.897	1869.37
599.255	1880.44
599.613	1888.58
599.972	1901.01
600.33	1891.74
600.688	1895.13
601.046	1854.91
601.404	1920.67
601.762	1905.3
602.12	1895.81
602.478	1905.08
602.836	1898.07
603.194	1898.75
603.552	1920.44
603.91	1876.38
604.268	1909.6
604.625	1932.19
604.983	1887.68
605.341	1919.77
605.698	1954.12
606.056	1911.4
606.413	1932.87
606.771	1929.71
607.128	1945.08
607.485	1944.17
607.843	1948.69
608.2	1929.26
608.557	1937.17
608.914	1907.11
609.272	1947.34
609.629	1938.07
609.986	1972.42
610.343	1938.97
610.7	1974
611.057	1976.49
611.414	1970.39
611.771	1972.19
612.127	1964.06
612.484	1980.78
612.841	2001.12
613.198	1952.99
613.554	1971.06
613.911	1976.49
614.267	1977.62
614.624	1981.23
614.98	1990.5
615.337	2007
615.693	1999.31
616.05	1991.18
616.406	1969.26
616.762	1974
617.118	2009.26
617.475	1957.28
617.831	1993.66
618.187	2012.19
618.543	2018.97
618.899	2001.12
619.255	2014.9
619.611	2043.15
619.967	2005.87
620.323	2018.29
620.678	2003.38
621.034	2030.27
621.39	2020.33
621.746	2025.3
622.101	2059.65
622.457	2033.89
622.812	2039.54
623.168	2059.42
623.523	2089.7
623.879	2046.09
624.234	2071.4
624.589	2072.08
624.945	2072.98
625.3	2045.64
625.655	2067.78
626.01	2080.44
626.365	2070.95
626.72	2055.13
627.075	2072.98
627.43	2086.32
627.785	2069.59
628.14	2045.19
628.495	2066.2
628.85	2072.08
629.205	2082.7
629.559	2083.6
629.914	2113.66
630.269	2088.8
630.623	2130.16
630.978	2112.98
631.332	2125.64
631.687	2137.39
632.041	2096.26
632.396	2121.34
632.75	2123.38
633.104	2102.36
633.459	2100.33
633.813	2122.02
634.167	2155.24
634.521	2125.41
634.875	2148.23
635.229	2176.93
635.583	2121.79
635.937	2169.02
636.291	2156.82
636.645	2135.58
636.999	2143.04
637.352	2122.47
637.706	2166.09
638.06	2155.01
638.413	2152.53
638.767	2169.93
639.121	2166.31
639.474	2162.47
639.828	2141.68
640.181	2149.59
640.534	2180.1
640.888	2188.91
641.241	2222.36
641.594	2179.65
641.947	2201.79
642.301	2183.49
642.654	2226.65
643.007	2229.36
643.36	2209.48
643.713	2236.59
644.066	2224.62
644.419	2259.87
644.771	2234.56
645.124	2237.5
645.477	2208.8
645.83	2244.5
646.182	2233.66
646.535	2230.49
646.888	2244.28
647.24	2237.95
647.593	2260.32
647.945	2269.14
648.298	2271.85
648.65	2273.88
649.002	2274.56
649.355	2289.93
649.707	2277.04
650.059	2327.44
650.411	2337.83
650.763	2348.23
651.115	2381.45
651.467	2375.35
651.819	2376.48
652.171	2428.91
652.523	2380.09
652.875	2400.88
653.227	2400.21
653.578	2456.7
653.93	2443.82
654.282	2464.38
654.633	2429.36
654.985	2470.49
655.337	2487.43
655.688	2444.05
656.039	2550.26
656.391	2514.55
656.742	2491.5
657.094	2522.24
657.445	2558.85
657.796	2533.08
658.147	2552.07
658.498	2561.78
658.849	2582.57
659.2	2580.09
659.551	2611.95
659.902	2619.41
660.253	2638.62
660.604	2655.11
660.955	2649.92
661.306	2670.25
661.656	2654.21
662.007	2701.21
662.358	2697.37
662.708	2703.02
663.059	2685.85
663.409	2721.33
663.76	2733.98
664.11	2769.46
664.461	2765.39
664.811	2801.1
665.161	2789.35
665.511	2787.54
665.862	2814.21
666.212	2801.32
666.562	2853.3
666.912	2813.3
667.262	2844.49
667.612	2874.09
667.962	2892.62
668.312	2890.81
668.662	2939.63
669.011	2905.05
669.361	2916.35
669.711	2963.13
670.06	2986.86
670.41	3009.91
670.76	2991.38
671.109	3004.94
671.459	3008.78
671.808	3004.94
672.157	3061.66
672.507	3044.93
672.856	3076.8
673.205	3048.32
673.554	3116.12
673.904	3077.48
674.253	3086.06
674.602	3103.46
674.951	3100.07
675.3	3118.83
675.649	3156.12
675.998	3142.56
676.346	3187.08
676.695	3214.42
677.044	3189.56
677.393	3217.36
677.741	3220.07
678.09	3235.89
678.438	3236.57
678.787	3237.25
679.135	3210.81
679.484	3245.83
679.832	3307.98
680.181	3285.61
680.529	3315.89
680.877	3293.52
681.225	3295.77
681.573	3381.65
681.922	3331.03
682.27	3335.32
682.618	3352.5
682.966	3361.76
683.314	3396.56
683.661	3413.06
684.009	3361.54
684.357	3410.8
684.705	3395.89
685.053	3427.52
685.4	3416.9
685.748	3415.09
686.095	3415.55
686.443	3455.09
686.79	3427.3
687.138	3472.95
687.485	3472.04
687.832	3442.21
688.18	3464.58
688.527	3486.73
688.874	3499.16
689.221	3464.36
689.568	3512.49
689.915	3532.15
690.262	3505.94
690.609	3529.67
690.956	3518.59
691.303	3499.39
691.65	3545.71
691.997	3497.35
692.344	3530.57
692.69	3519.27
693.037	3548.42
693.383	3519.05
693.73	3562.43
694.077	3513.17
694.423	3549.1
694.769	3511.14
695.116	3564.24
695.462	3539.16
695.808	3552.94
696.155	3546.62
696.501	3512.49
696.847	3571.93
697.193	3521.53
697.539	3548.2
697.885	3532.38
698.231	3521.53
698.577	3565.82
698.923	3501.42
699.269	3492.83
699.614	3521.08
699.96	3533.73
700.306	3563.34
700.651	3515.2
700.997	3510.91
701.342	3507.75
701.688	3442.44
702.033	3513.17
702.379	3524.02
702.724	3508.42
703.069	3514.3
703.415	3485.15
703.76	3441.53
704.105	3477.69
704.45	3480.4
704.795	3463.45
705.14	3474.53
705.485	3454.41
705.83	3447.41
706.175	3440.18
706.52	3425.49
706.865	3469.78
707.209	3464.13
707.554	3484.7
707.899	3459.61
708.243	3449.22
708.588	3436.79
708.932	3461.42
709.277	3432.04
709.621	3411.25
709.966	3430.69
710.31	3390.91
710.654	3407.41
710.998	3426.62
711.342	3453.28
711.687	3426.17
712.031	3380.74
712.375	3419.61
712.719	3411.7
713.063	3400.18
713.407	3398.82
713.75	3433.4
714.094	3412.16
714.438	3368.09
714.782	3398.15
715.125	3402.21
715.469	3404.7
715.812	3381.42
716.156	3353.85
716.499	3364.7
716.843	3425.26
717.186	3390.24
717.53	3357.02
717.873	3395.89
718.216	3449.9
718.559	3374.64
718.902	3382.33
719.246	3403.79
719.589	3391.59
719.932	3351.37
720.275	3405.38
720.617	3375.09
720.96	3415.32
721.303	3386.39
721.646	3411.48
721.989	3380.07
722.331	3412.16
722.674	3408.99
723.016	3365.15
723.359	3386.39
723.701	3396.79
724.044	3418.71
724.386	3372.84
724.729	3405.15
725.071	3420.74
725.413	3402.66
725.755	3358.82
726.097	3382.78
726.439	3361.08
726.782	3385.94
727.124	3394.76
727.465	3386.17
727.807	3349.56
728.149	3378.48
728.491	3380.29
728.833	3399.5
729.175	3405.6
729.516	3412.61
729.858	3402.66
730.199	3401.53
730.541	3432.49
730.882	3371.48
731.224	3399.95
731.565	3385.26
731.906	3434.75
732.248	3429.1
732.589	3422.78
732.93	3426.17
733.271	3406.96
733.612	3408.09
733.953	3462.32
734.294	3418.94
734.635	3433.17
734.976	3453.06
735.317	3451.25
735.658	3432.95
735.999	3477.24
736.339	3426.84
736.68	3456.45
737.021	3486.96
737.361	3471.36
737.702	3473.62
738.042	3502.1
738.383	3510.68
738.723	3492.38
739.063	3521.76
739.404	3496.67
739.744	3515.88
740.084	3456.45
740.424	3531.47
740.764	3560.85
741.104	3540.74
741.444	3579.38
741.784	3524.92
742.124	3575.54
742.464	3580.51
742.804	3582.77
743.143	3572.38
743.483	3559.27
743.823	3627.74
744.162	3610.12
744.502	3654.64
744.841	3595.88
745.181	3655.31
745.52	3686.27
745.86	3668.87
746.199	3672.26
746.538	3637.46
746.877	3746.61
747.216	3712.26
747.556	3731.92
747.895	3760.62
748.234	3728.76
748.573	3762.2
748.911	3809.89
749.25	3818.7
749.589	3753.84
749.928	3799.72
750.267	3883.56
750.605	3859.6
750.944	3876.32
751.283	3879.26
751.621	3926.72
751.96	3925.14
752.298	3920.84
752.636	3975.31
752.975	3929.66
753.313	4002.65
753.651	4061.4
753.989	4047.17
754.327	4032.7
754.666	4054.63
755.004	4125.36
755.342	4132.59
755.679	4131.91
756.017	4185.02
756.355	4224.34
756.693	4167.39
757.031	4185.7
757.368	4211.01
757.706	4201.51
758.044	4227.05
758.381	4291
758.719	4277.44
759.056	4301.4
759.394	4279.03
759.731	4306.6
760.068	4302.3
760.405	4326.93
760.743	4309.76
761.08	4375.07
761.417	4377.55
761.754	4370.55
762.091	4380.27
762.428	4353.15
762.765	4390.66
763.102	4419.59
763.438	4403.77
763.775	4444.45
764.112	4417.55
764.449	4485.8
764.785	4500.26
765.122	4471.79
765.458	4413.94
765.795	4455.74
766.131	4446.71
766.467	4453.71
766.804	4479.02
767.14	4483.09
767.476	4489.19
767.812	4457.1
768.148	4501.84
768.485	4449.42
768.821	4457.1
769.157	4460.94
769.492	4498.46
769.828	4505.01
770.164	4433.82
770.5	4434.5
770.836	4449.42
771.171	4453.03
771.507	4458.23
771.842	4421.17
772.178	4501.62
772.513	4429.53
772.849	4403.77
773.184	4394.05
773.519	4421.62
773.855	4416.42
774.19	4387.72
774.525	4420.27
774.86	4397.67
775.195	4392.24
775.53	4372.36
775.865	4326.03
776.2	4339.14
776.535	4332.58
776.87	4333.49
777.205	4308.4
777.539	4331.91
777.874	4320.83
778.209	4324.22
778.543	4300.95
778.878	4262.08
779.212	4264.79
779.547	4287.84
779.881	4260.27
780.215	4259.37
780.55	4251.46
780.884	4226.37
781.218	4219.82
781.552	4206.26
781.886	4204.45
782.22	4130.56
782.554	4124.45
782.888	4127.17
783.222	4109.76
783.556	4107.05
783.889	4057.56
784.223	4055.08
784.557	4035.87
784.89	4105.25
785.224	4065.25
785.557	4050.78
785.891	4042.42
786.224	4011.01
786.558	4038.35
786.891	3996.55
787.224	3970.79
787.557	3997.9
787.891	3964.68
788.224	3978.02
788.557	3932.14
788.89	3946.38
789.223	3946.15
789.556	3881.52
789.888	3912.48
790.221	3906.15
790.554	3878.58
790.887	3864.8
791.219	3815.76
791.552	3897.57
791.884	3817.34
792.217	3813.73
792.549	3800.17
792.882	3794.52
793.214	3818.47
793.546	3814.41
793.879	3779.38
794.211	3723.33
794.543	3785.93
794.875	3750.45
795.207	3782.09
795.539	3716.78
795.871	3731.02
796.203	3697.57
796.535	3711.13
796.867	3665.71
797.198	3658.93
797.53	3684.01
797.862	3657.35
798.193	3653.73
798.525	3635.88
798.856	3669.78
799.188	3620.96
799.519	3627.07
799.85	3626.16
800.182	3590.46
800.513	3575.09
800.844	3566.95
801.175	3580.06
801.506	3563.79
801.837	3541.42
802.168	3531.02
802.499	3511.14
802.83	3521.53
803.161	3569.89
803.491	3474.08
803.822	3541.64
804.153	3471.14
804.483	3477.01
804.814	3467.75
805.145	3478.37
805.475	3472.04
805.805	3417.35
806.136	3451.7
806.466	3437.24
806.796	3431.36
807.126	3426.84
807.457	3384.36
807.787	3390.46
808.117	3381.42
808.447	3392.72
808.777	3397.69
809.107	3373.96
809.436	3348.2
809.766	3351.37
810.096	3320.41
810.426	3349.78
810.755	3349.78
811.085	3327.86
811.414	3335.1
811.744	3318.83
812.073	3291.26
812.403	3272.5
812.732	3286.51
813.061	3254.65
813.39	3258.49
813.719	3237.25
814.049	3228.66
814.378	3267.53
814.707	3283.35
815.036	3229.79
815.365	3203.12
815.693	3228.88
816.022	3220.07
816.351	3148.89
816.68	3202.67
817.008	3184.14
817.337	3176
817.665	3152.95
817.994	3157.47
818.322	3153.86
818.651	3172.84
818.979	3153.41
819.307	3150.47
819.636	3138.04
819.964	3110.47
820.292	3146.4
820.62	3152.28
820.948	3119.28
821.276	3171.48
821.604	3126.06
821.932	3135.1
822.259	3104.59
822.587	3150.24
822.915	3117.25
823.243	3119.06
823.57	3132.39
823.898	3136.91
824.225	3093.75
824.553	3094.88
824.88	3087.64
825.207	3125.16
825.535	3109.79
825.862	3152.73
826.189	3067.76
826.516	3136.23
826.843	3130.13
827.17	3102.56
827.497	3112.05
827.824	3160.64
828.151	3125.38
828.478	3132.62
828.805	3162.22
829.131	3099.85
829.458	3153.63
829.785	3102.33
830.111	3133.52
830.438	3097.14
830.764	3136.23
831.09	3125.38
831.417	3139.17
831.743	3098.04
832.069	3120.19
832.395	3088.77
832.722	3093.07
833.048	3125.16
833.374	3078.15
833.7	3069.79
834.026	3044.26
834.351	3075.44
834.677	3099.17
835.003	3098.27
835.329	3062.11
835.654	3088.32
835.98	3082.45
836.306	3052.17
836.631	3082.9
836.956	3066.63
837.282	3060.3
837.607	3045.61
837.932	3049.23
838.258	3060.53
838.583	3069.57
838.908	3049.91
839.233	3063.46
839.558	3051.26
839.883	3047.42
840.208	3030.25
840.533	2965.84
840.858	3025.05
841.182	3012.17
841.507	3003.13
841.832	2998.61
842.156	3016.01
842.481	2997.03
842.805	2976.46
843.13	2959.29
843.454	2978.72
843.778	2971.49
844.103	2946.63
844.427	2925.84
844.751	2964.94
845.075	2934.2
845.399	2924.71
845.723	2885.16
846.047	2901.21
846.371	2918.84
846.695	2892.62
847.019	2900.76
847.343	2876.8
847.666	2840.87
847.99	2854.2
848.313	2851.72
848.637	2808.56
848.96	2830.7
849.284	2827.99
849.607	2790.48
849.931	2773.98
850.254	2793.19
850.577	2776.01
850.9	2750.48
851.223	2731.95
851.546	2748.67
851.869	2711.38
852.192	2730.37
852.515	2738.95
852.838	2700.99
853.161	2695.34
853.483	2680.42
853.806	2697.82
854.129	2692.63
854.451	2667.32
854.774	2637.71
855.096	2659.63
855.419	2608.79
855.741	2633.65
856.063	2630.26
856.385	2600.2
856.708	2629.8
857.03	2607.43
857.352	2610.37
857.674	2576.02
857.996	2617.6
858.318	2580.31
858.64	2610.14
858.961	2582.12
859.283	2587.54
859.605	2561.33
859.926	2566.53
860.248	2546.87
860.57	2570.37
860.891	2544.38
861.212	2551.16
861.534	2546.64
861.855	2525.4
862.176	2539.41
862.498	2511.61
862.819	2530.37
863.14	2537.6
863.461	2512.74
863.782	2499.41
864.103	2507.1
864.424	2463.71
864.745	2493.76
865.065	2482.69
865.386	2469.58
865.707	2485.85
866.027	2492.18
866.348	2463.48
866.668	2476.59
866.989	2465.51
867.309	2472.97
867.63	2447.21
867.95	2470.71
868.27	2427.55
868.59	2483.59
868.91	2431.84
869.23	2445.4
869.55	2388.23
869.87	2439.53
870.19	2429.13
870.51	2445.63
870.83	2464.16
871.15	2444.27
871.469	2414.89
871.789	2415.35
872.109	2398.4
872.428	2398.85
872.748	2399.53
873.067	2429.13
873.386	2389.58
873.706	2414.44
874.025	2400.66
874.344	2391.17
874.663	2374.44
874.982	2403.14
875.301	2369.25
875.62	2370.6
875.939	2365.86
876.258	2357.04
876.577	2346.87
876.896	2350.94
877.214	2336.03
877.533	2365.86
877.852	2358.85
878.17	2365.18
878.489	2358.17
878.807	2331.05
879.125	2328.57
879.444	2348.46
879.762	2299.87
880.08	2354.56
880.398	2296.48
880.716	2304.84
881.034	2340.55
881.352	2298.29
881.67	2326.31
881.988	2322.24
882.306	2310.49
882.624	2310.04
882.941	2306.42
883.259	2295.8
883.577	2278.85
883.894	2264.62
884.212	2263.49
884.529	2271.4
884.846	2265.75
885.164	2253.09
885.481	2256.48
885.798	2262.13
886.115	2245.63
886.432	2247.67
886.75	2250.15
887.067	2245.86
887.383	2234.79
887.7	2237.05
888.017	2249.25
888.334	2237.95
888.651	2208.35
888.967	2225.07
889.284	2199.98
889.6	2197.72
889.917	2178.29
890.233	2169.48
890.55	2200.44
890.866	2167.67
891.182	2162.7
891.498	2153.21
891.815	2147.78
892.131	2161.57
892.447	2187.33
892.763	2133.09
893.079	2157.27
893.395	2155.92
893.71	2096.71
894.026	2141
894.342	2102.13
894.657	2134
894.973	2105.75
895.289	2115.92
895.604	2095.81
895.92	2088.58
896.235	2098.29
896.55	2078.63
896.865	2079.99
897.181	2065.52
897.496	2096.48
897.811	2068.69
898.126	2039.54
898.441	2066.88
898.756	2048.12
899.071	2030.27
899.386	2017.62
899.7	2014.45
900.015	2040.67
900.33	1967.45
900.644	1999.09
900.959	2028.69
901.273	2007.45
901.588	1976.49
901.902	1983.95
902.216	1983.27
902.531	1996.37
902.845	1942.82
903.159	1963.61
903.473	1920.67
903.787	1955.47
904.101	1967
904.415	1944.4
904.729	1917.51
905.042	1939.88
905.356	1899.2
905.67	1915.47
905.984	1922.25
906.297	1874.57
906.611	1874.8
906.924	1898.07
907.237	1890.39
907.551	1858.3
907.864	1864.4
908.177	1879.31
908.491	1865.98
908.804	1870.5
909.117	1832.76
909.43	1817.62
909.743	1821.24
910.056	1859.88
910.368	1843.16
910.681	1821.69
910.994	1815.59
911.307	1805.64
911.619	1770.17
911.932	1807.23
912.244	1796.38
912.557	1798.87
912.869	1808.13
913.181	1740.11
913.494	1765.19
913.806	1746.89
914.118	1755.7
914.43	1745.99
914.742	1753.67
915.054	1736.95
915.366	1730.84
915.678	1758.64
915.99	1727.68
916.302	1711.41
916.613	1705.08
916.925	1701.47
917.236	1703.05
917.548	1710.51
917.859	1704.63
918.171	1663.05
918.482	1659.43
918.794	1656.95
919.105	1659.21
919.416	1641.58
919.727	1646.78
920.038	1633.9
920.349	1641.13
920.66	1647
920.971	1642.94
921.282	1632.54
921.593	1620.56
921.903	1571.53
922.214	1597.29
922.525	1593.45
922.835	1595.93
923.146	1571.3
923.456	1562.04
923.767	1540.11
924.077	1592.32
924.387	1571.75
924.697	1535.6
925.008	1568.36
925.318	1547.35
925.628	1554.35
925.938	1542.15
926.248	1533.56
926.558	1547.12
926.867	1521.13
927.177	1526.1
927.487	1536.73
927.796	1493.11
928.106	1502.6
928.416	1491.08
928.725	1506.67
929.034	1478.2
929.344	1464.18
929.653	1502.15
929.962	1483.85
930.271	1457.63
930.581	1455.37
930.89	1468.48
931.199	1452.21
931.508	1467.35
931.817	1460.12
932.125	1443.85
932.434	1420.57
932.743	1435.71
933.051	1435.48
933.36	1410.85
933.669	1389.84
933.977	1443.62
934.286	1433.9
934.594	1402.27
934.902	1403.17
935.21	1406.33
935.519	1397.75
935.827	1403.17
936.135	1392.1
936.443	1365.2
936.751	1378.54
937.059	1377.63
937.367	1374.02
937.674	1335.83
937.982	1362.49
938.29	1356.84
938.597	1356.39
938.905	1327.01
939.213	1312.1
939.52	1333.57
939.827	1322.04
940.135	1308.48
940.442	1312.55
940.749	1320.91
941.056	1306
941.363	1305.77
941.67	1304.41
941.977	1271.65
942.284	1299.67
942.591	1273.91
942.898	1304.87
943.205	1282.49
943.511	1262.38
943.818	1252.21
944.125	1279.1
944.431	1263.29
944.738	1256.96
945.044	1232.33
945.35	1247.92
945.657	1240.24
945.963	1215.6
946.269	1247.02
946.575	1233.23
946.881	1239.11
947.187	1216.28
947.493	1208.6
947.799	1212.67
948.105	1202.04
948.41	1212.21
948.716	1207.92
949.022	1195.49
949.327	1200.01
949.633	1178.32
949.938	1184.87
950.244	1168.37
950.549	1159.79
950.854	1190.97
951.16	1178.99
951.465	1178.77
951.77	1174.7
952.075	1144.19
952.38	1150.52
952.685	1138.32
952.99	1141.93
953.294	1139.9
953.599	1131.99
953.904	1135.15
954.209	1130.86
954.513	1157.07
954.818	1088.38
955.122	1097.64
955.426	1103.29
955.731	1120.92
956.035	1117.08
956.339	1091.09
956.643	1111.88
956.948	1124.31
957.252	1086.34
957.556	1089.28
957.86	1090.64
958.163	1077.75
958.467	1088.6
958.771	1084.99
959.075	1084.76
959.378	1060.81
959.682	1072.33
959.985	1049.05
960.289	1071.88
960.592	1062.39
960.896	1063.29
961.199	1072.56
961.502	1046.34
961.805	1034.59
962.108	1036.17
962.411	1038.43
962.714	1034.37
963.017	1014.48
963.32	1033.91
963.623	1028.49
963.926	1024.2
964.228	995.95
964.531	1021.94
964.833	1006.34
965.136	1013.8
965.438	1016.51
965.741	1000.24
966.043	999.34
966.345	986.91
966.648	992.33
966.95	1009.73
967.252	974.71
967.554	971.77
967.856	971.32
968.158	961.37
968.46	989.39
968.761	974.93
969.063	974.48
969.365	964.08
969.666	967.93
969.968	963.86
970.269	947.59
970.571	941.94
970.872	956.18
971.174	963.63
971.475	952.33
971.776	938.77
972.077	956.18
972.378	918.89
972.679	930.41
972.98	939.68
973.281	952.79
973.582	910.07
973.883	939.45
974.183	932.9
974.484	928.61
974.785	922.05
975.085	911.88
975.386	945.78
975.686	888.38
975.986	907.36
976.287	926.57
976.587	890.41
976.887	918.89
977.187	895.84
977.487	899.68
977.787	862.39
978.087	896.06
978.387	872.79
978.687	890.41
978.987	879.34
979.286	882.73
979.586	862.84
979.885	879.79
980.185	883.41
980.484	869.17
980.784	857.19
981.083	873.01
981.382	858.78
981.682	847.48
981.981	832.79
982.28	855.61
982.579	849.96
982.878	858.78
983.177	832.11
983.475	839.79
983.774	844.99
984.073	833.92
984.372	833.69
984.67	815.84
984.969	829.85
985.267	837.76
985.566	807.48
985.864	817.87
986.162	844.54
986.461	825.56
986.759	798.67
987.057	812.9
987.355	811.55
987.653	801.6
987.951	836.86
988.249	800.47
988.547	796.18
988.844	789.4
989.142	795.95
989.44	793.24
989.737	794.37
990.035	777.88
990.332	754.37
990.63	774.03
990.927	767.93
991.224	787.37
991.521	794.37
991.819	754.15
992.116	761.15
992.413	769.74
992.71	766.8
993.006	754.6
993.303	766.58
993.6	733.36
993.897	721.61
994.193	770.64
994.49	744.66
994.787	753.92
995.083	732.45
995.379	739.68
995.676	732.9
995.972	726.8
996.268	760.47
996.565	745.11
996.861	751.89
997.157	713.92
997.453	703.98
997.749	743.75
998.044	720.7
998.34	733.13
998.636	732
998.932	710.98
999.227	729.74
999.523	725.45
999.818	717.09
1000.114	708.5
1000.409	706.69
1000.704	703.07
1001	697.65
1001.295	681.61
1001.59	693.36
1001.885	688.61
1002.18	696.97
1002.475	702.4
1002.77	687.26
1003.065	684.09
1003.359	670.31
1003.654	676.86
1003.949	679.57
1004.243	657.88
1004.538	667.37
1004.832	675.28
1005.127	642.51
1005.421	665.79
1005.715	655.39
1006.009	651.78
1006.304	667.14
1006.598	637.99
1006.892	641.83
1007.186	633.92
1007.48	656.52
1007.773	636.41
1008.067	644.09
1008.361	665.11
1008.655	637.54
1008.948	633.02
1009.242	633.47
1009.535	628.27
1009.829	628.05
1010.122	612.68
1010.415	651.55
1010.708	603.87
1011.001	629.86
1011.295	625.56
1011.588	613.13
1011.881	616.98
1012.173	618.11
1012.466	621.04
1012.759	590.99
1013.052	614.26
1013.344	590.54
1013.637	591.21
1013.93	604.09
1014.222	601.38
1014.514	606.13
1014.807	601.38
1015.099	602.96
1015.391	593.47
1015.683	581.5
1015.976	579.91
1016.268	582.85
1016.56	587.82
1016.851	584.43
1017.143	561.84
1017.435	609.07
1017.727	599.35
1018.018	556.86
1018.31	566.81
1018.602	563.64
1018.893	565
1019.185	570.42
1019.476	550.99
1019.767	570.87
1020.058	550.54
1020.35	539.24
1020.641	562.51
1020.932	554.83
1021.223	555.73
1021.514	547.82
1021.804	558.45
1022.095	536.3
1022.386	553.93
1022.677	517.09
1022.967	511.89
1023.258	535.85
1023.548	544.21
1023.839	539.01
1024.129	537.2
1024.419	533.14
1024.709	536.98
1025	540.37
1025.29	513.25
1025.58	541.27
1025.87	530.42
1026.16	499.69
1026.449	512.35
1026.739	520.93
1027.029	522.97
1027.319	512.57
1027.608	507.6
1027.898	503.08
1028.187	497.88
1028.477	532.68
1028.766	512.12
1029.055	497.2
1029.344	495.17
1029.634	514.61
1029.923	493.36
1030.212	484.32
1030.501	505.57
1030.79	490.42
1031.078	501.27
1031.367	492.01
1031.656	492.91
1031.945	488.17
1032.233	463.08
1032.522	478.45
1032.81	480.71
1033.099	488.84
1033.387	500.37
1033.675	494.94
1033.963	461.05
1034.251	468.5
1034.54	478.67
1034.828	485
1035.116	475.28
1035.403	465.11
1035.691	468.96
1035.979	490.88
1036.267	476.87
1036.554	467.6
1036.842	449.07
1037.129	451.1
1037.417	458.79
1037.704	451.78
1037.992	445.68
1038.279	440.03
1038.566	446.81
1038.853	446.81
1039.14	446.81
