Data from blue_surface_keyboard_FLMS001491_016.txt Node
Date: Tue Feb 07 11:12:43 GMT 2017
User: dcchb
Spectrometer: FLMS00149
Trigger mode: 0
Integration Time (sec): 2.000000E-2
Scans to average: 10
Electric dark correction enabled: true
Nonlinearity correction enabled: false
Boxcar width: 0
XAxis mode: Wavelengths
Number of Pixels in Spectrum: 2048
>>>>>Begin Spectral Data<<<<<
341.393	-16.72
341.776	-16.72
342.16	-16.72
342.543	-60.56
342.927	-63.05
343.31	-59.66
343.693	-77.29
344.077	-54.01
344.46	-54.24
344.843	-44.52
345.226	-52.43
345.61	-40.22
345.993	-20.11
346.376	3.16
346.759	9.94
347.142	25.31
347.525	29.15
347.908	45.42
348.291	91.3
348.674	87.68
349.057	110.51
349.44	125.42
349.823	143.73
350.206	175.14
350.588	172.2
350.971	194.35
351.354	200.45
351.737	215.59
352.119	229.6
352.502	234.57
352.884	260.33
353.267	252.87
353.65	268.24
354.032	259.43
354.414	271.63
354.797	283.38
355.179	272.54
355.562	312.08
355.944	313.89
356.326	317.05
356.709	314.12
357.091	303.04
357.473	314.12
357.855	309.37
358.238	320.9
358.62	315.02
359.002	306.66
359.384	311.86
359.766	299.65
360.148	323.16
360.53	312.76
360.912	304.85
361.294	324.51
361.676	291.29
362.057	289.48
362.439	301.01
362.821	323.38
363.203	308.47
363.584	296.49
363.966	304.85
364.348	289.94
364.729	294
365.111	281.8
365.493	278.41
365.874	295.81
366.256	297.17
366.637	297.62
367.019	289.26
367.4	280.22
367.781	301.46
368.163	287
368.544	262.82
368.925	281.12
369.306	288.13
369.688	275.25
370.069	283.61
370.45	294.68
370.831	268.92
371.212	295.13
371.593	284.74
371.974	293.78
372.355	284.29
372.736	285.64
373.117	280.9
373.498	281.12
373.879	296.72
374.26	281.57
374.641	276.15
375.021	285.87
375.402	303.04
375.783	267.34
376.163	292.65
376.544	297.39
376.925	303.95
377.305	276.15
377.686	284.51
378.066	294
378.447	282.7
378.827	301.24
379.208	297.85
379.588	307.11
379.968	286.55
380.349	299.65
380.729	279.77
381.109	287
381.489	296.72
381.87	279.77
382.25	293.55
382.63	296.26
383.01	301.46
383.39	305.08
383.77	315.25
384.15	302.14
384.53	310.95
384.91	298.52
385.29	287.45
385.67	300.78
386.049	323.38
386.429	306.43
386.809	298.07
387.189	312.76
387.568	322.93
387.948	309.6
388.328	311.63
388.707	311.86
389.087	304.4
389.466	301.46
389.846	316.15
390.225	319.54
390.605	319.31
390.984	301.46
391.363	318.18
391.743	310.73
392.122	302.82
392.501	307.11
392.881	341.69
393.26	322.25
393.639	322.03
394.018	315.25
394.397	312.31
394.776	326.32
395.155	334.45
395.534	314.79
395.913	312.08
396.292	336.04
396.671	316.15
397.05	321.12
397.429	302.59
397.808	330.61
398.186	332.87
398.565	316.6
398.944	328.35
399.323	323.38
399.701	314.57
400.08	341.69
400.458	327.68
400.837	333.78
401.215	350.5
401.594	324.96
401.972	343.04
402.351	338.75
402.729	347.11
403.107	327.9
403.486	345.53
403.864	331.06
404.242	330.16
404.62	354.57
404.999	370.16
405.377	354.79
405.755	354.79
406.133	350.27
406.511	376.94
406.889	361.12
407.267	351.18
407.645	348.01
408.023	341.46
408.401	355.92
408.779	351.86
409.156	373.55
409.534	389.37
409.912	361.12
410.29	367.67
410.667	355.24
411.045	364.74
411.422	359.54
411.8	362.93
412.178	365.41
412.555	367.9
412.933	342.59
413.31	397.96
413.687	368.13
414.065	369.03
414.442	383.27
414.819	364.28
415.197	366.54
415.574	373.32
415.951	384.62
416.328	400.67
416.705	396.15
417.082	394.79
417.46	387.79
417.837	395.02
418.214	398.86
418.591	400.89
418.967	381.68
419.344	398.18
419.721	374.23
420.098	425.3
420.475	416.94
420.852	411.97
421.228	398.18
421.605	387.33
421.982	412.42
422.358	408.8
422.735	394.79
423.111	398.86
423.488	406.54
423.864	429.82
424.241	408.58
424.617	399.31
424.994	404.28
425.37	402.48
425.746	399.31
426.123	406.09
426.499	421.23
426.875	423.94
427.251	406.54
427.627	424.17
428.003	420.33
428.379	434.11
428.756	417.84
429.132	451.29
429.507	446.54
429.883	436.82
430.259	445.64
430.635	444.96
431.011	445.86
431.387	466.43
431.763	444.28
432.138	429.59
432.514	446.32
432.89	467.33
433.265	448.12
433.641	445.41
434.016	428.92
434.392	447.9
434.767	447.22
435.143	465.75
435.518	473.66
435.894	451.29
436.269	468.24
436.644	493.09
437.02	470.95
437.395	455.36
437.77	482.93
438.145	469.14
438.52	482.02
438.895	497.84
439.271	467.78
439.646	476.82
440.021	498.29
440.395	489.48
440.77	481.12
441.145	505.75
441.52	496.71
441.895	507.56
442.27	503.94
442.645	510.04
443.019	504.85
443.394	524.96
443.769	494
444.143	530.16
444.518	515.92
444.892	525.18
445.267	527.22
445.641	521.34
446.016	532.64
446.39	529.25
446.764	513.88
447.139	539.65
447.513	526.99
447.887	533.09
448.262	541.45
448.636	505.75
449.01	521.34
449.384	549.36
449.758	533.32
450.132	534.45
450.506	549.59
450.88	528.12
451.254	563.6
451.628	548.91
452.002	563.38
452.376	581.68
452.75	537.39
453.123	568.12
453.497	585.07
453.871	569.93
454.244	565.63
454.618	587.33
454.992	600.44
455.365	586.43
455.739	578.06
456.112	563.83
456.486	591.17
456.859	595.24
457.232	600.21
457.606	591.4
457.979	617.38
458.352	627.33
458.725	628.46
459.099	609.02
459.472	642.02
459.845	651.06
460.218	641.79
460.591	620.55
460.964	644.73
461.337	650.6
461.71	661
462.083	660.77
462.456	665.52
462.829	661.68
463.201	641.57
463.574	662.58
463.947	687.67
464.32	658.06
464.692	703.03
465.065	668.01
465.438	689.02
465.81	690.83
466.183	696.03
466.555	683.82
466.928	718.63
467.3	685.41
467.672	696.25
468.045	710.94
468.417	728.79
468.789	702.58
469.161	742.13
469.534	736.48
469.906	737.38
470.278	756.82
470.65	757.04
471.022	723.37
471.394	749.13
471.766	753.65
472.138	778.96
472.51	790.26
472.882	780.77
473.253	804.27
473.625	797.04
473.997	809.02
474.369	814.89
474.74	811.05
475.112	819.64
475.484	824.61
475.855	846.31
476.227	867.32
476.598	861.9
476.97	856.93
477.341	884.95
477.713	865.51
478.084	884.04
478.455	891.05
478.827	913.2
479.198	904.83
479.569	943.25
479.94	908.68
480.311	954.55
480.682	925.63
481.053	959.97
481.424	988
481.795	966.3
482.166	965.62
482.537	972.86
482.908	992.52
483.279	1014.89
483.65	1024.38
484.021	1021.44
484.391	1036.58
484.762	1032.97
485.133	1053.31
485.503	1057.15
485.874	1082.91
486.244	1067.99
486.615	1102.57
486.985	1080.88
487.356	1108.67
487.726	1107.54
488.097	1099.18
488.467	1119.97
488.837	1141.66
489.207	1159.52
489.578	1148.44
489.948	1155.68
490.318	1173.53
490.688	1158.61
491.058	1173.3
491.428	1193.19
491.798	1162.91
492.168	1227.54
492.538	1193.64
492.908	1197.71
493.278	1217.37
493.648	1197.48
494.017	1231.83
494.387	1216.92
494.757	1239.52
495.126	1246.29
495.496	1249.68
495.866	1245.16
496.235	1241.32
496.605	1246.52
496.974	1243.13
497.344	1282
497.713	1256.01
498.082	1286.75
498.452	1253.3
498.821	1270.25
499.19	1261.89
499.559	1284.26
499.928	1290.59
500.298	1292.62
500.667	1314.77
501.036	1294.43
501.405	1329
501.774	1285.16
502.143	1309.12
502.512	1293.53
502.88	1314.77
503.249	1346.41
503.618	1311.38
503.987	1331.72
504.356	1314.77
504.724	1333.75
505.093	1352.51
505.462	1336.91
505.83	1345.05
506.199	1347.54
506.567	1329.46
506.936	1343.02
507.304	1352.28
507.672	1353.41
508.041	1347.31
508.409	1367.2
508.777	1343.92
509.145	1353.41
509.514	1357.03
509.882	1370.13
510.25	1364.26
510.618	1351.6
510.986	1361.09
511.354	1362.9
511.722	1392.73
512.09	1400.42
512.458	1390.25
512.826	1401.77
513.193	1396.12
513.561	1375.78
513.929	1403.35
514.297	1406.06
514.664	1402.67
515.032	1416.23
515.4	1406.29
515.767	1412.39
516.135	1404.48
516.502	1357.25
516.869	1430.47
517.237	1435.67
517.604	1404.48
517.972	1430.47
518.339	1414.65
518.706	1450.81
519.073	1420.98
519.44	1444.48
519.808	1436.35
520.175	1427.76
520.542	1416.69
520.909	1474.76
521.276	1452.84
521.643	1457.59
522.009	1462.79
522.376	1443.58
522.743	1465.5
523.11	1449.68
523.477	1452.84
523.843	1470.47
524.21	1505.5
524.577	1498.49
524.943	1488.77
525.31	1488.32
525.676	1497.14
526.043	1475.22
526.409	1505.72
526.776	1498.94
527.142	1514.08
527.508	1501.88
527.874	1501.43
528.241	1518.6
528.607	1496.68
528.973	1525.84
529.339	1524.25
529.705	1530.58
530.071	1515.67
530.437	1533.74
530.803	1548.21
531.169	1548.89
531.535	1499.85
531.901	1531.26
532.267	1548.66
532.632	1518.6
532.998	1534.2
533.364	1518.15
533.73	1528.1
534.095	1538.04
534.461	1549.11
534.826	1562.44
535.192	1552.95
535.557	1568.55
535.923	1560.41
536.288	1568.77
536.653	1573.52
537.019	1543.01
537.384	1566.29
537.749	1566.06
538.114	1557.7
538.479	1551.6
538.845	1556.12
539.21	1563.12
539.575	1556.57
539.94	1598.38
540.305	1590.24
540.67	1563.57
541.034	1560.41
541.399	1561.77
541.764	1564.25
542.129	1562.67
542.494	1569.9
542.858	1580.98
543.223	1564.25
543.587	1559.28
543.952	1578.49
544.316	1562.44
544.681	1553.86
545.045	1589.34
545.41	1598.83
545.774	1582.11
546.138	1550.92
546.503	1584.82
546.867	1586.85
547.231	1579.62
547.595	1594.53
547.959	1589.34
548.324	1543.01
548.688	1586.62
549.052	1580.07
549.416	1614.42
549.779	1580.3
550.143	1564.7
550.507	1581.43
550.871	1588.21
551.235	1603.8
551.599	1572.16
551.962	1601.54
552.326	1615.32
552.689	1587.3
553.053	1603.57
553.417	1582.56
553.78	1609.22
554.143	1575.55
554.507	1608.09
554.87	1599.73
555.234	1646.74
555.597	1594.76
555.96	1633.63
556.323	1624.36
556.686	1623.23
557.05	1601.09
557.413	1617.13
557.776	1601.77
558.139	1598.15
558.502	1587.75
558.865	1616
559.228	1606.06
559.59	1619.62
559.953	1628.21
560.316	1617.81
560.679	1619.17
561.041	1625.95
561.404	1651.26
561.767	1625.95
562.129	1642.89
562.492	1618.26
562.854	1673.18
563.217	1631.82
563.579	1641.31
563.941	1663.69
564.304	1677.92
564.666	1648.77
565.028	1643.35
565.39	1645.15
565.753	1678.37
566.115	1661.65
566.477	1647.87
566.839	1700.07
567.201	1673.85
567.563	1649.45
567.925	1674.08
568.287	1687.19
568.648	1683.12
569.01	1719.73
569.372	1701.65
569.734	1689.45
570.095	1710.92
570.457	1681.31
570.819	1700.07
571.18	1691.93
571.542	1672.72
571.903	1698.03
572.265	1719.28
572.626	1697.81
572.987	1704.81
573.349	1734.42
573.71	1721.76
574.071	1738.03
574.432	1727.41
574.794	1749.56
575.155	1756.34
575.516	1714.08
575.877	1720.41
576.238	1697.81
576.599	1749.33
576.96	1743.23
577.32	1720.18
577.681	1736
578.042	1718.15
578.403	1741.42
578.763	1771.48
579.124	1735.1
579.485	1733.74
579.845	1754.76
580.206	1743.91
580.566	1744.81
580.927	1759.5
581.287	1782.33
581.648	1761.31
582.008	1766.96
582.368	1732.16
582.728	1768.32
583.089	1786.85
583.449	1804.47
583.809	1789.11
584.169	1785.94
584.529	1766.28
584.889	1764.25
585.249	1768.32
585.609	1755.66
585.969	1747.07
586.329	1770.35
586.688	1788.65
587.048	1755.66
587.408	1781.2
587.768	1762.67
588.127	1753.4
588.487	1761.54
588.846	1804.92
589.206	1762.21
589.565	1757.92
589.925	1755.66
590.284	1805.15
590.643	1785.49
591.003	1779.39
591.362	1761.76
591.721	1760.86
592.08	1778.03
592.44	1780.07
592.799	1777.13
593.158	1783.46
593.517	1763.8
593.876	1773.51
594.235	1781.42
594.593	1795.21
594.952	1788.43
595.311	1817.81
595.67	1799.5
596.029	1798.82
596.387	1807.64
596.746	1814.87
597.104	1790.91
597.463	1791.59
597.822	1816
598.18	1798.37
598.538	1794.76
598.897	1811.7
599.255	1769.44
599.613	1827.52
599.972	1839.95
600.33	1814.87
600.688	1828.2
601.046	1792.04
601.404	1823.23
601.762	1822.32
602.12	1839.27
602.478	1833.4
602.836	1848.99
603.194	1823
603.552	1845.15
603.91	1806.51
604.268	1819.84
604.625	1853.06
604.983	1849.22
605.341	1820.74
605.698	1831.14
606.056	1872.72
606.413	1844.02
606.771	1839.73
607.128	1883.79
607.485	1841.99
607.843	1827.52
608.2	1846.05
608.557	1866.84
608.914	1841.76
609.272	1861.42
609.629	1874.3
609.986	1898.03
610.343	1882.66
610.7	1864.36
611.057	1877.01
611.414	1862.55
611.771	1880.18
612.127	1907.75
612.484	1883.57
612.841	1917.01
613.198	1895.09
613.554	1872.27
613.911	1886.5
614.267	1877.24
614.624	1894.64
614.98	1902.55
615.337	1917.92
615.693	1912.27
616.05	1899.39
616.406	1924.02
616.762	1914.3
617.118	1925.83
617.475	1928.31
617.831	1944.58
618.187	1920.4
618.543	1942.1
618.899	1942.77
619.255	1939.61
619.611	1945.26
619.967	1970.57
620.323	1945.94
620.678	1938.71
621.034	1947.52
621.39	1947.07
621.746	1945.94
622.101	1981.19
622.457	1968.54
622.812	1982.09
623.168	1984.13
623.523	1969.21
623.879	1963.79
624.234	1952.27
624.589	1961.76
624.945	1976.67
625.3	1957.69
625.655	1984.13
626.01	1969.21
626.365	1988.87
626.72	2004.02
627.075	1995.2
627.43	1995.88
627.785	2000.17
628.14	2012.6
628.495	2016.9
628.85	1993.17
629.205	2015.09
629.559	2014.86
629.914	1985.26
630.269	2018.7
630.623	2023
630.978	2023.68
631.332	2008.31
631.687	2046.27
632.041	2053.51
632.396	2048.53
632.75	2021.42
633.104	2051.02
633.459	2039.95
633.813	2046.73
634.167	2048.76
634.521	2075.43
634.875	2055.31
635.229	2066.16
635.583	2043.11
635.937	2056.67
636.291	2045.37
636.645	2065.26
636.999	2073.84
637.352	2072.94
637.706	2086.95
638.06	2082.66
638.413	2096.67
638.767	2091.24
639.121	2078.14
639.474	2102.77
639.828	2129.21
640.181	2101.64
640.534	2116.55
640.888	2103.67
641.241	2112.94
641.594	2126.05
641.947	2142.77
642.301	2105.03
642.654	2159.04
643.007	2188.64
643.36	2188.19
643.713	2193.84
644.066	2185.25
644.419	2183.45
644.771	2191.13
645.124	2140.51
645.477	2149.55
645.83	2176.44
646.182	2172.82
646.535	2169.66
646.888	2175.76
647.24	2169.66
647.593	2199.72
647.945	2185.25
648.298	2198.59
648.65	2213.5
649.002	2192.48
649.355	2215.08
649.707	2225.25
650.059	2251.47
650.411	2293.72
650.763	2264.57
651.115	2286.49
651.467	2295.53
651.819	2291.69
652.171	2346.38
652.523	2328.53
652.875	2306.83
653.227	2367.4
653.578	2370.79
653.93	2371.69
654.282	2368.07
654.633	2387.96
654.985	2386.83
655.337	2421.86
655.688	2422.54
656.039	2430.67
656.391	2443.55
656.742	2421.18
657.094	2472.03
657.445	2452.82
657.796	2509.09
658.147	2491.23
658.498	2486.26
658.849	2541.18
659.2	2531.46
659.551	2552.25
659.902	2542.98
660.253	2552.7
660.604	2549.76
660.955	2565.58
661.306	2574.17
661.656	2605.81
662.007	2600.84
662.358	2621.85
662.708	2625.69
663.059	2617.33
663.409	2643.32
663.76	2688.74
664.11	2704.11
664.461	2695.97
664.811	2724.22
665.161	2687.61
665.511	2738.69
665.862	2750.44
666.212	2770.1
666.562	2794.95
666.912	2772.81
667.262	2747.95
667.612	2809.87
667.962	2805.35
668.312	2801.51
668.662	2859.13
669.011	2873.37
669.361	2846.93
669.711	2841.06
670.06	2895.97
670.41	2889.87
670.76	2906.36
671.109	2916.31
671.459	2940.26
671.808	2900.71
672.157	2986.36
672.507	2977.32
672.856	2999.92
673.205	2997.66
673.554	3006.47
673.904	3016.19
674.253	3017.1
674.602	3056.87
674.951	3033.14
675.3	3026.36
675.649	3064.78
675.998	3091.22
676.346	3087.38
676.695	3150.88
677.044	3130.99
677.393	3138.9
677.741	3162.4
678.09	3132.12
678.438	3131.9
678.787	3171.44
679.135	3157.66
679.484	3175.28
679.832	3247.37
680.181	3237.43
680.529	3226.36
680.877	3232.46
681.225	3262.06
681.573	3283.53
681.922	3268.16
682.27	3285.56
682.618	3254.83
682.966	3305.9
683.314	3335.73
683.661	3349.74
684.009	3297.09
684.357	3278.33
684.705	3331.44
685.053	3326.92
685.4	3363.75
685.748	3337.54
686.095	3366.01
686.443	3363.98
686.79	3378.67
687.138	3369.85
687.485	3377.99
687.832	3419.8
688.18	3419.57
688.527	3369.4
688.874	3389.52
689.221	3389.06
689.568	3396.07
689.915	3351.78
690.262	3414.37
690.609	3423.86
690.956	3458.89
691.303	3447.14
691.65	3383.64
691.997	3411.89
692.344	3396.29
692.69	3415.96
693.037	3457.08
693.383	3441.94
693.73	3488.5
694.077	3446.01
694.423	3420.93
694.769	3457.31
695.116	3449.85
695.462	3441.27
695.808	3458.89
696.155	3474.26
696.501	3428.61
696.847	3422.51
697.193	3433.58
697.539	3459.12
697.885	3450.76
698.231	3439.68
698.577	3457.54
698.923	3463.19
699.269	3430.87
699.614	3427.71
699.96	3444.66
700.306	3432
700.651	3444.88
700.997	3403.3
701.342	3455.05
701.688	3447.37
702.033	3446.01
702.379	3427.25
702.724	3412.11
703.069	3446.69
703.415	3368.72
703.76	3390.19
704.105	3398.78
704.45	3376.86
704.795	3408.27
705.14	3369.18
705.485	3366.01
705.83	3384.54
706.175	3421.6
706.52	3413.47
706.865	3363.3
707.209	3433.13
707.554	3365.34
707.899	3379.57
708.243	3359.46
708.588	3375.05
708.932	3382.96
709.277	3331.21
709.621	3386.35
709.966	3326.24
710.31	3400.59
710.654	3315.39
710.998	3370.53
711.342	3363.3
711.687	3335.05
712.031	3340.93
712.375	3349.97
712.719	3387.26
713.063	3353.13
713.407	3299.12
713.75	3330.99
714.094	3302.51
714.438	3350.87
714.782	3347.93
715.125	3337.54
715.469	3338.67
715.812	3329.63
716.156	3312.23
716.499	3342.96
716.843	3279.24
717.186	3312
717.53	3337.54
717.873	3332.12
718.216	3345.9
718.559	3368.05
718.902	3300.48
719.246	3296.86
719.589	3288.28
719.932	3301.38
720.275	3326.24
720.617	3355.84
720.96	3325.79
721.303	3335.73
721.646	3338.22
721.989	3305
722.331	3354.26
722.674	3349.74
723.016	3354.94
723.359	3299.57
723.701	3338.22
724.044	3311.33
724.386	3320.82
724.729	3291.44
725.071	3360.82
725.413	3332.79
725.755	3316.07
726.097	3309.97
726.439	3334.15
726.782	3333.92
727.124	3357.88
727.465	3341.83
727.807	3345.9
728.149	3328.05
728.491	3319.69
728.833	3353.13
729.175	3326.47
729.516	3346.35
729.858	3323.75
730.199	3320.36
730.541	3388.16
730.882	3340.48
731.224	3339.35
731.565	3352.45
731.906	3360.82
732.248	3336.64
732.589	3328.95
732.93	3365.11
733.271	3337.54
733.612	3341.16
733.953	3343.19
734.294	3369.18
734.635	3387.48
734.976	3355.39
735.317	3370.98
735.658	3349.06
735.999	3392.91
736.339	3399.23
736.68	3389.97
737.021	3381.61
737.361	3421.38
737.702	3403.53
738.042	3377.76
738.383	3392
738.723	3414.15
739.063	3408.27
739.404	3436.29
739.744	3458.44
740.084	3449.4
740.424	3455.5
740.764	3462.51
741.104	3464.77
741.444	3475.84
741.784	3497.31
742.124	3470.42
742.464	3500.92
742.804	3498.21
743.143	3520.36
743.483	3509.96
743.823	3499.79
744.162	3507.48
744.502	3583.18
744.841	3552
745.181	3608.49
745.52	3590.19
745.86	3603.97
746.199	3648.04
746.538	3613.69
746.877	3637.42
747.216	3672.67
747.556	3631.99
747.895	3691.88
748.234	3672.22
748.573	3731.43
748.911	3702.95
749.25	3737.75
749.589	3717.19
749.928	3725.33
750.267	3766.68
750.605	3784.53
750.944	3812.78
751.283	3823.4
751.621	3846.9
751.96	3830.41
752.298	3866.79
752.636	3848.71
752.975	3883.97
753.313	3914.93
753.651	3965.77
753.989	3913.12
754.327	3948.37
754.666	4014.13
755.004	4002.38
755.342	4015.94
755.679	4041.93
756.017	4066.33
756.355	4067.46
756.693	4083.96
757.031	4128.48
757.368	4094.58
757.706	4147.69
758.044	4125.54
758.381	4165.54
758.719	4205.77
759.056	4162.15
759.394	4187.01
759.731	4224.97
760.068	4215.03
760.405	4277.18
760.743	4253.22
761.08	4258.87
761.417	4292.54
761.754	4264.75
762.091	4348.36
762.428	4275.82
762.765	4307.91
763.102	4308.36
763.438	4318.3
763.775	4335.25
764.112	4346.55
764.449	4328.25
764.785	4318.53
765.122	4353.33
765.458	4339.09
765.795	4367.34
766.131	4353.56
766.467	4315.82
766.804	4321.47
767.14	4349.04
767.476	4380.45
767.812	4363.5
768.148	4386.1
768.485	4362.37
768.821	4333.9
769.157	4342.26
769.492	4346.55
769.828	4393.56
770.164	4323.73
770.5	4365.31
770.836	4376.38
771.171	4316.04
771.507	4353.56
771.842	4314.91
772.178	4323.5
772.513	4321.24
772.849	4380
773.184	4300.9
773.519	4311.53
773.855	4301.13
774.19	4300.23
774.525	4259.77
774.86	4294.12
775.195	4297.74
775.53	4257.97
775.865	4281.02
776.2	4231.08
776.535	4225.88
776.87	4239.89
777.205	4252.54
777.539	4224.52
777.874	4213
778.209	4153.11
778.543	4198.76
778.878	4207.35
779.212	4208.7
779.547	4145.2
779.881	4150.17
780.215	4144.07
780.55	4121.02
780.884	4137.52
781.218	4123.06
781.552	4078.31
781.886	4086.9
782.22	4094.58
782.554	4048.48
782.888	4059.55
783.222	4008.48
783.556	3989.27
783.889	3989.5
784.223	3982.27
784.557	3976.17
784.89	4014.81
785.224	3960.35
785.557	3957.86
785.891	3944.3
786.224	3930.07
786.558	3928.94
786.891	3917.41
787.224	3898.88
787.557	3892.78
787.891	3906.56
788.224	3885.55
788.557	3890.75
788.89	3898.43
789.223	3863.85
789.556	3852.55
789.888	3783.86
790.221	3838.77
790.554	3811.65
790.887	3816.85
791.219	3786.57
791.552	3787.47
791.884	3790.63
792.217	3755.83
792.549	3734.82
792.882	3736.17
793.214	3730.52
793.546	3730.07
793.879	3717.87
794.211	3664.76
794.543	3667.25
794.875	3671.77
795.207	3735.95
795.539	3644.42
795.871	3665.21
796.203	3635.16
796.535	3619.34
796.867	3639.9
797.198	3592.9
797.53	3596.97
797.862	3575.73
798.193	3559.68
798.525	3598.78
798.856	3576.18
799.188	3581.37
799.519	3532.56
799.85	3490.76
800.182	3520.13
800.513	3535.73
800.844	3479
801.175	3470.42
801.506	3469.51
801.837	3490.53
802.168	3447.14
802.499	3452.34
802.83	3455.05
803.161	3414.83
803.491	3436.29
803.822	3425.22
804.153	3407.82
804.483	3388.16
804.814	3336.18
805.145	3392.91
805.475	3417.54
805.805	3363.53
806.136	3348.61
806.466	3349.52
806.796	3372.34
807.126	3318.33
807.457	3310.42
807.787	3317.43
808.117	3310.2
808.447	3288.95
808.777	3296.86
809.107	3271.55
809.436	3308.16
809.766	3280.37
810.096	3234.94
810.426	3254.83
810.755	3263.42
811.085	3268.16
811.414	3272.46
811.744	3228.62
812.073	3235.62
812.403	3225.68
812.732	3202.18
813.061	3189.75
813.39	3190.42
813.719	3182.97
814.049	3205.57
814.378	3192.68
814.707	3193.81
815.036	3173.48
815.365	3166.02
815.693	3130.09
816.022	3143.19
816.351	3142.29
816.68	3127.38
817.008	3107.04
817.337	3115.85
817.665	3081.05
817.994	3108.84
818.322	3093.03
818.651	3097.32
818.979	3100.03
819.307	3117.21
819.636	3081.27
819.964	3070.88
820.292	3073.59
820.62	3052.58
820.948	3064.1
821.276	3071.56
821.604	3052.12
821.932	3076.53
822.259	3043.99
822.587	3059.81
822.915	3070.65
823.243	3050.32
823.57	3023.88
823.898	3043.54
824.225	3063.42
824.553	3070.43
824.88	3031.56
825.207	3096.87
825.535	3025.23
825.862	3040.37
826.189	3025.23
826.516	3033.82
826.843	3053.71
827.17	3039.24
827.497	3071.78
827.824	3055.96
828.151	3060.26
828.478	3077.21
828.805	3021.84
829.131	3055.51
829.458	3017.32
829.785	3038.11
830.111	3035.85
830.438	3015.06
830.764	3031.11
831.09	3046.7
831.417	3022.29
831.743	3054.83
832.069	3038.34
832.395	3021.39
832.722	3047.15
833.048	3018
833.374	3044.67
833.7	3034.95
834.026	2968.28
834.351	3044.89
834.677	3041.73
835.003	3052.58
835.329	3026.14
835.654	3020.03
835.98	2999.02
836.306	3034.27
836.631	3003.08
836.956	2993.37
837.282	3034.27
837.607	2991.56
837.932	2968.74
838.258	2969.87
838.583	2964.89
838.908	2969.19
839.233	2956.98
839.558	2982.97
839.883	2962.18
840.208	2973.93
840.533	2954.72
840.858	2935.97
841.182	2940.94
841.507	2931.22
841.832	2969.87
842.156	2915.86
842.481	2913.6
842.805	2887.16
843.13	2937.55
843.454	2880.38
843.778	2893.71
844.103	2880.15
844.427	2872.69
844.751	2881.05
845.075	2889.19
845.399	2881.96
845.723	2832.92
846.047	2869.08
846.371	2823.2
846.695	2825.24
847.019	2831.34
847.343	2808.29
847.666	2811.9
847.99	2788.18
848.313	2741.17
848.637	2775.52
848.96	2771.45
849.284	2699.36
849.607	2780.04
849.931	2733.04
850.254	2744.79
850.577	2727.84
850.9	2726.03
851.223	2701.85
851.546	2654.85
851.869	2674.73
852.192	2679.25
852.515	2686.71
852.838	2681.74
853.161	2645.13
853.483	2640.83
853.806	2631.34
854.129	2601.74
854.451	2586.15
854.774	2626.6
855.096	2612.59
855.419	2614.85
855.741	2580.05
856.063	2540.05
856.385	2573.27
856.708	2538.69
857.03	2564
857.352	2568.29
857.674	2591.34
857.996	2552.48
858.318	2517
858.64	2543.89
858.961	2507.73
859.283	2519.71
859.605	2511.35
859.926	2503.21
860.248	2538.92
860.57	2462.53
860.891	2519.93
861.212	2503.44
861.534	2487.62
861.855	2499.14
862.176	2483.55
862.498	2472.03
862.819	2451.91
863.14	2464.79
863.461	2449.2
863.782	2478.8
864.103	2439.26
864.424	2450.11
864.745	2412.37
865.065	2395.64
865.386	2435.87
865.707	2422.08
866.027	2405.81
866.348	2422.08
866.668	2442.42
866.989	2413.04
867.309	2393.84
867.63	2429.31
867.95	2407.62
868.27	2369.43
868.59	2372.59
868.91	2401.74
869.23	2363.78
869.55	2359.03
869.87	2399.71
870.19	2370.33
870.51	2399.26
870.83	2406.94
871.15	2369.88
871.469	2344.35
871.789	2365.14
872.109	2362.2
872.428	2378.47
872.748	2382.54
873.067	2368.98
873.386	2378.47
873.706	2380.95
874.025	2353.38
874.344	2317.91
874.663	2337.11
874.982	2318.13
875.301	2329.43
875.62	2344.12
875.939	2305.93
876.258	2325.14
876.577	2300.96
876.896	2337.34
877.214	2349.54
877.533	2311.35
877.852	2311.8
878.17	2319.04
878.489	2288.08
878.807	2296.21
879.125	2307.74
879.444	2284.46
879.762	2290.34
880.08	2284.69
880.398	2267.51
880.716	2301.18
881.034	2298.02
881.352	2283.33
881.67	2243.1
881.988	2277.91
882.306	2252.37
882.624	2233.84
882.941	2227.29
883.259	2220.28
883.577	2241.07
883.894	2250.56
884.212	2195.2
884.529	2272.03
884.846	2222.54
885.164	2216.66
885.481	2161.98
885.798	2227.51
886.115	2178.47
886.432	2210.11
886.75	2186.16
887.067	2191.58
887.383	2175.54
887.7	2188.42
888.017	2174.18
888.334	2164.01
888.651	2164.24
888.967	2167.4
889.284	2133.96
889.6	2157.46
889.917	2118.36
890.233	2168.53
890.55	2129.66
890.866	2144.8
891.182	2106.84
891.498	2130.34
891.815	2091.7
892.131	2091.02
892.447	2099.15
892.763	2097.12
893.079	2130.34
893.395	2152.94
893.71	2110.45
894.026	2076.78
894.342	2076.56
894.657	2068.65
894.973	2070.68
895.289	2070.23
895.604	2043.56
895.92	2059.61
896.235	2043.11
896.55	2018.48
896.865	2002.89
897.181	2014.18
897.496	2028.65
897.811	2018.25
898.126	2033.17
898.441	1996.11
898.756	2001.53
899.071	2001.76
899.386	1999.95
899.7	1998.14
900.015	1950.68
900.33	1956.56
900.644	1988.87
900.959	1982.09
901.273	1937.58
901.588	1950.91
901.902	1952.27
902.216	1932.6
902.531	1975.77
902.845	1940.97
903.159	1886.96
903.473	1905.71
903.787	1875.43
904.101	1893.28
904.415	1912.49
904.729	1893.74
905.042	1892.83
905.356	1885.6
905.67	1895.54
905.984	1892.15
906.297	1861.42
906.611	1859.61
906.924	1871.59
907.237	1854.41
907.551	1832.95
907.864	1824.36
908.177	1810.12
908.491	1848.99
908.804	1848.99
909.117	1819.61
909.43	1787.52
909.743	1787.98
910.056	1785.26
910.368	1752.72
910.681	1759.05
910.994	1764.47
911.307	1753.63
911.619	1752.5
911.932	1759.95
912.244	1755.66
912.557	1749.56
912.869	1752.5
913.181	1735.32
913.494	1723.57
913.806	1705.49
914.118	1734.42
914.43	1711.59
914.742	1685.61
915.054	1729.22
915.366	1686.96
915.678	1683.35
915.99	1663.23
916.302	1638.83
916.613	1651.48
916.925	1665.49
917.236	1660.52
917.548	1665.94
917.859	1632.05
918.171	1635.66
918.482	1639.96
918.794	1613.06
919.105	1624.59
919.416	1618.26
919.727	1604.25
920.038	1627.53
920.349	1606.06
920.66	1593.63
920.971	1618.04
921.282	1570.81
921.593	1590.92
921.903	1575.33
922.214	1559.51
922.525	1573.74
922.835	1557.47
923.146	1558.15
923.456	1529.23
923.767	1538.94
924.077	1575.1
924.387	1564.25
924.697	1550.24
925.008	1533.07
925.318	1509.79
925.628	1495.1
925.938	1492.16
926.248	1481.99
926.558	1513.41
926.867	1485.84
927.177	1492.84
927.487	1457.36
927.796	1475.22
928.106	1477.93
928.416	1467.08
928.725	1498.94
929.034	1455.78
929.344	1428.66
929.653	1454.2
929.962	1455.33
930.271	1455.1
930.581	1468.44
930.89	1451.04
931.199	1426.18
931.508	1428.66
931.817	1448.55
932.125	1424.82
932.434	1406.06
932.743	1384.6
933.051	1390.02
933.36	1361.55
933.669	1375.78
933.977	1386.18
934.286	1384.37
934.594	1373.3
934.902	1369.46
935.21	1355.22
935.519	1367.87
935.827	1358.61
936.135	1364.48
936.443	1356.8
936.751	1328.78
937.059	1340.3
937.367	1338.95
937.674	1331.72
937.982	1326.52
938.29	1342.79
938.597	1347.08
938.905	1277.71
939.213	1310.7
939.52	1302.34
939.827	1280.42
940.135	1332.62
940.442	1287.88
940.749	1280.19
941.056	1315.9
941.363	1263.47
941.67	1305.28
941.977	1254.43
942.284	1264.6
942.591	1272.73
942.898	1261.66
943.205	1264.37
943.511	1230.25
943.818	1255.33
944.125	1250.81
944.431	1225.5
944.738	1203.36
945.044	1197.03
945.35	1205.39
945.657	1216.69
945.963	1206.3
946.269	1196.35
946.575	1196.8
946.881	1216.01
947.187	1210.36
947.493	1197.93
947.799	1174.21
948.105	1190.48
948.41	1204.26
948.716	1195
949.022	1206.07
949.327	1165.17
949.633	1155.22
949.938	1168.56
950.244	1165.62
950.549	1183.7
950.854	1179.18
951.16	1148.22
951.465	1165.62
951.77	1126.75
952.075	1147.77
952.38	1126.07
952.685	1122
952.99	1126.75
953.294	1125.39
953.599	1127.88
953.904	1117.71
954.209	1140.53
954.513	1125.62
954.818	1117.26
955.122	1101.89
955.426	1106.41
955.731	1102.12
956.035	1100.76
956.339	1070.25
956.643	1070.25
956.948	1091.04
957.252	1081.1
957.556	1077.71
957.86	1045.62
958.163	1065.73
958.467	1077.03
958.771	1038.62
959.075	1082.68
959.378	1066.86
959.682	1074.1
959.985	1055.57
960.289	1036.36
960.592	1030.93
960.896	1053.31
961.199	1049.92
961.502	1025.06
961.805	1027.54
962.108	1042.01
962.411	1042.46
962.714	1015.79
963.017	1029.13
963.32	998.62
963.623	1002.69
963.926	1012.4
964.228	993.19
964.531	989.58
964.833	983.48
965.136	990.03
965.438	982.35
965.741	980.54
966.043	974.66
966.345	977.38
966.648	966.3
966.95	991.39
967.252	963.36
967.554	967.66
967.856	965.85
968.158	938.73
968.46	943.25
968.761	951.61
969.063	975.12
969.365	959.07
969.666	953.87
969.968	938.28
970.269	956.81
970.571	936.92
970.872	944.16
971.174	933.76
971.475	927.43
971.776	961.33
972.077	922.46
972.378	927.66
972.679	886.76
972.98	894.89
973.281	905.96
973.582	910.71
973.883	920.65
974.183	907.55
974.484	914.1
974.785	919.98
975.085	914.78
975.386	897.83
975.686	900.54
975.986	884.5
976.287	883.14
976.587	897.83
976.887	877.27
977.187	878.85
977.487	864.16
977.787	896.7
978.087	870.94
978.387	853.31
978.687	870.03
978.987	852.63
979.286	864.61
979.586	827.1
979.885	861.9
980.185	850.15
980.484	851.05
980.784	835.01
981.083	853.54
981.382	825.97
981.682	820.32
981.981	831.16
982.28	823.93
982.579	832.97
982.878	852.63
983.177	822.13
983.475	833.42
983.774	819.19
984.073	834.1
984.372	804.95
984.67	820.09
984.969	823.93
985.267	816.25
985.566	782.58
985.864	815.8
986.162	811.73
986.461	775.35
986.759	807.66
987.057	789.58
987.355	799.3
987.653	794.78
987.951	799.75
988.249	781.67
988.547	794.78
988.844	762.69
989.142	736.25
989.44	774.44
989.737	769.25
990.035	784.16
990.332	797.72
990.63	758.62
990.927	772.86
991.224	740.77
991.521	759.53
991.819	746.65
992.116	757.04
992.413	741.68
992.71	722.69
993.006	738.51
993.303	743.03
993.6	752.52
993.897	749.81
994.193	751.84
994.49	712.52
994.787	756.14
995.083	738.96
995.379	753.43
995.676	724.73
995.972	738.06
996.268	717.04
996.565	717.27
996.861	708
997.157	712.52
997.453	729.47
997.749	735.8
998.044	727.66
998.34	711.39
998.636	701
998.932	709.81
999.227	703.71
999.523	697.38
999.818	687.44
1000.114	713.2
1000.409	692.41
1000.704	702.13
1001	677.72
1001.295	691.96
1001.59	684.5
1001.885	687.67
1002.18	659.64
1002.475	665.75
1002.77	656.93
1003.065	685.86
1003.359	664.62
1003.654	678.4
1003.949	653.54
1004.243	658.29
1004.538	678.63
1004.832	654.9
1005.127	664.84
1005.421	628.01
1005.715	624.16
1006.009	645.41
1006.304	610.83
1006.598	638.63
1006.892	630.04
1007.186	628.46
1007.48	642.02
1007.773	642.69
1008.067	614.67
1008.361	627.78
1008.655	632.07
1008.948	626.2
1009.242	611.96
1009.535	607.44
1009.829	611.28
1010.122	623.49
1010.415	628.46
1010.708	606.99
1011.001	617.16
1011.295	606.99
1011.588	602.24
1011.881	583.94
1012.173	620.1
1012.466	613.32
1012.759	605.18
1013.052	578.52
1013.344	586.65
1013.637	601.11
1013.93	566.54
1014.222	608.35
1014.514	600.44
1014.807	598.63
1015.099	602.24
1015.391	599.08
1015.683	597.5
1015.976	570.15
1016.268	605.63
1016.56	571.51
1016.851	581.45
1017.143	570.15
1017.435	598.4
1017.727	557.05
1018.018	552.98
1018.31	563.83
1018.602	569.02
1018.893	561.12
1019.185	548.23
1019.476	550.95
1019.767	565.41
1020.058	553.21
1020.35	566.09
1020.641	557.73
1020.932	537.16
1021.223	559.08
1021.514	556.6
1021.804	528.8
1022.095	550.27
1022.386	555.92
1022.677	536.26
1022.967	529.03
1023.258	550.49
1023.548	523.6
1023.839	516.82
1024.129	538.29
1024.419	512.53
1024.709	518.18
1025	546.2
1025.29	518.86
1025.58	514.11
1025.87	500.78
1026.16	536.26
1026.449	485.86
1026.739	500.55
1027.029	501.23
1027.319	504.17
1027.608	526.77
1027.898	527.22
1028.187	497.84
1028.477	510.5
1028.766	479.31
1029.055	477.05
1029.344	497.61
1029.634	497.16
1029.923	509.82
1030.212	475.92
1030.501	484.96
1030.79	491.96
1031.078	502.59
1031.367	502.36
1031.656	484.96
1031.945	485.41
1032.233	466.2
1032.522	486.99
1032.81	462.13
1033.099	455.81
1033.387	471.63
1033.675	465.3
1033.963	470.95
1034.251	479.31
1034.54	485.86
1034.828	466.43
1035.116	471.4
1035.403	462.81
1035.691	463.49
1035.979	463.49
1036.267	461.68
1036.554	463.72
1036.842	448.35
1037.129	459.42
1037.417	459.2
1037.704	474.34
1037.992	428.69
1038.279	452.87
1038.566	456.94
1038.853	456.94
1039.14	456.94
