Data from blue_shiny_book_FLMS001491_00068.txt Node
Date: Wed Feb 08 15:27:22 GMT 2017
User: dcchb
Spectrometer: FLMS00149
Trigger mode: 0
Integration Time (sec): 2.000000E-2
Scans to average: 10
Electric dark correction enabled: true
Nonlinearity correction enabled: false
Boxcar width: 0
XAxis mode: Wavelengths
Number of Pixels in Spectrum: 2048
>>>>>Begin Spectral Data<<<<<
341.393	-6.43
341.776	-6.43
342.16	-6.43
342.543	-58.4
342.927	-69.48
343.31	-66.54
343.693	-73.32
344.077	-92.07
344.46	-79.64
344.843	-45.75
345.226	-51.85
345.61	-14.56
345.993	-24.28
346.376	-8.46
346.759	10.52
347.142	29.73
347.525	55.27
347.908	58.43
348.291	84.64
348.674	103.4
349.057	114.47
349.44	121.03
349.823	161.7
350.206	162.83
350.588	220.69
350.971	217.52
351.354	234.92
351.737	255.04
352.119	277.63
352.502	263.62
352.884	304.75
353.267	304.75
353.65	296.16
354.032	308.37
354.414	334.36
354.797	346.33
355.179	343.85
355.562	350.17
355.944	339.55
356.326	343.62
356.709	336.16
357.091	327.58
357.473	356.28
357.855	386.78
358.238	354.47
358.62	356.28
359.002	361.47
359.384	380
359.766	357.41
360.148	368.48
360.53	369.83
360.912	361.93
361.294	351.3
361.676	357.18
362.057	341.36
362.439	347.24
362.821	355.6
363.203	353.56
363.584	344.3
363.966	351.76
364.348	339.55
364.729	352.43
365.111	350.4
365.493	338.42
365.874	345.88
366.256	337.75
366.637	334.36
367.019	327.35
367.4	349.95
367.781	351.08
368.163	341.59
368.544	325.32
368.925	349.72
369.306	353.56
369.688	344.07
370.069	335.94
370.45	336.62
370.831	316.5
371.212	351.53
371.593	365.77
371.974	336.62
372.355	351.08
372.736	338.65
373.117	330.06
373.498	344.52
373.879	346.11
374.26	365.09
374.641	360.8
375.021	340.91
375.402	348.14
375.783	340.91
376.163	387.01
376.544	359.67
376.925	362.83
377.305	389.27
377.686	376.84
378.066	365.09
378.447	378.2
378.827	396.73
379.208	413.68
379.588	378.2
379.968	373.68
380.349	387.24
380.729	390.17
381.109	388.82
381.489	391.3
381.87	422.49
382.25	389.04
382.63	414.81
383.01	412.77
383.39	396.73
383.77	404.41
384.15	412.32
384.53	412.77
384.91	412.09
385.29	431.98
385.67	442.6
386.049	425.88
386.429	443.05
386.809	463.62
387.189	434.01
387.568	429.27
387.948	457.97
388.328	470.17
388.707	459.55
389.087	462.26
389.466	440.57
389.846	465.65
390.225	482.15
390.605	486.22
390.984	481.02
391.363	488.02
391.743	500.45
392.122	493.67
392.501	481.02
392.881	504.75
393.26	526.67
393.639	503.84
394.018	522.6
394.397	522.83
394.776	550.4
395.155	521.92
395.534	533.45
395.913	563.05
396.292	572.99
396.671	560.56
397.05	580
397.429	566.67
397.808	565.31
398.186	582.48
398.565	584.52
398.944	597.17
399.323	610.73
399.701	613.9
400.08	612.77
400.458	623.84
400.837	629.94
401.215	620.45
401.594	614.8
401.972	620
402.351	648.92
402.729	656.16
403.107	656.38
403.486	666.55
403.864	662.03
404.242	685.76
404.62	682.6
404.999	707.45
405.377	685.98
405.755	711.07
406.133	716.72
406.511	739.77
406.889	720.79
407.267	746.55
407.645	750.62
408.023	760.79
408.401	771.41
408.779	796.49
409.156	790.39
409.534	830.84
409.912	835.36
410.29	825.87
410.667	847.11
411.045	857.73
411.422	868.58
411.8	897.28
412.178	896.37
412.555	934.34
412.933	924.17
413.31	931.85
413.687	960.78
414.065	982.7
414.442	988.8
414.819	975.92
415.197	1012.3
415.574	1022.02
415.951	1008.91
416.328	1037.16
416.705	1054.56
417.082	1071.51
417.46	1084.17
417.837	1103.15
418.214	1083.94
418.591	1135.69
418.967	1124.17
419.344	1133.88
419.721	1162.36
420.098	1186.99
420.475	1174.11
420.852	1187.21
421.228	1189.93
421.605	1226.08
421.982	1249.13
422.358	1231.96
422.735	1245.29
423.111	1249.59
423.488	1258.63
423.864	1303.37
424.241	1333.88
424.617	1327.1
424.994	1342.46
425.37	1370.71
425.746	1391.28
426.123	1415.01
426.499	1426.76
426.875	1474.44
427.251	1462.91
427.627	1492.74
428.003	1515.12
428.379	1533.19
428.756	1545.4
429.132	1576.13
429.507	1588.56
429.883	1611.84
430.259	1704.94
430.635	1647.99
431.011	1679.4
431.387	1724.83
431.763	1778.61
432.138	1803.7
432.514	1785.62
432.89	1818.16
433.265	1870.13
433.641	1905.39
434.016	1866.74
434.392	1919.85
434.767	1952.17
435.143	2002.79
435.518	2038.04
435.894	2026.74
436.269	2054.76
436.644	2077.13
437.02	2125.95
437.395	2132.5
437.77	2167.53
438.145	2200.3
438.52	2208.88
438.895	2232.16
439.271	2249.33
439.646	2311.48
440.021	2361.65
440.395	2396.9
440.77	2374.98
441.145	2411.14
441.52	2440.29
441.895	2398.26
442.27	2465.37
442.645	2444.36
443.019	2476.67
443.394	2480.06
443.769	2557.57
444.143	2544.69
444.518	2579.49
444.892	2591.47
445.267	2627.63
445.641	2645.48
446.016	2674.86
446.39	2739.72
446.764	2700.17
447.139	2715.08
447.513	2760.96
447.887	2768.87
448.262	2789.43
448.636	2798.02
449.01	2853.16
449.384	2896.1
449.758	2868.75
450.132	2921.86
450.506	2969.99
450.88	3021.52
451.254	3022.19
451.628	3098.58
452.002	3104.9
452.376	3104.45
452.75	3157.56
453.123	3171.57
453.497	3234.17
453.871	3211.79
454.244	3316.88
454.618	3349.19
454.992	3413.37
455.365	3460.83
455.739	3513.71
456.112	3548.96
456.486	3587.15
456.859	3619.47
457.232	3662.18
457.606	3724.77
457.979	3771.1
458.352	3847.71
458.725	3826.24
459.099	3895.17
459.472	3974.26
459.845	3982.62
460.218	4040.02
460.591	4122.05
460.964	4152.56
461.337	4254.7
461.71	4349.39
462.083	4391.42
462.456	4400.69
462.829	4437.3
463.201	4499.9
463.574	4531.31
463.947	4579.44
464.32	4658.54
464.692	4702.6
465.065	4748.48
465.438	4843.16
465.81	4905.99
466.183	4965.65
466.555	5112.99
466.928	5146.88
467.3	5173.1
467.672	5227.11
468.045	5407.44
468.417	5438.4
468.789	5415.13
469.161	5483.37
469.534	5638.4
469.906	5686.76
470.278	5751.61
470.65	5817.38
471.022	5908.9
471.394	6016.24
471.766	6124.71
472.138	6193.64
472.51	6428.88
472.882	6458.26
473.253	6517.92
473.625	6646.96
473.997	6804.02
474.369	6772.6
474.74	6890.34
475.112	7031.35
475.484	7173.72
475.855	7316.77
476.227	7354.74
476.598	7531.23
476.97	7575.97
477.341	7755.86
477.713	7886.7
478.084	8003.08
478.455	8213.47
478.827	8317.2
479.198	8560.58
479.569	8671.76
479.94	8801.25
480.311	8929.16
480.682	9116.27
481.053	9268.13
481.424	9460.9
481.795	9496.6
482.166	9614.34
482.537	9856.37
482.908	10032.63
483.279	10198.28
483.65	10286.64
484.021	10579.51
484.391	10740.86
484.762	10879.39
485.133	10947.86
485.503	11169.78
485.874	11388.98
486.244	11471.46
486.615	11694.96
486.985	11826.48
487.356	12063.31
487.726	12164.33
488.097	12424.21
488.467	12448.39
488.837	12704.2
489.207	12870.75
489.578	13061.25
489.948	13225.77
490.318	13461.92
490.688	13426.21
491.058	13676.15
491.428	14059.42
491.798	14160.21
492.168	14309.81
492.538	14447.88
492.908	14638.61
493.278	14873.86
493.648	14908.21
494.017	15118.15
494.387	15238.82
494.757	15390
495.126	15590.68
495.496	15696.66
495.866	15820.05
496.235	15982.76
496.605	16213.49
496.974	16272.47
497.344	16371.67
497.713	16538.45
498.082	16719.24
498.452	16825.45
498.821	16973.01
499.19	17050.75
499.559	17208.26
499.928	17289.16
500.298	17534.58
500.667	17579.1
501.036	17589.5
501.405	17868.13
501.774	18043.27
502.143	18123.49
502.512	18251.62
502.88	18439.87
503.249	18454.56
503.618	18760.76
503.987	18755.11
504.356	18867.2
504.724	18934.54
505.093	19095.67
505.462	19131.6
505.83	19216.35
506.199	19419.05
506.567	19688.65
506.936	19671.25
507.304	19955.99
507.672	20099.03
508.041	20082.54
508.409	20408.4
508.777	20525.46
509.145	20819.24
509.514	20848.84
509.882	20927.49
510.25	20991.44
510.618	21103.98
510.986	21190.76
511.354	21511.65
511.722	21602.95
512.09	21797.75
512.458	21789.84
512.826	21963.62
513.193	22157.96
513.561	22233.21
513.929	22514.11
514.297	22631.17
514.664	22769.02
515.032	22995.91
515.4	23148.45
515.767	23254.66
516.135	23432.28
516.502	23386.63
516.869	23809.9
517.237	23838.6
517.604	23872.72
517.972	24118.14
518.339	24211.02
518.706	24352.26
519.073	24447.17
519.44	24695.07
519.808	24929.64
520.175	24918.79
520.542	25220.03
520.909	25478.33
521.276	25533.02
521.643	25836.74
522.009	25956.51
522.376	26198.31
522.743	26381.58
523.11	26634
523.477	26978.17
523.843	27108.34
524.21	27211.84
524.577	27522.12
524.943	27582.9
525.31	27641.89
525.676	27975.21
526.043	27970.01
526.409	28231.25
526.776	28654.29
527.142	28608.19
527.508	28977.44
527.874	29163.88
528.241	29370.43
528.607	29506.47
528.973	29736.75
529.339	29809.51
529.705	30149.16
530.071	30381.25
530.437	30484.3
530.803	30537.4
531.169	30858.98
531.535	30891.29
531.901	31023.04
532.267	31167.9
532.632	31297.16
532.998	31455.57
533.364	31609.01
533.73	31620.31
534.095	31903.24
534.461	31975.33
534.826	32141.43
535.192	32381.65
535.557	32724.69
535.923	32670.23
536.288	32894.4
536.653	33211.68
537.019	33077.9
537.384	33378.91
537.749	33455.07
538.114	33560.37
538.479	33497.55
538.845	33653.48
539.21	33512.47
539.575	33633.82
539.94	33658.68
540.305	34050.08
540.67	33873.13
541.034	34094.15
541.399	34140.25
541.764	34164.2
542.129	34285.55
542.494	34502.5
542.858	34711.53
543.223	34794.92
543.587	35058.19
543.952	35085.76
544.316	35239.2
544.681	35267.22
545.045	35601
545.41	35762.8
545.774	35664.5
546.138	35726.87
546.503	35609.81
546.867	35705.85
547.231	35980.65
547.595	35870.6
547.959	36002.12
548.324	35982.23
548.688	35945.17
549.052	36152.62
549.416	36203.24
549.779	36289.79
550.143	36344.71
550.507	36629.9
550.871	36775.66
551.235	36781.53
551.599	37197.12
551.962	37188.75
552.326	37362.76
552.689	37681.62
553.053	37555.75
553.417	37601.62
553.78	38111.22
554.143	37712.36
554.507	37941.5
554.87	37982.63
555.234	38163.42
555.597	38004.1
555.96	38019.69
556.323	38210.42
556.686	38195.73
557.05	38351.21
557.413	38573.58
557.776	38623.97
558.139	38931.53
558.502	39031.42
558.865	39163.84
559.228	39333.56
559.59	39564.74
559.953	39635.24
560.316	40070.49
560.679	40079.07
561.041	40309.58
561.404	40568.78
561.767	40856.23
562.129	40764.48
562.492	41039.95
562.854	40800.64
563.217	40856.91
563.579	40822.33
563.941	41007.41
564.304	41251.92
564.666	41373.95
565.028	41226.84
565.39	41425.25
565.753	41461.41
566.115	41750.44
566.477	41905.47
566.839	42039.47
567.201	42297.09
567.563	42340.26
567.925	42786.35
568.287	42918.55
568.648	42973.46
569.01	43351.76
569.372	43545.87
569.734	43456.84
570.095	43697.28
570.457	43770.5
570.819	43868.35
571.18	43910.16
571.542	43994.68
571.903	44094.11
572.265	44141.79
572.626	43902.48
572.987	44078.29
573.349	44069.7
573.71	44306.98
574.071	44261.34
574.432	44330.03
574.794	44703.58
575.155	44656.35
575.516	44669.69
575.877	44761.21
576.238	44996.46
576.599	45269.45
576.96	45284.81
577.32	45492.26
577.681	45764.57
578.042	45896.55
578.403	45901.75
578.763	46061.97
579.124	46022.42
579.485	46044.57
579.845	46280.72
580.206	46064.23
580.566	46027.84
580.927	45924.8
581.287	46168.63
581.648	45945.59
582.008	46125.92
582.368	45955.08
582.728	45972.48
583.089	45914.4
583.449	45979.26
583.809	45968.41
584.169	46077.33
584.529	46091.12
584.889	46410.88
585.249	46327.5
585.609	46308.74
585.969	46796.41
586.329	46595.06
586.688	46741.95
587.048	46696.07
587.408	46783.98
587.768	46978.78
588.127	46893.13
588.487	46724.77
588.846	47081.15
589.206	46736.98
589.565	46764.55
589.925	46734.72
590.284	46574.5
590.643	46533.37
591.003	46632.57
591.362	46732.68
591.721	46438.23
592.08	46459.7
592.44	46648.62
592.799	46528.17
593.158	46471.9
593.517	46633.25
593.876	46749.18
594.235	46633.03
594.593	46829.86
594.952	46954.82
595.311	46897.43
595.67	47129.28
596.029	47365.21
596.387	47427.13
596.746	47514.13
597.104	47368.15
597.463	47400.46
597.822	47557.07
598.18	47402.95
598.538	47427.35
598.897	47619.67
599.255	47198.89
599.613	47755.48
599.972	47242.05
600.33	47325.89
600.688	47072.79
601.046	47230.98
601.404	47209.73
601.762	47066.01
602.12	47318.43
602.478	47253.57
602.836	47363.85
603.194	47288.38
603.552	47488.37
603.91	47319.56
604.268	47472.33
604.625	47486.56
604.983	47641.59
605.341	47626.9
605.698	47691.98
606.056	47936.95
606.413	48020.79
606.771	48201.57
607.128	48183.04
607.485	48027.34
607.843	48235.02
608.2	48391.62
608.557	48406.31
608.914	48295.13
609.272	48440.44
609.629	48222.14
609.986	48344.39
610.343	48164.74
610.7	48320.66
611.057	48205.19
611.414	48018.98
611.771	48073.89
612.127	48237.5
612.484	48156.6
612.841	48364.73
613.198	48227.56
613.554	48334.9
613.911	48597.95
614.267	48615.12
614.624	48612.41
614.98	48832.97
615.337	49049.46
615.693	49023.47
616.05	48930.59
616.406	49288.55
616.762	49071.38
617.118	49210.58
617.475	49285.38
617.831	49262.56
618.187	49352.95
618.543	49437.92
618.899	49502.1
619.255	49471.14
619.611	49418.49
619.967	49396.57
620.323	49412.39
620.678	49059.4
621.034	49182.11
621.39	49128.55
621.746	48947.09
622.101	49351.82
622.457	48950.25
622.812	48982.79
623.168	49095.79
623.523	49035
623.879	49156.8
624.234	49035.22
624.589	49176.69
624.945	49271.83
625.3	49443.8
625.655	49279.74
626.01	49492.61
626.365	49450.8
626.72	49470.01
627.075	49706.62
627.43	49680.63
627.785	49580.97
628.14	49813.05
628.495	49733.28
628.85	49607.18
629.205	49606.51
629.559	49606.73
629.914	49361.77
630.269	49436.34
630.623	49301.43
630.978	49147.99
631.332	49250.13
631.687	49300.07
632.041	49050.59
632.396	49058.95
632.75	48794.1
633.104	48812.85
633.459	48563.82
633.813	48615.12
634.167	48720.43
634.521	48605.85
634.875	48599.3
635.229	48492.19
635.583	48434.79
635.937	48553.2
636.291	48630.94
636.645	48711.61
636.999	48609.47
637.352	48748.22
637.706	48558.4
638.06	48864.15
638.413	48676.14
638.767	48660.99
639.121	48713.87
639.474	48458.51
639.828	48541.9
640.181	48501.9
640.534	48416.26
640.888	48189.59
641.241	48056.94
641.594	48149.82
641.947	48129.71
642.301	48032.76
642.654	48016.04
643.007	47941.01
643.36	47806.1
643.713	47705.99
644.066	47720.91
644.419	47597.29
644.771	47506.45
645.124	47214.93
645.477	47352.1
645.83	46964.99
646.182	46666.7
646.535	46351.45
646.888	46181.74
647.24	45972.48
647.593	46129.31
647.945	46036.43
648.298	45888.86
648.65	45805.7
649.002	45789.43
649.355	46160.95
649.707	46411.79
650.059	46742.17
650.411	47265.78
650.763	47259.68
651.115	47454.92
651.467	47297.87
651.819	47312.33
652.171	47372.44
652.523	47183.75
652.875	47063.52
653.227	46878.67
653.578	47292.89
653.93	46951.21
654.282	46798.44
654.633	46541.28
654.985	46670.99
655.337	46560.94
655.688	46423.54
656.039	46586.92
656.391	46214.96
656.742	46286.14
657.094	46397.1
657.445	46441.39
657.796	46410.66
658.147	46330.89
658.498	46263.77
658.849	46410.21
659.2	46327.04
659.551	46328.17
659.902	46596.19
660.253	46607.94
660.604	46703.76
660.955	46454.27
661.306	46739.92
661.656	46660.37
662.007	46626.02
662.358	46639.8
662.708	46806.13
663.059	46640.03
663.409	46342.19
663.76	46638
664.11	46524.33
664.461	46529.07
664.811	46416.53
665.161	46412.92
665.511	46166.82
665.862	46331.34
666.212	46231.68
666.562	46120.95
666.912	46077.79
667.262	46153.26
667.612	46075.53
667.962	46052.02
668.312	45926.15
668.662	46075.75
669.011	45938.81
669.361	45830.33
669.711	45825.81
670.06	45796.21
670.41	45799.37
670.76	45671.69
671.109	45819.71
671.459	45677.12
671.808	45659.49
672.157	45854.06
672.507	45563.67
672.856	45669.21
673.205	45735.65
673.554	45996.88
673.904	45835.76
674.253	46118.46
674.602	46028.3
674.951	45396.22
675.3	45346.51
675.649	45932.03
675.998	45667.4
676.346	45753.27
676.695	45760.96
677.044	45573.62
677.393	45465.6
677.741	45428.31
678.09	45213.63
678.438	45077.81
678.787	45140.64
679.135	44796.46
679.484	44549.46
679.832	44869.46
680.181	44543.59
680.529	44382.46
680.877	44262.01
681.225	44302.01
681.573	44439.41
681.922	44108.35
682.27	44187.21
682.618	44195.35
682.966	44059.53
683.314	43987.67
683.661	44001.23
684.009	43824.51
684.357	43822.48
684.705	43739.77
685.053	43879.43
685.4	43879.2
685.748	43747.45
686.095	43814.57
686.443	43665.19
686.79	43659.09
687.138	43871.06
687.485	43793.78
687.832	43657.96
688.18	43674.68
688.527	43533.9
688.874	43316.28
689.221	43253.23
689.568	43016.85
689.915	42954.48
690.262	43036.28
690.609	42883.52
690.956	42690.76
691.303	42436.3
691.65	42209.64
691.997	42183.65
692.344	41831.57
692.69	41809.42
693.037	41746.6
693.383	41295.31
693.73	41363.79
694.077	41052.38
694.423	41046.96
694.769	40890.35
695.116	40698.49
695.462	40604.48
695.808	40636.12
696.155	40572.17
696.501	40309.58
696.847	40350.03
697.193	40212.86
697.539	40243.36
697.885	40026.65
698.231	40048.79
698.577	39983.93
698.923	39993.43
699.269	39937.16
699.614	39875.24
699.96	39705.3
700.306	39824.84
700.651	39710.27
700.997	39687.45
701.342	39554.34
701.688	39378.07
702.033	39338.98
702.379	39336.27
702.724	39300.34
703.069	39491.07
703.415	38869.39
703.76	38943.06
704.105	38753.68
704.45	38503.52
704.795	38260.82
705.14	38033.25
705.485	37907.6
705.83	37810.21
706.175	37606.37
706.52	37390.1
706.865	37230.79
707.209	37226.49
707.554	36979.27
707.899	36979.27
708.243	36706.51
708.588	36824.24
708.932	36709.9
709.277	36702.89
709.621	36658.6
709.966	36379.51
710.31	36417.7
710.654	36135.45
710.998	36410.47
711.342	36441.88
711.687	36326.63
712.031	36233.98
712.375	36254.77
712.719	36442.56
713.063	36188.78
713.407	36445.27
713.75	36113.75
714.094	36345.39
714.438	36231.49
714.782	36344.26
715.125	36132.51
715.469	36275.56
715.812	36087.09
716.156	35758.73
716.499	35811.16
716.843	35856.81
717.186	35303.38
717.53	35492.08
717.873	35557.61
718.216	35287.11
718.559	35119.43
718.902	34759.67
719.246	35153.1
719.589	34936.84
719.932	34795.6
720.275	34658.88
720.617	34550.63
720.96	34430.18
721.303	34257.98
721.646	34467.7
721.989	34006.01
722.331	34203.97
722.674	34013.24
723.016	33882.4
723.359	33899.35
723.701	33874.04
724.044	33782.06
724.386	33586.81
724.729	33879.24
725.071	33794.94
725.413	33822.06
725.755	33805.79
726.097	33848.5
726.439	33683.54
726.782	33748.17
727.124	34103.19
727.465	33830.88
727.807	33828.62
728.149	33865.23
728.491	33908.16
728.833	33902.06
729.175	33887.37
729.516	33843.98
729.858	33891.89
730.199	33943.42
730.541	33895.51
730.882	33799.92
731.224	33924.21
731.565	33594.72
731.906	33559.24
732.248	33686.25
732.589	33494.16
732.93	33246.48
733.271	33339.59
733.612	33401.51
733.953	33260.04
734.294	33136.2
734.635	33057.11
734.976	33126.94
735.317	32888.75
735.658	32924.23
735.999	32844.01
736.339	32724.92
736.68	32828.64
737.021	32703
737.361	32441.08
737.702	32589.55
738.042	32488.31
738.383	32603.34
738.723	32630.46
739.063	32506.62
739.404	32684.69
739.744	32651.7
740.084	32406.73
740.424	32533.96
740.764	32641.08
741.104	32812.37
741.444	32683.11
741.784	32666.84
742.124	32794.75
742.464	32854.63
742.804	32889.43
743.143	32941.18
743.483	33060.5
743.823	32879.49
744.162	33064.79
744.502	33140.95
744.841	32932.14
745.181	33126.04
745.52	32976.89
745.86	33137.33
746.199	33138.01
746.538	33008.3
746.877	33112.93
747.216	33153.61
747.556	33008.98
747.895	32919.26
748.234	32785.03
748.573	32634.98
748.911	32628.87
749.25	32750.45
749.589	32681.75
749.928	32673.84
750.267	32755.65
750.605	32528.09
750.944	32493.06
751.283	32471.14
751.621	32570.8
751.96	32346.4
752.298	32459.16
752.636	32539.61
752.975	32345.49
753.313	32211.26
753.651	32452.83
753.989	32192.95
754.327	32240.18
754.666	32094.88
755.004	32249.9
755.342	32375.55
755.679	32423
756.017	32454.64
756.355	32478.6
756.693	32434.75
757.031	32628.65
757.368	32504.81
757.706	32490.8
758.044	32519.5
758.381	32594.52
758.719	32568.99
759.056	32620.51
759.394	32663
759.731	32482.66
760.068	32694.41
760.405	32567.41
760.743	32536.9
761.08	32669.55
761.417	32529.22
761.754	32755.88
762.091	32571.93
762.428	32421.87
762.765	32239.05
763.102	32330.58
763.438	32201.31
763.775	32100.07
764.112	32110.02
764.449	32236.12
764.785	31945.5
765.122	31960.42
765.458	31702.57
765.795	31654.66
766.131	31587.55
766.467	31498.73
766.804	31305.29
767.14	31252.19
767.476	31266.88
767.812	31245.63
768.148	31245.86
768.485	30983.72
768.821	31001.57
769.157	30696.04
769.492	30686.33
769.828	30770.62
770.164	30494.92
770.5	30488.37
770.836	30534.01
771.171	30354.81
771.507	30428.71
771.842	30123.18
772.178	30134.02
772.513	30134.02
772.849	30007.7
773.184	29987.81
773.519	30066.23
773.855	29798.21
774.19	29746.69
774.525	29754.37
774.86	29858.78
775.195	29715.96
775.53	29683.87
775.865	29629.86
776.2	29472.8
776.535	29291.79
776.87	29320.94
777.205	29127.04
777.539	29027.61
777.874	29224.22
778.209	28787.84
778.543	28890.67
778.878	28850.44
779.212	28708.07
779.547	28631.01
779.881	28727.51
780.215	28515.76
780.55	28423.56
780.884	28312.6
781.218	28188.54
781.552	28131.14
781.886	27873.29
782.22	27694.77
782.554	27575.9
782.888	27358.96
783.222	27172.52
783.556	27188.11
783.889	27008.46
784.223	26865.64
784.557	26937.27
784.89	26755.36
785.224	26634.91
785.557	26566.89
785.891	26561.24
786.224	26402.14
786.558	26269.49
786.891	26058.88
787.224	25765.78
787.557	25802.61
787.891	25825.89
788.224	25866.57
788.557	25727.36
788.89	25749.96
789.223	25688.04
789.556	25635.39
789.888	25579.79
790.221	25624.76
790.554	25333.47
790.887	25327.82
791.219	25363.75
791.552	25216.19
791.884	25306.58
792.217	25064.78
792.549	24990.43
792.882	24792.47
793.214	24724.67
793.546	25034.5
793.879	24772.81
794.211	24581.4
794.543	24769.65
794.875	24584.34
795.207	24669.08
795.539	24502.99
795.871	24333.27
796.203	24215.54
796.535	24133.28
796.867	24083.34
797.198	23997.91
797.53	23908.2
797.862	23677.7
798.193	23688.77
798.525	23606.06
798.856	23613.29
799.188	23299.85
799.519	23201.55
799.85	23093.08
800.182	23136.92
800.513	23154.55
800.844	22936.7
801.175	22985.06
801.506	22979.86
801.837	22792.75
802.168	22678.4
802.499	22721.79
802.83	22485.86
803.161	22565.18
803.491	22426.43
803.822	22461.91
804.153	22314.12
804.483	22056.72
804.814	22075.03
805.145	22114.12
805.475	21969.27
805.805	21891.75
806.136	21898.53
806.466	21991.19
806.796	21922.71
807.126	21718.43
807.457	21704.64
807.787	21699.44
808.117	21595.94
808.447	21527.7
808.777	21631.42
809.107	21533.35
809.436	21394.59
809.766	21415.16
810.096	21317.53
810.426	21262.62
810.755	21355.72
811.085	21222.62
811.414	21071.44
811.744	21132.23
812.073	20986.69
812.403	21141.49
812.732	20820.14
813.061	21000.48
813.39	20906.24
813.719	20826.47
814.049	20946.24
814.378	20729.75
814.707	20674.84
815.036	20753.03
815.365	20606.14
815.693	20339.25
816.022	20445.47
816.351	20355.52
816.68	20202.76
817.008	20252.48
817.337	20001.64
817.665	20007.74
817.994	20100.62
818.322	20155.08
818.651	19904.24
818.979	19734.07
819.307	19920.51
819.636	19778.14
819.964	19616.11
820.292	19713.73
820.62	19791.47
820.948	19591.93
821.276	19685.03
821.604	19512.61
821.932	19630.12
822.259	19476
822.587	19531.14
822.915	19464.25
823.243	19646.84
823.57	19436.68
823.898	19483
824.225	19351.93
824.553	19368.66
824.88	19457.92
825.207	19508.77
825.535	19455.66
825.862	19470.8
826.189	19398.04
826.516	19537.69
826.843	19577.47
827.17	19610.91
827.497	19471.93
827.824	19578.6
828.151	19497.24
828.478	19448.43
828.805	19523.23
829.131	19564.13
829.458	19562.32
829.785	19465.83
830.111	19397.13
830.438	19695.88
830.764	19566.62
831.09	19531.14
831.417	19462.44
831.743	19510.35
832.069	19471.48
832.395	19501.54
832.722	19519.84
833.048	19466.06
833.374	19552.16
833.7	19467.86
834.026	19509.67
834.351	19506.05
834.677	19407.3
835.003	19482.33
835.329	19451.14
835.654	19441.88
835.98	19271.26
836.306	19370.47
836.631	19247.53
836.956	19297.25
837.282	19295.66
837.607	19143.8
837.932	19165.27
838.258	19043.92
838.583	18917.37
838.908	18722.12
839.233	18937.03
839.558	18858.61
839.883	18766.64
840.208	18620.2
840.533	18755.79
840.858	18742.23
841.182	18724.38
841.507	18681.22
841.832	18453.88
842.156	18436.48
842.481	18377.27
842.805	18385.86
843.13	18208.01
843.454	18248.01
843.778	18062.48
844.103	18119.2
844.427	18093.44
844.751	18047.79
845.075	17896.15
845.399	17973.89
845.723	17895.25
846.047	17898.64
846.371	17781.58
846.695	17809.38
847.019	17599.44
847.343	17733.9
847.666	17586.78
847.99	17575.71
848.313	17494.13
848.637	17393.57
848.96	17293.68
849.284	17435.15
849.607	17195.38
849.931	17151.99
850.254	17072.45
850.577	16992.22
850.9	16863.64
851.223	16838.33
851.546	16825
851.869	16770.99
852.192	16766.92
852.515	16700.03
852.838	16568.51
853.161	16559.01
853.483	16484.44
853.806	16478.34
854.129	16452.12
854.451	16295.52
854.774	16381.84
855.096	16164
855.419	16258
855.741	16120.61
856.063	16023.21
856.385	16064.11
856.708	16060.5
857.03	15861.18
857.352	15804.23
857.674	15770.33
857.996	15791.35
858.318	15636.33
858.64	15624.12
858.961	15591.58
859.283	15518.82
859.605	15423.22
859.926	15406.73
860.248	15349.33
860.57	15316.33
860.891	15272.72
861.212	15298.48
861.534	15251.7
861.855	15106.4
862.176	15077.02
862.498	15007.64
862.819	14992.28
863.14	14922.45
863.461	14795.22
863.782	14767.2
864.103	14948.21
864.424	14654.66
864.745	14817.82
865.065	14764.26
865.386	14695.56
865.707	14747.54
866.027	14685.39
866.348	14664.6
866.668	14615.11
866.989	14631.15
867.309	14430.93
867.63	14527.88
867.95	14582.12
868.27	14464.61
868.59	14524.04
868.91	14567.88
869.23	14510.03
869.55	14484.72
869.87	14569.01
870.19	14488.33
870.51	14414.66
870.83	14507.77
871.15	14416.47
871.469	14403.82
871.789	14411.5
872.109	14460.76
872.428	14375.12
872.748	14384.61
873.067	14388.68
873.386	14484.94
873.706	14407.88
874.025	14341.44
874.344	14315.23
874.663	14274.1
874.982	14245.4
875.301	14218.74
875.62	14129.25
875.939	14061.9
876.258	14212.86
876.577	14023.26
876.896	14111.17
877.214	14035.01
877.533	14053.54
877.852	14049.25
878.17	13940.1
878.489	13988.46
878.807	13883.15
879.125	13931.06
879.444	13876.15
879.762	13763.61
880.08	13832.31
880.398	13715.92
880.716	13682.25
881.034	13674.12
881.352	13606.32
881.67	13523.84
881.988	13628.92
882.306	13508.25
882.624	13426.44
882.941	13406.78
883.259	13372.43
883.577	13398.42
883.894	13334.47
884.212	13255.15
884.529	13298.76
884.846	13254.92
885.164	13196.62
885.481	13041.14
885.798	13134.02
886.115	12936.28
886.432	12872.33
886.75	12927.92
887.067	12891.31
887.383	12820.81
887.7	12876.17
888.017	12887.92
888.334	12810.86
888.651	12854.7
888.967	12764.09
889.284	12746.01
889.6	12729.96
889.917	12663.97
890.233	12713.69
890.55	12611.77
890.866	12656.52
891.182	12618.78
891.498	12537.88
891.815	12664.2
892.131	12539.23
892.447	12581.49
892.763	12461.49
893.079	12421.04
893.395	12398.22
893.71	12389.41
894.026	12440.7
894.342	12382.63
894.657	12307.37
894.973	12288.84
895.289	12343.76
895.604	12253.59
895.92	12128.17
896.235	12058.79
896.55	12059.92
896.865	12066.02
897.181	12022.18
897.496	12012.69
897.811	11940.83
898.126	11936.08
898.441	11866.26
898.756	11820.38
899.071	11747.61
899.386	11743.77
899.7	11694.96
900.015	11643.89
900.33	11524.57
900.644	11586.94
900.959	11532.71
901.273	11474.4
901.588	11401.64
901.902	11353.5
902.216	11344.01
902.531	11242.77
902.845	11229.44
903.159	11209.1
903.473	11078.93
903.787	11101.53
904.101	10949.44
904.415	10956.45
904.729	10884.81
905.042	10746.29
905.356	10756.45
905.67	10723.23
905.984	10709
906.297	10624.48
906.611	10529.79
906.924	10612.05
907.237	10479.85
907.551	10512.39
907.864	10432.85
908.177	10392.17
908.491	10316.24
908.804	10326.86
909.117	10187.66
909.43	10156.92
909.743	10108.56
910.056	10132.52
910.368	10063.37
910.681	10046.42
910.994	10005.97
911.307	9980.43
911.619	9872.64
911.932	9923.26
912.244	9897.04
912.557	9879.42
912.869	9834.22
913.181	9744.05
913.494	9744.96
913.806	9695.92
914.118	9674
914.43	9636.71
914.742	9635.35
915.054	9566.88
915.366	9603.94
915.678	9467.22
915.99	9438.75
916.302	9463.61
916.613	9467
916.925	9434.91
917.236	9399.65
917.548	9366.43
917.859	9355.81
918.171	9351.07
918.482	9322.59
918.794	9286.21
919.105	9266.1
919.416	9159.21
919.727	9179.09
920.038	9145.88
920.349	9031.08
920.66	9003.28
920.971	8980.23
921.282	9056.39
921.593	8888.03
921.903	8829.27
922.214	8821.82
922.525	8799.9
922.835	8763.96
923.146	8729.62
923.456	8669.05
923.767	8611.65
924.077	8674.93
924.387	8579.56
924.697	8490.75
925.008	8436.74
925.318	8428.38
925.628	8492.11
925.938	8361.49
926.248	8312.45
926.558	8242.17
926.867	8155.84
927.177	8155.62
927.487	8128.27
927.796	8003.76
928.106	8011.22
928.416	7992.69
928.725	7913.14
929.034	7806.02
929.344	7785.69
929.653	7793.14
929.962	7748.62
930.271	7739.36
930.581	7673.15
930.89	7639.25
931.199	7611.68
931.508	7535.07
931.817	7583.2
932.125	7464.11
932.434	7448.52
932.743	7377.79
933.051	7358.8
933.36	7368.52
933.669	7262.76
933.977	7331.01
934.286	7294.4
934.594	7260.28
934.902	7164.01
935.21	7206.72
935.519	7164.01
935.827	7161.97
936.135	7171.01
936.443	7126.95
936.751	7058.47
937.059	7061.41
937.367	7084.91
937.674	7081.97
937.982	7051.92
938.29	6963.33
938.597	6945.93
938.905	6956.55
939.213	6886.5
939.52	6913.17
939.827	6893.51
940.135	6849.66
940.442	6827.74
940.749	6800.17
941.056	6781.87
941.363	6723.79
941.67	6743.68
941.977	6710.01
942.284	6608.31
942.591	6659.16
942.898	6680.18
943.205	6643.12
943.511	6549.11
943.818	6551.59
944.125	6506.62
944.431	6472.27
944.738	6505.72
945.044	6496.68
945.35	6401.31
945.657	6426.62
945.963	6402.67
946.269	6326.06
946.575	6322.9
946.881	6321.54
947.187	6274.31
947.493	6256.91
947.799	6172.62
948.105	6128.78
948.41	6136.46
948.716	6091.27
949.022	6037.71
949.327	6031.15
949.633	5934.43
949.938	5921.33
950.244	5999.74
950.549	5890.37
950.854	5876.13
951.16	5890.14
951.465	5815.34
951.77	5758.62
952.075	5741.9
952.38	5690.37
952.685	5710.26
952.99	5650.83
953.294	5634.56
953.599	5572.64
953.904	5571.73
954.209	5510.94
954.513	5483.15
954.818	5445.86
955.122	5474.11
955.426	5437.27
955.731	5383.71
956.035	5351.85
956.339	5339.65
956.643	5379.65
956.948	5268.01
957.252	5300.55
957.556	5240.67
957.86	5273.43
958.163	5222.14
958.467	5223.94
958.771	5227.56
959.075	5133.33
959.378	5112.31
959.682	5114.34
959.985	5098.07
960.289	5141.46
960.592	5069.37
960.896	5031.63
961.199	5025.53
961.502	5014.01
961.805	5001.35
962.108	4979.66
962.411	4969.71
962.714	4909.6
963.017	4884.07
963.32	4917.51
963.623	4880.22
963.926	4882.48
964.228	4866.67
964.531	4824.86
964.833	4835.48
965.136	4812.2
965.438	4780.34
965.741	4831.86
966.043	4748.93
966.345	4756.39
966.648	4709.16
966.95	4694.47
967.252	4680
967.554	4635.03
967.856	4617.63
968.158	4620.8
968.46	4562.72
968.761	4585.09
969.063	4571.31
969.365	4553.23
969.666	4568.37
969.968	4518.65
970.269	4506.22
970.571	4489.27
970.872	4489.27
971.174	4435.94
971.475	4446.56
971.776	4376.28
972.077	4353.23
972.378	4387.36
972.679	4335.83
972.98	4321.37
973.281	4321.6
973.582	4313.91
973.883	4240.92
974.183	4252.67
974.484	4235.95
974.785	4169.51
975.085	4160.02
975.386	4150.98
975.686	4140.81
975.986	4126.57
976.287	4095.84
976.587	4020.13
976.887	4020.81
977.187	3981.04
977.487	4003.64
977.787	4013.35
978.087	3903.08
978.387	3923.19
978.687	3891.55
978.987	3917.76
979.286	3839.35
979.586	3858.33
979.885	3829.86
980.185	3797.77
980.484	3795.28
980.784	3738.56
981.083	3728.62
981.382	3699.46
981.682	3700.82
981.981	3698.11
982.28	3679.35
982.579	3667.83
982.878	3682.74
983.177	3621.73
983.475	3596.42
983.774	3570.65
984.073	3580.37
984.372	3571.33
984.67	3552.35
984.969	3527.72
985.267	3506.7
985.566	3496.76
985.864	3489.98
986.162	3477.32
986.461	3485.01
986.759	3499.24
987.057	3417.21
987.355	3446.36
987.653	3470.77
987.951	3388.51
988.249	3392.81
988.547	3401.85
988.844	3359.36
989.142	3355.97
989.44	3332.92
989.737	3314.16
990.035	3317.1
990.332	3300.38
990.63	3269.42
990.927	3249.53
991.224	3265.35
991.521	3233.26
991.819	3228.97
992.116	3228.97
992.413	3220.61
992.71	3206.37
993.006	3195.98
993.303	3165.92
993.6	3162.53
993.897	3137.45
994.193	3158.01
994.49	3113.94
994.787	3120.27
995.083	3099.93
995.379	3075.53
995.676	3053.38
995.972	3038.01
996.268	3032.82
996.565	3021.06
996.861	2971.8
997.157	2994.4
997.453	3033.04
997.749	2979.26
998.044	2972.7
998.34	2952.59
998.636	2933.16
998.932	2899.03
999.227	2841.63
999.523	2860.62
999.818	2863.78
1000.114	2803.67
1000.409	2770.9
1000.704	2788.98
1001	2791.69
1001.295	2740.85
1001.59	2734.74
1001.885	2717.34
1002.18	2689.32
1002.475	2705.59
1002.77	2634.41
1003.065	2625.82
1003.359	2650.23
1003.654	2626.5
1003.949	2602.32
1004.243	2605.48
1004.538	2593.96
1004.832	2571.81
1005.127	2547.86
1005.421	2494.52
1005.715	2494.75
1006.009	2525.94
1006.304	2438.48
1006.598	2439.39
1006.892	2427.41
1007.186	2389.44
1007.48	2412.95
1007.773	2376.34
1008.067	2371.59
1008.361	2349.22
1008.655	2340.4
1008.948	2325.26
1009.242	2319.39
1009.535	2296.79
1009.829	2269.22
1010.122	2286.85
1010.415	2235.1
1010.708	2243.23
1011.001	2196.23
1011.295	2243.91
1011.588	2217.24
1011.881	2203.46
1012.173	2182.44
1012.466	2185.61
1012.759	2165.49
1013.052	2195.1
1013.344	2165.95
1013.637	2137.7
1013.93	2133.63
1014.222	2135.21
1014.514	2111.03
1014.807	2110.81
1015.099	2087.53
1015.391	2091.15
1015.683	2100.86
1015.976	2044.14
1016.268	2026.74
1016.56	2022.22
1016.851	2026.06
1017.143	2004.82
1017.435	2005.72
1017.727	1990.36
1018.018	1967.31
1018.31	1975.22
1018.602	1923.69
1018.893	1946.74
1019.185	1902.45
1019.476	1899.29
1019.767	1909
1020.058	1918.04
1020.35	1870.81
1020.641	1888.89
1020.932	1832.85
1021.223	1829.46
1021.514	1829.91
1021.804	1826.97
1022.095	1824.26
1022.386	1794.43
1022.677	1787.42
1022.967	1786.29
1023.258	1755.56
1023.548	1792.4
1023.839	1758.05
1024.129	1756.01
1024.419	1763.7
1024.709	1693.87
1025	1702.46
1025.29	1695.22
1025.58	1657.94
1025.87	1678.73
1026.16	1674.43
1026.449	1667.65
1026.739	1644.83
1027.029	1632.4
1027.319	1603.02
1027.608	1614.77
1027.898	1588.56
1028.187	1580.2
1028.477	1587.66
1028.766	1561.89
1029.055	1530.71
1029.344	1529.58
1029.634	1511.05
1029.923	1492.07
1030.212	1477.83
1030.501	1470.82
1030.79	1444.83
1031.078	1473.08
1031.367	1448
1031.656	1462.46
1031.945	1456.59
1032.233	1429.47
1032.522	1414.78
1032.81	1406.42
1033.099	1373.2
1033.387	1431.05
1033.675	1411.62
1033.963	1371.16
1034.251	1357.38
1034.54	1341.79
1034.828	1322.13
1035.116	1322.58
1035.403	1334.1
1035.691	1306.08
1035.979	1297.95
1036.267	1288.91
1036.554	1270.83
1036.842	1252.52
1037.129	1276.25
1037.417	1254.11
1037.704	1250.04
1037.992	1243.48
1038.279	1238.74
1038.566	1210.49
1038.853	1210.49
1039.14	1210.49
