Data from blue_clamp_base_FLMS001491_00075.txt Node
Date: Wed Feb 08 15:16:29 GMT 2017
User: dcchb
Spectrometer: FLMS00149
Trigger mode: 0
Integration Time (sec): 2.000000E-2
Scans to average: 10
Electric dark correction enabled: true
Nonlinearity correction enabled: false
Boxcar width: 0
XAxis mode: Wavelengths
Number of Pixels in Spectrum: 2048
>>>>>Begin Spectral Data<<<<<
341.393	11.34
341.776	11.34
342.16	11.34
342.543	-57.81
342.927	-56.68
343.31	-59.84
343.693	-68.88
344.077	-57.13
344.46	-49.45
344.843	-47.41
345.226	-50.58
345.61	-33.86
345.993	-29.79
346.376	-8.32
346.759	16.31
347.142	6.6
347.525	39.59
347.908	65.58
348.291	76.88
348.674	94.28
349.057	106.03
349.44	116.2
349.823	140.38
350.206	176.08
350.588	199.13
350.971	225.12
351.354	235.74
351.737	251.56
352.119	254.72
352.502	270.32
352.884	277.55
353.267	291.33
353.65	280.04
354.032	315.74
354.414	334.5
354.797	313.03
355.179	324.1
355.562	327.94
355.944	348.06
356.326	348.96
356.709	359.13
357.091	341.73
357.473	365.91
357.855	342.18
358.238	334.95
358.62	343.08
359.002	341.5
359.384	332.91
359.766	362.07
360.148	335.4
360.53	353.71
360.912	335.17
361.294	331.11
361.676	348.51
362.057	350.54
362.439	342.86
362.821	355.51
363.203	333.59
363.584	341.95
363.966	350.99
364.348	337.89
364.729	339.47
365.111	323.65
365.493	339.92
365.874	346.02
366.256	340.6
366.637	350.77
367.019	355.97
367.4	320.71
367.781	313.03
368.163	350.32
368.544	332.91
368.925	311.45
369.306	332.46
369.688	348.28
370.069	346.47
370.45	344.89
370.831	349.41
371.212	334.27
371.593	327.04
371.974	324.1
372.355	326.36
372.736	337.89
373.117	325.23
373.498	342.86
373.879	338.34
374.26	335.17
374.641	336.98
375.021	320.94
375.402	352.58
375.783	354.38
376.163	364.55
376.544	328.85
376.925	352.12
377.305	362.29
377.686	340.6
378.066	357.55
378.447	362.29
378.827	371.78
379.208	364.55
379.588	336.76
379.968	355.06
380.349	346.25
380.729	376.76
381.109	339.92
381.489	370.88
381.87	370.43
382.25	369.75
382.63	364.78
383.01	354.38
383.39	377.21
383.77	374.5
384.15	390.31
384.53	388.96
384.91	373.14
385.29	372.46
385.67	400.48
386.049	406.36
386.429	393.7
386.809	384.21
387.189	399.58
387.568	380.37
387.948	399.35
388.328	399.58
388.707	422.4
389.087	417.43
389.466	401.61
389.846	420.6
390.225	402.29
390.605	426.25
390.984	422.86
391.363	423.31
391.743	445
392.122	435.51
392.501	455.85
392.881	438.9
393.26	456.08
393.639	446.36
394.018	461.27
394.397	456.3
394.776	474.15
395.155	451.56
395.534	466.92
395.913	472.12
396.292	481.16
396.671	499.92
397.05	461.95
397.429	472.8
397.808	482.06
398.186	477.77
398.565	514.61
398.944	534.04
399.323	493.14
399.701	494.72
400.08	485.68
400.458	515.74
400.837	521.16
401.215	518.22
401.594	531.33
401.972	554.15
402.351	533.14
402.729	521.84
403.107	557.09
403.486	581.5
403.864	567.03
404.242	572
404.62	593.25
404.999	582.63
405.377	596.41
405.755	619.01
406.133	601.83
406.511	590.76
406.889	624.43
407.267	623.75
407.645	616.52
408.023	640.93
408.401	642.29
408.779	641.38
409.156	662.85
409.534	636.41
409.912	665.56
410.29	679.35
410.667	702.4
411.045	713.24
411.422	713.02
411.8	711.89
412.178	719.12
412.555	720.93
412.933	734.03
413.31	750.08
413.687	776.07
414.065	772.45
414.442	776.75
414.819	772.68
415.197	794.15
415.574	824.65
415.951	803.64
416.328	799.34
416.705	813.13
417.082	823.52
417.46	811.55
417.837	863.75
418.214	843.64
418.591	869.85
418.967	862.84
419.344	886.57
419.721	914.14
420.098	887.7
420.475	897.19
420.852	918.66
421.228	915.27
421.605	914.59
421.982	927.93
422.358	927.93
422.735	938.77
423.111	950.3
423.488	981.71
423.864	968.15
424.241	980.58
424.617	1017.64
424.994	1017.64
425.37	1019.22
425.746	1019.68
426.123	1014.7
426.499	1047.02
426.875	1038.66
427.251	1068.49
427.627	1089.73
428.003	1106.45
428.379	1126.34
428.756	1145.55
429.132	1143.06
429.507	1134.93
429.883	1188.03
430.259	1191.65
430.635	1213.57
431.011	1195.27
431.387	1215.6
431.763	1264.19
432.138	1271.87
432.514	1278.2
432.89	1271.65
433.265	1325.88
433.641	1284.3
434.016	1343.51
434.392	1360.68
434.767	1395.49
435.143	1383.51
435.518	1424.19
435.894	1422.15
436.269	1435.03
436.644	1434.58
437.02	1475.03
437.395	1476.16
437.77	1482.94
438.145	1503.28
438.52	1522.94
438.895	1533.56
439.271	1541.24
439.646	1598.64
440.021	1591.86
440.395	1604.29
440.77	1583.05
441.145	1624.63
441.52	1691.07
441.895	1630.96
442.27	1679.09
442.645	1654.24
443.019	1717.51
443.394	1703.73
443.769	1728.13
444.143	1697.17
444.518	1758.64
444.892	1753.22
445.267	1769.49
445.641	1778.07
446.016	1799.77
446.39	1805.42
446.764	1785.98
447.139	1819.2
447.513	1858.52
447.887	1854.68
448.262	1839.54
448.636	1881.35
449.01	1903.5
449.384	1914.79
449.758	1938.97
450.132	1978.3
450.506	1959.54
450.88	1961.8
451.254	1970.84
451.628	2021.46
452.002	2029.59
452.376	2035.24
452.75	2068.91
453.123	2059.88
453.497	2108.46
453.871	2120.21
454.244	2158.18
454.618	2180.1
454.992	2216.26
455.365	2190.27
455.739	2250.15
456.112	2293.32
456.486	2287.89
456.859	2310.26
457.232	2385.52
457.606	2345.52
457.979	2402.92
458.352	2456.25
458.725	2443.82
459.099	2503.25
459.472	2501.9
459.845	2519.75
460.218	2534.66
460.591	2553.42
460.964	2591.16
461.337	2630.93
461.71	2654.89
462.083	2674.1
462.456	2755.45
462.829	2750.03
463.201	2750.03
463.574	2769.69
463.947	2799.52
464.32	2856.69
464.692	2875.9
465.065	2910.25
465.438	2961.32
465.81	2993.18
466.183	2999.29
466.555	3087.64
466.928	3090.81
467.3	3080.19
467.672	3112.73
468.045	3156.12
468.417	3200.64
468.789	3204.93
469.161	3241.54
469.534	3307.07
469.906	3357.02
470.278	3385.04
470.65	3379.16
471.022	3445.15
471.394	3502.32
471.766	3530.12
472.138	3574.41
472.51	3617.12
472.882	3666.39
473.253	3717.91
473.625	3738.93
473.997	3847.4
474.369	3825.03
474.74	3867.29
475.112	3931.24
475.484	3995.87
475.855	4062.53
476.227	4088.75
476.598	4181.85
476.97	4213.72
477.341	4292.36
477.713	4348.18
478.084	4343.66
478.455	4434.5
478.827	4489.19
479.198	4608.28
479.569	4594.5
479.94	4721.73
480.311	4705.46
480.682	4825.68
481.053	4845.79
481.424	4919.46
481.795	5020.7
482.166	5036.07
482.537	5125.33
482.908	5170.08
483.279	5212.79
483.65	5260.47
484.021	5347.7
484.391	5478.99
484.762	5462.27
485.133	5478.09
485.503	5539.56
485.874	5643.74
486.244	5635.83
486.615	5722.6
486.985	5779.33
487.356	5837.85
487.726	5856.16
488.097	5915.14
488.467	5990.85
488.837	6052.99
489.207	6150.16
489.578	6219.31
489.948	6263.15
490.318	6263.83
490.688	6354.9
491.058	6358.97
491.428	6413.43
491.798	6460.44
492.168	6543.6
492.538	6589.7
492.908	6608.91
493.278	6659.53
493.648	6672.86
494.017	6719.64
494.387	6739.75
494.757	6800.32
495.126	6805.74
495.496	6905.17
495.866	6875.12
496.235	6971.38
496.605	6978.16
496.974	7023.36
497.344	7010.03
497.713	7014.77
498.082	7038.5
498.452	7133.64
498.821	7113.53
499.19	7126.18
499.559	7192.17
499.928	7144.49
500.298	7265.61
500.667	7272.17
501.036	7292.73
501.405	7337.48
501.774	7348.1
502.143	7385.16
502.512	7374.09
502.88	7402.79
503.249	7428.32
503.618	7414.54
503.987	7458.6
504.356	7530.92
504.724	7469.9
505.093	7493.63
505.462	7541.31
505.83	7570.46
506.199	7628.99
506.567	7673.29
506.936	7689.56
507.304	7743.12
507.672	7697.69
508.041	7791.25
508.409	7792.15
508.777	7859.72
509.145	7905.37
509.514	7890.46
509.882	7908.53
510.25	7867.63
510.618	7940.62
510.986	8004.8
511.354	8025.37
511.722	8005.03
512.09	8099.04
512.458	8077.12
512.826	8115.31
513.193	8198.92
513.561	8139.94
513.929	8209.77
514.297	8235.53
514.664	8277.34
515.032	8287.51
515.4	8370.67
515.767	8339.26
516.135	8348.3
516.502	8327.28
516.869	8401.4
517.237	8471.91
517.604	8410.89
517.972	8459.93
518.339	8536.09
518.706	8460.38
519.073	8570.66
519.44	8628.52
519.808	8726.82
520.175	8669.42
520.542	8760.72
520.909	8713.03
521.276	8737.89
521.643	8816.53
522.009	8851.79
522.376	8878.9
522.743	8927.27
523.11	8986.92
523.477	9018.56
523.843	9057.43
524.21	9062.18
524.577	9219.23
524.943	9180.59
525.31	9232.12
525.676	9349.85
526.043	9352.34
526.409	9339.46
526.776	9388.95
527.142	9419.46
527.508	9506.46
527.874	9567.93
528.241	9593.24
528.607	9582.39
528.973	9707.13
529.339	9594.59
529.705	9644.76
530.071	9759.79
530.437	9853.34
530.803	9845.66
531.169	9918.88
531.535	9906.22
531.901	9933.79
532.267	9990.51
532.632	10028.25
532.998	10040.23
533.364	10052.66
533.73	10099.21
534.095	10115.93
534.461	10151.41
534.826	10206.55
535.192	10252.65
535.557	10318.19
535.923	10321.58
536.288	10308.7
536.653	10346.44
537.019	10320.67
537.384	10425.08
537.749	10460.33
538.114	10527.45
538.479	10509.82
538.845	10570.39
539.21	10496.04
539.575	10606.32
539.94	10545.3
540.305	10654.45
540.67	10626.2
541.034	10660.33
541.399	10714.11
541.764	10727.9
542.129	10768.35
542.494	10790.04
542.858	10823.49
543.223	10796.37
543.587	10926.76
543.952	10836.59
544.316	10896.48
544.681	10883.15
545.045	10986.87
545.41	10988
545.774	11054.21
546.138	11097.83
546.503	11092.86
546.867	11148
547.231	11144.83
547.595	11134.44
547.959	11268.67
548.324	11252.4
548.688	11263.48
549.052	11278.16
549.416	11374.66
549.779	11332.63
550.143	11289.24
550.507	11425.28
550.871	11479.29
551.235	11380.99
551.599	11451.72
551.962	11503.02
552.326	11538.5
552.689	11613.52
553.053	11601.77
553.417	11658.27
553.78	11712.5
554.143	11679.06
554.507	11708.21
554.87	11762.22
555.234	11837.92
555.597	11799.51
555.96	11774.2
556.323	11874.98
556.686	11846.28
557.05	11945.04
557.413	11950.24
557.776	11976.22
558.139	12079.05
558.502	12039.5
558.865	12087.18
559.228	12100.52
559.59	12159.5
559.953	12247.63
560.316	12355.65
560.679	12257.8
561.041	12382.32
561.404	12394.29
561.767	12536.21
562.129	12485.14
562.492	12687.39
562.854	12591.8
563.217	12587.96
563.579	12567.4
563.941	12692.36
564.304	12807.84
564.666	12740.72
565.028	12809.2
565.39	12879.03
565.753	12905.24
566.115	12931.91
566.477	13007.38
566.839	13048.51
567.201	13199.92
567.563	13110.88
567.925	13139.58
568.287	13242.41
568.648	13302.07
569.01	13408.96
569.372	13392.91
569.734	13418.9
570.095	13408.28
570.457	13463.87
570.819	13568.95
571.18	13555.17
571.542	13650.53
571.903	13678.1
572.265	13740.02
572.626	13759
572.987	13817.31
573.349	13810.07
573.71	13931.88
574.071	13967.36
574.432	13974.36
574.794	14136.17
575.155	14087.81
575.516	14040.8
575.877	14099.33
576.238	14237.41
576.599	14222.04
576.96	14227.01
577.32	14269.05
577.681	14338.42
578.042	14300.01
578.403	14394.24
578.763	14377.52
579.124	14401.92
579.485	14482.83
579.845	14532.77
580.206	14444.86
580.566	14485.54
580.927	14556.95
581.287	14601.24
581.648	14496.16
582.008	14578.19
582.368	14607.79
582.728	14652.76
583.089	14561.24
583.449	14623.84
583.809	14684.63
584.169	14708.36
584.529	14690.73
584.889	14715.36
585.249	14636.04
585.609	14576.61
585.969	14826.55
586.329	14769.37
586.688	14760.56
587.048	14808.47
587.408	14720.11
587.768	14767.79
588.127	14821.8
588.487	14820.44
588.846	15000.1
589.206	14799.65
589.565	14776.38
589.925	14953.77
590.284	14834.68
590.643	14906.09
591.003	14988.8
591.362	14874
591.721	14888.46
592.08	14954.9
592.44	14949.25
592.799	14894.11
593.158	14971.4
593.517	15007.33
593.876	15044.62
594.235	15000.78
594.593	14956.49
594.952	14973.21
595.311	14910.38
595.67	14979.99
596.029	15099.53
596.387	15097.5
596.746	15067.67
597.104	15127.33
597.463	15075.58
597.822	15223.37
598.18	15060.21
598.538	15197.38
598.897	15201.22
599.255	15015.24
599.613	15260.21
599.972	15206.87
600.33	15235.12
600.688	15229.25
601.046	15236.93
601.404	15298.85
601.762	15242.13
602.12	15322.58
602.478	15295.69
602.836	15404.38
603.194	15318.51
603.552	15325.29
603.91	15224.27
604.268	15392.63
604.625	15243.48
604.983	15391.5
605.341	15264.05
605.698	15350.83
606.056	15447.09
606.413	15396.93
606.771	15461.78
607.128	15411.84
607.485	15442.8
607.843	15411.39
608.2	15425.4
608.557	15506.75
608.914	15460.2
609.272	15628.11
609.629	15629.69
609.986	15553.76
610.343	15483.03
610.7	15593.3
611.057	15669.69
611.414	15593.98
611.771	15673.53
612.127	15683.25
612.484	15787.2
612.841	15839.17
613.198	15612.06
613.554	15755.33
613.911	15813.41
614.267	15753.3
614.624	15828.55
614.98	15803.47
615.337	15904.48
615.693	15850.7
616.05	15775.45
616.406	15908.55
616.762	15920.98
617.118	15943.8
617.475	15978.38
617.831	16030.81
618.187	16036.68
618.543	16047.76
618.899	16092.05
619.255	16091.6
619.611	16069.45
619.967	16123.01
620.323	16244.81
620.678	16092.05
621.034	16034.2
621.39	16143.12
621.746	16190.8
622.101	16249.33
622.457	16170.46
622.812	16241.42
623.168	16254.3
623.523	16218.37
623.879	16380.63
624.234	16190.8
624.589	16215.89
624.945	16268.77
625.3	16322.55
625.655	16326.84
626.01	16346.96
626.365	16318.03
626.72	16292.72
627.075	16314.42
627.43	16397.35
627.785	16259.73
628.14	16473.73
628.495	16430.34
628.85	16457.69
629.205	16375.21
629.559	16457.24
629.914	16396.45
630.269	16490.23
630.623	16438.48
630.978	16350.35
631.332	16419.95
631.687	16537.01
632.041	16515.09
632.396	16451.81
632.75	16561.19
633.104	16497.01
633.459	16441.87
633.813	16481.87
634.167	16476.45
634.521	16523.68
634.875	16554.64
635.229	16476.22
635.583	16428.08
635.937	16530
636.291	16499.95
636.645	16496.78
636.999	16523.9
637.352	16616.33
637.706	16514.18
638.06	16560.28
638.413	16556.22
638.767	16543.34
639.121	16638.93
639.474	16587.18
639.828	16576.56
640.181	16546.27
640.534	16645.25
640.888	16553.28
641.241	16510.79
641.594	16556.22
641.947	16620.4
642.301	16639.15
642.654	16689.77
643.007	16679.15
643.36	16725.7
643.713	16622.66
644.066	16773.16
644.419	16641.86
644.771	16508.31
645.124	16391.25
645.477	16402.55
645.83	16248.88
646.182	16281.65
646.535	16204.14
646.888	16483.22
647.24	16372.72
647.593	16450.91
647.945	16533.39
648.298	16352.38
648.65	16356
649.002	16288.2
649.355	16437.58
649.707	16310.35
650.059	16441.64
650.411	16629.44
650.763	16609.32
651.115	16882.99
651.467	16973.38
651.819	16857.9
652.171	16938.13
652.523	16791.47
652.875	16890.9
653.227	16871.24
653.578	16941.97
653.93	17024
654.282	16874.17
654.633	16887.51
654.985	16942.2
655.337	16939.26
655.688	16953.27
656.039	17074.4
656.391	16916.66
656.742	17000.5
657.094	17014.51
657.445	17021.52
657.796	17088.63
658.147	16987.84
658.498	17097.22
658.849	17182.19
659.2	17036.43
659.551	17076.2
659.902	17093.38
660.253	17125.24
660.604	17209.53
660.955	17093.38
661.306	17182.42
661.656	17113.04
662.007	17126.6
662.358	17136.54
662.708	17145.81
663.059	17155.75
663.409	17062.87
663.76	17180.38
664.11	17062.64
664.461	17194.84
664.811	17156.88
665.161	17115.52
665.511	17072.59
665.862	17101.51
666.212	17092.25
666.562	17194.17
666.912	17146.03
667.262	17063.32
667.612	17145.13
667.962	17167.73
668.312	16999.82
668.662	17145.81
669.011	16982.87
669.361	16939.94
669.711	17113.04
670.06	16956.66
670.41	16947.17
670.76	16952.14
671.109	16957.34
671.459	16928.18
671.808	16948.3
672.157	16912.59
672.507	16768.87
672.856	16834.85
673.205	16836.44
673.554	16839.6
673.904	16780.84
674.253	16828.53
674.602	16689.1
674.951	16478.25
675.3	16407.97
675.649	16601.64
675.998	16511.47
676.346	16586.05
676.695	16707.85
677.044	16443.23
677.393	16464.02
677.741	16556.9
678.09	16453.85
678.438	16550.12
678.787	16486.16
679.135	16443
679.484	16304.47
679.832	16416.79
680.181	16440.97
680.529	16326.84
680.877	16290.91
681.225	16239.39
681.573	16328.88
681.922	16178.37
682.27	16132.05
682.618	16204.14
682.966	16112.39
683.314	16080.75
683.661	15931.6
684.009	15951.26
684.357	15983.35
684.705	15901.09
685.053	15931.83
685.4	15928.66
685.748	15894.99
686.095	15887.76
686.443	15685.28
686.79	15750.14
687.138	15780.19
687.485	15796.92
687.832	15720.08
688.18	15777.93
688.527	15655.9
688.874	15642.57
689.221	15615.68
689.568	15534.1
689.915	15570.93
690.262	15602.34
690.609	15571.16
690.956	15458.84
691.303	15426.98
691.65	15499.07
691.997	15410.03
692.344	15285.29
692.69	15321.22
693.037	15274.67
693.383	15210.72
693.73	15286.65
694.077	15169.14
694.423	15144.73
694.769	15124.16
695.116	15127.33
695.462	15154.22
695.808	15109.7
696.155	15066.76
696.501	14963.04
696.847	15025.18
697.193	14984.73
697.539	14982.47
697.885	14942.25
698.231	14863.83
698.577	14834.45
698.923	14915.81
699.269	14855.92
699.614	14767.56
699.96	14701.8
700.306	14747.9
700.651	14750.16
700.997	14634.69
701.342	14716.27
701.688	14682.37
702.033	14565.08
702.379	14591.07
702.724	14640.34
703.069	14712.42
703.415	14459.78
703.76	14474.69
704.105	14531.64
704.45	14623.84
704.795	14417.97
705.14	14381.59
705.485	14440.11
705.83	14335.26
706.175	14448.7
706.52	14330.74
706.865	14385.43
707.209	14390.17
707.554	14309.95
707.899	14325.54
708.243	14279.21
708.588	14291.42
708.932	14248.71
709.277	14255.94
709.621	14261.36
709.966	14198.99
710.31	14175.94
710.654	14117.64
710.998	14100.24
711.342	14173.91
711.687	14136.62
712.031	14074.25
712.375	14102.5
712.719	14117.19
713.063	14027.02
713.407	14067.02
713.75	14091.65
714.094	14055.72
714.438	14091.42
714.782	13992.22
715.125	13971.2
715.469	14050.52
715.812	13999.45
716.156	13883.07
716.499	13969.39
716.843	13892.33
717.186	13842.16
717.53	13949.05
717.873	13946.34
718.216	14000.58
718.559	13949.73
718.902	13832.22
719.246	13907.47
719.589	13865.21
719.932	13834.71
720.275	13839.68
720.617	13824.09
720.96	13851.66
721.303	13783.86
721.646	13764.43
721.989	13695.05
722.331	13774.6
722.674	13848.27
723.016	13769.85
723.359	13657.99
723.701	13775.05
724.044	13655.5
724.386	13704.09
724.729	13704.31
725.071	13709.06
725.413	13726.01
725.755	13680.81
726.097	13643.75
726.439	13580.93
726.782	13691.43
727.124	13733.92
727.465	13692.56
727.807	13699.12
728.149	13643.07
728.491	13678.55
728.833	13633.81
729.175	13641.72
729.516	13574.6
729.858	13615.28
730.199	13564.66
730.541	13641.49
730.882	13592.91
731.224	13655.73
731.565	13640.36
731.906	13625.9
732.248	13684.88
732.589	13608.5
732.93	13585
733.271	13577.54
733.612	13631.1
733.953	13584.32
734.294	13617.54
734.635	13572.34
734.976	13714.48
735.317	13679.23
735.658	13628.61
735.999	13633.58
736.339	13674.49
736.68	13733.92
737.021	13714.03
737.361	13647.14
737.702	13707.48
738.042	13718.55
738.383	13728.27
738.723	13792.9
739.063	13739.12
739.404	13752.45
739.744	13775.73
740.084	13740.47
740.424	13784.31
740.764	13820.47
741.104	13920.13
741.444	13885.1
741.784	13809.17
742.124	13958.55
742.464	13874.93
742.804	13944.31
743.143	13970.52
743.483	14010.52
743.823	13857.98
744.162	13992.89
744.502	14049.84
744.841	14016.17
745.181	14030.63
745.52	14061.59
745.86	14077.64
746.199	14061.59
746.538	14169.84
746.877	14221.36
747.216	14257.75
747.556	14202.61
747.895	14248.48
748.234	14318.31
748.573	14230.85
748.911	14376.16
749.25	14405.54
749.589	14217.52
749.928	14351.53
750.267	14374.35
750.605	14430.62
750.944	14388.82
751.283	14455.26
751.621	14556.27
751.96	14466.55
752.298	14464.75
752.636	14534.58
752.975	14528.93
753.313	14455.71
753.651	14601.47
753.989	14520.11
754.327	14628.81
754.666	14580
755.004	14613.22
755.342	14687.11
755.679	14671.3
756.017	14658.87
756.355	14796.72
756.693	14694.35
757.031	14786.32
757.368	14759.2
757.706	14750.84
758.044	14735.7
758.381	14837.84
758.719	14781.57
759.056	14885.07
759.394	14940.21
759.731	14809.14
760.068	14907.22
760.405	14809.6
760.743	14791.52
761.08	14925.75
761.417	14855.02
761.754	14846.66
762.091	14968.91
762.428	14857.05
762.765	14873.32
763.102	15018.4
763.438	14896.37
763.775	14849.6
764.112	14928.46
764.449	14964.17
764.785	15027.44
765.122	14930.27
765.458	14902.7
765.795	15010.27
766.131	14935.24
766.467	14950.38
766.804	14915.13
767.14	14886.43
767.476	14917.16
767.812	14830.84
768.148	14980.44
768.485	14889.59
768.821	14816.15
769.157	14880.1
769.492	14984.28
769.828	14911.51
770.164	14845.3
770.5	14825.64
770.836	14862.48
771.171	14879.88
771.507	14837.62
771.842	14760.33
772.178	14850.5
772.513	14848.47
772.849	14777.51
773.184	14764.85
773.519	14831.29
773.855	14738.41
774.19	14782.7
774.525	14800.11
774.86	14772.31
775.195	14802.59
775.53	14843.95
775.865	14650.96
776.2	14618.19
776.535	14584.97
776.87	14627.23
777.205	14545.2
777.539	14712.42
777.874	14589.94
778.209	14618.64
778.543	14618.64
778.878	14633.1
779.212	14597.62
779.547	14560.56
779.881	14538.42
780.215	14443.5
780.55	14575.25
780.884	14405.99
781.218	14495.71
781.552	14494.35
781.886	14557.85
782.22	14416.39
782.554	14324.19
782.888	14300.23
783.222	14263.4
783.556	14299.78
783.889	14255.03
784.223	14201.93
784.557	14198.31
784.89	14206.67
785.224	14185.21
785.557	14130.07
785.891	14185.66
786.224	14095.26
786.558	14131.42
786.891	14063.63
787.224	14062.27
787.557	14048.94
787.891	14052.33
788.224	14076.06
788.557	13994.93
788.89	14027.7
789.223	13964.87
789.556	13893.69
789.888	13864.31
790.221	13885.78
790.554	13850.75
790.887	13897.98
791.219	13835.16
791.552	13806.23
791.884	13694.37
792.217	13755.16
792.549	13802.17
792.882	13697.31
793.214	13641.49
793.546	13762.39
793.879	13697.76
794.211	13543.19
794.543	13648.95
794.875	13585.9
795.207	13645.33
795.539	13586.35
795.871	13574.6
796.203	13487.82
796.535	13473.59
796.867	13436.53
797.198	13432.68
797.53	13436.07
797.862	13400.37
798.193	13403.76
798.525	13312.23
798.856	13354.49
799.188	13354.49
799.519	13231.78
799.85	13275.17
800.182	13209.41
800.513	13255.97
800.844	13177.1
801.175	13197.44
801.506	13214.84
801.837	13200.6
802.168	13148.85
802.499	13177.55
802.83	13073.82
803.161	12985.46
803.491	13059.36
803.822	13042.19
804.153	12943.2
804.483	12898.69
804.814	12915.86
805.145	12867.95
805.475	12931.68
805.805	12835.41
806.136	12836.54
806.466	12866.14
806.796	12812.36
807.126	12686.94
807.457	12861.17
807.787	12787.73
808.117	12748.63
808.447	12630.44
808.777	12714.74
809.107	12666.38
809.436	12557.68
809.766	12659.82
810.096	12536.89
810.426	12550.9
810.755	12557.23
811.085	12545.7
811.414	12512.48
811.744	12480.84
812.073	12460.05
812.403	12474.52
812.732	12388.42
813.061	12386.61
813.39	12325.82
813.719	12299.38
814.049	12399.26
814.378	12318.81
814.707	12305.26
815.036	12273.39
815.365	12286.95
815.693	12202.43
816.022	12183.9
816.351	12140.29
816.68	12055.32
817.008	12094.41
817.337	11995.43
817.665	12086.5
817.994	12072.04
818.322	12004.02
818.651	11950.91
818.979	11951.37
819.307	12049.22
819.636	11932.84
819.964	11904.14
820.292	11938.94
820.62	11928.77
820.948	11860.52
821.276	11945.94
821.604	11882.89
821.932	11897.58
822.259	11929.9
822.587	11912.72
822.915	11911.37
823.243	11980.74
823.57	11882.89
823.898	11988.65
824.225	11920.63
824.553	11826.4
824.88	12018.26
825.207	11963.8
825.535	11837.92
825.862	11954.08
826.189	11900.29
826.516	11964.47
826.843	12062.55
827.17	12001.31
827.497	11991.14
827.824	11970.8
828.151	12101.65
828.478	11962.89
828.805	12048.31
829.131	12004.7
829.458	11982.78
829.785	11945.49
830.111	11966.96
830.438	12036.56
830.764	11991.14
831.09	12087.86
831.417	11886.28
831.743	12066.62
832.069	12004.47
832.395	11904.59
832.722	12000.86
833.048	12029.1
833.374	11998.6
833.7	11929.67
834.026	11974.42
834.351	11974.19
834.677	11950.91
835.003	12001.53
835.329	11985.72
835.654	11988.65
835.98	11882.44
836.306	11924.02
836.631	11908.43
836.956	11872.05
837.282	11929.45
837.607	11790.01
837.932	11867.75
838.258	11871.14
838.583	11865.72
838.908	11843.35
839.233	11827.3
839.558	11769
839.883	11727.87
840.208	11727.87
840.533	11703.24
840.858	11689
841.182	11761.54
841.507	11733.07
841.832	11657.59
842.156	11551.83
842.481	11585.95
842.805	11568.33
843.13	11566.07
843.454	11602.68
843.778	11439.97
844.103	11435.67
844.427	11420.31
844.751	11475.9
845.075	11498.27
845.399	11489.46
845.723	11389.8
846.047	11435.67
846.371	11281.1
846.695	11250.82
847.019	11235.23
847.343	11128.34
847.666	11091.05
847.99	11105.74
848.313	11046.76
848.637	10995.91
848.96	11027.78
849.284	10964.73
849.607	11003.37
849.931	10866.88
850.254	10796.37
850.577	10786.65
850.9	10694.9
851.223	10733.09
851.546	10654.45
851.869	10633.21
852.192	10618.75
852.515	10510.5
852.838	10518.86
853.161	10514.34
853.483	10496.04
853.806	10375.59
854.129	10414.91
854.451	10322.48
854.774	10307.34
855.096	10280.68
855.419	10308.7
855.741	10188.93
856.063	10151.87
856.385	10142.83
856.708	10124.3
857.03	10047.24
857.352	10133.79
857.674	10094.92
857.996	10005.88
858.318	9942.83
858.64	9970.18
858.961	9899.22
859.283	9919.78
859.605	9810.18
859.926	9843.4
860.248	9925.21
860.57	9836.17
860.891	9776.96
861.212	9804.53
861.534	9727.24
861.855	9722.27
862.176	9768.37
862.498	9688.6
862.819	9767.92
863.14	9755.27
863.461	9666.23
863.782	9616.06
864.103	9618.55
864.424	9663.52
864.745	9635.95
865.065	9555.72
865.386	9506.46
865.707	9571.32
866.027	9509.4
866.348	9482.28
866.668	9561.82
866.989	9563.86
867.309	9463.75
867.63	9482.05
867.95	9484.54
868.27	9372.9
868.59	9423.52
868.91	9418.1
869.23	9425.33
869.55	9348.27
869.87	9361.6
870.19	9346.69
870.51	9347.37
870.83	9354.37
871.15	9295.39
871.469	9279.35
871.789	9274.37
872.109	9289.29
872.428	9256.97
872.748	9291.55
873.067	9227.14
873.386	9289.52
873.706	9198.44
874.025	9128.62
874.344	9179.46
874.663	9237.09
874.982	9146.24
875.301	9173.13
875.62	9157.54
875.939	9077.32
876.258	9098.11
876.577	9067.6
876.896	9053.82
877.214	9042.06
877.533	8961.61
877.852	8975.63
878.17	8983.53
878.489	8988.05
878.807	9008.17
879.125	8982.18
879.444	8953.71
879.762	8933.59
880.08	8923.88
880.398	8927.72
880.716	8906.47
881.034	8895.63
881.352	8856.08
881.67	8822.18
881.988	8837.32
882.306	8823.31
882.624	8832.35
882.941	8756.65
883.259	8750.55
883.577	8744.67
883.894	8678.23
884.212	8653.83
884.529	8717.33
884.846	8690.89
885.164	8665.8
885.481	8640.04
885.798	8616.31
886.115	8544
886.432	8530.89
886.75	8543.09
887.067	8559.37
887.383	8494.06
887.7	8492.93
888.017	8457.45
888.334	8449.76
888.651	8421.29
888.967	8384.45
889.284	8397.34
889.6	8387.84
889.917	8296.55
890.233	8363.21
890.55	8267.4
890.866	8315.98
891.182	8253.84
891.498	8292.93
891.815	8186.95
892.131	8174.06
892.447	8207.28
892.763	8153.05
893.079	8165.03
893.395	8097.23
893.71	8031.47
894.026	7995.76
894.342	8019.49
894.657	7970
894.973	7989.66
895.289	7996.22
895.604	7967.06
895.92	7860.4
896.235	7797.35
896.55	7805.03
896.865	7820.63
897.181	7800.29
897.496	7793.96
897.811	7695.66
898.126	7731.36
898.441	7664.25
898.756	7648.43
899.071	7638.94
899.386	7561.65
899.7	7586.74
900.015	7486.85
900.33	7521.43
900.644	7485.04
900.959	7454.99
901.273	7428.1
901.588	7373.41
901.902	7365.05
902.216	7393.97
902.531	7386.29
902.845	7274.43
903.159	7258.61
903.473	7247.08
903.787	7179.06
904.101	7122.34
904.415	7233.07
904.729	7139.97
905.042	7053.19
905.356	7077.37
905.67	7112.4
905.984	7055
906.297	7043.47
906.611	6992.17
906.924	6941.1
907.237	6979.75
907.551	6938.17
907.864	6866.53
908.177	6859.75
908.491	6869.92
908.804	6868.11
909.117	6794.21
909.43	6802.35
909.743	6721.9
910.056	6675.8
910.368	6675.57
910.681	6646.65
910.994	6610.72
911.307	6582.92
911.619	6535.69
911.932	6570.72
912.244	6491.85
912.557	6537.27
912.869	6451.4
913.181	6446.43
913.494	6438.74
913.806	6384.96
914.118	6365.07
914.43	6334.57
914.742	6337.5
915.054	6278.07
915.366	6299.09
915.678	6237.39
915.99	6195.13
916.302	6174.12
916.613	6165.98
916.925	6182.93
917.236	6146.55
917.548	6110.39
917.859	6055.93
918.171	6084.85
918.482	6043.05
918.794	5963.05
919.105	5976.61
919.416	5908.81
919.727	5955.59
920.038	5892.99
920.349	5850.74
920.66	5881.02
920.971	5858.87
921.282	5796.27
921.593	5793.34
921.903	5725.32
922.214	5740.23
922.525	5736.61
922.835	5690.97
923.146	5647.13
923.456	5603.96
923.767	5538.43
924.077	5556.96
924.387	5528.03
924.697	5550.18
925.008	5492.55
925.318	5492.33
925.628	5432.44
925.938	5447.36
926.248	5404.19
926.558	5347.47
926.867	5431.31
927.177	5370.97
927.487	5357.19
927.796	5324.87
928.106	5313.57
928.416	5326.91
928.725	5239.9
929.034	5218.89
929.344	5190.19
929.653	5183.18
929.962	5177.31
930.271	5140.02
930.581	5106.57
930.89	5084.43
931.199	5021.83
931.508	5023.19
931.817	5029.29
932.125	5021.83
932.434	5029.29
932.743	4943.64
933.051	4949.97
933.36	4947.71
933.669	4892.34
933.977	4856.64
934.286	4882.85
934.594	4820.03
934.902	4787.26
935.21	4838.79
935.519	4809.86
935.827	4765.34
936.135	4728.73
936.443	4693.48
936.751	4741.16
937.059	4705.46
937.367	4709.3
937.674	4620.71
937.982	4599.92
938.29	4600.83
938.597	4598.34
938.905	4526.03
939.213	4543.43
939.52	4524.44
939.827	4525.57
940.135	4487.83
940.442	4497.33
940.749	4458.91
941.056	4463.43
941.363	4358.35
941.67	4386.14
941.977	4396.54
942.284	4359.48
942.591	4328.29
942.898	4268.63
943.205	4334.62
943.511	4329.19
943.818	4290.78
944.125	4255.75
944.431	4212.59
944.738	4195.86
945.044	4204.23
945.35	4193.15
945.657	4173.27
945.963	4139.59
946.269	4142.08
946.575	4130.1
946.881	4126.04
947.187	4076.32
947.493	4086.94
947.799	4061.4
948.105	4022.31
948.41	4026.6
948.716	4009.43
949.022	3980.73
949.327	3994.06
949.633	3975.98
949.938	3923.56
950.244	3949.77
950.549	3853.5
950.854	3869.09
951.16	3883.33
951.465	3818.7
951.77	3833.16
952.075	3796.55
952.38	3798.81
952.685	3808.76
952.99	3756.78
953.294	3744.35
953.599	3752.26
953.904	3698.7
954.209	3712.71
954.513	3675.43
954.818	3684.24
955.122	3667.06
955.426	3649.21
955.731	3596.78
956.035	3586.84
956.339	3561.53
956.643	3603.34
956.948	3565.15
957.252	3524.92
957.556	3526.05
957.86	3521.31
958.163	3498.26
958.467	3478.14
958.771	3490.12
959.075	3489.67
959.378	3467.52
959.682	3421.42
959.985	3388.65
960.289	3397.92
960.592	3356.56
960.896	3345.04
961.199	3343.23
961.502	3338.26
961.805	3331.48
962.108	3298.94
962.411	3290.13
962.714	3256.68
963.017	3263.23
963.32	3308.66
963.623	3256.45
963.926	3238.38
964.228	3198.6
964.531	3191.37
964.833	3197.7
965.136	3150.69
965.438	3153.86
965.741	3147.53
966.043	3137.36
966.345	3112.28
966.648	3138.72
966.95	3118.6
967.252	3030.7
967.554	3026.18
967.856	3049
968.158	3030.7
968.46	3032.73
968.761	2994.77
969.063	2986.4
969.365	2957.03
969.666	2994.77
969.968	2960.87
970.269	2954.77
970.571	2963.58
970.872	2904.15
971.174	2884.94
971.475	2899.4
971.776	2875
972.077	2878.61
972.378	2870.48
972.679	2842.23
972.98	2829.8
973.281	2834.54
973.582	2817.37
973.883	2829.12
974.183	2771.04
974.484	2796.8
974.785	2771.95
975.085	2753.64
975.386	2745.73
975.686	2727.2
975.986	2736.92
976.287	2729.46
976.587	2712.97
976.887	2681.1
977.187	2664.83
977.487	2665.96
977.787	2657.37
978.087	2629.58
978.387	2620.76
978.687	2644.04
978.987	2639.07
979.286	2600.88
979.586	2565.4
979.885	2551.16
980.185	2576.25
980.484	2560.2
980.784	2539.41
981.083	2571.5
981.382	2520.43
981.682	2502.8
981.981	2492.63
982.28	2497.15
982.579	2472.75
982.878	2455.57
983.177	2439.07
983.475	2484.72
983.774	2416.25
984.073	2419.87
984.372	2402.01
984.67	2382.35
984.969	2382.35
985.267	2354.56
985.566	2358.4
985.864	2358.4
986.162	2345.29
986.461	2376.7
986.759	2330.15
987.057	2334.22
987.355	2305.52
987.653	2314.78
987.951	2289.7
988.249	2282.02
988.547	2242.02
988.844	2285.41
989.142	2258.29
989.44	2241.34
989.737	2221.68
990.035	2249.7
990.332	2205.63
990.63	2173.77
990.927	2202.47
991.224	2164.96
991.521	2146.43
991.819	2191.17
992.116	2161.79
992.413	2129.25
992.71	2134
993.006	2092.42
993.303	2116.37
993.6	2083.38
993.897	2105.52
994.193	2083.6
994.49	2076.15
994.787	2068.69
995.083	2057.39
995.379	2076.6
995.676	2047.22
995.972	2042.25
996.268	1969.26
996.565	1996.37
996.861	1992.31
997.157	1995.92
997.453	1958.18
997.749	1985.53
998.044	1970.39
998.34	1943.49
998.636	1966.54
998.932	1931.29
999.227	1914.79
999.523	1909.82
999.818	1907.11
1000.114	1872.08
1000.409	1868.47
1000.704	1869.6
1001	1889.26
1001.295	1835.25
1001.59	1821.92
1001.885	1840.45
1002.18	1827.56
1002.475	1830.73
1002.77	1817.17
1003.065	1785.53
1003.359	1781.01
1003.654	1783.5
1003.949	1770.62
1004.243	1783.95
1004.538	1742.6
1004.832	1761.13
1005.127	1725.65
1005.421	1693.33
1005.715	1700.11
1006.009	1718.64
1006.304	1666.67
1006.598	1677.96
1006.892	1686.1
1007.186	1670.51
1007.48	1661.92
1007.773	1629.15
1008.067	1616.5
1008.361	1599.55
1008.655	1600.45
1008.948	1595.71
1009.242	1613.79
1009.535	1595.48
1009.829	1573.33
1010.122	1556.84
1010.415	1592.32
1010.708	1557.74
1011.001	1564.52
1011.295	1541.7
1011.588	1518.19
1011.881	1520.45
1012.173	1511.42
1012.466	1498.08
1012.759	1490.62
1013.052	1507.8
1013.344	1495.14
1013.637	1472.32
1013.93	1481.81
1014.222	1442.72
1014.514	1443.39
1014.807	1441.81
1015.099	1445.65
1015.391	1441.36
1015.683	1415.82
1015.976	1417.41
1016.268	1384.64
1016.56	1393
1016.851	1384.86
1017.143	1371.98
1017.435	1355.03
1017.727	1387.12
1018.018	1347.58
1018.31	1364.75
1018.602	1345.09
1018.893	1315.49
1019.185	1327.01
1019.476	1322.95
1019.767	1318.65
1020.058	1285.21
1020.35	1288.82
1020.641	1265.55
1020.932	1265.55
1021.223	1272.1
1021.514	1239.11
1021.804	1244.98
1022.095	1248.15
1022.386	1245.43
1022.677	1219.22
1022.967	1200.24
1023.258	1209.95
1023.548	1186.9
1023.839	1195.04
1024.129	1200.46
1024.419	1178.32
1024.709	1172.21
1025	1165.21
1025.29	1149.84
1025.58	1134.25
1025.87	1118.66
1026.16	1142.61
1026.449	1109.84
1026.739	1138.77
1027.029	1110.3
1027.319	1095.38
1027.608	1099.67
1027.898	1108.49
1028.187	1079.56
1028.477	1074.36
1028.766	1081.14
1029.055	1074.82
1029.344	1056.74
1029.634	1032.56
1029.923	1028.94
1030.212	1032.56
1030.501	1020.58
1030.79	1026.91
1031.078	1024.42
1031.367	985.33
1031.656	1015.16
1031.945	1004.31
1032.233	997.08
1032.522	991.65
1032.81	982.62
1033.099	975.16
1033.387	979.68
1033.675	961.37
1033.963	962.05
1034.251	975.38
1034.54	953.69
1034.828	953.69
1035.116	946.68
1035.403	919.11
1035.691	911.2
1035.979	915.05
1036.267	913.69
1036.554	929.51
1036.842	900.58
1037.129	876.18
1037.417	885.44
1037.704	896.29
1037.992	894.48
1038.279	872.56
1038.566	886.8
1038.853	886.8
1039.14	886.8
