Data from blue_shiny_book_FLMS001491_00088.txt Node
Date: Wed Feb 08 15:27:40 GMT 2017
User: dcchb
Spectrometer: FLMS00149
Trigger mode: 0
Integration Time (sec): 2.000000E-2
Scans to average: 10
Electric dark correction enabled: true
Nonlinearity correction enabled: false
Boxcar width: 0
XAxis mode: Wavelengths
Number of Pixels in Spectrum: 2048
>>>>>Begin Spectral Data<<<<<
341.393	-6.48
341.776	-6.48
342.16	-6.48
342.543	-47.16
342.927	-71.34
343.31	-68.63
343.693	-77.44
344.077	-64.56
344.46	-54.39
344.843	-51
345.226	-46.03
345.61	-46.71
345.993	-22.75
346.376	-2.87
346.759	18.6
347.142	10.24
347.525	44.14
347.908	45.27
348.291	90.92
348.674	99.73
349.057	125.49
349.44	122.78
349.823	129.33
350.206	154.87
350.588	208.88
350.971	213.4
351.354	232.83
351.737	229.22
352.119	259.95
352.502	268.09
352.884	281.87
353.267	286.84
353.65	297.92
354.032	292.04
354.414	306.28
354.797	318.93
355.179	336.11
355.562	345.82
355.944	350.34
356.326	331.36
356.709	351.93
357.091	333.62
357.473	354.19
357.855	333.85
358.238	342.43
358.62	325.94
359.002	346.5
359.384	348.08
359.766	359.61
360.148	323.68
360.53	350.34
360.912	345.82
361.294	358.25
361.676	347.86
362.057	343.11
362.439	359.61
362.821	351.25
363.203	336.11
363.584	357.35
363.966	341.08
364.348	355.09
364.729	355.09
365.111	345.6
365.493	331.36
365.874	337.46
366.256	332.72
366.637	360.51
367.019	343.34
367.4	331.81
367.781	359.16
368.163	329.33
368.544	311.7
368.925	338.14
369.306	354.64
369.688	337.91
370.069	351.47
370.45	348.08
370.831	343.11
371.212	315.77
371.593	336.56
371.974	367.07
372.355	319.38
372.736	363.45
373.117	372.94
373.498	345.82
373.879	349.21
374.26	347.18
374.641	330.68
375.021	350.57
375.402	371.13
375.783	359.84
376.163	375.65
376.544	385.6
376.925	358.71
377.305	384.92
377.686	351.7
378.066	367.52
378.447	386.28
378.827	386.73
379.208	375.43
379.588	374.75
379.968	393.51
380.349	393.28
380.729	393.73
381.109	376.33
381.489	405.03
381.87	392.6
382.25	400.74
382.63	416.78
383.01	424.69
383.39	446.16
383.77	412.26
384.15	426.5
384.53	401.64
384.91	402.32
385.29	422.88
385.67	417.46
386.049	441.19
386.429	434.18
386.809	427.63
387.189	459.95
387.568	445.03
387.948	451.81
388.328	443.9
388.707	452.26
389.087	455.65
389.466	470.57
389.846	470.57
390.225	493.39
390.605	457.46
390.984	468.76
391.363	490
391.743	484.35
392.122	492.71
392.501	496.78
392.881	493.39
393.26	510.79
393.639	514.86
394.018	507.63
394.397	509.89
394.776	518.48
395.155	539.49
395.534	537.23
395.913	559.6
396.292	540.85
396.671	565.71
397.05	561.41
397.429	568.87
397.808	544.69
398.186	555.76
398.565	582.88
398.944	573.61
399.323	596.67
399.701	583.78
400.08	590.56
400.458	610.68
400.837	605.25
401.215	611.13
401.594	604.8
401.972	642.77
402.351	599.6
402.729	649.55
403.107	653.61
403.486	659.26
403.864	675.53
404.242	645.48
404.62	685.25
404.999	677.57
405.377	709.66
405.755	682.99
406.133	680.96
406.511	718.47
406.889	734.51
407.267	726.38
407.645	755.08
408.023	759.37
408.401	760.95
408.779	804.57
409.156	790.33
409.534	810.67
409.912	774.29
410.29	827.62
410.667	854.96
411.045	861.06
411.422	847.51
411.8	875.98
412.178	890.67
412.555	913.49
412.933	887.05
413.31	913.72
413.687	938.8
414.065	946.49
414.442	953.49
414.819	958.46
415.197	971.8
415.574	986.49
415.951	1007.95
416.328	1011.57
416.705	1037.56
417.082	1042.98
417.46	1061.06
417.837	1082.98
418.214	1084.34
418.591	1074.17
418.967	1086.6
419.344	1106.93
419.721	1128.18
420.098	1121.62
420.475	1153.26
420.852	1167.95
421.228	1187.16
421.605	1195.07
421.982	1207.27
422.358	1221.51
422.735	1236.2
423.111	1251.34
423.488	1307.15
423.864	1294.95
424.241	1272.58
424.617	1296.31
424.994	1313.03
425.37	1318.23
425.746	1329.08
426.123	1330.43
426.499	1374.72
426.875	1398
427.251	1448.62
427.627	1435.97
428.003	1480.94
428.379	1454.27
428.756	1518.9
429.132	1525.91
429.507	1544.89
429.883	1558.22
430.259	1586.92
430.635	1594.6
431.011	1632.12
431.387	1663.53
431.763	1691.55
432.138	1722.06
432.514	1741.04
432.89	1758.67
433.265	1782.62
433.641	1768.61
434.016	1809.06
434.392	1865.11
434.767	1854.03
435.143	1896.74
435.518	1903.98
435.894	1920.7
436.269	2002.5
436.644	1994.37
437.02	2030.98
437.395	2045.89
437.77	2073.46
438.145	2095.38
438.52	2135.61
438.895	2165.89
439.271	2151.2
439.646	2223.51
440.021	2208.6
440.395	2255.38
440.77	2242.05
441.145	2261.48
441.52	2322.27
441.895	2353.91
442.27	2389.84
442.645	2369.95
443.019	2417.18
443.394	2402.72
443.769	2450.18
444.143	2432.78
444.518	2469.16
444.892	2480.01
445.267	2509.38
445.641	2555.48
446.016	2565.88
446.39	2609.04
446.764	2584.18
447.139	2590.06
447.513	2653.33
447.887	2676.38
448.262	2663.28
448.636	2679.1
449.01	2703.28
449.384	2722.71
449.758	2765.2
450.132	2829.15
450.506	2830.28
450.88	2816.49
451.254	2845.19
451.628	2922.25
452.002	2925.42
452.376	2974.68
452.75	3013.78
453.123	3008.35
453.497	3122.93
453.871	3077.05
454.244	3186.88
454.618	3186.2
454.992	3198.4
455.365	3216.94
455.739	3380.77
456.112	3360.89
456.486	3413.77
456.859	3383.48
457.232	3504.39
457.606	3505.74
457.979	3596.59
458.352	3651.73
458.725	3716.58
459.099	3709.58
459.472	3823.02
459.845	3843.81
460.218	3884.26
460.591	3939.18
460.964	3929.68
461.337	4020.98
461.71	4151.37
462.083	4117.48
462.456	4161.32
462.829	4246.29
463.201	4286.29
463.574	4355.89
463.947	4395.21
464.32	4460.74
464.692	4523.12
465.065	4547.3
465.438	4613.51
465.81	4721.08
466.183	4718.82
466.555	4866.84
466.928	4856.67
467.3	4889.89
467.672	4960.84
468.045	5121.97
468.417	5126.94
468.789	5221.63
469.161	5272.7
469.534	5400.38
469.906	5473.15
470.278	5531
470.65	5511.56
471.022	5627.04
471.394	5741.61
471.766	5822.06
472.138	5896.64
472.51	6018.44
472.882	6120.14
473.253	6206.24
473.625	6323.52
473.997	6435.61
474.369	6456.62
474.74	6579.56
475.112	6749.72
475.484	6796.05
475.855	6874.92
476.227	6976.16
476.598	7202.82
476.97	7262.25
477.341	7417.5
477.713	7493.21
478.084	7574.33
478.455	7816.59
478.827	7854.78
479.198	8118.95
479.569	8162.57
479.94	8327.99
480.311	8471.03
480.682	8636.91
481.053	8879.16
481.424	8990.12
481.795	9089.55
482.166	9242.31
482.537	9258.13
482.908	9554.85
483.279	9636.43
483.65	9878.68
484.021	9978.34
484.391	10164.32
484.762	10222.17
485.133	10430.08
485.503	10529.74
485.874	10781.48
486.244	10847.02
486.615	11085.88
486.985	11171.3
487.356	11420.34
487.726	11519.99
488.097	11757.95
488.467	11827.56
488.837	12075.01
489.207	12228.22
489.578	12436.58
489.948	12545.5
490.318	12757.02
490.688	12767.19
491.058	13031.82
491.428	13296.9
491.798	13304.58
492.168	13694.63
492.538	13766.04
492.908	13889.87
493.278	14075.86
493.648	14061.85
494.017	14274.27
494.387	14354.72
494.757	14507.94
495.126	14687.82
495.496	14770.53
495.866	14944.08
496.235	15119.67
496.605	15302.27
496.974	15351.53
497.344	15547.91
497.713	15644.18
498.082	15840.56
498.452	15982.02
498.821	16142.25
499.19	16088.24
499.559	16337.04
499.928	16429.92
500.298	16555.79
500.667	16701.55
501.036	16650.93
501.405	16801.21
501.774	16943.58
502.143	17051.6
502.512	17327.07
502.88	17479.39
503.249	17447.75
503.618	17639.38
503.987	17748.76
504.356	17903.55
504.724	18021.52
505.093	18136.77
505.462	18194.62
505.83	18327.05
506.199	18382.41
506.567	18595.97
506.936	18527.04
507.304	18790.54
507.672	18834.6
508.041	18981.94
508.409	19086.35
508.777	19347.13
509.145	19496.51
509.514	19709.83
509.882	19689.27
510.25	19842.03
510.618	20075.7
510.986	20113.21
511.354	20300.78
511.722	20515.69
512.09	20656.25
512.458	20673.65
512.826	20834.55
513.193	20856.7
513.561	20985.73
513.929	21188.67
514.297	21267.53
514.664	21431.82
515.032	21528.32
515.4	21724.7
515.767	21923.56
516.135	22122.2
516.502	21946.39
516.869	22329.88
517.237	22632.92
517.604	22514.96
517.972	22874.05
518.339	23050.99
518.706	23120.59
519.073	23183.19
519.44	23299.34
519.808	23615.04
520.175	23503.41
520.542	23896.84
520.909	23889.39
521.276	23933.23
521.643	24217.96
522.009	24369.83
522.376	24505.19
522.743	24697.73
523.11	24911.28
523.477	25223.59
523.843	25422.23
524.21	25826.74
524.577	26128.42
524.943	26226.73
525.31	26413.84
525.676	26548.07
526.043	26808.41
526.409	26769.54
526.776	26975.63
527.142	27116.19
527.508	27254.27
527.874	27351.22
528.241	27561.61
528.607	27607.48
528.973	27811.32
529.339	27814.48
529.705	28122.04
530.071	28386.67
530.437	28529.72
530.803	28758.41
531.169	29111.62
531.535	29165.63
531.901	29236.82
532.267	29523.14
532.632	29762.45
532.998	29770.59
533.364	29990.24
533.73	30098.94
534.095	30246.96
534.461	30244.7
534.826	30413.73
535.192	30461.19
535.557	30630.45
535.923	30633.39
536.288	30558.59
536.653	30829.77
537.019	30894.63
537.384	30930.56
537.749	31128.07
538.114	31410.32
538.479	31377.55
538.845	31657.54
539.21	31670.65
539.575	31874.03
539.94	32135.5
540.305	32242.61
540.67	32375.04
541.034	32391.54
541.399	32622.26
541.764	32621.36
542.129	32540.23
542.494	32774.35
542.858	32589.27
543.223	32810.96
543.587	32902.93
543.952	32768.02
544.316	32940.45
544.681	33049.6
545.045	33044.63
545.41	33321.68
545.774	33261.57
546.138	33357.84
546.503	33591.96
546.867	33673.54
547.231	34004.15
547.595	34243.01
547.959	34322.11
548.324	34333.86
548.688	34487.98
549.052	34470.35
549.416	34698.37
549.779	34554.64
550.143	34600.29
550.507	34717.58
550.871	34793.73
551.235	34567.75
551.599	34903.79
551.962	34975.65
552.326	34955.31
552.689	35111.24
553.053	34995.76
553.417	35086.83
553.78	35624.44
554.143	35491.11
554.507	35666.48
554.87	35868.28
555.234	36308.27
555.597	36160.7
555.96	36280.25
556.323	36531.31
556.686	36736.73
557.05	36791.42
557.413	36998.65
557.776	36949.38
558.139	37155.03
558.502	37005.43
558.865	37269.6
559.228	37272.31
559.59	37256.04
559.953	37214.69
560.316	37536.48
560.679	37482.47
561.041	37727.21
561.404	37906.42
561.767	38263.7
562.129	38030.26
562.492	38486.97
562.854	38533.07
563.217	38655.33
563.579	38876.11
563.941	39209.66
564.304	39339.38
564.666	39603.78
565.028	39695.3
565.39	39776.65
565.753	40079.24
566.115	40129.41
566.477	40235.85
566.839	40397.43
567.201	40478.78
567.563	40358.11
567.925	40474.71
568.287	40590.87
568.648	40530.08
569.01	40610.53
569.372	40875.61
569.734	40778.43
570.095	40994.92
570.457	41189.72
570.819	41299.32
571.18	41348.59
571.542	41598.98
571.903	41826.77
572.265	41946.76
572.626	42164.84
572.987	42296.13
573.349	42603.92
573.71	42835.55
574.071	42809.11
574.432	43042.55
574.794	43159.16
575.155	43122.55
575.516	42943.8
575.877	43050.69
576.238	43024.48
576.599	43065.83
576.96	42964.59
577.32	43048.43
577.681	43148.54
578.042	43344.24
578.403	43211.59
578.763	43142.67
579.124	43328.42
579.485	43370.91
579.845	43752.59
580.206	43537.23
580.566	43806.38
580.927	44002.3
581.287	44299.47
581.648	43996.2
582.008	44338.79
582.368	44413.59
582.728	44408.85
583.089	44613.81
583.449	44482.29
583.809	44576.53
584.169	44733.36
584.529	44532.23
584.889	44702.85
585.249	44333.82
585.609	44261.96
585.969	44384.44
586.329	44153.94
586.688	44284.1
587.048	44114.16
587.408	44219.7
587.768	44133.37
588.127	44209.08
588.487	44132.92
588.846	44409.07
589.206	44144.67
589.565	44368.62
589.925	44531.1
590.284	44339.92
590.643	44434.61
591.003	44734.49
591.362	44976.97
591.721	44897.42
592.08	44850.19
592.44	45112.33
592.799	45156.17
593.158	45126.12
593.517	44871.66
593.876	45070.3
594.235	44833.69
594.593	44938.1
594.952	44877.99
595.311	44666.24
595.67	44717.76
596.029	44856.29
596.387	44665.56
596.746	44736.97
597.104	44663.53
597.463	44726.35
597.822	44752.79
598.18	44711.66
598.538	44784.43
598.897	44937.19
599.255	44696.07
599.613	45228.71
599.972	45211.54
600.33	45303.06
600.688	45231.65
601.046	45444.07
601.404	45534.47
601.762	45552.32
602.12	45866.44
602.478	45743.95
602.836	45807.91
603.194	45566.1
603.552	45763.61
603.91	45544.18
604.268	45521.36
604.625	45474.36
604.983	45377.63
605.341	45249.28
605.698	45396.84
606.056	45469.84
606.413	45479.33
606.771	45475.49
607.128	45553
607.485	45331.76
607.843	45456.5
608.2	45651.3
608.557	45737.4
608.914	45625.76
609.272	45867.79
609.629	46015.81
609.986	46082.25
610.343	45841.8
610.7	46251.28
611.057	46329.02
611.414	46348.91
611.771	46434.33
612.127	46515.46
612.484	46572.41
612.841	46725.85
613.198	46657.83
613.554	46709.12
613.911	46732.4
614.267	46778.95
614.624	46610.82
614.98	46795.68
615.337	46923.36
615.693	46670.93
616.05	46599.75
616.406	46851.04
616.762	46756.58
617.118	46703.93
617.475	46723.36
617.831	46754.1
618.187	46775.11
618.543	46825.05
618.899	46825.05
619.255	46768.11
619.611	46850.36
619.967	47038.61
620.323	47118.15
620.678	46945.73
621.034	47098.04
621.39	47059.4
621.746	47251.48
622.101	47556.79
622.457	47294.42
622.812	47408.54
623.168	47425.04
623.523	47458.26
623.879	47697.57
624.234	47413.06
624.589	47538.93
624.945	47477.92
625.3	47632.94
625.655	47514.98
626.01	47500.06
626.365	47486.73
626.72	47279.28
627.075	47241.09
627.43	47163.12
627.785	47151.6
628.14	47174.2
628.495	47055.56
628.85	47081.54
629.205	46779.86
629.559	46970.36
629.914	46889.69
630.269	46852.62
630.623	46775.56
630.978	46651.73
631.332	47041.32
631.687	47033.64
632.041	46947.76
632.396	46955.9
632.75	46924.94
633.104	47015.11
633.459	46960.64
633.813	46920.42
634.167	46967.2
634.521	46761.55
634.875	46866.63
635.229	46884.26
635.583	46724.94
635.937	46609.47
636.291	46692.63
636.645	46654.21
636.999	46527.89
637.352	46570.82
637.706	46128.8
638.06	46350.94
638.413	46359.08
638.767	46291.51
639.121	46125.19
639.474	45781.47
639.828	45781.47
640.181	45735.37
640.534	45578.76
640.888	45492.21
641.241	45345.54
641.594	45592.09
641.947	45642.71
642.301	45604.52
642.654	45705.54
643.007	45745.99
643.36	45715.93
643.713	45614.69
644.066	45779.66
644.419	45691.3
644.771	45664.18
645.124	45571.98
645.477	45665.99
645.83	45274.59
646.182	45088.38
646.535	44751.44
646.888	44565.9
647.24	44206.82
647.593	44220.6
647.945	44147.84
648.298	43783.1
648.65	43828.07
649.002	43639.83
649.355	43822.42
649.707	43960.04
650.059	44249.3
650.411	44780.81
650.763	44757.54
651.115	45050.41
651.467	44707.14
651.819	44696.07
652.171	44499.47
652.523	44483.65
652.875	44407.72
653.227	44384.44
653.578	44768.61
653.93	44669.18
654.282	44267.61
654.633	44209.08
654.985	44390.99
655.337	44397.32
655.688	44452.69
656.039	44624.21
656.391	44334.05
656.742	44570.65
657.094	44603.64
657.445	44949.85
657.796	44729.97
658.147	44817.65
658.498	44743.07
658.849	44758.44
659.2	44769.97
659.551	44504.21
659.902	44777.65
660.253	44616.07
660.604	44608.62
660.955	44301.96
661.306	44348.51
661.656	44259.47
662.007	44151.9
662.358	44073.94
662.708	44102.19
663.059	43985.35
663.409	43605.25
663.76	43854.28
664.11	43827.17
664.461	43695.19
664.811	43708.98
665.161	43774.06
665.511	43591.92
665.862	43883.44
666.212	43935.41
666.562	43897.67
666.912	43947.16
667.262	44055.64
667.612	44090.44
667.962	44058.8
668.312	44059.93
668.662	44273.93
669.011	44372.24
669.361	44281.62
669.711	44367.72
670.06	44304.22
670.41	44215.41
670.76	44136.09
671.109	44271.9
671.459	44139.25
671.808	44075.3
672.157	44031
672.507	43784.91
672.856	43739.71
673.205	43805.7
673.554	43736.32
673.904	43483.67
674.253	43642.09
674.602	43498.14
674.951	42851.37
675.3	42579.52
675.649	43293.4
675.998	43073.97
676.346	43132.04
676.695	43164.36
677.044	42918.94
677.393	42875.1
677.741	43019.73
678.09	42748.55
678.438	42712.85
678.787	42865.16
679.135	42918.94
679.484	42743.58
679.832	42869.45
680.181	42580.65
680.529	43151.7
680.877	42830.36
681.225	42726.4
681.573	43153.06
681.922	42690.93
682.27	42703.58
682.618	42890.24
682.966	42797.59
683.314	42741.09
683.661	42606.18
684.009	42211.16
684.357	42405.06
684.705	42285.06
685.053	42284.83
685.4	42306.3
685.748	42018.4
686.095	42007.55
686.443	41819.99
686.79	41563.27
687.138	41593.55
687.485	41521.46
687.832	41291.41
688.18	41231.53
688.527	40885.55
688.874	40979.56
689.221	40738.43
689.568	40622.05
689.915	40443.98
690.262	40357.2
690.609	40298.67
690.956	40218.22
691.303	40125.34
691.65	39927.38
691.997	40108.17
692.344	39811.68
692.69	39735.52
693.037	39793.15
693.383	39646.49
693.73	39853.71
694.077	39579.14
694.423	39469.77
694.769	39400.16
695.116	39304.12
695.462	39455.08
695.808	39431.8
696.155	39499.6
696.501	39044.92
696.847	39167.85
697.193	38845.6
697.539	39100.96
697.885	38897.8
698.231	38672.73
698.577	38503.69
698.923	38408.1
699.269	38390.25
699.614	38014.21
699.96	37827.32
700.306	37795.46
700.651	37776.7
700.997	37400.44
701.342	37244.97
701.688	37164.97
702.033	37200.9
702.379	37135.14
702.724	36972.88
703.069	36991.41
703.415	36461.03
703.76	36354.14
704.105	36400.7
704.45	36177.65
704.795	35913.25
705.14	36047.03
705.485	36049.07
705.83	35765.23
706.175	36033.25
706.52	35823.54
706.865	35833.25
707.209	35809.3
707.554	35757.77
707.899	35807.94
708.243	35508.06
708.588	35598.91
708.932	35431.91
709.277	35551.9
709.621	35582.64
709.966	35220.84
710.31	35578.34
710.654	35210.22
710.998	35266.71
711.342	35285.02
711.687	35104.68
712.031	34996.66
712.375	34837.35
712.719	34873.05
713.063	34713.51
713.407	34800.29
713.75	34404.36
714.094	34486.85
714.438	34240.3
714.782	34342.44
715.125	34045.96
715.469	34055.22
715.812	33748.11
716.156	33678.06
716.499	33669.24
716.843	33570.26
717.186	33195.58
717.53	33354.22
717.873	33234.23
718.216	33201.01
718.559	33154.68
718.902	32901.35
719.246	33031.29
719.589	33077.84
719.932	32940
720.275	32976.15
720.617	32842.82
720.96	32901.35
721.303	33069.94
721.646	33000.56
721.989	32972.31
722.331	33085.75
722.674	32945.42
723.016	33099.09
723.359	33014.34
723.701	33122.82
724.044	32803.73
724.386	32751.53
724.729	32911.52
725.071	32824.52
725.413	32948.13
725.755	32814.12
726.097	32762.37
726.439	32658.87
726.782	32531.87
727.124	32677.18
727.465	32227.7
727.807	32391.08
728.149	32259.11
728.491	32174.82
728.833	32267.02
729.175	31989.74
729.516	31997.87
729.858	31909.74
730.199	32052.11
730.541	31841.27
730.882	31823.41
731.224	31695.28
731.565	31631.56
731.906	31623.87
732.248	31592.23
732.589	31531.44
732.93	31502.52
733.271	31422.3
733.612	31400.6
733.953	31377.32
734.294	31400.6
734.635	31395.18
734.976	31534.61
735.317	31416.87
735.658	31516.53
735.999	31470.88
736.339	31508.62
736.68	31713.14
737.021	31608.96
737.361	31432.69
737.702	31629.52
738.042	31470.2
738.383	31597.43
738.723	31838.56
739.063	31683.76
739.404	31829.06
739.744	31850.53
740.084	31604.44
740.424	31758.11
740.764	31619.13
741.104	31661.39
741.444	31677.88
741.784	31544.1
742.124	31610.99
742.464	31578
742.804	31475.4
743.143	31554.72
743.483	31451.9
743.823	31211
744.162	31286.03
744.502	31344.56
744.841	31149.53
745.181	31290.55
745.52	31101.17
745.86	31096.43
746.199	31082.87
746.538	31109.54
746.877	31228.4
747.216	31078.8
747.556	31033.6
747.895	31128.74
748.234	30936.21
748.573	30917.22
748.911	30859.6
749.25	30991.35
749.589	30978.47
749.928	31124.68
750.267	31241.74
750.605	31260.94
750.944	31156.77
751.283	31102.98
751.621	31332.81
751.96	31314.28
752.298	31333.03
752.636	31435.63
752.975	31316.54
753.313	31336.87
753.651	31527.6
753.989	31357.21
754.327	31329.87
754.666	31296.87
755.004	31471.79
755.342	31592.69
755.679	31617.09
756.017	31484.21
756.355	31605.34
756.693	31433.82
757.031	31636.53
757.368	31614.38
757.706	31586.13
758.044	31360.15
758.381	31281.51
758.719	31314.95
759.056	31249.87
759.394	31267.27
759.731	31121.06
760.068	31075.64
760.405	31020.27
760.743	30934.62
761.08	31055.3
761.417	30919.94
761.754	30804.91
762.091	30889.88
762.428	30747.51
762.765	30609.66
763.102	30498.48
763.438	30349.33
763.775	30347.75
764.112	30385.49
764.449	30439.95
764.785	30378.03
765.122	30157.02
765.458	30164.02
765.795	30134.65
766.131	30251.48
766.467	30194.08
766.804	30189.33
767.14	30049.9
767.476	30058.26
767.812	30019.85
768.148	30117.02
768.485	29805.84
768.821	29837.93
769.157	29886.74
769.492	29783.69
769.828	29804.71
770.164	29534.21
770.5	29664.38
770.836	29628.67
771.171	29416.92
771.507	29393.65
771.842	29378.51
772.178	29338.96
772.513	29330.6
772.849	29207.66
773.184	29036.82
773.519	28892.87
773.855	28864.62
774.19	28719.77
774.525	28643.39
774.86	28611.07
775.195	28569.26
775.53	28687.45
775.865	28398.19
776.2	28255.37
776.535	28095.38
776.87	28152.55
777.205	27958.43
777.539	27785.1
777.874	27760.7
778.209	27581.94
778.543	27602.73
778.878	27226.47
779.212	27240.26
779.547	27049.08
779.881	27134.95
780.215	26837.78
780.55	26895.86
780.884	26640.5
781.218	26611.8
781.552	26604.79
781.886	26490.22
782.22	26366.83
782.554	26167.97
782.888	26143.79
783.222	25975.43
783.556	25985.15
783.889	25832.16
784.223	25814.76
784.557	25715.1
784.89	25891.59
785.224	25605.73
785.557	25675.78
785.891	25641.2
786.224	25511.26
786.558	25402.34
786.891	25250.48
787.224	25160.76
787.557	25115.57
787.891	25139.3
788.224	25092.74
788.557	25009.13
788.89	24990.6
789.223	24912.18
789.556	24897.5
789.888	24806.88
790.221	24681.23
790.554	24516.94
790.887	24531.18
791.219	24425.87
791.552	24265.42
791.884	24205.76
792.217	24152.88
792.549	24074.24
792.882	23865.66
793.214	23870.63
793.546	23931.19
793.879	23801.48
794.211	23574.82
794.543	23564.42
794.875	23489.85
795.207	23526.23
795.539	23256.63
795.871	23219.57
796.203	22944.55
796.535	22858.9
796.867	22911.11
797.198	22997.66
797.53	22861.39
797.862	22683.32
798.193	22639.48
798.525	22400.84
798.856	22564.68
799.188	22317.68
799.519	22217.34
799.85	22163.56
800.182	22096.89
800.513	22032.26
800.844	21728.54
801.175	21994.07
801.506	21865.03
801.837	21827.97
802.168	21863.68
802.499	21807.18
802.83	21664.59
803.161	21713.4
803.491	21778.93
803.822	21764.02
804.153	21603.34
804.483	21256.69
804.814	21392.28
805.145	21306.63
805.475	21334.42
805.805	21265.5
806.136	21268.89
806.466	21326.06
806.796	21115
807.126	21022.12
807.457	21052.85
807.787	21073.64
808.117	20952.06
808.447	20890.59
808.777	21002.91
809.107	20808.56
809.436	20682.69
809.766	20728.11
810.096	20609.02
810.426	20533.99
810.755	20678.62
811.085	20516.14
811.414	20425.07
811.744	20298.52
812.073	20257.39
812.403	20190.5
812.732	20142.37
813.061	20020.11
813.39	19868.25
813.719	19806.33
814.049	19968.81
814.378	19804.75
814.707	19724.52
815.036	19737.63
815.365	19566.11
815.693	19389.39
816.022	19470.52
816.351	19353.46
816.68	19170.64
817.008	19207.7
817.337	19041.6
817.665	19137.19
817.994	19119.34
818.322	19053.81
818.651	18979.91
818.979	18824.43
819.307	18922.74
819.636	18928.84
819.964	18787.15
820.292	18908.95
820.62	18855.62
820.948	18744.66
821.276	18861.72
821.604	18891.1
821.932	18945.11
822.259	18902.85
822.587	18802.29
822.915	18927.26
823.243	18926.58
823.57	18911.44
823.898	18927.03
824.225	18827.82
824.553	18853.36
824.88	18841.16
825.207	19028.04
825.535	18963.19
825.862	19040.47
826.189	18994.15
826.516	18961.38
826.843	19121.83
827.17	19115.27
827.497	19002.28
827.824	19087.48
828.151	19096.97
828.478	18954.83
828.805	19067.37
829.131	19025.79
829.458	18878.22
829.785	18918.22
830.111	18948.05
830.438	19039.8
830.764	18995.96
831.09	18886.58
831.417	18756.41
831.743	19008.16
832.069	18908.95
832.395	18743.98
832.722	18956.86
833.048	18773.36
833.374	18742.63
833.7	18599.36
834.026	18651.78
834.351	18621.95
834.677	18542.63
835.003	18606.14
835.329	18518.68
835.654	18507.61
835.98	18323.43
836.306	18377.67
836.631	18380.38
836.956	18276.2
837.282	18349.42
837.607	18269.65
837.932	18104.45
838.258	18180.84
838.583	18188.97
838.908	18069.2
839.233	17987.62
839.558	18031.01
839.883	18022.87
840.208	17865.82
840.533	17880.73
840.858	17971.58
841.182	17941.75
841.507	17918.24
841.832	17812.26
842.156	17823.78
842.481	17890
842.805	17821.75
843.13	17731.81
843.454	17789.43
843.778	17676.22
844.103	17632.83
844.427	17687.06
844.751	17690.45
845.075	17636.67
845.399	17562.09
845.723	17473.74
846.047	17427.86
846.371	17347.64
846.695	17367.52
847.019	17263.12
847.343	17236.45
847.666	17030.81
847.99	17006.4
848.313	17080.3
848.637	16970.02
848.96	16872.62
849.284	16854.32
849.607	16795.34
849.931	16682.57
850.254	16495.68
850.577	16459.07
850.9	16351.73
851.223	16244.62
851.546	16137.73
851.869	16035.13
852.192	16171.17
852.515	15955.58
852.838	15848.92
853.161	15881.69
853.483	15823.61
853.806	15693.22
854.129	15623.84
854.451	15603.73
854.774	15505.65
855.096	15424.3
855.419	15315.15
855.741	15293
856.063	15228.6
856.385	15181.59
856.708	15134.36
857.03	15015.04
857.352	15056.17
857.674	14928.49
857.996	14916.74
858.318	14886.68
858.64	14965.1
858.961	14756.52
859.283	14869.06
859.605	14721.49
859.926	14803.75
860.248	14748.38
860.57	14647.82
860.891	14649.85
861.212	14627.26
861.534	14610.99
861.855	14552.91
862.176	14545
862.498	14489.86
862.819	14499.8
863.14	14442.18
863.461	14556.75
863.782	14506.36
864.103	14525.56
864.424	14509.29
864.745	14559.01
865.065	14506.13
865.386	14401.95
865.707	14511.33
866.027	14497.09
866.348	14397.88
866.668	14526.24
866.989	14366.47
867.309	14333.25
867.63	14401.5
867.95	14346.13
868.27	14297.1
868.59	14311.33
868.91	14306.81
869.23	14214.84
869.55	14191.79
869.87	14148.63
870.19	14114.28
870.51	14093.71
870.83	14107.04
871.15	13902.76
871.469	13975.3
871.789	13999.93
872.109	13920.61
872.428	13857.56
872.748	13917.67
873.067	13803.55
873.386	13799.93
873.706	13804.91
874.025	13658.92
874.344	13726.26
874.663	13628.19
874.982	13662.54
875.301	13537.79
875.62	13545.7
875.939	13500.73
876.258	13526.95
876.577	13419.15
876.896	13505.7
877.214	13318.82
877.533	13366.95
877.852	13262.55
878.17	13309.55
878.489	13370.57
878.807	13236.33
879.125	13131.7
879.444	13206.28
879.762	13137.35
880.08	13170.8
880.398	13081.08
880.716	13078.37
881.034	13089.44
881.352	13094.42
881.67	13041.08
881.988	13065.94
882.306	13028.88
882.624	13029.56
882.941	13043.8
883.259	13029.33
883.577	12945.27
883.894	12949.33
884.212	12883.57
884.529	12911.14
884.846	12873.4
885.164	12875.44
885.481	12859.85
885.798	12870.69
886.115	12833.41
886.432	12740.3
886.75	12785.72
887.067	12772.84
887.383	12720.19
887.7	12823.01
888.017	12705.73
888.334	12769.68
888.651	12673.86
888.967	12683.13
889.284	12582.79
889.6	12598.38
889.917	12569.68
890.233	12534.43
890.55	12463.7
890.866	12537.59
891.182	12386.86
891.498	12413.53
891.815	12335.11
892.131	12294.44
892.447	12315
892.763	12199.98
893.079	12156.14
893.395	12074.56
893.71	12066.65
894.026	12003.82
894.342	12042.92
894.657	11884.28
894.973	11830.49
895.289	11841.34
895.604	11794.56
895.92	11683.83
896.235	11568.35
896.55	11610.16
896.865	11605.19
897.181	11538.75
897.496	11511.18
897.811	11408.13
898.126	11374.91
898.441	11270.73
898.756	11251.3
899.071	11212.66
899.386	11250.85
899.7	11036.16
900.015	11064.19
900.33	10967.01
900.644	10964.75
900.959	10935.83
901.273	10895.15
901.588	10831.2
901.902	10791.88
902.216	10819.67
902.531	10726.79
902.845	10758.88
903.159	10720.24
903.473	10657.87
903.787	10645.67
904.101	10542.39
904.415	10662.84
904.729	10553.47
905.042	10429.85
905.356	10440.93
905.67	10519.12
905.984	10462.17
906.297	10500.59
906.611	10430.53
906.924	10317.77
907.237	10378.1
907.551	10327.93
907.864	10212.68
908.177	10228.95
908.491	10207.03
908.804	10137.43
909.117	10095.62
909.43	9984.89
909.743	9983.99
910.056	10004.78
910.368	9946.25
910.681	9928.17
910.994	9939.02
911.307	9895.86
911.619	9844.33
911.932	9902.18
912.244	9741.74
912.557	9752.13
912.869	9705.35
913.181	9740.38
913.494	9676.65
913.806	9592.81
914.118	9555.98
914.43	9454.74
914.742	9505.58
915.054	9441.63
915.366	9382.65
915.678	9337
915.99	9306.49
916.302	9256.55
916.613	9200.05
916.925	9120.73
917.236	9127.29
917.548	8975.43
917.859	9030.12
918.171	8969.55
918.482	8964.13
918.794	8895.43
919.105	8822.89
919.416	8718.94
919.727	8765.72
920.038	8753.74
920.349	8600.07
920.66	8630.8
920.971	8513.75
921.282	8534.08
921.593	8481.2
921.903	8445.05
922.214	8419.96
922.525	8385.84
922.835	8362.34
923.146	8243.02
923.456	8222.23
923.767	8192.85
924.077	8232.62
924.387	8175.67
924.697	8113.98
925.008	8051.38
925.318	7973.19
925.628	7947.88
925.938	8001.89
926.248	7864.5
926.558	7861.56
926.867	7838.96
927.177	7846.64
927.487	7799.41
927.796	7778.4
928.106	7716.03
928.416	7719.19
928.725	7758.06
929.034	7641.68
929.344	7663.15
929.653	7684.84
929.962	7612.3
930.271	7567.78
930.581	7583.15
930.89	7492.75
931.199	7462.47
931.508	7493.88
931.817	7453.43
932.125	7420.89
932.434	7455.02
932.743	7300.44
933.051	7300.9
933.36	7325.08
933.669	7213.21
933.977	7245.76
934.286	7224.51
934.594	7237.39
934.902	7173.22
935.21	7074.91
935.519	7104.97
935.827	7103.84
936.135	7118.53
936.443	7011.41
936.751	7026.78
937.059	7040.34
937.367	6978.87
937.674	6978.64
937.982	6949.04
938.29	6898.19
938.597	6878.99
938.905	6779.1
939.213	6837.86
939.52	6695.71
939.827	6744.53
940.135	6722.38
940.442	6659.33
940.749	6616.39
941.056	6611.65
941.363	6497.75
941.67	6490.52
941.977	6423.86
942.284	6398.09
942.591	6358.1
942.898	6346.34
943.205	6349.73
943.511	6250.08
943.818	6266.57
944.125	6203.3
944.431	6171.89
944.738	6141.83
945.044	6104.99
945.35	6101.83
945.657	6066.8
945.963	6048.05
946.269	6029.52
946.575	5990.2
946.881	5969.86
947.187	5953.59
947.493	5945.9
947.799	5883.76
948.105	5845.11
948.41	5841.05
948.716	5800.82
949.022	5749.3
949.327	5821.84
949.633	5681.96
949.938	5727.83
950.244	5674.05
950.549	5649.87
950.854	5603.99
951.16	5614.39
951.465	5611.22
951.77	5627.72
952.075	5543.43
952.38	5477.44
952.685	5549.3
952.99	5511.79
953.294	5445.13
953.599	5463.43
953.904	5416.43
954.209	5431.34
954.513	5440.61
954.818	5335.98
955.122	5331.91
955.426	5345.69
955.731	5365.35
956.035	5358.35
956.339	5290.33
956.643	5275.19
956.948	5251.46
957.252	5273.6
957.556	5157
957.86	5224.34
958.163	5175.3
958.467	5182.99
958.771	5155.19
959.075	5163.78
959.378	5124.23
959.682	5128.98
959.985	5088.07
960.289	5077.45
960.592	5007.4
960.896	4998.58
961.199	4967.85
961.502	4949.09
961.805	4958.58
962.108	4886.27
962.411	4881.75
962.714	4867.97
963.017	4798.81
963.32	4813.28
963.623	4783.45
963.926	4851.47
964.228	4737.35
964.531	4714.97
964.833	4701.19
965.136	4651.02
965.438	4656.22
965.741	4622.55
966.043	4642.66
966.345	4594.75
966.648	4556.56
966.95	4537.58
967.252	4509.78
967.554	4493.51
967.856	4420.97
968.158	4429.78
968.46	4444.47
968.761	4404.25
969.063	4374.19
969.365	4339.17
969.666	4307.08
969.968	4294.87
970.269	4294.19
970.571	4270.47
970.872	4229.56
971.174	4207.19
971.475	4181.43
971.776	4186.63
972.077	4151.37
972.378	4154.09
972.679	4108.21
972.98	4137.81
973.281	4078.61
973.582	4025.05
973.883	4082.22
974.183	4058.04
974.484	3953.41
974.785	3946.18
975.085	3940.53
975.386	3965.62
975.686	3957.93
975.986	3910.02
976.287	3926.3
976.587	3863.7
976.887	3869.57
977.187	3886.07
977.487	3866.41
977.787	3825.73
978.087	3847.2
978.387	3769.91
978.687	3810.37
978.987	3769.24
979.286	3775.11
979.586	3726.07
979.885	3743.25
980.185	3732.4
980.484	3703.48
980.784	3658.96
981.083	3647.21
981.382	3671.39
981.682	3657.38
981.981	3638.84
982.28	3632.07
982.579	3555.46
982.878	3617.6
983.177	3562.24
983.475	3587.09
983.774	3533.54
984.073	3525.85
984.372	3531.28
984.67	3530.37
984.969	3528.79
985.267	3462.13
985.566	3462.8
985.864	3445.63
986.162	3465.06
986.461	3442.47
986.759	3456.48
987.057	3403.82
987.355	3390.04
987.653	3390.49
987.951	3383.03
988.249	3331.28
988.547	3320.44
988.844	3351.85
989.142	3315.01
989.44	3268.69
989.737	3281.11
990.035	3259.65
990.332	3217.16
990.63	3200.21
990.927	3243.6
991.224	3208.12
991.521	3189.37
991.819	3118.18
992.116	3142.81
992.413	3113.21
992.71	3061.91
993.006	3070.27
993.303	3047.67
993.6	3068.69
993.897	3031.86
994.193	3002.03
994.49	3033.66
994.787	3016.04
995.083	2964.51
995.379	2897.17
995.676	2887.23
995.972	2899.66
996.268	2909.6
996.565	2869.37
996.861	2878.64
997.157	2837.96
997.453	2849.49
997.749	2787.79
998.044	2802.26
998.34	2773.56
998.636	2764.97
998.932	2725.65
999.227	2709.83
999.523	2715.71
999.818	2656.27
1000.114	2682.49
1000.409	2655.37
1000.704	2656.72
1001	2631.19
1001.295	2602.94
1001.59	2610.62
1001.885	2635.03
1002.18	2631.41
1002.475	2584.64
1002.77	2551.19
1003.065	2551.64
1003.359	2534.02
1003.654	2500.12
1003.949	2543.28
1004.243	2496.73
1004.538	2509.84
1004.832	2495.82
1005.127	2468.48
1005.421	2429.61
1005.715	2442.49
1006.009	2423.96
1006.304	2387.58
1006.598	2400.23
1006.892	2387.58
1007.186	2362.04
1007.48	2334.25
1007.773	2335.38
1008.067	2308.26
1008.361	2309.39
1008.655	2314.13
1008.948	2291.31
1009.242	2307.58
1009.535	2265.1
1009.829	2278.88
1010.122	2220.58
1010.415	2259.67
1010.708	2228.49
1011.001	2256.96
1011.295	2182.61
1011.588	2179.67
1011.881	2171.54
1012.173	2163.63
1012.466	2162.05
1012.759	2128.83
1013.052	2153.46
1013.344	2147.13
1013.637	2084.31
1013.93	2101.71
1014.222	2069.85
1014.514	2079.11
1014.807	2083.18
1015.099	2063.29
1015.391	2063.07
1015.683	2029.85
1015.976	2035.95
1016.268	2012.45
1016.56	1978.55
1016.851	1983.3
1017.143	1965.89
1017.435	1939.23
1017.727	1974.03
1018.018	1930.42
1018.31	1941.71
1018.602	1923.64
1018.893	1901.49
1019.185	1903.52
1019.476	1877.76
1019.767	1872.56
1020.058	1850.19
1020.35	1844.32
1020.641	1829.63
1020.932	1803.19
1021.223	1783.98
1021.514	1781.94
1021.804	1767.93
1022.095	1741.95
1022.386	1736.3
1022.677	1718.9
1022.967	1752.57
1023.258	1733.58
1023.548	1666.02
1023.839	1644.77
1024.129	1663.53
1024.419	1654.49
1024.709	1665.79
1025	1636.41
1025.29	1636.19
1025.58	1618.79
1025.87	1621.5
1026.16	1587.37
1026.449	1626.24
1026.739	1552.12
1027.029	1564.78
1027.319	1539.92
1027.608	1516.19
1027.898	1519.8
1028.187	1533.14
1028.477	1487.04
1028.766	1508.28
1029.055	1469.18
1029.344	1451.56
1029.634	1454.04
1029.923	1451.78
1030.212	1424.89
1030.501	1437.32
1030.79	1416.3
1031.078	1420.37
1031.367	1399.81
1031.656	1402.75
1031.945	1384.44
1032.233	1381.28
1032.522	1344.22
1032.81	1362.97
1033.099	1334.05
1033.387	1359.13
1033.675	1334.72
1033.963	1341.28
1034.251	1311.45
1034.54	1304.9
1034.828	1296.53
1035.116	1280.71
1035.403	1289.75
1035.691	1250.43
1035.979	1265.57
1036.267	1244.11
1036.554	1243.43
1036.842	1248.85
1037.129	1237.78
1037.417	1251.56
1037.704	1207.72
1037.992	1205.91
1038.279	1193.94
1038.566	1208.17
1038.853	1208.17
1039.14	1208.17
