Data from blue_shiny_book_FLMS001491_00071.txt Node
Date: Wed Feb 08 15:27:30 GMT 2017
User: dcchb
Spectrometer: FLMS00149
Trigger mode: 0
Integration Time (sec): 2.000000E-2
Scans to average: 10
Electric dark correction enabled: true
Nonlinearity correction enabled: false
Boxcar width: 0
XAxis mode: Wavelengths
Number of Pixels in Spectrum: 2048
>>>>>Begin Spectral Data<<<<<
341.393	-21.47
341.776	-21.47
342.16	-21.47
342.543	-69.83
342.927	-60.56
343.31	-74.8
343.693	-70.28
344.077	-52.43
344.46	-69.38
344.843	-34.58
345.226	-56.04
345.61	-40.68
345.993	-5.2
346.376	3.16
346.759	9.49
347.142	35.48
347.525	47.46
347.908	53.11
348.291	66.89
348.674	83.84
349.057	103.95
349.44	116.16
349.823	113.67
350.206	174.46
350.588	201.12
350.971	201.8
351.354	208.36
351.737	233.44
352.119	249.26
352.502	253.33
352.884	266.43
353.267	281.8
353.65	265.98
354.032	310.95
354.414	301.24
354.797	322.03
355.179	317.51
355.562	322.48
355.944	333.32
356.326	327.67
356.709	350.27
357.091	331.29
357.473	336.26
357.855	339.2
358.238	346.88
358.62	347.34
359.002	356.83
359.384	342.36
359.766	336.94
360.148	335.36
360.53	343.27
360.912	343.49
361.294	338.75
361.676	344.62
362.057	329.26
362.439	331.74
362.821	317.05
363.203	322.03
363.584	327.67
363.966	331.97
364.348	305.75
364.729	327.67
365.111	304.62
365.493	333.55
365.874	318.41
366.256	326.32
366.637	321.35
367.019	300.56
367.4	329.26
367.781	322.48
368.163	312.53
368.544	330.84
368.925	331.52
369.306	331.74
369.688	339.43
370.069	319.77
370.45	314.12
370.831	312.76
371.212	315.7
371.593	321.57
371.974	352.76
372.355	338.75
372.736	329.26
373.117	319.31
373.498	309.14
373.879	338.52
374.26	337.62
374.641	324.29
375.021	331.06
375.402	343.95
375.783	337.62
376.163	323.61
376.544	338.97
376.925	352.53
377.305	341.91
377.686	319.99
378.066	340.1
378.447	351.4
378.827	351.86
379.208	356.83
379.588	349.6
379.968	368.35
380.349	357.05
380.729	362.7
381.109	357.28
381.489	355.92
381.87	377.39
382.25	382.81
382.63	374.68
383.01	393.66
383.39	366.09
383.77	367.67
384.15	377.39
384.53	378.75
384.91	383.94
385.29	398.86
385.67	385.07
386.049	384.85
386.429	392.76
386.809	407.9
387.189	430.72
387.568	391.63
387.948	413.32
388.328	402.25
388.707	418.97
389.087	416.49
389.466	442.02
389.846	429.82
390.225	413.55
390.605	419.42
390.984	430.27
391.363	450.38
391.743	442.25
392.122	435.24
392.501	442.7
392.881	459.87
393.26	463.94
393.639	467.78
394.018	458.97
394.397	474.79
394.776	455.13
395.155	490.38
395.534	475.92
395.913	479.08
396.292	475.69
396.671	513.66
397.05	493.55
397.429	482.93
397.808	508.24
398.186	505.98
398.565	519.76
398.944	492.42
399.323	519.53
399.701	538.29
400.08	529.7
400.458	510.04
400.837	541.68
401.215	531.29
401.594	541
401.972	565.86
402.351	572.41
402.729	547.56
403.107	576.03
403.486	587.56
403.864	576.71
404.242	563.83
404.62	586.2
404.999	609.25
405.377	611.28
405.755	622.58
406.133	597.27
406.511	611.51
406.889	639.08
407.267	629.81
407.645	647.44
408.023	689.02
408.401	674.78
408.779	658.74
409.156	693.77
409.534	691.51
409.912	703.26
410.29	708.68
410.667	734.22
411.045	719.53
411.422	729.92
411.8	738.06
412.178	764.27
412.555	785.74
412.933	765.4
413.31	769.47
413.687	773.54
414.065	798.62
414.442	787.32
414.819	832.52
415.197	833.88
415.574	843.59
415.951	829.36
416.328	854.67
416.705	902.12
417.082	865.74
417.46	897.6
417.837	914.1
418.214	898.06
418.591	926.76
418.967	918.39
419.344	910.48
419.721	935.34
420.098	969.01
420.475	949.35
420.852	977.15
421.228	996.13
421.605	1006.53
421.982	1006.3
422.358	1051.72
422.735	1020.09
423.111	1068.9
423.488	1037.94
423.864	1055.79
424.241	1075
424.617	1071.84
424.994	1077.03
425.37	1113.64
425.746	1137.37
426.123	1137.6
426.499	1135.34
426.875	1156.13
427.251	1175.56
427.627	1214.43
428.003	1218.27
428.379	1222.34
428.756	1260.76
429.132	1266.86
429.507	1282
429.883	1294.88
430.259	1312.96
430.635	1347.08
431.011	1340.3
431.387	1387.08
431.763	1413.75
432.138	1406.29
432.514	1461.2
432.89	1445.16
433.265	1499.4
433.641	1513.18
434.016	1514.76
434.392	1519.73
434.767	1569.9
435.143	1575.55
435.518	1614.19
435.894	1624.14
436.269	1687.64
436.644	1700.29
437.02	1706.17
437.395	1716.11
437.77	1723.57
438.145	1754.98
438.52	1740.75
438.895	1796.79
439.271	1748.2
439.646	1831.14
440.021	1827.75
440.395	1866.39
440.77	1852.38
441.145	1860.29
441.52	1956.78
441.895	1936.9
442.27	1963.56
442.645	1956.78
443.019	1996.78
443.394	1983.22
443.769	1996.56
444.143	2001.98
444.518	2045.37
444.892	2015.77
445.267	2081.3
445.641	2115.42
446.016	2101.19
446.39	2106.84
446.764	2131.47
447.139	2143.45
447.513	2198.59
447.887	2195.87
448.262	2207.85
448.636	2214.18
449.01	2272.26
449.384	2222.09
449.758	2246.49
450.132	2318.36
450.506	2332.59
450.88	2337.79
451.254	2375.53
451.628	2391.8
452.002	2439.94
452.376	2447.85
452.75	2480.39
453.123	2481.29
453.497	2541.4
453.871	2561.97
454.244	2601.74
454.618	2609.2
454.992	2642.19
455.365	2663.88
455.739	2769.87
456.112	2751.57
456.486	2832.92
456.859	2843.32
457.232	2910.88
457.606	2892.58
457.979	2937.32
458.352	2965.12
458.725	3056.19
459.099	3050.54
459.472	3118.11
459.845	3150.88
460.218	3184.78
460.591	3187.03
460.964	3211.89
461.337	3298.44
461.71	3385.9
462.083	3370.76
462.456	3420.02
462.829	3426.58
463.201	3471.1
463.574	3573.24
463.947	3626.57
464.32	3677.42
464.692	3688.72
465.065	3728.26
465.438	3787.47
465.81	3814.36
466.183	3831.09
466.555	3990.63
466.928	3968.94
467.3	3979.1
467.672	4015.71
468.045	4171.64
468.417	4213.9
468.789	4233.56
469.161	4294.8
469.534	4346.1
469.906	4455.7
470.278	4474.91
470.65	4506.32
471.022	4589.03
471.394	4702.02
471.766	4732.3
472.138	4790.38
472.51	4889.81
472.882	4948.57
473.253	5033.77
473.625	5131.16
473.997	5260.2
474.369	5245.51
474.74	5281.67
475.112	5398.95
475.484	5499.06
475.855	5638.72
476.227	5684.37
476.598	5842.11
476.97	5822.45
477.341	5956
477.713	6064.47
478.084	6100.63
478.455	6305.37
478.827	6354.18
479.198	6544.69
479.569	6576.1
479.94	6774.74
480.311	6808.41
480.682	6980.61
481.053	7125.24
481.424	7252.24
481.795	7280.94
482.166	7436.19
482.537	7458.79
482.908	7673.7
483.279	7737.42
483.65	7933.58
484.021	8141.48
484.391	8217.19
484.762	8301.48
485.133	8390.74
485.503	8518.42
485.874	8647.68
486.244	8756.83
486.615	8908.47
486.985	9044.06
487.356	9175.35
487.726	9265.97
488.097	9469.13
488.467	9483.59
488.837	9736.92
489.207	9784.6
489.578	10030.24
489.948	10101.88
490.318	10203.35
490.688	10311.37
491.058	10493.96
491.428	10689.89
491.798	10746.84
492.168	10999.26
492.538	11022.08
492.908	11107.73
493.278	11246.26
493.648	11322.19
494.017	11524.89
494.387	11616.19
494.757	11652.8
495.126	11822.29
495.496	11867.03
495.866	11979.57
496.235	12138.89
496.605	12265.67
496.974	12377.75
497.344	12502.04
497.713	12606.22
498.082	12640.57
498.452	12850.28
498.821	12912.43
499.19	12904.97
499.559	13072.65
499.928	13154.91
500.298	13178.64
500.667	13373.43
501.036	13399.87
501.405	13525.52
501.774	13565.52
502.143	13787.43
502.512	13766.87
502.88	14024.49
503.249	13934.77
503.618	14149.01
503.987	14211.38
504.356	14339.96
504.724	14353.75
505.093	14440.98
505.462	14460.18
505.83	14651.82
506.199	14749.44
506.567	14935.65
506.936	14913.51
507.304	15158.7
507.672	15169.54
508.041	15180.62
508.409	15456.32
508.777	15592.36
509.145	15722.3
509.514	15730.66
509.882	15843.88
510.25	15993.25
510.618	16153.47
510.986	16220.14
511.354	16379
511.722	16473.69
512.09	16569.51
512.458	16494.48
512.826	16763.18
513.193	16699.9
513.561	16856.28
513.929	16936.05
514.297	17106.89
514.664	17261.69
515.032	17274.8
515.4	17567.45
515.767	17614.45
516.135	17685.64
516.502	17793.43
516.869	17999.07
517.237	18136.92
517.604	18158.84
517.972	18366.97
518.339	18504.37
518.706	18496.24
519.073	18680.19
519.44	18832.95
519.808	18862.33
520.175	18880.18
520.542	19224.81
520.909	19279.04
521.276	19231.13
521.643	19556.1
522.009	19684.91
522.376	19768.52
522.743	19820.27
523.11	20073.6
523.477	20284.89
523.843	20469.97
524.21	20749.96
524.577	20945.21
524.943	21125.55
525.31	21156.96
525.676	21351.3
526.043	21545.42
526.409	21693.67
526.776	21882.36
527.142	21908.35
527.508	21918.29
527.874	22126.65
528.241	22186.99
528.607	22284.39
528.973	22433.08
529.339	22466.75
529.705	22663.13
530.071	22912.17
530.437	23180.63
530.803	23247.75
531.169	23520.51
531.535	23510.34
531.901	23610.68
532.267	23683.45
532.632	23985.13
532.998	24063.1
533.364	24288.63
533.73	24282.3
534.095	24413.14
534.461	24434.61
534.826	24474.61
535.192	24569.98
535.557	24698.33
535.923	24498.34
536.288	24689.52
536.653	24828.5
537.019	24891.32
537.384	25097.42
537.749	25255.61
538.114	25380.8
538.479	25484.53
538.845	25591.64
539.21	25563.4
539.575	25861.47
539.94	25986.89
540.305	26110.05
540.67	26284.05
541.034	26086.77
541.399	26336.71
541.764	26314.34
542.129	26382.13
542.494	26249.93
542.858	26341.45
543.223	26285.18
543.587	26429.59
543.952	26518.62
544.316	26624.38
544.681	26564.95
545.045	26782.12
545.41	27032.06
545.774	27045.39
546.138	26987.99
546.503	27305.95
546.867	27223.69
547.231	27525.83
547.595	27615.77
547.959	27790.46
548.324	27710.01
548.688	27947.06
549.052	27964.69
549.416	27866.84
549.779	27755.88
550.143	27797.24
550.507	27986.38
550.871	27863.45
551.235	27838.36
551.599	27991.58
551.962	27995.87
552.326	28067.51
552.689	28308.41
553.053	28224.57
553.417	28418.91
553.78	28763.31
554.143	28662.3
554.507	28810.77
554.87	28931.22
555.234	29394.26
555.597	29229.51
555.96	29423.18
556.323	29671.54
556.686	29473.35
557.05	29703.17
557.413	29789.73
557.776	29721.03
558.139	29899.78
558.502	29822.94
558.865	29753.12
559.228	29784.3
559.59	29826.11
559.953	29838.99
560.316	30164.86
560.679	30243.5
561.041	30482.59
561.404	30590.38
561.767	30728.23
562.129	30653.21
562.492	31093.19
562.854	31112.85
563.217	31223.59
563.579	31358.27
563.941	31670.13
564.304	31767.3
564.666	32064.69
565.028	32013.62
565.39	31961.19
565.753	32181.53
566.115	32367.28
566.477	32452.93
566.839	32379.04
567.201	32553.27
567.563	32405.25
567.925	32598.24
568.287	32529.09
568.648	32583.1
569.01	32658.35
569.372	32788.29
569.734	32766.14
570.095	32903.54
570.457	33038.23
570.819	33294.72
571.18	33338.56
571.542	33581.49
571.903	33718.21
572.265	33940.12
572.626	34034.59
572.987	34185.54
573.349	34397.06
573.71	34591.63
574.071	34535.14
574.432	34469.83
574.794	34714.79
575.155	34567.23
575.516	34465.53
575.877	34627.11
576.238	34477.29
576.599	34577.17
576.96	34578.3
577.32	34621.91
577.681	34762.7
578.042	34823.49
578.403	34788.46
578.763	34764.74
579.124	34809.93
579.485	35023.03
579.845	35253.99
580.206	35281.11
580.566	35353.19
580.927	35477.26
581.287	35687.88
581.648	35563.36
582.008	35886.06
582.368	35737.59
582.728	35904.14
583.089	35872.73
583.449	35756.35
583.809	35712.73
584.169	35835.22
584.529	35721.32
584.889	35966.74
585.249	35569.46
585.609	35417.83
585.969	35600.87
586.329	35534.88
586.688	35538.05
587.048	35468.67
587.408	35494.43
587.768	35500.54
588.127	35486.07
588.487	35569.69
588.846	35794.99
589.206	35566.75
589.565	35710.02
589.925	35895.55
590.284	35865.05
590.643	36084.25
591.003	36268.88
591.362	36455.99
591.721	36331.25
592.08	36276.79
592.44	36444.24
592.799	36412.38
593.158	36534.41
593.517	36276.56
593.876	36340.29
594.235	36195.21
594.593	36295.77
594.952	36207.41
595.311	36071.37
595.67	36043.12
596.029	36238.14
596.387	36071.37
596.746	36008.54
597.104	36067.3
597.463	35895.55
597.822	36209.22
598.18	36108.2
598.538	36102.78
598.897	36426.39
599.255	36085.83
599.613	36593.39
599.972	36465.93
600.33	36758.13
600.688	36664.8
601.046	36887.84
601.404	37001.29
601.762	36848.3
602.12	36959.48
602.478	36976.2
602.836	37063.66
603.194	36670.45
603.552	36947.5
603.91	36737.34
604.268	36898.69
604.625	36646.72
604.983	36632.03
605.341	36481.53
605.698	36632.48
606.056	36662.54
606.413	36585.25
606.771	36704.57
607.128	36740.73
607.485	36550.45
607.843	36660.73
608.2	36871.35
608.557	37107.05
608.914	37051.23
609.272	37226.37
609.629	37359.7
609.986	37515.85
610.343	37389.3
610.7	37650.99
611.057	37579.58
611.414	37503.65
611.771	37700.48
612.127	37879
612.484	37875.61
612.841	37975.72
613.198	37926.46
613.554	37890.08
613.911	38044.65
614.267	37979.57
614.624	37949.74
614.98	37802.62
615.337	38015.95
615.693	37860.93
616.05	37739.35
616.406	37932.56
616.762	37638.56
617.118	37668.16
617.475	37714.49
617.831	37855.5
618.187	37893.69
618.543	38002.16
618.899	38290.29
619.255	38133.01
619.611	38307.24
619.967	38384.53
620.323	38460.23
620.678	38492.77
621.034	38413.68
621.39	38656.84
621.746	38573
622.101	39173.21
622.457	38701.13
622.812	38749.72
623.168	38990.16
623.523	38878.07
623.879	38935.25
624.234	38753.33
624.589	38604.41
624.945	38794.46
625.3	38707.68
625.655	38690.28
626.01	38603.5
626.365	38482.15
626.72	38241.03
627.075	38371.87
627.43	38397.86
627.785	38262.95
628.14	38214.36
628.495	38343.4
628.85	38332.55
629.205	38196.74
629.559	38358.31
629.914	38158.54
630.269	38392.89
630.623	38396.5
630.978	38285.77
631.332	38426.56
631.687	38605.54
632.041	38498.65
632.396	38603.73
632.75	38356.51
633.104	38464.3
633.459	38564.64
633.813	38376.39
634.167	38310.18
634.521	38259.11
634.875	38236.28
635.229	38118.77
635.583	37877.42
635.937	38019.79
636.291	37900.02
636.645	37841.49
636.999	37756.07
637.352	37763.75
637.706	37452.8
638.06	37704.55
638.413	37496.87
638.767	37489.64
639.121	37375.29
639.474	37117.67
639.828	37006.71
640.181	37157.67
640.534	37076.77
640.888	36997.67
641.241	36824.34
641.594	37196.54
641.947	37206.48
642.301	37201.06
642.654	37282.86
643.007	37308.4
643.36	37292.13
643.713	37326.25
644.066	37449.64
644.419	37247.38
644.771	37147.5
645.124	37136.2
645.477	37199.7
645.83	37020.27
646.182	36532.82
646.535	36399.04
646.888	36125.15
647.24	35824.82
647.593	35874.31
647.945	35713.41
648.298	35651.04
648.65	35466.41
649.002	35425.51
649.355	35520.65
649.707	35717.25
650.059	35853.97
650.411	36284.47
650.763	36332.15
651.115	36541.86
651.467	36284.47
651.819	36260.74
652.171	36370.34
652.523	36142.78
652.875	36295.09
653.227	36230.91
653.578	36490.34
653.93	36491.02
654.282	36289.67
654.633	36181.2
654.985	36244.92
655.337	36354.98
655.688	36455.31
656.039	36596.1
656.391	36293.73
656.742	36477.46
657.094	36545.93
657.445	36511.36
657.796	36380.29
658.147	36438.59
658.498	36347.97
658.849	36381.19
659.2	36393.39
659.551	36350
659.902	36374.18
660.253	36270.68
660.604	36127.19
660.955	36085.83
661.306	36178.71
661.656	35973.29
662.007	35904.37
662.358	35903.91
662.708	35924.48
663.059	35901.43
663.409	35557.48
663.76	35819.4
664.11	35697.59
664.461	35594.32
664.811	35637.26
665.161	35521.33
665.511	35513.42
665.862	35600.42
666.212	35742.79
666.562	36026.4
666.912	35853.29
667.262	35918.6
667.612	36014.42
667.962	36114.3
668.312	36043.57
668.662	36198.14
669.011	36227.3
669.361	36208.31
669.711	36218.71
670.06	36072.95
670.41	35966.74
670.76	35914.54
671.109	35952.5
671.459	35873.86
671.808	35600.65
672.157	35698.95
672.507	35603.36
672.856	35565.39
673.205	35555.9
673.554	35651.04
673.904	35529.69
674.253	35403.14
674.602	35222.12
674.951	34637.06
675.3	34575.36
675.649	35041.34
675.998	35046.31
676.346	34964.5
676.695	34987.78
677.044	34706.88
677.393	34771.52
677.741	34961.34
678.09	34907.56
678.438	34775.36
678.787	34857.84
679.135	34939.19
679.484	34726.32
679.832	34993.66
680.181	34768.35
680.529	35224.61
680.877	34976.71
681.225	34902.59
681.573	35051.96
681.922	34813.32
682.27	34901
682.618	34883.83
682.966	34782.36
683.314	34661.91
683.661	34580.33
684.009	34327.46
684.357	34488.13
684.705	34338.76
685.053	34306.22
685.4	34281.13
685.748	33912.55
686.095	33770.41
686.443	33541.04
686.79	33500.81
687.138	33395.73
687.485	33535.84
687.832	33355.73
688.18	33278.22
688.527	33054.5
688.874	33104.44
689.221	32983.77
689.568	32754.39
689.915	32678.01
690.262	32716.2
690.609	32728.63
690.956	32636.66
691.303	32602.08
691.65	32404.57
691.997	32435.31
692.344	32242.32
692.69	32189.66
693.037	32308.08
693.383	32097.01
693.73	32206.16
694.077	32098.14
694.423	32212.71
694.769	31851.14
695.116	31974.3
695.462	31953.28
695.808	31811.82
696.155	32015.66
696.501	31657.7
696.847	31642.11
697.193	31404.6
697.539	31531.83
697.885	31288.44
698.231	31069.69
698.577	30995.34
698.923	30986.76
699.269	30622.7
699.614	30540.21
699.96	30478.52
700.306	30335.93
700.651	30065.2
700.997	30080.57
701.342	29794.92
701.688	29813.91
702.033	29730.52
702.379	29531.43
702.724	29467.02
703.069	29637.86
703.415	29253.24
703.76	29203.75
704.105	29293.47
704.45	29140.93
704.795	29030.88
705.14	28947.49
705.485	28973.25
705.83	28863.65
706.175	29073.36
706.52	28883.31
706.865	28849.18
707.209	28899.35
707.554	28860.26
707.899	28833.59
708.243	28608.29
708.588	28690.32
708.932	28652.58
709.277	28597.44
709.621	28723.31
709.966	28487.61
710.31	28560.15
710.654	28235.42
710.998	28294.85
711.342	28244.23
711.687	28181.63
712.031	27990.68
712.375	27918.81
712.719	27947.74
713.063	27908.19
713.407	27856.22
713.75	27566.73
714.094	27541.65
714.438	27321.99
714.782	27296.68
715.125	27005.17
715.469	27146.4
715.812	26905.28
716.156	26746.19
716.499	26686.76
716.843	26889.46
717.186	26681.11
717.53	26623.71
717.873	26727.43
718.216	26621.67
718.559	26572.41
718.902	26435.24
719.246	26745.29
719.589	26581.67
719.932	26545.52
720.275	26625.29
720.617	26534.44
720.96	26548.91
721.303	26464.16
721.646	26556.36
721.989	26649.92
722.331	26666.42
722.674	26643.14
723.016	26705.74
723.359	26700.99
723.701	26672.52
724.044	26512.98
724.386	26271.63
724.729	26555.91
725.071	26362.7
725.413	26411.96
725.755	26406.54
726.097	26238.41
726.439	26135.36
726.782	26088.35
727.124	26103.72
727.465	25883.84
727.807	25818.53
728.149	25908.47
728.491	25646.33
728.833	25816.27
729.175	25677.06
729.516	25542.38
729.858	25537.86
730.199	25628.03
730.541	25495.83
730.882	25505.32
731.224	25611.76
731.565	25283.85
731.906	25352.33
732.248	25312.1
732.589	25329.96
732.93	25190.75
733.271	25238.66
733.612	25264.19
733.953	25337.86
734.294	25349.16
734.635	25327.02
734.976	25316.85
735.317	25256.96
735.658	25362.72
735.999	25379.67
736.339	25452.66
736.68	25594.13
737.021	25487.01
737.361	25515.49
737.702	25586.22
738.042	25501.93
738.383	25495.6
738.723	25629.38
739.063	25633
739.404	25588.03
739.744	25579.67
740.084	25594.58
740.424	25692.43
740.764	25560.01
741.104	25560.46
741.444	25442.95
741.784	25243.63
742.124	25306.68
742.464	25244.99
742.804	25283.18
743.143	25330.18
743.483	25271.88
743.823	25092.45
744.162	25077.53
744.502	25259.45
744.841	25001.15
745.181	25163.18
745.52	25126.34
745.86	25168.38
746.199	25110.75
746.538	25048.15
746.877	25113.46
747.216	25122.28
747.556	25110.07
747.895	25074.37
748.234	25074.14
748.573	25024.43
748.911	25140.81
749.25	25195.5
749.589	25039.79
749.928	25252.9
750.267	25288.83
750.605	25278.66
750.944	25330.86
751.283	25293.57
751.621	25590.51
751.96	25377.86
752.298	25677.29
752.636	25612.89
752.975	25617.86
753.313	25590.06
753.651	25682.71
753.989	25736.5
754.327	25815.82
754.666	25682.49
755.004	25870.28
755.342	25918.41
755.679	25872.77
756.017	25694.69
756.355	25810.62
756.693	25672.55
757.031	25827.34
757.368	25713.9
757.706	25762.94
758.044	25742.15
758.381	25706.89
758.719	25689.72
759.056	25648.82
759.394	25659.21
759.731	25417.41
760.068	25427.13
760.405	25353.23
760.743	25286.79
761.08	25531.98
761.417	25355.72
761.754	25352.55
762.091	25318.66
762.428	25233.91
762.765	25106.01
763.102	25101.94
763.438	25137.42
763.775	25105.78
764.112	25199.11
764.449	25113.92
764.785	25107.36
765.122	25016.07
765.458	24920.93
765.795	25028.95
766.131	25010.64
766.467	25020.81
766.804	24999.12
767.14	25015.84
767.476	25120.7
767.812	24975.84
768.148	24973.58
768.485	24849.29
768.821	24781.72
769.157	24703.98
769.492	24738.56
769.828	24831.44
770.164	24617.21
770.5	24668.28
770.836	24647.04
771.171	24583.76
771.507	24570.88
771.842	24324.56
772.178	24364.56
772.513	24427.15
772.849	24171.34
773.184	24244.79
773.519	24113.94
773.855	24006.83
774.19	23983.78
774.525	23800.05
774.86	23895.19
775.195	23694.29
775.53	23608.87
775.865	23546.5
776.2	23391.48
776.535	23279.84
776.87	23258.37
777.205	23200.07
777.539	23071.71
777.874	23190.8
778.209	22850.25
778.543	22727.31
778.878	22622.23
779.212	22636.24
779.547	22527.09
779.881	22581.78
780.215	22426.75
780.55	22440.77
780.884	22374.33
781.218	22236.93
781.552	22259.75
781.886	22044.62
782.22	21962.59
782.554	21914.45
782.888	21795.36
783.222	21781.12
783.556	21708.58
783.889	21642.14
784.223	21576.38
784.557	21651.86
784.89	21593.56
785.224	21337.29
785.557	21389.95
785.891	21335.26
786.224	21295.94
786.558	21247.35
786.891	21040.12
787.224	20916.51
787.557	20948.6
787.891	20932.56
788.224	21042.84
788.557	20981.37
788.89	20832.45
789.223	20904.31
789.556	20722.84
789.888	20697.53
790.221	20610.08
790.554	20480.37
790.887	20439.69
791.219	20207.15
791.552	20297.55
791.884	20149.98
792.217	20036.54
792.549	19919.7
792.882	19975.52
793.214	19865.69
793.546	19892.81
793.879	19681.74
794.211	19632.7
794.543	19668.64
794.875	19506.61
795.207	19470.9
795.539	19399.72
795.871	19318.81
796.203	19179.61
796.535	19111.81
796.867	19173.06
797.198	19077.01
797.53	19097.58
797.862	18898.03
798.193	18893.06
798.525	18758.83
798.856	18848.77
799.188	18675.44
799.519	18670.24
799.85	18531.72
800.182	18548.89
800.513	18563.35
800.844	18429.35
801.175	18463.02
801.506	18428.44
801.837	18346.41
802.168	18342.12
802.499	18283.59
802.83	18272.29
803.161	18117.49
803.491	18125.17
803.822	18133.08
804.153	18037.04
804.483	17878.63
804.814	17938.96
805.145	17942.13
805.475	17963.14
805.805	17899.19
806.136	17734.9
806.466	17882.92
806.796	17806.31
807.126	17673.21
807.457	17757.95
807.787	17610.38
808.117	17567.9
808.447	17526.54
808.777	17643.83
809.107	17526.77
809.436	17345.98
809.766	17288.58
810.096	17380.56
810.426	17193.45
810.755	17215.82
811.085	17193.45
811.414	17184.41
811.744	16997.07
812.073	16900.35
812.403	16991.87
812.732	16845.43
813.061	16772.21
813.39	16609.28
813.719	16546.91
814.049	16724.53
814.378	16640.47
814.707	16513.92
815.036	16556.85
815.365	16476.63
815.693	16227.14
816.022	16285.9
816.351	16312.11
816.68	16168.61
817.008	16181.95
817.337	15992.35
817.665	16020.82
817.994	16070.31
818.322	16029.64
818.651	15889.53
818.979	15954.61
819.307	15987.38
819.636	15908.96
819.964	15698.57
820.292	15812.92
820.62	15760.94
820.948	15760.94
821.276	15900.15
821.604	15798.68
821.932	15855.63
822.259	15803.65
822.587	15888.85
822.915	15819.25
823.243	15938.11
823.57	15852.46
823.898	15920.49
824.225	15764.78
824.553	15763.2
824.88	15889.98
825.207	15908.06
825.535	15923.2
825.862	15953.48
826.189	15922.97
826.516	16080.03
826.843	16058.11
827.17	16016.3
827.497	15946.93
827.824	15938.56
828.151	15993.03
828.478	15958.22
828.805	16036.64
829.131	15906.47
829.458	15897.44
829.785	15797.55
830.111	15813.82
830.438	15911.45
830.764	15784.9
831.09	15851.11
831.417	15704.9
831.743	15794.84
832.069	15756.87
832.395	15668.97
832.722	15748.96
833.048	15620.83
833.374	15631.91
833.7	15514.85
834.026	15489.31
834.351	15642.07
834.677	15554.85
835.003	15526.37
835.329	15467.16
835.654	15355.75
835.98	15351.23
836.306	15439.59
836.631	15337.9
836.956	15439.82
837.282	15368.41
837.607	15235.08
837.932	15279.82
838.258	15169.32
838.583	15223.78
838.908	15132.03
839.233	15152.6
839.558	15046.84
839.883	15070.34
840.208	15101.3
840.533	15080.51
840.858	15104.91
841.182	15135.65
841.507	15112.37
841.832	15091.58
842.156	15125.7
842.481	15123.9
842.805	15039.6
843.13	14953.73
843.454	14965.71
843.778	14859.27
844.103	14945.82
844.427	14857.01
844.751	14875.54
845.075	14819.27
845.399	14782.89
845.723	14646.17
846.047	14751.02
846.371	14588.32
846.695	14611.59
847.019	14536.57
847.343	14528.43
847.666	14394.2
847.99	14366.63
848.313	14355.1
848.637	14236.01
848.96	14185.84
849.284	14200.53
849.607	14097.26
849.931	13990.82
850.254	13924.15
850.577	13877.83
850.9	13695.23
851.223	13722.13
851.546	13582.02
851.869	13554.67
852.192	13555.58
852.515	13398.74
852.838	13404.39
853.161	13350.84
853.483	13253.44
853.806	13217.73
854.129	13164.4
854.451	13111.97
854.774	13024.52
855.096	12995.59
855.419	12951.98
855.741	12934.58
856.063	12849.15
856.385	12865.42
856.708	12775.03
857.03	12726.45
857.352	12751.76
857.674	12650.06
857.996	12692.32
858.318	12545.43
858.64	12550.18
858.961	12562.61
859.283	12470.18
859.605	12337.75
859.926	12491.42
860.248	12486.23
860.57	12399.22
860.891	12375.95
861.212	12247.81
861.534	12399
861.855	12366.23
862.176	12408.26
862.498	12398.09
862.819	12400.35
863.14	12220.02
863.461	12229.73
863.782	12229.96
864.103	12311.54
864.424	12257.3
864.745	12284.42
865.065	12269.96
865.386	12196.74
865.707	12074.94
866.027	12095.73
866.348	12035.84
866.668	12116.52
866.989	12093.24
867.309	11980.25
867.63	12041.49
867.95	11989.29
868.27	11971.66
868.59	12053.47
868.91	12004.2
869.23	11958.33
869.55	11925.79
869.87	11824.77
870.19	11918.33
870.51	11825.23
870.83	11880.14
871.15	11752.46
871.469	11793.36
871.789	11761.5
872.109	11734.61
872.428	11574.16
872.748	11656.64
873.067	11630.43
873.386	11620.26
873.706	11569.64
874.025	11536.42
874.344	11441.28
874.663	11462.07
874.982	11366.71
875.301	11400.6
875.62	11273.83
875.939	11258.24
876.258	11260.72
876.577	11215.07
876.896	11238.8
877.214	11226.37
877.533	11130.1
877.852	11263.88
878.17	11185.02
878.489	11186.15
878.807	11154.96
879.125	11136.88
879.444	11159.25
879.762	11102.76
880.08	11106.6
880.398	11015.53
880.716	11008.07
881.034	10921.07
881.352	11028.64
881.67	10912.48
881.988	10928.07
882.306	10900.28
882.624	10890.11
882.941	10891.24
883.259	10883.78
883.577	10835.2
883.894	10825.7
884.212	10831.13
884.529	10754.29
884.846	10809.21
885.164	10787.06
885.481	10782.32
885.798	10842.43
886.115	10663.22
886.432	10670.45
886.75	10685.37
887.067	10742.99
887.383	10620.51
887.7	10688.08
888.017	10659.15
888.334	10652.6
888.651	10582.77
888.967	10583.68
889.284	10566.28
889.6	10539.84
889.917	10515.88
890.233	10521.31
890.55	10471.59
890.866	10456.9
891.182	10422.32
891.498	10343.91
891.815	10382.55
892.131	10262.78
892.447	10271.14
892.763	10237.92
893.079	10103.92
893.395	10094.2
893.71	10090.58
894.026	10080.19
894.342	10012.84
894.657	9942.56
894.973	9933.3
895.289	9871.15
895.604	9868.89
895.92	9750.03
896.235	9706.19
896.55	9665.96
896.865	9647.88
897.181	9632.29
897.496	9631.16
897.811	9620.09
898.126	9563.82
898.441	9452.41
898.756	9430.26
899.071	9401.56
899.386	9372.63
899.7	9238.85
900.015	9218.74
900.33	9219.64
900.644	9162.47
900.959	9195.24
901.273	9119.99
901.588	9055.13
901.902	9047.67
902.216	9052.42
902.531	9057.61
902.845	9030.27
903.159	8957.28
903.473	8971.29
903.787	8976.26
904.101	8887.9
904.415	8948.24
904.729	8833.21
905.042	8771.29
905.356	8741.92
905.67	8747.57
905.984	8788.7
906.297	8758.19
906.611	8727.91
906.924	8682.71
907.237	8679.09
907.551	8621.47
907.864	8633.22
908.177	8595.93
908.491	8542.6
908.804	8528.14
909.117	8476.61
909.43	8435.03
909.743	8407.01
910.056	8455.82
910.368	8408.59
910.681	8377.18
910.994	8336.5
911.307	8331.31
911.619	8273.23
911.932	8314.58
912.244	8176.96
912.557	8187.81
912.869	8113.23
913.181	8104.87
913.494	8115.04
913.806	8054.48
914.118	8111.65
914.43	7946.01
914.742	7975.84
915.054	7895.16
915.366	7824.88
915.678	7788.27
915.99	7752.79
916.302	7703.07
916.613	7656.07
916.925	7662.4
917.236	7640.48
917.548	7528.62
917.859	7532.68
918.171	7449.97
918.482	7437.77
918.794	7429.86
919.105	7421.27
919.416	7334.27
919.727	7325.01
920.038	7261.28
920.349	7175.18
920.66	7203.65
920.971	7203.65
921.282	7218.12
921.593	7091.56
921.903	7062.19
922.214	7059.02
922.525	6967.27
922.835	6967.27
923.146	6890.67
923.456	6891.57
923.767	6844.79
924.077	6898.8
924.387	6840.72
924.697	6766.6
925.008	6802.53
925.318	6770.22
925.628	6672.82
925.938	6746.49
926.248	6657.23
926.558	6668.98
926.867	6664.01
927.177	6605.7
927.487	6545.82
927.796	6484.8
928.106	6521.18
928.416	6494.52
928.725	6466.04
929.034	6401.41
929.344	6390.11
929.653	6430.79
929.962	6316.22
930.271	6372.26
930.581	6340.4
930.89	6337.69
931.199	6286.39
931.508	6259.04
931.817	6280.74
932.125	6250.01
932.434	6214.98
932.743	6157.8
933.051	6186.73
933.36	6148.54
933.669	6133.62
933.977	6132.95
934.286	6130.91
934.594	6073.06
934.902	6042.1
935.21	6051.37
935.519	6047.3
935.827	6024.47
936.135	6025.38
936.443	5868.09
936.751	5909
937.059	5900.41
937.367	5829.68
937.674	5831.71
937.982	5808.89
938.29	5780.86
938.597	5770.47
938.905	5687.08
939.213	5666.74
939.52	5606.41
939.827	5664.71
940.135	5600.08
940.442	5520.76
940.749	5505.17
941.056	5545.84
941.363	5506.07
941.67	5458.61
941.977	5417.48
942.284	5404.38
942.591	5362.8
942.898	5330.93
943.205	5395.56
943.511	5284.38
943.818	5303.36
944.125	5227.66
944.431	5194.67
944.738	5129.36
945.044	5127.77
945.35	5109.47
945.657	5045.29
945.963	5079.64
946.269	5065.86
946.575	5020.43
946.881	4993.32
947.187	4986.08
947.493	4946.08
947.799	4884.62
948.105	4896.59
948.41	4899.98
948.716	4895.46
949.022	4812.75
949.327	4843.04
949.633	4812.08
949.938	4801.68
950.244	4781.8
950.549	4752.64
950.854	4729.37
951.16	4677.39
951.465	4720.55
951.77	4641.46
952.075	4655.24
952.38	4674.45
952.685	4623.16
952.99	4598.3
953.294	4572.31
953.599	4570.5
953.904	4573.44
954.209	4562.59
954.513	4549.94
954.818	4504.51
955.122	4528.47
955.426	4492.76
955.731	4501.12
956.035	4446.21
956.339	4435.59
956.643	4474.01
956.948	4445.98
957.252	4424.29
957.556	4379.77
957.86	4400.11
958.163	4361.69
958.467	4318.53
958.771	4329.6
959.075	4329.15
959.378	4267.46
959.682	4288.47
959.985	4308.36
960.289	4201.02
960.592	4239.66
960.896	4212.77
961.199	4180.68
961.502	4223.62
961.805	4161.7
962.108	4136.84
962.411	4138.65
962.714	4086.45
963.017	4094.36
963.32	4065.66
963.623	4062.27
963.926	4070.63
964.228	3969.61
964.531	3968.71
964.833	3988.14
965.136	3969.61
965.438	3941.82
965.741	3916.06
966.043	3855.94
966.345	3863.18
966.648	3839.67
966.95	3841.48
967.252	3783.18
967.554	3796.96
967.856	3787.7
968.158	3714.7
968.46	3704.54
968.761	3723.97
969.063	3671.09
969.365	3672.67
969.666	3633.58
969.968	3597.65
970.269	3613.01
970.571	3570.08
970.872	3594.48
971.174	3597.42
971.475	3567.82
971.776	3532.79
972.077	3560.13
972.378	3517.65
972.679	3519.91
972.98	3460.93
973.281	3446.46
973.582	3435.16
973.883	3399.01
974.183	3377.54
974.484	3363.3
974.785	3378.44
975.085	3333.25
975.386	3376.41
975.686	3363.98
975.986	3379.8
976.287	3313.13
976.587	3279.01
976.887	3242.17
977.187	3336.86
977.487	3258.45
977.787	3236.98
978.087	3197.43
978.387	3215.73
978.687	3203.53
978.987	3162.63
979.286	3188.62
979.586	3138.9
979.885	3194.49
980.185	3151.1
980.484	3174.83
980.784	3151.1
981.083	3131.9
981.382	3131.67
981.682	3134.15
981.981	3108.84
982.28	3070.43
982.579	3092.57
982.878	3061.39
983.177	3044.67
983.475	3033.14
983.774	3038.11
984.073	2982.97
984.372	2999.7
984.67	2954.95
984.969	2977.55
985.267	2988.17
985.566	3000.37
985.864	2965.57
986.162	2962.41
986.461	2927.38
986.759	2900.94
987.057	2874.05
987.355	2895.52
987.653	2862.75
987.951	2850.09
988.249	2848.29
988.547	2856.65
988.844	2804.45
989.142	2829.08
989.44	2768.51
989.737	2776.65
990.035	2743.88
990.332	2731.23
990.63	2752.47
990.927	2776.65
991.224	2688.52
991.521	2674.05
991.819	2651.68
992.116	2705.47
992.413	2653.94
992.71	2632.47
993.006	2627.73
993.303	2589.08
993.6	2606.94
993.897	2558.58
994.193	2559.03
994.49	2556.54
994.787	2529.65
995.083	2512.93
995.379	2516.32
995.676	2496.21
995.972	2493.72
996.268	2451.46
996.565	2440.61
996.861	2426.6
997.157	2437
997.453	2444.23
997.749	2408.07
998.044	2397.68
998.34	2329.88
998.636	2355.64
998.932	2325.36
999.227	2285.14
999.523	2302.54
999.818	2318.58
1000.114	2307.28
1000.409	2276.78
1000.704	2257.12
1001	2233.16
1001.295	2262.31
1001.59	2235.65
1001.885	2217.12
1002.18	2194.07
1002.475	2199.26
1002.77	2177.57
1003.065	2165.14
1003.359	2198.36
1003.654	2145.25
1003.949	2143.9
1004.243	2135.31
1004.538	2120.85
1004.832	2124.92
1005.127	2119.04
1005.421	2113.62
1005.715	2072.04
1006.009	2083.56
1006.304	2062.09
1006.598	2057.57
1006.892	2040.85
1007.186	2034.97
1007.48	2002.43
1007.773	2054.41
1008.067	1987.74
1008.361	1948.88
1008.655	1980.29
1008.948	1971.93
1009.242	1981.87
1009.535	1963.56
1009.829	1960.85
1010.122	1925.83
1010.415	1928.76
1010.708	1930.34
1011.001	1912.94
1011.295	1888.09
1011.588	1893.51
1011.881	1906.16
1012.173	1874.53
1012.466	1877.92
1012.759	1858.71
1013.052	1837.92
1013.344	1849.44
1013.637	1843.34
1013.93	1823.45
1014.222	1812.61
1014.514	1787.52
1014.807	1788.43
1015.099	1756.11
1015.391	1785.94
1015.683	1747.07
1015.976	1705.94
1016.268	1732.84
1016.56	1718.15
1016.851	1687.41
1017.143	1723.34
1017.435	1677.24
1017.727	1681.99
1018.018	1673.18
1018.31	1672.5
1018.602	1649.9
1018.893	1625.72
1019.185	1611.48
1019.476	1629.11
1019.767	1622.78
1020.058	1597.47
1020.35	1577.59
1020.641	1530.81
1020.932	1554.31
1021.223	1541.2
1021.514	1521.99
1021.804	1523.58
1022.095	1539.85
1022.386	1494.88
1022.677	1513.63
1022.967	1465.05
1023.258	1471.83
1023.548	1486.74
1023.839	1447.65
1024.129	1451.94
1024.419	1457.81
1024.709	1444.48
1025	1421.66
1025.29	1406.74
1025.58	1398.16
1025.87	1404.03
1026.16	1386.63
1026.449	1385.05
1026.739	1341.66
1027.029	1356.35
1027.319	1317.48
1027.608	1337.82
1027.898	1348.21
1028.187	1314.54
1028.477	1291.49
1028.766	1257.59
1029.055	1296.92
1029.344	1265.05
1029.634	1252.17
1029.923	1279.97
1030.212	1248.78
1030.501	1234.54
1030.79	1206.97
1031.078	1225.05
1031.367	1228.67
1031.656	1209.69
1031.945	1192.74
1032.233	1185.73
1032.522	1198.61
1032.81	1211.95
1033.099	1190.25
1033.387	1161.78
1033.675	1151.61
1033.963	1161.55
1034.251	1153.64
1034.54	1167.88
1034.828	1151.16
1035.116	1129.46
1035.403	1124.26
1035.691	1122.23
1035.979	1104.83
1036.267	1120.87
1036.554	1093.53
1036.842	1098.05
1037.129	1093.76
1037.417	1096.92
1037.704	1087.66
1037.992	1060.09
1038.279	1080.65
1038.566	1052.85
1038.853	1052.85
1039.14	1052.85
