Data from blue_shiny_book_FLMS001491_00032.txt Node
Date: Wed Feb 08 15:26:52 GMT 2017
User: dcchb
Spectrometer: FLMS00149
Trigger mode: 0
Integration Time (sec): 2.000000E-2
Scans to average: 10
Electric dark correction enabled: true
Nonlinearity correction enabled: false
Boxcar width: 0
XAxis mode: Wavelengths
Number of Pixels in Spectrum: 2048
>>>>>Begin Spectral Data<<<<<
341.393	-26.19
341.776	-26.19
342.16	-26.19
342.543	-82.23
342.927	-80.87
343.31	-73.42
343.693	-70.93
344.077	-64.83
344.46	-58.05
344.843	-57.6
345.226	-57.6
345.61	-29.8
345.993	-18.05
346.376	-6.3
346.759	-4.27
347.142	47.26
347.525	58.33
347.908	59.46
348.291	74.83
348.674	96.75
349.057	104.21
349.44	134.94
349.823	141.04
350.206	172.23
350.588	213.81
350.971	214.49
351.354	231.21
351.737	238.44
352.119	260.59
352.502	268.5
352.884	264.2
353.267	277.08
353.65	305.33
354.032	284.31
354.414	318.21
354.797	315.05
355.179	317.31
355.562	337.65
355.944	343.75
356.326	346.01
356.709	326.57
357.091	338.32
357.473	346.01
357.855	343.75
358.238	331.54
358.62	328.61
359.002	333.58
359.384	355.27
359.766	344.43
360.148	329.51
360.53	348.72
360.912	362.05
361.294	333.8
361.676	343.07
362.057	335.84
362.439	322.28
362.821	339.23
363.203	355.27
363.584	330.64
363.966	308.95
364.348	348.49
364.729	347.14
365.111	336.29
365.493	351.43
365.874	323.86
366.256	306.69
366.637	314.37
367.019	306.91
367.4	333.58
367.781	322.73
368.163	348.72
368.544	344.2
368.925	327.25
369.306	333.8
369.688	339.45
370.069	321.38
370.45	345.1
370.831	341.71
371.212	328.16
371.593	327.03
371.974	339.45
372.355	330.19
372.736	334.26
373.117	362.96
373.498	356.63
373.879	325.9
374.26	343.07
374.641	312.34
375.021	346.01
375.402	339.45
375.783	338.55
376.163	354.82
376.544	365.22
376.925	355.27
377.305	350.53
377.686	350.98
378.066	369.74
378.447	347.36
378.827	378.55
379.208	355.05
379.588	351.88
379.968	369.51
380.349	358.21
380.729	363.41
381.109	365.44
381.489	376.29
381.87	373.35
382.25	370.19
382.63	361.37
383.01	390.3
383.39	380.13
383.77	372.22
384.15	393.01
384.53	382.39
384.91	386.68
385.29	405.22
385.67	397.76
386.049	416.29
386.429	414.25
386.809	402.5
387.189	454.48
387.568	415.38
387.948	409.28
388.328	408.83
388.707	423.29
389.087	432.11
389.466	435.05
389.846	416.06
390.225	443.18
390.605	437.08
390.984	452.22
391.363	456.97
391.743	456.29
392.122	473.01
392.501	481.6
392.881	427.81
393.26	479.34
393.639	459
394.018	486.57
394.397	491.77
394.776	488.38
395.155	496.29
395.534	512.56
395.913	481.37
396.292	509.17
396.671	500.58
397.05	499
397.429	517.98
397.808	530.41
398.186	520.92
398.565	511.65
398.944	540.13
399.323	524.99
399.701	538.32
400.08	555.95
400.458	543.97
400.837	558.21
401.215	557.53
401.594	553.46
401.972	587.36
402.351	572.44
402.729	580.35
403.107	581.93
403.486	598.88
403.864	628.49
404.242	598.43
404.62	608.83
404.999	609.28
405.377	631.65
405.755	636.4
406.133	630.75
406.511	646.79
406.889	646.11
407.267	676.62
407.645	659.67
408.023	698.54
408.401	706.68
408.779	699.44
409.156	712.55
409.534	725.88
409.912	741.03
410.29	734.92
410.667	753.23
411.045	757.07
411.422	758.65
411.8	784.64
412.178	803.17
412.555	806.33
412.933	793.91
413.31	830.29
413.687	844.3
414.065	826.9
414.442	847.92
414.819	832.55
415.197	876.84
415.574	901.25
415.951	884.52
416.328	915.03
416.705	917.97
417.082	901.02
417.46	942.15
417.837	946.9
418.214	949.38
418.591	964.97
418.967	976.73
419.344	992.54
419.721	963.62
420.098	1003.39
420.475	1014.92
420.852	992.09
421.228	1041.81
421.605	1047.01
421.982	1051.07
422.358	1050.17
422.735	1079.1
423.111	1111.19
423.488	1095.14
423.864	1106.21
424.241	1127
424.617	1152.54
424.994	1136.04
425.37	1167
425.746	1192.54
426.123	1173.56
426.499	1175.82
426.875	1218.08
427.251	1269.83
427.627	1279.54
428.003	1288.81
428.379	1313.21
428.756	1309.82
429.132	1322.71
429.507	1353.89
429.883	1360.67
430.259	1356.38
430.635	1376.72
431.011	1368.35
431.387	1475.47
431.763	1474.79
432.138	1489.93
432.514	1529.71
432.89	1496.26
433.265	1550.04
433.641	1583.26
434.016	1596.82
434.392	1629.59
434.767	1637.5
435.143	1657.39
435.518	1659.42
435.894	1696.71
436.269	1731.96
436.644	1761.56
437.02	1784.16
437.395	1750.72
437.77	1796.37
438.145	1799.75
438.52	1825.52
438.895	1872.52
439.271	1852.41
439.646	1914.1
440.021	1921.11
440.395	1968.56
440.77	1950.94
441.145	1990.94
441.52	2015.57
441.895	2015.34
442.27	2047.88
442.645	2037.71
443.019	2084.72
443.394	2084.72
443.769	2109.58
444.143	2086.53
444.518	2177.37
444.892	2149.8
445.267	2140.54
445.641	2179.41
446.016	2213.08
446.39	2227.77
446.764	2251.27
447.139	2261.66
447.513	2287.88
447.887	2297.59
448.262	2300.53
448.636	2330.14
449.01	2331.72
449.384	2352.51
449.758	2398.38
450.132	2437.03
450.506	2458.04
450.88	2460.3
451.254	2460.53
451.628	2506.63
452.002	2531.71
452.376	2544.82
452.75	2591.82
453.123	2624.82
453.497	2647.64
453.871	2691.03
454.244	2736.45
454.618	2751.37
454.992	2774.42
455.365	2839.73
455.739	2893.29
456.112	2921.53
456.486	2919.5
456.859	2978.03
457.232	2999.27
457.606	3006.73
457.979	3033.85
458.352	3133.73
458.725	3178.25
459.099	3200.17
459.472	3272.03
459.845	3270.9
460.218	3335.76
460.591	3350.9
460.964	3402.42
461.337	3459.6
461.71	3517.68
462.083	3565.13
462.456	3606.94
462.829	3605.81
463.201	3652.81
463.574	3664.11
463.947	3735.3
464.32	3849.42
464.692	3891.9
465.065	3918.57
465.438	3988.4
465.81	4007.38
466.183	4083.99
466.555	4153.59
466.928	4171.22
467.3	4173.7
467.672	4261.84
468.045	4347.71
468.417	4371.66
468.789	4351.1
469.161	4491.89
469.534	4547.93
469.906	4647.36
470.278	4674.48
470.65	4740.92
471.022	4790.18
471.394	4946.56
471.766	4995.6
472.138	5045.77
472.51	5117.41
472.882	5224.52
473.253	5268.14
473.625	5335.48
473.997	5476.95
474.369	5476.27
474.74	5537.06
475.112	5655.47
475.484	5772.53
475.855	5914
476.227	5979.53
476.598	6113.99
476.97	6166.65
477.341	6295.23
477.713	6398.73
478.084	6427.43
478.455	6665.39
478.827	6743.13
479.198	6868.32
479.569	6900.41
479.94	7072.38
480.311	7149.67
480.682	7266.96
481.053	7461.53
481.424	7580.17
481.795	7687.96
482.166	7807.28
482.537	7926.15
482.908	8128.85
483.279	8152.81
483.65	8298.12
484.021	8533.36
484.391	8613.81
484.762	8633.02
485.133	8743.08
485.503	8843.64
485.874	9053.12
486.244	9086.57
486.615	9307.58
486.985	9435.49
487.356	9626.89
487.726	9654.24
488.097	9949.6
488.467	10023.72
488.837	10202.02
489.207	10352.98
489.578	10578.28
489.948	10586.87
490.318	10740.31
490.688	10943.92
491.058	11019.4
491.428	11168.1
491.798	11271.82
492.168	11403.8
492.538	11500.97
492.908	11564.7
493.278	11774.41
493.648	11841.52
494.017	12003.78
494.387	12169.43
494.757	12286.71
495.126	12464.56
495.496	12528.06
495.866	12648.06
496.235	12823.19
496.605	12951.78
496.974	13048.05
497.344	13178.44
497.713	13163.3
498.082	13263.86
498.452	13398.77
498.821	13402.39
499.19	13494.14
499.559	13614.59
499.928	13726.22
500.298	13773.23
500.667	14029.94
501.036	14041.92
501.405	14270.61
501.774	14340.44
502.143	14593.54
502.512	14603.71
502.88	14696.82
503.249	14819.98
503.618	14852.52
503.987	14896.81
504.356	14944.27
504.724	14986.3
505.093	15095
505.462	15175
505.83	15267.65
506.199	15441.88
506.567	15619.05
506.936	15612.5
507.304	15819.73
507.672	16007.29
508.041	16027.18
508.409	16190.34
508.777	16422.87
509.145	16433.49
509.514	16526.6
509.882	16693.6
510.25	16721.85
510.618	16853.14
510.986	16968.62
511.354	17054.27
511.722	17125.91
512.09	17265.11
512.458	17298.78
512.826	17353.47
513.193	17522.28
513.561	17534.93
513.929	17823.29
514.297	18000.91
514.664	18123.39
515.032	18308.02
515.4	18461.24
515.767	18552.08
516.135	18715.02
516.502	18664.62
516.869	18941
517.237	19092.18
517.604	18891.06
517.972	19217.83
518.339	19258.05
518.706	19297.6
519.073	19373.53
519.44	19503.7
519.808	19644.26
520.175	19644.03
520.542	19973.06
520.909	20190.23
521.276	20218.03
521.643	20415.76
522.009	20663.89
522.376	20855.75
522.743	21006.26
523.11	21209.87
523.477	21410.09
523.843	21564.21
524.21	21744.99
524.577	21902.05
524.943	21909.51
525.31	21899.11
525.676	22342.27
526.043	22300.01
526.409	22367.58
526.776	22588.81
527.142	22687.34
527.508	22779.54
527.874	23051.4
528.241	23185.41
528.607	23446.19
528.973	23711.72
529.339	23633.98
529.705	23922.11
530.071	24121.2
530.437	24238.26
530.803	24424.24
531.169	24480.51
531.535	24546.73
531.901	24678.7
532.267	24703.33
532.632	24816.55
532.998	24963.67
533.364	24952.37
533.73	24984.91
534.095	25270.55
534.461	25352.13
534.826	25508.51
535.192	25661.95
535.557	25866.47
535.923	25776.53
536.288	25956.18
536.653	26235.5
537.019	26250.86
537.384	26394.81
537.749	26716.39
538.114	26648.14
538.479	26686.11
538.845	26828.02
539.21	26668.93
539.575	26834.12
539.94	26860.11
540.305	27026.89
540.67	26899.89
541.034	27052.42
541.399	27083.38
541.764	27139.2
542.129	27211.29
542.494	27294.23
542.858	27516.59
543.223	27467.55
543.587	27890.59
543.952	27701.67
544.316	28016.24
544.681	27995.22
545.045	28197.25
545.41	28352.28
545.774	28466.85
546.138	28437.47
546.503	28391.15
546.867	28375.55
547.231	28598.37
547.595	28689.9
547.959	28684.25
548.324	28730.8
548.688	28795.66
549.052	28831.81
549.416	28846.5
549.779	28818.71
550.143	28911.36
550.507	29100.28
550.871	29133.5
551.235	29228.86
551.599	29393.61
551.962	29597.44
552.326	29627.05
552.689	29787.72
553.053	29728.06
553.417	29912.46
553.78	30301.6
554.143	30163.75
554.507	30282.4
554.87	30366.91
555.234	30645.32
555.597	30429.28
555.96	30496.63
556.323	30696.4
556.686	30591.99
557.05	30748.15
557.413	30760.58
557.776	30771.87
558.139	31015.03
558.502	31167.12
558.865	31177.97
559.228	31359.66
559.59	31369.82
559.953	31457.28
560.316	31799.19
560.679	31849.81
561.041	32080.31
561.404	32232.4
561.767	32514.2
562.129	32313.53
562.492	32756.68
562.854	32608.44
563.217	32595.78
563.579	32757.36
563.941	33004.13
564.304	32993.29
564.666	33036.67
565.028	33127.29
565.39	33092.27
565.753	33351.24
566.115	33465.81
566.477	33653.83
566.839	33632.14
567.201	33768.63
567.563	33886.14
567.925	34058.12
568.287	34113.48
568.648	34270.09
569.01	34561.83
569.372	34569.97
569.734	34465.79
570.095	34882.05
570.457	35072.78
570.819	35233
571.18	35144.41
571.542	35343.28
571.903	35390.74
572.265	35527.23
572.626	35536.49
572.987	35569.71
573.349	35517.96
573.71	35767
574.071	35811.29
574.432	35963.38
574.794	36096.71
575.155	35992.98
575.516	35829.37
575.877	36025.3
576.238	36305.74
576.599	36284.27
576.96	36408.11
577.32	36467.09
577.681	36630.7
578.042	36808.1
578.403	36804.48
578.763	36919.74
579.124	37071.6
579.485	37157.92
579.845	37332.15
580.206	37253.51
580.566	37072.05
580.927	37197.92
581.287	37313.4
581.648	37347.97
582.008	37366.28
582.368	37369.89
582.728	37357.24
583.089	37241.76
583.449	37038.15
583.809	37329.89
584.169	37440.17
584.529	37230.24
584.889	37683.78
585.249	37471.81
585.609	37343.68
585.969	37637.23
586.329	37455.31
586.688	37472.49
587.048	37459.16
587.408	37626.84
587.768	37660.05
588.127	37655.08
588.487	37824.34
588.846	37957.22
589.206	37820.5
589.565	37738.7
589.925	37831.8
590.284	37685.59
590.643	37858.92
591.003	37801.07
591.362	37969.43
591.721	37793.84
592.08	37650.79
592.44	37847.39
592.799	38025.02
593.158	37856.89
593.517	37795.87
593.876	37934.17
594.235	37692.14
594.593	38020.95
594.952	38093.72
595.311	37953.83
595.67	38072.47
596.029	38312.69
596.387	38273.6
596.746	38142.75
597.104	37942.31
597.463	38032.47
597.822	38350.66
598.18	38301.39
598.538	38229.76
598.897	38614.83
599.255	38228.85
599.613	38721.95
599.972	38479.47
600.33	38580.48
600.688	38401.28
601.046	38610.31
601.404	38703.87
601.762	38619.8
602.12	38797.2
602.478	38644.66
602.836	38678.11
603.194	38482.86
603.552	38544.33
603.91	38326.7
604.268	38615.96
604.625	38464.1
604.983	38524.67
605.341	38449.64
605.698	38648.73
606.056	38730.76
606.413	38812.12
606.771	39048.49
607.128	39091.43
607.485	38822.74
607.843	38938.21
608.2	39343.85
608.557	39257.75
608.914	39160.13
609.272	39391.76
609.629	39528.48
609.986	39500.46
610.343	39242.16
610.7	39499.78
611.057	39406.45
611.414	39488.03
611.771	39521.25
612.127	39569.61
612.484	39609.38
612.841	39657.52
613.198	39571.19
613.554	39584.52
613.911	39704.07
614.267	39603.28
614.624	39709.27
614.98	39766.44
615.337	39963.27
615.693	39820.22
616.05	39957.85
616.406	40133.66
616.762	39940.45
617.118	40095.92
617.475	40034
617.831	40201.23
618.187	40316.48
618.543	40323.94
618.899	40524.84
619.255	40372.98
619.611	40417.04
619.967	40533.88
620.323	40540.88
620.678	40361.9
621.034	40317.16
621.39	40444.39
621.746	40342.7
622.101	40621.56
622.457	40376.14
622.812	40386.08
623.168	40549.02
623.523	40393.99
623.879	40540.88
624.234	40318.74
624.589	40568.68
624.945	40446.87
625.3	40463.15
625.655	40546.98
626.01	40484.61
626.365	40407.55
626.72	40374.79
627.075	40383.83
627.43	40428.12
627.785	40379.31
628.14	40500.21
628.495	40429.93
628.85	40464.05
629.205	40407.55
629.559	40598.73
629.914	40440.09
630.269	40504.05
630.623	40318.74
630.978	40356.93
631.332	40628.56
631.687	40602.8
632.041	40374.11
632.396	40402.58
632.75	40191.74
633.104	40307.67
633.459	40198.07
633.813	40046.88
634.167	40017.28
634.521	39795.37
634.875	39996.94
635.229	39832.2
635.583	39634.92
635.937	39748.14
636.291	39745.2
636.645	39731.41
636.999	39578.87
637.352	39769.83
637.706	39520.57
638.06	39584.98
638.413	39500.91
638.767	39524.19
639.121	39402.83
639.474	39123.97
639.828	39260.69
640.181	39463.62
640.534	39287.58
640.888	39252.56
641.241	39114.48
641.594	39388.37
641.947	39464.3
642.301	39261.14
642.654	39344.08
643.007	39395.15
643.36	39222.27
643.713	39113.58
644.066	39224.31
644.419	39129.85
644.771	38940.47
645.124	38653.48
645.477	38773.25
645.83	38459.58
646.182	38143.43
646.535	37862.31
646.888	37500.74
647.24	37114.31
647.593	37334.41
647.945	37268.2
648.298	37117.92
648.65	37070.92
649.002	36973.52
649.355	37242.66
649.707	37384.81
650.059	37577.8
650.411	38291.68
650.763	38289.42
651.115	38575.06
651.467	38288.96
651.819	38349.98
652.171	38195.63
652.523	38244.67
652.875	38338.23
653.227	38058.01
653.578	38239.25
653.93	38224.11
654.282	38095.75
654.633	37793.38
654.985	37830.67
655.337	38053.94
655.688	37872.48
656.039	37968.07
656.391	37779.15
656.742	37736.66
657.094	37915.64
657.445	37998.13
657.796	37765.59
658.147	37690.56
658.498	37635.2
658.849	37850.33
659.2	37695.53
659.551	37594.29
659.902	37717
660.253	37615.99
660.604	37840.62
660.955	37585.48
661.306	37760.62
661.656	37511.36
662.007	37676.33
662.358	37579.15
662.708	37658.25
663.059	37698.02
663.409	37407.18
663.76	37798.58
664.11	37749.32
664.461	37751.35
664.811	37650.79
665.161	37707.96
665.511	37680.62
665.862	37743.44
666.212	37831.58
666.562	37837.68
666.912	37677.91
667.262	37642.43
667.612	37683.33
667.962	37634.07
668.312	37653.05
668.662	37766.04
669.011	37594.29
669.361	37531.24
669.711	37347.52
670.06	37281.31
670.41	37263.91
670.76	37173.97
671.109	37184.14
671.459	37011.48
671.808	37008.32
672.157	37153.85
672.507	37101.2
672.856	37219.39
673.205	37122.67
673.554	37134.19
673.904	36976.23
674.253	37208.54
674.602	37010.35
674.951	36559.52
675.3	36511.16
675.649	37039.28
675.998	37005.61
676.346	36924.48
676.695	37084.48
677.044	36762.9
677.393	36896.01
677.741	36874.99
678.09	36836.57
678.438	36729.68
678.787	36712.51
679.135	36775.11
679.484	36304.61
679.832	36734.66
680.181	36528.33
680.529	36500.09
680.877	36310.26
681.225	36264.16
681.573	36434.55
681.922	36213.99
682.27	35988.91
682.618	35915.24
682.966	35782.36
683.314	35929.7
683.661	35820.78
684.009	35617.62
684.357	35381.47
684.705	35396.39
685.053	35498.08
685.4	35254.24
685.748	35392.32
686.095	35223.28
686.443	35077.52
686.79	35151.42
687.138	35220.35
687.485	35326.78
687.832	35213.34
688.18	35145.77
688.527	34944.87
688.874	34938.32
689.221	34816.51
689.568	34713.01
689.915	34647.93
690.262	34686.35
690.609	34463.53
690.956	34533.58
691.303	34450.87
691.65	34157.32
691.997	34391.21
692.344	33941.96
692.69	33988.74
693.037	33929.08
693.383	33547.85
693.73	33645.47
694.077	33456.1
694.423	33472.82
694.769	33312.6
695.116	33030.57
695.462	32933.17
695.808	33044.81
696.155	33016.34
696.501	32819.05
696.847	32679.85
697.193	32530.47
697.539	32637.36
697.885	32404.37
698.231	32416.58
698.577	32241.21
698.923	32220.88
699.269	32162.8
699.614	31835.8
699.96	31732.3
700.306	31794.67
700.651	31677.84
700.997	31475.58
701.342	31590.16
701.688	31431.07
702.033	31312.88
702.379	31432.42
702.724	31248.02
703.069	31564.62
703.415	30959.21
703.76	30993.56
704.105	31022.94
704.45	30978.2
704.795	30685.1
705.14	30657.98
705.485	30587.25
705.83	30410.75
706.175	30396.07
706.52	30316.29
706.865	30208.5
707.209	30210.53
707.554	30117.88
707.899	30072.01
708.243	29804.44
708.588	29925.34
708.932	29691.45
709.277	29627.05
709.621	29661.85
709.966	29468.41
710.31	29495.07
710.654	29269.99
710.998	29274.96
711.342	29264.57
711.687	29229.54
712.031	29104.12
712.375	29049.21
712.719	29110.68
713.063	29079.72
713.407	28963.11
713.75	28931.7
714.094	28956.1
714.438	28820.06
714.782	28905.03
715.125	28800.85
715.469	28873.62
715.812	28571.48
716.156	28486.28
716.499	28529.22
716.843	28651.03
717.186	28319.06
717.53	28383.46
717.873	28427.08
718.216	28329
718.559	28305.05
718.902	27985.06
719.246	28177.82
719.589	28070.02
719.932	28011.04
720.275	27964.72
720.617	27969.69
720.96	27842.46
721.303	27701.22
721.646	27745.74
721.989	27605.18
722.331	27805.17
722.674	27700.09
723.016	27663.93
723.359	27627.55
723.701	27590.04
724.044	27366.77
724.386	27318.41
724.729	27487.44
725.071	27390.49
725.413	27299.65
725.755	27325.19
726.097	27369.25
726.439	27196.38
726.782	27149.6
727.124	27288.58
727.465	27142.82
727.807	27029.37
728.149	27135.36
728.491	27056.27
728.833	27183.72
729.175	27065.53
729.516	27059.88
729.858	27022.82
730.199	27196.38
730.541	27069.37
730.882	27005.19
731.224	27188.92
731.565	27045.64
731.906	26955.93
732.248	27094.68
732.589	26971.07
732.93	26970.17
733.271	26960.9
733.612	26891.3
733.953	26903.28
734.294	26859.44
734.635	26789.38
734.976	26781.7
735.317	26794.58
735.658	26818.53
735.999	26717.07
736.339	26712.09
736.68	26725.2
737.021	26690.63
737.361	26572.21
737.702	26805.65
738.042	26637.29
738.383	26580.35
738.723	26567.47
739.063	26708.48
739.404	26707.8
739.744	26562.49
740.084	26635.94
740.424	26645.66
740.764	26659.44
741.104	26701.7
741.444	26576.28
741.784	26393.91
742.124	26647.01
742.464	26668.93
742.804	26726.11
743.143	26542.16
743.483	26669.84
743.823	26484.76
744.162	26622.15
744.502	26667.8
744.841	26507.35
745.181	26777.4
745.52	26736.73
745.86	26796.84
746.199	26790.06
746.538	26811.07
746.877	26858.31
747.216	26844.75
747.556	26822.37
747.895	26915.93
748.234	26861.24
748.573	26779.89
748.911	26817.4
749.25	26828.25
749.589	26782.83
749.928	26787.8
750.267	26915.25
750.605	26849.27
750.944	26833.45
751.283	26865.08
751.621	27026.44
751.96	26873.45
752.298	26847.01
752.636	26997.28
752.975	26840
753.313	26920
753.651	27044.51
753.989	26746.44
754.327	26732.66
754.666	26791.87
755.004	26942.37
755.342	26948.47
755.679	27089.03
756.017	26796.39
756.355	26929.26
756.693	27007
757.031	27001.8
757.368	26861.24
757.706	26974.69
758.044	26914.8
758.381	26994.8
758.719	26895.37
759.056	27003.84
759.394	26908.7
759.731	26837.06
760.068	26926.33
760.405	26864.63
760.743	26849.94
761.08	27165.42
761.417	26847.91
761.754	26886.1
762.091	26907.12
762.428	26955.7
762.765	26759.1
763.102	26901.02
763.438	26691.98
763.775	26646.56
764.112	26680
764.449	26887.91
764.785	26668.25
765.122	26568.37
765.458	26589.16
765.795	26539.44
766.131	26700.8
766.467	26406.34
766.804	26473.91
767.14	26335.83
767.476	26483.4
767.812	26261.03
768.148	26311.65
768.485	26148.27
768.821	26075.05
769.157	26026.24
769.492	25906.69
769.828	25983.53
770.164	25835.51
770.5	25808.16
770.836	25805
771.171	25604.1
771.507	25558.45
771.842	25476.42
772.178	25391.23
772.513	25396.65
772.849	25322.53
773.184	25217.67
773.519	25118.24
773.855	25049.77
774.19	24935.19
774.525	24969.77
774.86	25079.59
775.195	24919.37
775.53	24878.02
775.865	24807.96
776.2	24806.61
776.535	24583.34
776.87	24671.02
777.205	24525.03
777.539	24529.33
777.874	24419.05
778.209	24209.34
778.543	24177.25
778.878	24091.6
779.212	23926.86
779.547	23933.18
779.881	24064.25
780.215	23908.55
780.55	23930.02
780.884	23781.78
781.218	23728.22
781.552	23647.54
781.886	23527.55
782.22	23383.14
782.554	23379.07
782.888	23164.39
783.222	23003.94
783.556	22945.87
783.889	22959.65
784.223	22905.87
784.557	22807.79
784.89	22735.25
785.224	22597.4
785.557	22470.85
785.891	22507.23
786.224	22377.29
786.558	22350.4
786.891	22088.26
787.224	22038.77
787.557	21947.93
787.891	22026.79
788.224	21906.57
788.557	21917.87
788.89	21886.23
789.223	21862.5
789.556	21692.11
789.888	21684.66
790.221	21576.41
790.554	21331.67
790.887	21408.73
791.219	21328.06
791.552	21281.5
791.884	21124.44
792.217	21100.49
792.549	21023.2
792.882	20819.82
793.214	20955.41
793.546	20933.49
793.879	20777.79
794.211	20776.66
794.543	20749.54
794.875	20583.44
795.207	20758.13
795.539	20473.16
795.871	20532.37
796.203	20317.46
796.535	20225.03
796.867	20303.68
797.198	20293.05
797.53	20316.1
797.862	20117.92
798.193	20181.64
798.525	19971.93
798.856	20091.48
799.188	19793.18
799.519	19788.89
799.85	19738.72
800.182	19673.41
800.513	19650.36
800.844	19442.68
801.175	19556.35
801.506	19483.36
801.837	19389.57
802.168	19314.1
802.499	19246.3
802.83	19145.74
803.161	19159.52
803.491	19174.44
803.822	19006.76
804.153	18927.67
804.483	18797.95
804.814	18733.55
805.145	18723.38
805.475	18738.97
805.805	18622.36
806.136	18682.93
806.466	18675.7
806.796	18619.43
807.126	18362.03
807.457	18328.36
807.787	18365.65
808.117	18259.21
808.447	18174.24
808.777	18298.3
809.107	18111.19
809.436	18176.95
809.766	18039.78
810.096	18026.67
810.426	17906.22
810.755	18037.75
811.085	17951.19
811.414	17940.12
811.744	17729.96
812.073	17738.32
812.403	17762.95
812.732	17634.37
813.061	17659
813.39	17558.89
813.719	17508.95
814.049	17568.38
814.378	17541.04
814.707	17462.17
815.036	17436.86
815.365	17334.71
815.693	17197.09
816.022	17266.24
816.351	17158
816.68	17120.26
817.008	17058.34
817.337	16904.67
817.665	16966.59
817.994	16908.51
818.322	16995.97
818.651	16820.15
818.979	16864.44
819.307	16839.59
819.636	16815.63
819.964	16741.73
820.292	16730.89
820.62	16748.06
820.948	16703.32
821.276	16662.64
821.604	16738.57
821.932	16664.9
822.259	16698.57
822.587	16613.38
822.915	16531.12
823.243	16637.78
823.57	16582.87
823.898	16596.88
824.225	16629.42
824.553	16551.46
824.88	16619.03
825.207	16682.98
825.535	16558.46
825.862	16638.46
826.189	16518.46
826.516	16532.25
826.843	16744.22
827.17	16608.41
827.497	16627.84
827.824	16508.52
828.151	16633.04
828.478	16536.32
828.805	16589.65
829.131	16519.59
829.458	16496.77
829.785	16441.4
830.111	16433.27
830.438	16558.24
830.764	16554.62
831.09	16553.72
831.417	16447.05
831.743	16581.29
832.069	16618.12
832.395	16549.2
832.722	16573.15
833.048	16459.48
833.374	16523.21
833.7	16431.46
834.026	16471.23
834.351	16498.35
834.677	16511.68
835.003	16521.63
835.329	16469.2
835.654	16471.46
835.98	16344.46
836.306	16333.84
836.631	16261.75
836.956	16342.88
837.282	16277.34
837.607	16285.02
837.932	16221.52
838.258	16155.54
838.583	16148.98
838.908	16012.49
839.233	16065.14
839.558	16040.96
839.883	16002.55
840.208	15951.93
840.533	15876.67
840.858	15990.12
841.182	15927.07
841.507	15900.85
841.832	15818.37
842.156	15761.42
842.481	15746.05
842.805	15611.14
843.13	15611.14
843.454	15478.94
843.778	15394.2
844.103	15523.24
844.427	15456.12
844.751	15422.9
845.075	15409.79
845.399	15369.12
845.723	15198.5
846.047	15234.43
846.371	15115.79
846.695	15151.95
847.019	15016.36
847.343	14965.51
847.666	14923.03
847.99	14780.2
848.313	14859.07
848.637	14857.94
848.96	14669.7
849.284	14690.26
849.607	14503.15
849.931	14596.71
850.254	14415.02
850.577	14433.32
850.9	14236.72
851.223	14288.92
851.546	14288.47
851.869	14205.76
852.192	14287.79
852.515	14099.09
852.838	14061.58
853.161	13957.85
853.483	14005.99
853.806	13885.99
854.129	13965.31
854.451	13811.19
854.774	13841.47
855.096	13727.12
855.419	13663.85
855.741	13638.77
856.063	13645.77
856.385	13554.02
856.708	13565.1
857.03	13524.64
857.352	13406.46
857.674	13460.01
857.996	13448.26
858.318	13382.95
858.64	13384.99
858.961	13272.45
859.283	13271.54
859.605	13136.63
859.926	13118.1
860.248	13183.64
860.57	12952.68
860.891	13053.24
861.212	12995.39
861.534	12912.91
861.855	12956.07
862.176	12977.09
862.498	12865
862.819	12893.7
863.14	12880.37
863.461	12757.88
863.782	12681.5
864.103	12750.65
864.424	12735.51
864.745	12719.24
865.065	12697.32
865.386	12603.76
865.707	12517.44
866.027	12610.54
866.348	12547.49
866.668	12578.23
866.989	12556.53
867.309	12393.37
867.63	12485.35
867.95	12504.56
868.27	12390.21
868.59	12386.37
868.91	12477.21
869.23	12351.34
869.55	12297.33
869.87	12468.63
870.19	12329.87
870.51	12316.77
870.83	12304.79
871.15	12202.87
871.469	12274.96
871.789	12231.12
872.109	12219.14
872.428	12140.73
872.748	12223.89
873.067	12179.82
873.386	12295.3
873.706	12133.49
874.025	12121.29
874.344	12125.13
874.663	12097.34
874.982	12114.74
875.301	12068.64
875.62	11971.92
875.939	11985.25
876.258	12035.19
876.577	11954.74
876.896	11940.73
877.214	11925.59
877.533	11898.25
877.852	11893.95
878.17	11898.7
878.489	11827.97
878.807	11896.44
879.125	11745.48
879.444	11858.93
879.762	11761.75
880.08	11797.01
880.398	11699.83
880.716	11702.09
881.034	11622.32
881.352	11555.88
881.67	11549.33
881.988	11593.85
882.306	11480.18
882.624	11488.54
882.941	11477.24
883.259	11426.39
883.577	11374.87
883.894	11478.14
884.212	11370.12
884.529	11358.15
884.846	11278.38
885.164	11239.05
885.481	11220.07
885.798	11158.15
886.115	11165.16
886.432	11157.25
886.75	11076.57
887.067	11126.74
887.383	11026.86
887.7	11053.97
888.017	11043.81
888.334	11001.77
888.651	10939.18
888.967	10956.35
889.284	10957.48
889.6	10907.31
889.917	10805.85
890.233	10840.65
890.55	10776.24
890.866	10809.91
891.182	10801.1
891.498	10731.27
891.815	10669.8
892.131	10707.77
892.447	10717.03
892.763	10636.81
893.079	10581.44
893.395	10552.29
893.71	10639.3
894.026	10534.67
894.342	10524.05
894.657	10461.9
894.973	10455.35
895.289	10498.74
895.604	10452.86
895.92	10365.86
896.235	10263.94
896.55	10361.79
896.865	10260.78
897.181	10263.71
897.496	10214.22
897.811	10167.22
898.126	10156.15
898.441	10099.2
898.756	10029.37
899.071	10038.63
899.386	9978.07
899.7	9898.75
900.015	9899.43
900.33	9836.61
900.644	9784.18
900.959	9844.29
901.273	9787.79
901.588	9725.87
901.902	9699.21
902.216	9670.96
902.531	9647.01
902.845	9591.87
903.159	9521.59
903.473	9591.19
903.787	9456.5
904.101	9465.09
904.415	9399.56
904.729	9326.56
905.042	9323.4
905.356	9246.34
905.67	9221.25
905.984	9212.67
906.297	9201.37
906.611	9158.43
906.924	9068.49
907.237	9015.16
907.551	8990.98
907.864	8954.6
908.177	8859.68
908.491	8847.03
908.804	8792.34
909.117	8762.74
909.43	8720.25
909.743	8705.34
910.056	8649.74
910.368	8688.16
910.681	8643.87
910.994	8599.35
911.307	8645.9
911.619	8506.47
911.932	8482.07
912.244	8410.88
912.557	8489.07
912.869	8411.78
913.181	8382.18
913.494	8385.12
913.806	8375.18
914.118	8357.55
914.43	8257.89
914.742	8249.98
915.054	8192.13
915.366	8182.41
915.678	8151
915.99	8060.38
916.302	8037.78
916.613	8053.15
916.925	8057.44
917.236	8038.91
917.548	7999.14
917.859	7988.07
918.171	7857
918.482	7896.09
918.794	7843.44
919.105	7876.66
919.416	7725.02
919.727	7785.59
920.038	7734.06
920.349	7668.3
920.66	7623.56
920.971	7647.28
921.282	7650
921.593	7553.95
921.903	7567.51
922.214	7490.23
922.525	7527.29
922.835	7465.59
923.146	7369.55
923.456	7374.3
923.767	7305.15
924.077	7335.88
924.387	7299.27
924.697	7250.01
925.008	7225.6
925.318	7128.2
925.628	7167.07
925.938	7133.85
926.248	7080.07
926.558	7018.83
926.867	7028.09
927.177	7026.74
927.487	6943.12
927.796	6913.07
928.106	6867.64
928.416	6869.68
928.725	6849.11
929.034	6731.6
929.344	6756.69
929.653	6698.61
929.962	6703.81
930.271	6676.01
930.581	6646.86
930.89	6586.97
931.199	6592.17
931.508	6543.81
931.817	6577.26
932.125	6539.07
932.434	6509.69
932.743	6427.2
933.051	6411.16
933.36	6350.37
933.669	6282.12
933.977	6308.34
934.286	6280.99
934.594	6275.12
934.902	6189.92
935.21	6207.32
935.519	6208.68
935.827	6212.52
936.135	6147.44
936.443	6099.98
936.751	6106.08
937.059	6140.88
937.367	6119.64
937.674	6084.39
937.982	6079.42
938.29	5965.3
938.597	6013.43
938.905	5973.2
939.213	5964.62
939.52	5897.5
939.827	5925.52
940.135	5856.15
940.442	5908.8
940.749	5843.49
941.056	5769.82
941.363	5766.66
941.67	5743.38
941.977	5758.75
942.284	5626.77
942.591	5690.5
942.898	5662.25
943.205	5674.91
943.511	5557.85
943.818	5515.82
944.125	5569.15
944.431	5521.46
944.738	5488.02
945.044	5497.74
945.35	5446.44
945.657	5461.81
945.963	5426.78
946.269	5425.87
946.575	5460.22
946.881	5386.78
947.187	5385.88
947.493	5296.16
947.799	5343.84
948.105	5278.53
948.41	5241.47
948.716	5250.51
949.022	5180.01
949.327	5177.52
949.633	5095.49
949.938	5119.44
950.244	5116.28
950.549	5029.27
950.854	5069.05
951.16	5051.19
951.465	4970.29
951.77	4947.02
952.075	4977.75
952.38	4914.93
952.685	4916.74
952.99	4936.4
953.294	4883.06
953.599	4831.09
953.904	4811.2
954.209	4779.34
954.513	4785.21
954.818	4739.34
955.122	4727.81
955.426	4689.17
955.731	4713.35
956.035	4674.26
956.339	4632
956.643	4616.18
956.948	4647.59
957.252	4591.55
957.556	4598.78
957.86	4573.69
958.163	4528.27
958.467	4515.84
958.771	4483.07
959.075	4466.8
959.378	4467.48
959.682	4478.55
959.985	4417.09
960.289	4385.45
960.592	4409.18
960.896	4362.85
961.199	4370.99
961.502	4346.81
961.805	4360.37
962.108	4321.27
962.411	4330.31
962.714	4254.38
963.017	4229.52
963.32	4270.42
963.623	4244.66
963.926	4206.47
964.228	4226.36
964.531	4189.3
964.833	4128.06
965.136	4139.13
965.438	4118.34
965.741	4151.56
966.043	4069.75
966.345	4040.83
966.648	4109.98
966.95	4059.58
967.252	4036.98
967.554	4017.78
967.856	4005.57
968.158	4013.71
968.46	3966.93
968.761	3955.4
969.063	3970.09
969.365	3928.51
969.666	3948.17
969.968	3852.58
970.269	3904.11
970.571	3875.41
970.872	3825.46
971.174	3819.59
971.475	3794.73
971.776	3804.45
972.077	3752.47
972.378	3776.43
972.679	3739.59
972.98	3705.69
973.281	3698.69
973.582	3708.86
973.883	3665.47
974.183	3627.73
974.484	3634.73
974.785	3594.06
975.085	3617.11
975.386	3634.51
975.686	3565.58
975.986	3564.91
976.287	3566.26
976.587	3490.33
976.887	3513.83
977.187	3479.94
977.487	3456.89
977.787	3449.66
978.087	3446.27
978.387	3439.03
978.687	3401.07
978.987	3381.63
979.286	3400.16
979.586	3349.54
979.885	3331.24
980.185	3353.84
980.484	3339.38
980.784	3296.89
981.083	3216.89
981.382	3234.97
981.682	3207.18
981.981	3237.46
982.28	3209.21
982.579	3189.55
982.878	3206.05
983.177	3172.83
983.475	3174.86
983.774	3166.27
984.073	3107.97
984.372	3132.83
984.67	3138.48
984.969	3102.77
985.267	3097.8
985.566	3087.63
985.864	3055.09
986.162	3011.25
986.461	3001.08
986.759	3028.2
987.057	3027.75
987.355	2988.65
987.653	2957.92
987.951	2980.51
988.249	2957.69
988.547	2926.96
988.844	2923.57
989.142	2937.13
989.44	2884.02
989.737	2908.88
990.035	2872.27
990.332	2882.44
990.63	2858.26
990.927	2850.8
991.224	2837.92
991.521	2833.85
991.819	2826.62
992.116	2802.67
992.413	2804.47
992.71	2764.25
993.006	2766.51
993.303	2723.12
993.6	2724.93
993.897	2743.91
994.193	2709.11
994.49	2690.13
994.787	2700.07
995.083	2676.12
995.379	2627.08
995.676	2670.24
995.972	2638.83
996.268	2651.26
996.565	2618.72
996.861	2597.02
997.157	2588.66
997.453	2546.4
997.749	2535.1
998.044	2526.29
998.34	2506.63
998.636	2527.65
998.932	2505.95
999.227	2482.9
999.523	2508.21
999.818	2489.68
1000.114	2467.53
1000.409	2465.73
1000.704	2428.66
1001	2378.5
1001.295	2387.99
1001.59	2392.51
1001.885	2400.42
1002.18	2366.75
1002.475	2329.46
1002.77	2335.33
1003.065	2331.04
1003.359	2293.75
1003.654	2296.01
1003.949	2254.21
1004.243	2209.46
1004.538	2230.25
1004.832	2262.34
1005.127	2223.25
1005.421	2201.78
1005.715	2177.6
1006.009	2211.27
1006.304	2186.86
1006.598	2128.11
1006.892	2138.05
1007.186	2146.64
1007.48	2133.53
1007.773	2112.29
1008.067	2075.23
1008.361	2055.12
1008.655	2059.41
1008.948	2055.12
1009.242	2028.22
1009.535	2046.3
1009.829	2036.36
1010.122	2008.34
1010.415	2016.92
1010.708	1987.77
1011.001	1982.35
1011.295	1972.18
1011.588	1990.94
1011.881	1925.63
1012.173	1949.36
1012.466	1937.6
1012.759	1932.86
1013.052	1910.94
1013.344	1895.35
1013.637	1871.39
1013.93	1882.24
1014.222	1854.22
1014.514	1841.11
1014.807	1863.03
1015.099	1846.99
1015.391	1846.31
1015.683	1834.56
1015.976	1818.51
1016.268	1808.79
1016.56	1783.26
1016.851	1776.03
1017.143	1748.23
1017.435	1736.48
1017.727	1787.33
1018.018	1742.13
1018.31	1725.18
1018.602	1711.17
1018.893	1718.63
1019.185	1685.18
1019.476	1692.41
1019.767	1670.49
1020.058	1693.32
1020.35	1667.78
1020.641	1647.67
1020.932	1645.41
1021.223	1629.82
1021.514	1642.24
1021.804	1585.52
1022.095	1588.91
1022.386	1580.33
1022.677	1616.48
1022.967	1573.77
1023.258	1575.35
1023.548	1545.98
1023.839	1553.43
1024.129	1543.26
1024.419	1524.96
1024.709	1505.75
1025	1504.17
1025.29	1494.45
1025.58	1450.84
1025.87	1474.34
1026.16	1467.56
1026.449	1465.53
1026.739	1444.06
1027.029	1441.35
1027.319	1442.02
1027.608	1419.43
1027.898	1376.94
1028.187	1368.58
1028.477	1389.37
1028.766	1389.14
1029.055	1364.96
1029.344	1378.98
1029.634	1343.5
1029.923	1321.8
1030.212	1332.2
1030.501	1277.96
1030.79	1308.92
1031.078	1303.04
1031.367	1292.65
1031.656	1264.63
1031.945	1270.96
1032.233	1254.01
1032.522	1255.14
1032.81	1248.81
1033.099	1231.41
1033.387	1214.23
1033.675	1200.67
1033.963	1242.03
1034.251	1200.9
1034.54	1200
1034.828	1170.62
1035.116	1186.21
1035.403	1185.31
1035.691	1183.05
1035.979	1174.46
1036.267	1176.49
1036.554	1166.1
1036.842	1145.53
1037.129	1129.04
1037.417	1128.13
1037.704	1117.29
1037.992	1108.93
1038.279	1089.49
1038.566	1129.49
1038.853	1129.49
1039.14	1129.49
