Data from blue_shiny_book_FLMS001491_00034.txt Node
Date: Wed Feb 08 15:26:52 GMT 2017
User: dcchb
Spectrometer: FLMS00149
Trigger mode: 0
Integration Time (sec): 2.000000E-2
Scans to average: 10
Electric dark correction enabled: true
Nonlinearity correction enabled: false
Boxcar width: 0
XAxis mode: Wavelengths
Number of Pixels in Spectrum: 2048
>>>>>Begin Spectral Data<<<<<
341.393	-4.62
341.776	-4.62
342.16	-4.62
342.543	-56.14
342.927	-53.66
343.31	-65.63
343.693	-64.96
344.077	-52.75
344.46	-55.92
344.843	-63.6
345.226	-55.46
345.61	-41.68
345.993	-24.73
346.376	-4.62
346.759	3.29
347.142	28.15
347.525	37.64
347.908	60.92
348.291	81.48
348.674	97.98
349.057	119.9
349.44	118.54
349.823	153.57
350.206	167.81
350.588	192.44
350.971	199.67
351.354	236.05
351.737	246.45
352.119	254.58
352.502	272.44
352.884	278.99
353.267	297.29
353.65	288.26
354.032	310.18
354.414	310.85
354.797	325.99
355.179	318.31
355.562	333.45
355.944	320.12
356.326	345.43
356.709	359.21
357.091	342.27
357.473	341.81
357.855	349.27
358.238	352.89
358.62	352.43
359.002	360.34
359.384	350.63
359.766	326.67
360.148	349.04
360.53	358.08
360.912	330.97
361.294	342.94
361.676	320.57
362.057	341.14
362.439	335.71
362.821	332.1
363.203	352.21
363.584	340.23
363.966	324.86
364.348	341.59
364.729	337.97
365.111	329.38
365.493	338.88
365.874	321.25
366.256	321.7
366.637	336.39
367.019	338.65
367.4	331.87
367.781	333
368.163	331.19
368.544	326.67
368.925	344.07
369.306	333.68
369.688	331.87
370.069	346.11
370.45	323.73
370.831	319.89
371.212	331.87
371.593	319.21
371.974	332.55
372.355	348.37
372.736	333.23
373.117	337.07
373.498	337.52
373.879	325.32
374.26	352.89
374.641	331.19
375.021	349.5
375.402	324.64
375.783	335.94
376.163	350.4
376.544	382.04
376.925	349.95
377.305	359.89
377.686	355.82
378.066	349.95
378.447	336.84
378.827	351.08
379.208	375.26
379.588	381.13
379.968	362.83
380.349	343.85
380.729	383.85
381.109	347.91
381.489	347.91
381.87	366.9
382.25	376.16
382.63	379.1
383.01	391.3
383.39	396.5
383.77	388.37
384.15	413.22
384.53	391.76
384.91	397.18
385.29	389.04
385.67	379.55
386.049	396.27
386.429	407.57
386.809	412.55
387.189	428.59
387.568	413.45
387.948	418.42
388.328	430.17
388.707	410.06
389.087	395.37
389.466	448.7
389.846	437.4
390.225	443.96
390.605	439.44
390.984	441.02
391.363	461.36
391.743	439.21
392.122	446.67
392.501	479.21
392.881	475.59
393.26	481.02
393.639	471.53
394.018	475.82
394.397	458.19
394.776	480.79
395.155	477.18
395.534	490.06
395.913	492.09
396.292	513.79
396.671	547.46
397.05	494.58
397.429	530.96
397.808	531.86
398.186	542.03
398.565	520.34
398.944	527.57
399.323	554.91
399.701	547.01
400.08	558.3
400.458	557.85
400.837	561.02
401.215	567.8
401.594	569.83
401.972	563.05
402.351	559.66
402.729	608.47
403.107	582.71
403.486	591.07
403.864	591.75
404.242	601.47
404.62	592.88
404.999	628.59
405.377	611.18
405.755	613.22
406.133	650.96
406.511	645.76
406.889	653.22
407.267	654.57
407.645	676.72
408.023	698.19
408.401	701.35
408.779	694.35
409.156	710.84
409.534	700.9
409.912	730.96
410.29	752.65
410.667	737.51
411.045	752.65
411.422	776.6
411.8	794.68
412.178	779.54
412.555	794.68
412.933	797.17
413.31	819.54
413.687	840.33
414.065	842.82
414.442	854.34
414.819	862.03
415.197	888.69
415.574	890.27
415.951	857.05
416.328	893.66
416.705	899.09
417.082	927.33
417.46	937.73
417.837	929.59
418.214	954
418.591	946.54
418.967	986.09
419.344	993.32
419.721	981.57
420.098	973.21
420.475	1010.27
420.852	1041.68
421.228	1038.74
421.605	1060.44
421.982	1048.46
422.358	1076.93
422.735	1071.06
423.111	1050.27
423.488	1124.62
423.864	1108.35
424.241	1142.92
424.617	1133.88
424.994	1148.57
425.37	1181.11
425.746	1170.72
426.123	1172.07
426.499	1216.59
426.875	1215.46
427.251	1278.51
427.627	1261.34
428.003	1293.65
428.379	1264.27
428.756	1299.98
429.132	1357.61
429.507	1331.84
429.883	1342.24
430.259	1387.44
430.635	1383.59
431.011	1395.8
431.387	1451.16
431.763	1492.97
432.138	1477.6
432.514	1485.51
432.89	1528.22
433.265	1552.85
433.641	1582.91
434.016	1606.41
434.392	1605.28
434.767	1635.34
435.143	1626.07
435.518	1665.17
435.894	1679.4
436.269	1720.53
436.644	1742.45
437.02	1777.71
437.395	1775
437.77	1831.04
438.145	1846.86
438.52	1853.41
438.895	1855.9
439.271	1870.81
439.646	1945.16
440.021	1939.29
440.395	1951.49
440.77	1928.89
441.145	2002.11
441.52	2019.51
441.895	1995.1
442.27	2068.55
442.645	2034.65
443.019	2060.86
443.394	2066.51
443.769	2110.35
444.143	2085.04
444.518	2144.48
444.892	2139.05
445.267	2166.85
445.641	2200.3
446.016	2189.67
446.39	2243.91
446.764	2231.03
447.139	2235.77
447.513	2295.89
447.887	2282.33
448.262	2315.55
448.636	2325.04
449.01	2361.42
449.384	2362.32
449.758	2394.19
450.132	2433.96
450.506	2451.36
450.88	2460.63
451.254	2529.33
451.628	2482.32
452.002	2550.12
452.376	2518.03
452.75	2575.88
453.123	2609.78
453.497	2651.13
453.871	2659.94
454.244	2699.94
454.618	2754.4
454.992	2815.65
455.365	2765.48
455.739	2890.67
456.112	2906.27
456.486	2909.43
456.859	2963.21
457.232	3028.52
457.606	3045.47
457.979	3086.83
458.352	3152.13
458.725	3146.03
459.099	3232.81
459.472	3277.1
459.845	3258.8
460.218	3318.23
460.591	3398.23
460.964	3389.19
461.337	3442.97
461.71	3494.27
462.083	3601.16
462.456	3549.86
462.829	3571.56
463.201	3678.22
463.574	3720.48
463.947	3767.71
464.32	3855.84
464.692	3848.61
465.065	3867.14
465.438	3973.81
465.81	4023.75
466.183	4101.26
466.555	4163.18
466.928	4169.06
467.3	4193.69
467.672	4251.77
468.045	4351.2
468.417	4377.19
468.789	4432.78
469.161	4496.73
469.534	4553.91
469.906	4637.75
470.278	4716.16
470.65	4747.12
471.022	4837.29
471.394	4945.99
471.766	4973.56
472.138	5069.6
472.51	5183.04
472.882	5197.28
473.253	5261.68
473.625	5328.57
473.997	5426.43
474.369	5495.8
474.74	5601.11
475.112	5650.6
475.484	5817.83
475.855	5877.71
476.227	5964.94
476.598	6100.53
476.97	6145.5
477.341	6278.15
477.713	6432.73
478.084	6426.17
478.455	6617.81
478.827	6673.4
479.198	6921.53
479.569	6893.96
479.94	7033.39
480.311	7121.07
480.682	7210.78
481.053	7440.16
481.424	7497.56
481.795	7655.29
482.166	7775.52
482.537	7936.42
482.908	8163.75
483.279	8169.63
483.65	8355.16
484.021	8525.78
484.391	8579.79
484.762	8647.58
485.133	8753.8
485.503	8873.34
485.874	9018.42
486.244	9108.36
486.615	9327.34
486.985	9441.69
487.356	9619.08
487.726	9693.21
488.097	9969.13
488.467	9991.28
488.837	10150.14
489.207	10336.8
489.578	10485.5
489.948	10607.31
490.318	10839.39
490.688	10802.33
491.058	10978.6
491.428	11123.22
491.798	11248.19
492.168	11490.22
492.538	11485.93
492.908	11592.82
493.278	11750.33
493.648	11745.36
494.017	12000.72
494.387	12194.61
494.757	12235.29
495.126	12474.83
495.496	12569.06
495.866	12681.83
496.235	12735.39
496.605	12896.06
496.974	13045.43
497.344	13069.61
497.713	13174.92
498.082	13210.18
498.452	13436.38
498.821	13515.48
499.19	13487.68
499.559	13661.01
499.928	13778.75
500.298	13854
500.667	14031.4
501.036	14021
501.405	14204.95
501.774	14347.55
502.143	14541.21
502.512	14600.2
502.88	14703.7
503.249	14668.89
503.618	14825.95
503.987	14928.77
504.356	14983.24
504.724	14990.47
505.093	15064.14
505.462	15144.59
505.83	15272.27
506.199	15331.25
506.567	15495.31
506.936	15587.51
507.304	15827.73
507.672	15941.63
508.041	16067.95
508.409	16201.28
508.777	16374.39
509.145	16478.56
509.514	16566.92
509.882	16710.2
510.25	16818.89
510.618	16794.71
510.986	16814.83
511.354	16984.54
511.722	17069.51
512.09	17258.66
512.458	17287.36
512.826	17488.71
513.193	17477.18
513.561	17618.42
513.929	17726.67
514.297	17988.13
514.664	18106.54
515.032	18198.97
515.4	18464.73
515.767	18563.71
516.135	18731.16
516.502	18568.23
516.869	18873.76
517.237	18978.16
517.604	18932.74
517.972	19155.1
518.339	19238.72
518.706	19222.45
519.073	19353.74
519.44	19413.4
519.808	19729.55
520.175	19662.21
520.542	20064.46
520.909	20113.04
521.276	20233.27
521.643	20381.96
522.009	20618.34
522.376	20781.05
522.743	20995.96
523.11	21248.61
523.477	21392.11
523.843	21482.95
524.21	21731.08
524.577	21825.77
524.943	21910.29
525.31	21909.16
525.676	22180.33
526.043	22199.32
526.409	22345.3
526.776	22625.75
527.142	22561.34
527.508	22742.58
527.874	22943.48
528.241	23166.98
528.607	23215.79
528.973	23575.1
529.339	23497.81
529.705	23966.5
530.071	24038.59
530.437	24196.78
530.803	24331.69
531.169	24553.61
531.535	24505.92
531.901	24510.67
532.267	24672.92
532.632	24938.23
532.998	24874.5
533.364	25070.88
533.73	25026.36
534.095	25181.39
534.461	25217.32
534.826	25414.6
535.192	25617.76
535.557	25912.89
535.923	25780.47
536.288	25961.7
536.653	26150.63
537.019	26141.81
537.384	26372.99
537.749	26571.86
538.114	26612.31
538.479	26742.47
538.845	26768.46
539.21	26711.29
539.575	26850.27
539.94	26887.78
540.305	27069.02
540.67	26926.42
541.034	27041.9
541.399	27033.99
541.764	27186.08
542.129	27196.93
542.494	27340.65
542.858	27514.66
543.223	27569.57
543.587	27761.43
543.952	27829.45
544.316	28056.56
544.681	27972.05
545.045	28224.47
545.41	28392.83
545.774	28408.65
546.138	28363.45
546.503	28406.16
546.867	28464.24
547.231	28600.28
547.595	28628.53
547.959	28730.9
548.324	28641.18
548.688	28708.52
549.052	28795.08
549.416	28850.89
549.779	28741.07
550.143	28937.9
550.507	29097.22
550.871	29078.91
551.235	29263.99
551.599	29550.31
551.962	29474.61
552.326	29614.72
552.689	29895.16
553.053	29851.77
553.417	29826.46
553.78	30324.53
554.143	30246.11
554.507	30266
554.87	30418.08
555.234	30690.62
555.597	30506.22
555.96	30433.45
556.323	30640.68
556.686	30636.38
557.05	30660.34
557.413	30697.4
557.776	30890.39
558.139	31021.46
558.502	30999.76
558.865	31155.92
559.228	31197.5
559.59	31327.21
559.953	31465.06
560.316	31747.31
560.679	31761.78
561.041	32185.5
561.404	32203.57
561.767	32569.89
562.129	32349.11
562.492	32599.04
562.854	32775.08
563.217	32553.85
563.579	32843.11
563.941	32838.36
564.304	33001.29
564.666	33192.7
565.028	33073.83
565.39	33122.42
565.753	33326.93
566.115	33350.44
566.477	33558.79
566.839	33616.87
567.201	33746.13
567.563	33910.65
567.925	34052.79
568.287	34182.28
568.648	34291.65
569.01	34363.74
569.372	34732.77
569.734	34535.49
570.095	34770.51
570.457	35014.57
570.819	35012.31
571.18	35091.86
571.542	35291.63
571.903	35312.87
572.265	35362.59
572.626	35481.23
572.987	35459.76
573.349	35637.83
573.71	35747.21
574.071	35821.33
574.432	35811.61
574.794	35982.46
575.155	35868.11
575.516	35753.31
575.877	35993.31
576.238	36163.47
576.599	36275.11
576.96	36247.54
577.32	36553.06
577.681	36679.84
578.042	36842.77
578.403	36775.66
578.763	36837.35
579.124	37013.62
579.485	37056.1
579.845	37181.75
580.206	37154.63
580.566	37248.41
580.927	37206.61
581.287	37315.53
581.648	37145.37
582.008	37475.07
582.368	37273.72
582.728	37369.54
583.089	37195.99
583.449	37229.2
583.809	37105.82
584.169	37279.15
584.529	37275.98
584.889	37584.22
585.249	37285.25
585.609	37196.89
585.969	37490.89
586.329	37487.95
586.688	37506.03
587.048	37468.75
587.408	37467.16
587.768	37698.34
588.127	37742.19
588.487	37658.8
588.846	38003.42
589.206	37752.13
589.565	37701.06
589.925	37897.66
590.284	37799.36
590.643	37882.75
591.003	37752.35
591.362	37828.29
591.721	37812.47
592.08	37776.99
592.44	37739.25
592.799	37862.18
593.158	37807.95
593.517	37838.91
593.876	37682.75
594.235	37690.89
594.593	37817.66
594.952	37911.67
595.311	37815.86
595.67	37852.69
596.029	38240.7
596.387	38127.26
596.746	38228.95
597.104	38056.75
597.463	38079.13
597.822	38448.16
598.18	38254.94
598.538	38309.4
598.897	38494.93
599.255	38130.42
599.613	38572.22
599.972	38465.56
600.33	38415.61
600.688	38423.75
601.046	38588.94
601.404	38767.02
601.762	38450.87
602.12	38597.3
602.478	38674.59
602.836	38568.6
603.194	38331.77
603.552	38485.44
603.91	38368.16
604.268	38654.25
604.625	38476.4
604.983	38524.99
605.341	38404.09
605.698	38590.07
606.056	38793.23
606.413	38814.47
606.771	38820.8
607.128	39053.56
607.485	38736.28
607.843	38814.7
608.2	39267.12
608.557	39274.57
608.914	39155.48
609.272	39298.08
609.629	39450.62
609.986	39513.21
610.343	39308.02
610.7	39561.57
611.057	39415.59
611.414	39467.11
611.771	39425.98
612.127	39666.88
612.484	39503.95
612.841	39578.07
613.198	39545.75
613.554	39543.95
613.911	39558.41
614.267	39748.91
614.624	39659.65
614.98	39699.2
615.337	39992.52
615.693	39723.83
616.05	39826.88
616.406	40080.66
616.762	39914.78
617.118	39900.09
617.475	40152.74
617.831	40167.21
618.187	40125.85
618.543	40350.25
618.899	40478.38
619.255	40326.52
619.611	40393.42
619.967	40628.89
620.323	40545.95
620.678	40279.75
621.034	40333.76
621.39	40376.01
621.746	40320.42
622.101	40621.88
622.457	40303.93
622.812	40390.03
623.168	40358.61
623.523	40365.85
623.879	40445.62
624.234	40197.26
624.589	40370.14
624.945	40366.3
625.3	40499.4
625.655	40384.6
626.01	40342.12
626.365	40345.05
626.72	40331.27
627.075	40409.23
627.43	40475.9
627.785	40328.78
628.14	40317.26
628.495	40483.58
628.85	40476.12
629.205	40303.47
629.559	40605.39
629.914	40355.68
630.269	40444.71
630.623	40269.12
630.978	40180.31
631.332	40453.07
631.687	40591.83
632.041	40233.87
632.396	40350.25
632.75	40247.2
633.104	40309.58
633.459	39982.58
633.813	39975.12
634.167	39885.18
634.521	39899.42
634.875	39923.15
635.229	39948
635.583	39701.23
635.937	39718.4
636.291	39751.62
636.645	39741.23
636.999	39622.14
637.352	39807.89
637.706	39455.36
638.06	39609.93
638.413	39414.01
638.767	39355.7
639.121	39300.79
639.474	39111.64
639.828	39280.9
640.181	39261.92
640.534	39254.69
640.888	39218.98
641.241	39041.81
641.594	39277.96
641.947	39329.49
642.301	39299.21
642.654	39226.44
643.007	39298.75
643.36	39179.21
643.713	39102.6
644.066	39196.84
644.419	39012.43
644.771	38786.23
645.124	38721.37
645.477	38706
645.83	38470.75
646.182	38156.86
646.535	37685.01
646.888	37521.63
647.24	37225.59
647.593	37248.87
647.945	37097.23
648.298	36976.78
648.65	36965.71
649.002	37000.51
649.355	37262.42
649.707	37291.8
650.059	37619.02
650.411	38239.35
650.763	38240.25
651.115	38573.58
651.467	38278.22
651.819	38197.99
652.171	38241.16
652.523	38214.04
652.875	38234.83
653.227	38063.08
653.578	38301.27
653.93	38306.69
654.282	38007.04
654.633	37868.28
654.985	37979.24
655.337	37978.11
655.688	37859.24
656.039	38141.95
656.391	37656.99
656.742	37916.19
657.094	37867.38
657.445	37919.13
657.796	37782.18
658.147	37718.01
658.498	37699.47
658.849	37682.53
659.2	37552.36
659.551	37585.58
659.902	37786.7
660.253	37760.26
660.604	37665.58
660.955	37520.27
661.306	37646.37
661.656	37630.1
662.007	37625.13
662.358	37551.91
662.708	37656.09
663.059	37653.15
663.409	37426.71
663.76	37721.85
664.11	37587.84
664.461	37700.6
664.811	37688.18
665.161	37690.21
665.511	37560.72
665.862	37742.41
666.212	37842.52
666.562	37853.14
666.912	37669.65
667.262	37613.38
667.612	37619.02
667.962	37765.69
668.312	37621.06
668.662	37818.79
669.011	37734.5
669.361	37481.18
669.711	37421.29
670.06	37325.47
670.41	37216.32
670.76	37061.53
671.109	37247.28
671.459	37073.95
671.808	37106.04
672.157	37033.05
672.507	37004.8
672.856	36947.4
673.205	36976.33
673.554	37028.98
673.904	37034.86
674.253	37105.37
674.602	36940.85
674.951	36442.33
675.3	36375.89
675.649	37002.09
675.998	37035.76
676.346	36911.92
676.695	36968.87
677.044	36708.31
677.393	36930.23
677.741	36962.09
678.09	36758.26
678.438	36651.14
678.787	36689.56
679.135	36593.29
679.484	36417.25
679.832	36563.91
680.181	36397.14
680.529	36496.12
680.877	36368.44
681.225	36143.81
681.573	36460.19
681.922	36055.68
682.27	35913.53
682.618	35823.59
682.966	35808.23
683.314	35888.9
683.661	35655.46
684.009	35536.59
684.357	35504.73
684.705	35426.09
685.053	35374.56
685.4	35325.98
685.748	35291.4
686.095	35187.45
686.443	35109.03
686.79	35177.28
687.138	35146.32
687.485	35163.72
687.832	35081.01
688.18	35077.17
688.527	34787.46
688.874	34757.63
689.221	34874.24
689.568	34657.52
689.915	34575.94
690.262	34608.03
690.609	34562.38
690.956	34428.6
691.303	34418.88
691.65	34195.16
691.997	34229.06
692.344	33909.74
692.69	33840.14
693.037	33851.44
693.383	33428.63
693.73	33639.24
694.077	33367.16
694.423	33489.87
694.769	33139.37
695.116	32848.75
695.462	32976.66
695.808	33098.24
696.155	32851.69
696.501	32683.11
696.847	32611.92
697.193	32465.71
697.539	32670.23
697.885	32331.71
698.231	32175.55
698.577	32277.02
698.923	32208.55
699.269	32067.53
699.614	31816.24
699.96	31780.99
700.306	31864.6
700.651	31583.93
700.997	31509.81
701.342	31559.07
701.688	31305.52
702.033	31338.51
702.379	31398.85
702.724	31321.11
703.069	31397.72
703.415	31080.21
703.76	31103.04
704.105	31020.78
704.45	30948.69
704.795	30842.48
705.14	30497.86
705.485	30541.92
705.83	30467.35
706.175	30476.39
706.52	30318.88
706.865	30155.94
707.209	30270.07
707.554	30141.48
707.899	30082.27
708.243	29724.77
708.588	29760.02
708.932	29701.72
709.277	29667.37
709.621	29546.24
709.966	29487.26
710.31	29514.83
710.654	29209.53
710.998	29303.09
711.342	29163.65
711.687	29119.14
712.031	29101.96
712.375	28925.02
712.719	29002.98
713.063	28949.65
713.407	29012.47
713.75	28840.05
714.094	28994.62
714.438	28701.52
714.782	28896.09
715.125	28788.52
715.469	28750.78
715.812	28645.25
716.156	28545.14
716.499	28469.21
716.843	28442.09
717.186	28242.32
717.53	28520.51
717.873	28445.93
718.216	28297.46
718.559	28200.52
718.902	27866.74
719.246	28182.21
719.589	28120.29
719.932	28053.85
720.275	28090.01
720.617	27881.2
720.96	27819.96
721.303	27761.66
721.646	27748.1
721.989	27604.6
722.331	27651.15
722.674	27762.33
723.016	27649.8
723.359	27670.59
723.701	27598.5
724.044	27331.16
724.386	27311.5
724.729	27484.83
725.071	27332.74
725.413	27339.52
725.755	27355.57
726.097	27312.63
726.439	27188.11
726.782	27183.82
727.124	27317.37
727.465	27051.39
727.807	27033.31
728.149	26951.06
728.491	27103.6
728.833	27144.72
729.175	27004.61
729.516	27000.1
729.858	27025.41
730.199	27111.73
730.541	27116.93
730.882	26993.54
731.224	27148.34
731.565	26992.19
731.906	26929.14
732.248	27002.81
732.589	26810.27
732.93	26773.43
733.271	26896.37
733.612	26894.79
733.953	26944.73
734.294	26713.77
734.635	26682.36
734.976	26788.12
735.317	26575.47
735.658	26864.05
735.999	26836.03
736.339	26598.3
736.68	26790.38
737.021	26738.18
737.361	26513.1
737.702	26744.96
738.042	26667.9
738.383	26624.96
738.723	26627.45
739.063	26588.58
739.404	26742.93
739.744	26676.71
740.084	26647.11
740.424	26649.37
740.764	26537.28
741.104	26638.75
741.444	26549.26
741.784	26451.18
742.124	26598.52
742.464	26650.73
742.804	26729.14
743.143	26635.13
743.483	26674.45
743.823	26580.67
744.162	26632.42
744.502	26858.18
744.841	26693.21
745.181	26850.04
745.52	26802.59
745.86	26864.51
746.199	26759.88
746.538	26766.43
746.877	26890.04
747.216	26880.55
747.556	26915.13
747.895	26818.18
748.234	26757.39
748.573	26723.04
748.911	26808.01
749.25	26708.58
749.589	26826.31
749.928	26929.14
750.267	26844.39
750.605	26707
750.944	26790.38
751.283	26908.8
751.621	26999.42
751.96	26836.03
752.298	26951.06
752.636	26896.6
752.975	26880.55
753.313	26856.6
753.651	26953.09
753.989	26796.94
754.327	26802.59
754.666	26678.07
755.004	26977.27
755.342	26921.23
755.679	27013.2
756.017	26875.13
756.355	26985.18
756.693	26950.6
757.031	27066.53
757.368	26808.24
757.706	26943.15
758.044	26934.33
758.381	26984.95
758.719	26833.32
759.056	27042.35
759.394	26929.36
759.731	26817.05
760.068	26891.62
760.405	26861.79
760.743	26900.89
761.08	26965.97
761.417	26920.78
761.754	26765.07
762.091	27029.47
762.428	26974.56
762.765	26783.6
763.102	26971.17
763.438	26743.6
763.775	26679.65
764.112	26800.78
764.449	26755.13
764.785	26661.57
765.122	26523.27
765.458	26494.35
765.795	26596.26
766.131	26488.24
766.467	26595.81
766.804	26361.69
767.14	26326.44
767.476	26380.9
767.812	26161.7
768.148	26319.89
768.485	26230.4
768.821	26024.3
769.157	25952.89
769.492	25983.17
769.828	25933.68
770.164	25857.75
770.5	25800.35
770.836	25748.83
771.171	25548.61
771.507	25568.95
771.842	25396.52
772.178	25364.21
772.513	25413.92
772.849	25375.51
773.184	25185.91
773.519	25041.28
773.855	25069.75
774.19	24982.75
774.525	24910.88
774.86	24937.78
775.195	24926.03
775.53	24859.59
775.865	24860.72
776.2	24919.47
776.535	24650.1
776.87	24586.83
777.205	24463.21
777.539	24326.72
777.874	24466.83
778.209	24162.88
778.543	24206.72
778.878	24063.9
779.212	24060.06
779.547	24002.89
779.881	23918.82
780.215	23932.61
780.55	23821.42
780.884	23755.43
781.218	23668.21
781.552	23660.07
781.886	23512.28
782.22	23426.63
782.554	23279.97
782.888	23168.33
783.222	23112.74
783.556	23054.89
783.889	22931.95
784.223	22864.38
784.557	22735.35
784.89	22701.45
785.224	22620.55
785.557	22487.67
785.891	22480.89
786.224	22363.38
786.558	22284.29
786.891	22024.63
787.224	22016.95
787.557	21980.34
787.891	21935.37
788.224	22004.52
788.557	21922.49
788.89	21855.15
789.223	21805.43
789.556	21728.37
789.888	21650.86
790.221	21595.72
790.554	21370.86
790.887	21398.21
791.219	21293.8
791.552	21176.97
791.884	21159.57
792.217	21003.64
792.549	20993.02
792.882	20944.44
793.214	20948.5
793.546	20961.61
793.879	20805.68
794.211	20671.67
794.543	20894.49
794.875	20657.21
795.207	20726.81
795.539	20553.26
795.871	20387.61
796.203	20221.06
796.535	20231.46
796.867	20138.35
797.198	20187.84
797.53	20268.75
797.862	20141.74
798.193	20132.71
798.525	19904.01
798.856	19977.68
799.188	19808.65
799.519	19840.74
799.85	19690.68
800.182	19707.86
800.513	19579.95
800.844	19531.36
801.175	19522.55
801.506	19448.66
801.837	19341.99
802.168	19184.71
802.499	19207.98
802.83	19019.97
803.161	19119.17
803.491	19040.76
803.822	19064.71
804.153	18984.94
804.483	18796.47
804.814	18753.53
805.145	18755.79
805.475	18763.25
805.805	18642.57
806.136	18560.32
806.466	18667.88
806.796	18531.39
807.126	18343.83
807.457	18355.12
807.787	18295.92
808.117	18209.37
808.447	18221.34
808.777	18414.11
809.107	18168.01
809.436	18027.68
809.766	18128.46
810.096	18001.46
810.426	18016.15
810.755	17991.74
811.085	17970.95
811.414	17913.1
811.744	17771.41
812.073	17760.11
812.403	17818.64
812.732	17625.43
813.061	17741.13
813.39	17485.32
813.719	17454.81
814.049	17640.12
814.378	17449.39
814.707	17424.08
815.036	17499.1
815.365	17356.96
815.693	17261.82
816.022	17240.35
816.351	17216.4
816.68	17122.39
817.008	17156.06
817.337	16966.91
817.665	17050.53
817.994	17091.2
818.322	16884.65
818.651	16854.6
818.979	16782.51
819.307	16903.64
819.636	16730.76
819.964	16722.63
820.292	16742.51
820.62	16716.07
820.948	16691.67
821.276	16809.63
821.604	16667.71
821.932	16710.42
822.259	16589.75
822.587	16603.08
822.915	16588.39
823.243	16623.87
823.57	16587.49
823.898	16608.96
824.225	16554.72
824.553	16518.79
824.88	16670.65
825.207	16596.75
825.535	16516.08
825.862	16619.8
826.189	16519.69
826.516	16552.23
826.843	16614.61
827.17	16637.88
827.497	16566.02
827.824	16558.79
828.151	16517.66
828.478	16525.79
828.805	16647.6
829.131	16481.5
829.458	16558.79
829.785	16454.16
830.111	16515.17
830.438	16591.78
830.764	16541.61
831.09	16595.4
831.417	16557.21
831.743	16503.87
832.069	16615.74
832.395	16502.97
832.722	16605.57
833.048	16431.79
833.374	16463.42
833.7	16419.81
834.026	16519.92
834.351	16508.17
834.677	16547.04
835.003	16465.68
835.329	16471.78
835.654	16454.16
835.98	16410.54
836.306	16319.47
836.631	16340.71
836.956	16332.13
837.282	16329.19
837.607	16252.13
837.932	16207.61
838.258	16242.41
838.583	16183.2
838.908	16003.32
839.233	16098.46
839.558	16050.55
839.883	15953.38
840.208	15926.26
840.533	15914.28
840.858	15983.21
841.182	15892.36
841.507	15895.98
841.832	15670.22
842.156	15721.97
842.481	15653.05
842.805	15629.09
843.13	15590
843.454	15522.2
843.778	15419.61
844.103	15422.09
844.427	15403.11
844.751	15460.74
845.075	15378.71
845.399	15370.8
845.723	15158.6
846.047	15241.99
846.371	15055.1
846.695	15080.41
847.019	14980.52
847.343	15001.54
847.666	14887.42
847.99	14856.91
848.313	14807.2
848.637	14773.52
848.96	14694.43
849.284	14716.35
849.607	14567.88
849.931	14610.14
850.254	14494.89
850.577	14431.39
850.9	14268.68
851.223	14207.66
851.546	14290.82
851.869	14178.06
852.192	14258.51
852.515	14122.69
852.838	14077.05
853.161	14071.62
853.483	13959.53
853.806	13976.03
854.129	14000.66
854.451	13857.84
854.774	13777.17
855.096	13689.71
855.419	13683.61
855.741	13712.99
856.063	13550.96
856.385	13582.37
856.708	13565.19
857.03	13480.45
857.352	13502.82
857.674	13396.16
857.996	13428.02
858.318	13337.18
858.64	13301.25
858.961	13165.43
859.283	13219.67
859.605	13101.93
859.926	13137.41
860.248	13136.5
860.57	12940.13
860.891	13042.95
861.212	12880.47
861.534	12979.45
861.855	12884.53
862.176	12856.96
862.498	12863.97
862.819	12863.74
863.14	12803.63
863.461	12762.96
863.782	12755.72
864.103	12748.04
864.424	12687.03
864.745	12684.31
865.065	12749.4
865.386	12662.85
865.707	12562.28
866.027	12521.61
866.348	12559.12
866.668	12630.53
866.989	12478.22
867.309	12438.9
867.63	12413.13
867.95	12409.97
868.27	12346.47
868.59	12401.83
868.91	12334.72
869.23	12363.42
869.55	12294.95
869.87	12355.73
870.19	12364.32
870.51	12254.72
870.83	12353.93
871.15	12186.25
871.469	12330.88
871.789	12270.31
872.109	12097.21
872.428	12174.27
872.748	12188.96
873.067	12135.63
873.386	12143.99
873.706	12108.06
874.025	12089.53
874.344	12180.37
874.663	12135.18
874.982	12076.42
875.301	12059.47
875.62	11991.45
875.939	12037.32
876.258	11984.44
876.577	11930.21
876.896	11931.11
877.214	11877.1
877.533	11819.25
877.852	11941.28
878.17	12009.08
878.489	11885.01
878.807	11785.81
879.125	11777.22
879.444	11843.43
879.762	11757.78
880.08	11764.11
880.398	11709.42
880.716	11619.48
881.034	11583.78
881.352	11626.94
881.67	11571.57
881.988	11595.53
882.306	11473.27
882.624	11459.03
882.941	11426.27
883.259	11426.04
883.577	11406.83
883.894	11388.53
884.212	11335.87
884.529	11291.13
884.846	11257.23
885.164	11248.87
885.481	11266.27
885.798	11281.86
886.115	11172.49
886.432	11111.02
886.75	11091.59
887.067	11085.71
887.383	11031.25
887.7	11115.54
888.017	11021.08
888.334	11027.63
888.651	10937.92
888.967	10891.37
889.284	10918.94
889.6	10874.19
889.917	10789
890.233	10896.11
890.55	10772.73
890.866	10906.51
891.182	10776.34
891.498	10744.03
891.815	10749.22
892.131	10747.42
892.447	10670.81
892.763	10666.06
893.079	10570.02
893.395	10563.47
893.71	10565.05
894.026	10527.99
894.342	10561.21
894.657	10453.86
894.973	10495.44
895.289	10474.65
895.604	10432.62
895.92	10337.26
896.235	10312.17
896.55	10309.69
896.865	10230.37
897.181	10252.06
897.496	10166.64
897.811	10204.83
898.126	10090.48
898.441	10097.49
898.756	10015.91
899.071	9986.98
899.386	10004.61
899.7	9880.32
900.015	9859.75
900.33	9756.25
900.644	9785.18
900.959	9855.46
901.273	9723.94
901.588	9659.31
901.902	9650.72
902.216	9645.07
902.531	9584.73
902.845	9591.51
903.159	9511.74
903.473	9572.53
903.787	9496.37
904.101	9378.19
904.415	9404.17
904.729	9385.64
905.042	9261.35
905.356	9271.07
905.67	9238.53
905.984	9227.68
906.297	9224.29
906.611	9119.66
906.924	9096.84
907.237	9025.88
907.551	8983.39
907.864	8899.78
908.177	8901.59
908.491	8827.92
908.804	8775.72
909.117	8812.55
909.43	8737.75
909.743	8687.13
910.056	8638.77
910.368	8735.94
910.681	8610.07
910.994	8592.9
911.307	8573.91
911.619	8502.28
911.932	8544.08
912.244	8469.06
912.557	8494.37
912.869	8391.32
913.181	8351.09
913.494	8354.48
913.806	8404.88
914.118	8301.15
914.43	8229.06
914.742	8225.22
915.054	8257.31
915.366	8166.92
915.678	8158.56
915.99	8113.13
916.302	8084.89
916.613	8070.65
916.925	8024.77
917.236	8009.18
917.548	8000.82
917.859	8027.49
918.171	7845.8
918.482	7873.37
918.794	7891.22
919.105	7813.03
919.416	7765.8
919.727	7756.99
920.038	7793.59
920.349	7683.54
920.66	7604.22
920.971	7626.14
921.282	7650.55
921.593	7605.35
921.903	7533.26
922.214	7514.05
922.525	7502.75
922.835	7464.11
923.146	7420.05
923.456	7403.77
923.767	7356.77
924.077	7297.11
924.387	7236.55
924.697	7214.17
925.008	7221.18
925.318	7218.24
925.628	7204.91
925.938	7154.74
926.248	7082.2
926.558	7068.64
926.867	6996.33
927.177	6960.62
927.487	6968.31
927.796	6888.08
928.106	6865.71
928.416	6840.63
928.725	6818.48
929.034	6822.32
929.344	6749.1
929.653	6746.39
929.962	6644.25
930.271	6608.99
930.581	6636.34
930.89	6635.21
931.199	6562.89
931.508	6588.88
931.817	6534.42
932.125	6504.81
932.434	6482.67
932.743	6436.34
933.051	6432.27
933.36	6388.66
933.669	6355.21
933.977	6297.59
934.286	6306.18
934.594	6274.76
934.902	6256.01
935.21	6244.48
935.519	6242
935.827	6180.53
936.135	6151.38
936.443	6140.08
936.751	6060.31
937.059	6085.16
937.367	6159.06
937.674	6104.15
937.982	6032.74
938.29	6026.41
938.597	6011.04
938.905	5951.16
939.213	5922.01
939.52	5898.05
939.827	5956.13
940.135	5867.32
940.442	5879.75
940.749	5867.32
941.056	5823.7
941.363	5799.07
941.67	5728.11
941.977	5695.34
942.284	5677.27
942.591	5683.37
942.898	5690.15
943.205	5682.69
943.511	5615.57
943.818	5590.94
944.125	5536.93
944.431	5545.07
944.738	5491.73
945.044	5472.98
945.35	5418.52
945.657	5406.99
945.963	5452.87
946.269	5416.26
946.575	5470.94
946.881	5382.81
947.187	5305.75
947.493	5322.02
947.799	5282.7
948.105	5278.63
948.41	5244.51
948.716	5230.05
949.022	5216.26
949.327	5217.39
949.633	5074.34
949.938	5091.74
950.244	5094.91
950.549	5040.9
950.854	5034.57
951.16	5000.9
951.465	5018.75
951.77	4950.05
952.075	4966.55
952.38	4973.1
952.685	4875.48
952.99	4860.34
953.294	4831.19
953.599	4848.59
953.904	4858.76
954.209	4800.45
954.513	4815.82
954.818	4733.79
955.122	4741.25
955.426	4711.87
955.731	4638.88
956.035	4690.4
956.339	4647.24
956.643	4600.68
956.948	4628.93
957.252	4590.97
957.556	4545.09
957.86	4534.02
958.163	4553.91
958.467	4529.5
958.771	4522.27
959.075	4470.74
959.378	4450.86
959.682	4451.31
959.985	4406.11
960.289	4390.52
960.592	4350.75
960.896	4374.02
961.199	4373.8
961.502	4379.67
961.805	4341.48
962.108	4302.16
962.411	4270.07
962.714	4289.28
963.017	4277.3
963.32	4266.23
963.623	4227.59
963.926	4216.51
964.228	4202.73
964.531	4202.73
964.833	4153.01
965.136	4127.02
965.438	4128.61
965.741	4077.53
966.043	4096.06
966.345	4066.69
966.648	4092
966.95	4052
967.252	4050.64
967.554	4001.6
967.856	4001.6
968.158	3968.61
968.46	3952.79
968.761	3959.8
969.063	3935.39
969.365	3942.62
969.666	3955.05
969.968	3883.41
970.269	3879.35
970.571	3883.41
970.872	3845
971.174	3847.03
971.475	3818.78
971.776	3835.96
972.077	3817.2
972.378	3783.76
972.679	3736.53
972.98	3748.05
973.281	3744.44
973.582	3689.07
973.883	3652.91
974.183	3637.32
974.484	3640.26
974.785	3612.69
975.085	3566.36
975.386	3596.42
975.686	3518.68
975.986	3531.33
976.287	3549.86
976.587	3497.66
976.887	3495.85
977.187	3497.89
977.487	3483.2
977.787	3438.23
978.087	3445.23
978.387	3423.99
978.687	3413.6
978.987	3375.41
979.286	3406.37
979.586	3348.51
979.885	3332.69
980.185	3303.77
980.484	3288.18
980.784	3287.05
981.083	3311.45
981.382	3271.23
981.682	3215.64
981.981	3261.28
982.28	3238.23
982.579	3196.43
982.878	3219.25
983.177	3165.24
983.475	3186.48
983.774	3176.31
984.073	3145.58
984.372	3103.77
984.67	3119.59
984.969	3085.47
985.267	3073.94
985.566	3057.67
985.864	3044.79
986.162	3070.55
986.461	3033.27
986.759	3031.23
987.057	3003.44
987.355	2973.83
987.653	2974.29
987.951	2941.97
988.249	2953.04
988.547	2955.76
988.844	2947.17
989.142	2927.96
989.44	2911.46
989.737	2890.9
990.035	2885.25
990.332	2890.67
990.63	2872.82
990.927	2835.08
991.224	2850.67
991.521	2840.5
991.819	2816.1
992.116	2805.7
992.413	2778.59
992.71	2766.61
993.006	2711.24
993.303	2749.66
993.6	2730.45
993.897	2725.03
994.193	2700.4
994.49	2661.07
994.787	2680.51
995.083	2634.86
995.379	2663.11
995.676	2670.79
995.972	2628.08
996.268	2618.82
996.565	2629.66
996.861	2604.58
997.157	2575.2
997.453	2582.88
997.749	2526.61
998.044	2506.73
998.34	2544.92
998.636	2547.86
998.932	2507.86
999.227	2495.88
999.523	2498.82
999.818	2478.03
1000.114	2461.76
1000.409	2462.44
1000.704	2416.11
1001	2417.24
1001.295	2419.95
1001.59	2391.7
1001.885	2383.79
1002.18	2372.95
1002.475	2367.3
1002.77	2343.34
1003.065	2320.29
1003.359	2327.07
1003.654	2318.71
1003.949	2274.87
1004.243	2280.29
1004.538	2264.93
1004.832	2255.21
1005.127	2242.1
1005.421	2238.71
1005.715	2187.19
1006.009	2182.22
1006.304	2192.84
1006.598	2145.16
1006.892	2144.25
1007.186	2113.29
1007.48	2139.73
1007.773	2100.64
1008.067	2085.27
1008.361	2080.3
1008.655	2078.04
1008.948	2090.69
1009.242	2040.75
1009.535	2048.43
1009.829	2015.22
1010.122	2028.55
1010.415	1993.3
1010.708	2001.88
1011.001	1959.17
1011.295	1984.71
1011.588	1953.07
1011.881	1949.23
1012.173	1943.58
1012.466	1920.08
1012.759	1915.11
1013.052	1931.15
1013.344	1909.46
1013.637	1915.33
1013.93	1890.02
1014.222	1866.74
1014.514	1857.93
1014.807	1853.19
1015.099	1859.29
1015.391	1828.55
1015.683	1831.94
1015.976	1826.52
1016.268	1806.41
1016.56	1768.89
1016.851	1791.49
1017.143	1772.28
1017.435	1768.67
1017.727	1758.5
1018.018	1744.94
1018.31	1715.11
1018.602	1703.36
1018.893	1718.27
1019.185	1669.69
1019.476	1705.84
1019.767	1723.47
1020.058	1686.41
1020.35	1651.38
1020.641	1657.94
1020.932	1635.56
1021.223	1628.56
1021.514	1626.75
1021.804	1609.35
1022.095	1588.11
1022.386	1611.84
1022.677	1594.89
1022.967	1569.8
1023.258	1561.22
1023.548	1548.11
1023.839	1528.67
1024.129	1542.01
1024.419	1520.54
1024.709	1517.38
1025	1530.26
1025.29	1490.48
1025.58	1458.62
1025.87	1471.73
1026.16	1464.04
1026.449	1432.63
1026.739	1451.84
1027.029	1438.06
1027.319	1432.41
1027.608	1405.29
1027.898	1396.02
1028.187	1387.89
1028.477	1396.25
1028.766	1381.56
1029.055	1354.89
1029.344	1356.02
1029.634	1329.13
1029.923	1325.74
1030.212	1347.21
1030.501	1323.03
1030.79	1300.66
1031.078	1297.95
1031.367	1311.96
1031.656	1271.05
1031.945	1259.98
1032.233	1263.37
1032.522	1247.55
1032.81	1238.96
1033.099	1232.86
1033.387	1272.41
1033.675	1229.02
1033.963	1204.84
1034.251	1234.22
1034.54	1192.41
1034.828	1204.39
1035.116	1188.12
1035.403	1191.73
1035.691	1159.64
1035.979	1163.26
1036.267	1139.53
1036.554	1152.64
1036.842	1169.36
1037.129	1138.63
1037.417	1108.12
1037.704	1119.65
1037.992	1112.87
1038.279	1106.76
1038.566	1093.88
1038.853	1093.88
1039.14	1093.88
