Data from blue_surface_keyboard_FLMS001491_082.txt Node
Date: Tue Feb 07 11:13:46 GMT 2017
User: dcchb
Spectrometer: FLMS00149
Trigger mode: 0
Integration Time (sec): 2.000000E-2
Scans to average: 10
Electric dark correction enabled: true
Nonlinearity correction enabled: false
Boxcar width: 0
XAxis mode: Wavelengths
Number of Pixels in Spectrum: 2048
>>>>>Begin Spectral Data<<<<<
341.393	-14.69
341.776	-14.69
342.16	-14.69
342.543	-44.29
342.927	-67.12
343.31	-67.57
343.693	-73.22
344.077	-52.2
344.46	-51.52
344.843	-58.08
345.226	-34.35
345.61	-47.91
345.993	-13.78
346.376	-18.53
346.759	9.49
347.142	18.98
347.525	41.81
347.908	51.3
348.291	76.61
348.674	102.82
349.057	116.16
349.44	122.71
349.823	160
350.206	162.93
350.588	187.79
350.971	179.2
351.354	202.71
351.737	212.88
352.119	240.9
352.502	236.83
352.884	240.67
353.267	260.56
353.65	279.54
354.032	286.55
354.414	280.22
354.797	302.36
355.179	297.39
355.562	298.07
355.944	306.21
356.326	307.56
356.709	302.59
357.091	285.19
357.473	323.83
357.855	308.69
358.238	304.85
358.62	306.21
359.002	305.98
359.384	317.05
359.766	306.88
360.148	329.71
360.53	316.6
360.912	315.25
361.294	312.99
361.676	326.55
362.057	312.08
362.439	306.66
362.821	306.66
363.203	290.84
363.584	293.78
363.966	302.14
364.348	285.87
364.729	314.79
365.111	292.87
365.493	290.84
365.874	281.57
366.256	313.44
366.637	279.99
367.019	276.15
367.4	307.34
367.781	283.83
368.163	286.77
368.544	275.47
368.925	290.61
369.306	303.49
369.688	312.31
370.069	293.78
370.45	282.93
370.831	273.44
371.212	293.78
371.593	282.48
371.974	284.06
372.355	294.68
372.736	292.42
373.117	292.65
373.498	277.73
373.879	294.68
374.26	261.91
374.641	285.87
375.021	298.3
375.402	286.55
375.783	292.2
376.163	287.68
376.544	300.78
376.925	279.09
377.305	287
377.686	315.47
378.066	309.82
378.447	288.35
378.827	288.13
379.208	289.71
379.588	296.94
379.968	312.31
380.349	299.88
380.729	317.73
381.109	288.35
381.489	297.85
381.87	305.3
382.25	320.9
382.63	305.98
383.01	301.91
383.39	314.57
383.77	295.36
384.15	314.57
384.53	306.66
384.91	301.69
385.29	308.69
385.67	328.8
386.049	326.55
386.429	322.7
386.809	324.06
387.189	327
387.568	291.74
387.948	324.96
388.328	296.72
388.707	307.11
389.087	319.99
389.466	324.51
389.846	331.06
390.225	324.74
390.605	314.57
390.984	331.74
391.363	320.67
391.743	312.76
392.122	329.26
392.501	333.1
392.881	336.94
393.26	325.87
393.639	310.95
394.018	330.39
394.397	317.73
394.776	335.36
395.155	325.64
395.534	324.51
395.913	322.48
396.292	353.89
396.671	308.69
397.05	333.55
397.429	324.51
397.808	345.98
398.186	311.86
398.565	332.87
398.944	359.76
399.323	321.12
399.701	315.47
400.08	328.58
400.458	332.87
400.837	344.62
401.215	355.02
401.594	339.2
401.972	318.18
402.351	320.22
402.729	333.1
403.107	336.71
403.486	342.36
403.864	345.3
404.242	349.14
404.62	349.14
404.999	328.58
405.377	345.08
405.755	337.62
406.133	365.41
406.511	353.89
406.889	374.45
407.267	344.62
407.645	350.95
408.023	382.14
408.401	374.23
408.779	362.93
409.156	355.47
409.534	358.18
409.912	374.68
410.29	365.41
410.667	380.1
411.045	361.35
411.422	362.48
411.8	386.43
412.178	367.9
412.555	370.84
412.933	384.62
413.31	376.04
413.687	388.69
414.065	379.88
414.442	387.11
414.819	392.98
415.197	398.41
415.574	394.11
415.951	378.07
416.328	369.26
416.705	383.94
417.082	404.28
417.46	401.8
417.837	405.64
418.214	401.8
418.591	390.05
418.967	401.57
419.344	393.89
419.721	394.79
420.098	408.58
420.475	388.46
420.852	426.88
421.228	415.36
421.605	374.23
421.982	397.96
422.358	398.41
422.735	405.19
423.111	419.65
423.488	406.77
423.864	429.14
424.241	421.23
424.617	438.18
424.994	410.61
425.37	422.59
425.746	431.63
426.123	418.07
426.499	426.43
426.875	418.52
427.251	440.21
427.627	439.99
428.003	445.41
428.379	428.69
428.756	440.67
429.132	435.69
429.507	442.02
429.883	419.65
430.259	450.16
430.635	427.33
431.011	455.36
431.387	481.8
431.763	452.64
432.138	448.8
432.514	446.77
432.89	473.89
433.265	485.41
433.641	492.19
434.016	480.67
434.392	463.04
434.767	470.27
435.143	454.23
435.518	478.63
435.894	484.96
436.269	489.25
436.644	499.65
437.02	477.95
437.395	486.99
437.77	510.04
438.145	496.94
438.52	517.95
438.895	510.04
439.271	524.73
439.646	526.54
440.021	502.13
440.395	505.07
440.77	517.73
441.145	500.78
441.52	526.54
441.895	515.47
442.27	506.65
442.645	534.9
443.019	552.53
443.394	538.52
443.769	519.99
444.143	520.89
444.518	542.13
444.892	528.12
445.267	537.61
445.641	544.62
446.016	546.88
446.39	532.42
446.764	543.49
447.139	552.75
447.513	563.38
447.887	557.73
448.262	550.27
448.636	563.83
449.01	568.8
449.384	538.74
449.758	548.46
450.132	575.8
450.506	564.5
450.88	596.82
451.254	570.83
451.628	564.28
452.002	582.13
452.376	578.06
452.75	575.35
453.123	556.82
453.497	588.01
453.871	565.63
454.244	599.08
454.618	612.64
454.992	580.1
455.365	589.82
455.739	622.13
456.112	631.62
456.486	610.38
456.859	608.35
457.232	623.94
457.606	618.97
457.979	622.36
458.352	632.07
458.725	633.2
459.099	639.08
459.472	637.27
459.845	649.7
460.218	645.18
460.591	655.35
460.964	662.36
461.337	666.65
461.71	690.15
462.083	685.41
462.456	660.55
462.829	680.89
463.201	675.69
463.574	687.21
463.947	677.5
464.32	697.38
464.692	708.46
465.065	711.17
465.438	697.83
465.81	708.68
466.183	726.31
466.555	718.17
466.928	724.73
467.3	735.8
467.672	738.74
468.045	755.01
468.417	742.35
468.789	759.75
469.161	757.95
469.534	783.48
469.906	771.51
470.278	767.89
470.65	770.83
471.022	797.95
471.394	813.76
471.766	801.79
472.138	792.52
472.51	832.97
472.882	825.29
473.253	810.6
473.625	826.64
473.997	829.58
474.369	840.43
474.74	841.11
475.112	859.86
475.484	873.65
475.855	875.23
476.227	905.74
476.598	893.76
476.97	897.83
477.341	933.99
477.713	926.98
478.084	931.5
478.455	946.87
478.827	957.26
479.198	966.08
479.569	960.2
479.94	998.17
480.311	983.02
480.682	1011.27
481.053	1025.96
481.424	1019.63
481.795	1026.87
482.166	1022.12
482.537	1032.74
482.908	1057.6
483.279	1066.64
483.65	1076.36
484.021	1084.04
484.391	1098.95
484.762	1091.27
485.133	1125.85
485.503	1126.98
485.874	1124.72
486.244	1131.04
486.615	1137.37
486.985	1167.43
487.356	1177.14
487.726	1164.49
488.097	1173.98
488.467	1205.17
488.837	1196.8
489.207	1214.66
489.578	1224.37
489.948	1230.02
490.318	1228.22
490.688	1245.17
491.058	1240.19
491.428	1261.21
491.798	1276.58
492.168	1265.73
492.538	1279.74
492.908	1274.99
493.278	1308.21
493.648	1280.42
494.017	1289.91
494.387	1328.55
494.757	1304.37
495.126	1312.28
495.496	1312.51
495.866	1328.78
496.235	1320.42
496.605	1317.93
496.974	1332.17
497.344	1322
497.713	1322.68
498.082	1316.35
498.452	1381.21
498.821	1364.94
499.19	1353.41
499.559	1397.48
499.928	1366.97
500.298	1369.23
500.667	1405.61
501.036	1377.82
501.405	1389.34
501.774	1390.47
502.143	1395.67
502.512	1391.15
502.88	1412.39
503.249	1405.84
503.618	1417.59
503.987	1403.8
504.356	1416.46
504.724	1405.61
505.093	1415.78
505.462	1402.67
505.83	1425.73
506.199	1420.53
506.567	1438.61
506.936	1426.18
507.304	1465.72
507.672	1437.25
508.041	1455.1
508.409	1458.04
508.777	1438.61
509.145	1463.01
509.514	1460.53
509.882	1434.31
510.25	1473.18
510.618	1481.99
510.986	1499.85
511.354	1474.54
511.722	1488.55
512.09	1474.31
512.458	1515.21
512.826	1484.03
513.193	1508.43
513.561	1471.83
513.929	1521.54
514.297	1514.76
514.664	1520.19
515.032	1485.16
515.4	1502.79
515.767	1500.07
516.135	1525.38
516.502	1492.39
516.869	1526.74
517.237	1515.67
517.604	1548.21
517.972	1523.8
518.339	1517.93
518.706	1544.59
519.073	1527.19
519.44	1552.05
519.808	1564.48
520.175	1553.63
520.542	1535.78
520.909	1549.79
521.276	1547.3
521.643	1551.6
522.009	1571.48
522.376	1587.75
522.743	1571.48
523.11	1592.95
523.477	1584.82
523.843	1579.85
524.21	1585.04
524.577	1575.55
524.943	1601.77
525.31	1591.6
525.676	1626.4
526.043	1615.1
526.409	1619.84
526.776	1637.92
527.142	1627.75
527.508	1644.93
527.874	1632.95
528.241	1650.8
528.607	1623.91
528.973	1640.41
529.339	1647.87
529.705	1622.1
530.071	1674.08
530.437	1671.59
530.803	1664.59
531.169	1696.45
531.535	1678.83
531.901	1640.86
532.267	1657.13
532.632	1699.62
532.998	1679.28
533.364	1672.5
533.73	1701.88
534.095	1689.67
534.461	1694.19
534.826	1668.43
535.192	1707.53
535.557	1696
535.923	1706.62
536.288	1677.7
536.653	1713.63
537.019	1705.94
537.384	1706.4
537.749	1698.49
538.114	1718.15
538.479	1693.74
538.845	1707.98
539.21	1703.68
539.575	1715.66
539.94	1739.39
540.305	1700.75
540.67	1704.36
541.034	1687.19
541.399	1719.73
541.764	1727.41
542.129	1693.97
542.494	1712.05
542.858	1743.68
543.223	1690.58
543.587	1703.91
543.952	1697.81
544.316	1712.05
544.681	1707.98
545.045	1683.8
545.41	1738.49
545.774	1740.29
546.138	1702.1
546.503	1686.74
546.867	1728.77
547.231	1722.89
547.595	1720.41
547.959	1735.32
548.324	1738.49
548.688	1696.23
549.052	1732.16
549.416	1734.64
549.779	1725.15
550.143	1737.36
550.507	1740.52
550.871	1711.59
551.235	1714.98
551.599	1724.7
551.962	1732.16
552.326	1724.47
552.689	1719.73
553.053	1726.06
553.417	1728.99
553.78	1756.11
554.143	1737.58
554.507	1703.68
554.87	1763.34
555.234	1769.9
555.597	1733.97
555.96	1743.91
556.323	1745.72
556.686	1785.94
557.05	1770.35
557.413	1780.97
557.776	1759.5
558.139	1785.49
558.502	1730.58
558.865	1779.39
559.228	1812.61
559.59	1793.85
559.953	1789.11
560.316	1850.35
560.679	1784.36
561.041	1811.7
561.404	1771.7
561.767	1803.57
562.129	1783.68
562.492	1812.38
562.854	1808.77
563.217	1808.54
563.579	1794.76
563.941	1835.43
564.304	1815.32
564.666	1799.27
565.028	1821.2
565.39	1816
565.753	1839.27
566.115	1825.26
566.477	1825.26
566.839	1844.02
567.201	1806.51
567.563	1819.61
567.925	1864.58
568.287	1851.93
568.648	1834.53
569.01	1822.78
569.372	1835.88
569.734	1847.86
570.095	1884.24
570.457	1861.19
570.819	1883.11
571.18	1873.4
571.542	1873.4
571.903	1861.65
572.265	1903.23
572.626	1891.02
572.987	1869.56
573.349	1864.13
573.71	1865.49
574.071	1881.08
574.432	1874.08
574.794	1907.97
575.155	1899.84
575.516	1883.57
575.877	1899.84
576.238	1888.09
576.599	1905.94
576.96	1888.09
577.32	1932.38
577.681	1894.41
578.042	1914.53
578.403	1905.49
578.763	1915.43
579.124	1915.88
579.485	1935.32
579.845	1933.73
580.206	1913.62
580.566	1935.32
580.927	1936.9
581.287	1913.4
581.648	1916.11
582.008	1933.28
582.368	1922.66
582.728	1941.64
583.089	1938.71
583.449	1951.14
583.809	1937.12
584.169	1936.22
584.529	1900.29
584.889	1943.45
585.249	1928.99
585.609	1944.13
585.969	1944.13
586.329	1940.06
586.688	1950.01
587.048	1944.81
587.408	1965.6
587.768	1978.03
588.127	1939.84
588.487	1931.25
588.846	1962.43
589.206	1940.06
589.565	1937.8
589.925	1933.96
590.284	1957.24
590.643	1935.09
591.003	1929.44
591.362	1983.22
591.721	1967.86
592.08	1949.1
592.44	1959.95
592.799	1948.88
593.158	1974.19
593.517	1934.86
593.876	1974.41
594.235	1947.29
594.593	1984.58
594.952	1961.76
595.311	1964.02
595.67	2005.82
596.029	2022.55
596.387	1959.72
596.746	1982.09
597.104	1987.52
597.463	2011.92
597.822	1996.78
598.18	1959.72
598.538	2000.4
598.897	1985.48
599.255	1982.09
599.613	2011.47
599.972	2009.66
600.33	2002.89
600.688	1994.98
601.046	1984.35
601.404	2039.49
601.762	1996.56
602.12	2024.13
602.478	2021.64
602.836	2019.38
603.194	2006.73
603.552	2013.96
603.91	2027.29
604.268	2030
604.625	2002.89
604.983	2035.88
605.341	1989.78
605.698	2016.44
606.056	2049.44
606.413	2043.56
606.771	2020.74
607.128	2020.06
607.485	2025.48
607.843	2027.29
608.2	2054.64
608.557	2048.53
608.914	2062.77
609.272	2032.49
609.629	2048.08
609.986	2044.69
610.343	2058.93
610.7	2081.08
611.057	2040.85
611.414	2060.06
611.771	2063.45
612.127	2058.02
612.484	2097.35
612.841	2088.53
613.198	2066.84
613.554	2092.15
613.911	2090.79
614.267	2061.87
614.624	2082.43
614.98	2099.83
615.337	2075.88
615.693	2105.48
616.05	2107.29
616.406	2071.81
616.762	2118.59
617.118	2128.76
617.475	2119.27
617.831	2102.54
618.187	2114.07
618.543	2093.5
618.899	2142.09
619.255	2122.2
619.611	2112.49
619.967	2141.41
620.323	2146.16
620.678	2135.76
621.034	2131.7
621.39	2144.35
621.746	2125.14
622.101	2142.77
622.457	2122.66
622.812	2135.09
623.168	2153.62
623.523	2188.87
623.879	2188.19
624.234	2170.34
624.589	2174.41
624.945	2172.37
625.3	2213.28
625.655	2171.02
626.01	2189.09
626.365	2192.03
626.72	2191.35
627.075	2199.26
627.43	2190.68
627.785	2182.77
628.14	2160.4
628.495	2163.78
628.85	2201.75
629.205	2198.81
629.559	2241.07
629.914	2217.12
630.269	2240.39
630.623	2203.33
630.978	2229.55
631.332	2193.16
631.687	2235.2
632.041	2241.75
632.396	2184.35
632.75	2229.55
633.104	2234.97
633.459	2232.03
633.813	2233.16
634.167	2277
634.521	2227.29
634.875	2240.17
635.229	2261.64
635.583	2262.99
635.937	2225.48
636.291	2268.19
636.645	2280.62
636.999	2278.81
637.352	2294.18
637.706	2259.38
638.06	2297.79
638.413	2262.77
638.767	2318.36
639.121	2287.17
639.474	2270.45
639.828	2303.67
640.181	2291.24
640.534	2349.54
640.888	2323.1
641.241	2333.72
641.594	2320.84
641.947	2359.26
642.301	2364.46
642.654	2347.28
643.007	2374.63
643.36	2340.73
643.713	2341.41
644.066	2337.79
644.419	2353.38
644.771	2331.24
645.124	2378.02
645.477	2366.49
645.83	2373.72
646.182	2354.51
646.535	2346.38
646.888	2373.95
647.24	2330.79
647.593	2383.89
647.945	2384.12
648.298	2368.75
648.65	2380.95
649.002	2397.68
649.355	2400.16
649.707	2433.38
650.059	2444.68
650.411	2438.13
650.763	2502.08
651.115	2498.69
651.467	2512.48
651.819	2515.87
652.171	2552.25
652.523	2526.26
652.875	2519.71
653.227	2557.67
653.578	2571.68
653.93	2570.78
654.282	2595.41
654.633	2583.66
654.985	2579.14
655.337	2629.99
655.688	2635.64
656.039	2635.41
656.391	2625.69
656.742	2633.15
657.094	2682.64
657.445	2691
657.796	2721.74
658.147	2687.39
658.498	2700.04
658.849	2699.36
659.2	2718.8
659.551	2719.7
659.902	2737.33
660.253	2766.25
660.604	2771.68
660.955	2749.31
661.306	2807.38
661.656	2800.38
662.007	2846.7
662.358	2847.16
662.708	2835.86
663.059	2872.92
663.409	2843.77
663.76	2909.53
664.11	2893.26
664.461	2924.44
664.811	2909.08
665.161	2915.4
665.511	2920.6
665.862	2941.62
666.212	2976.19
666.562	2987.27
666.912	2988.17
667.262	3012.58
667.612	3002.86
667.962	2991.11
668.312	3030.88
668.662	3060.03
669.011	3112.23
669.361	3116.53
669.711	3108.84
670.06	3092.8
670.41	3115.17
670.76	3135.28
671.109	3138.22
671.459	3157.88
671.808	3133.02
672.157	3205.57
672.507	3159.69
672.856	3170.99
673.205	3239.91
673.554	3215.28
673.904	3194.27
674.253	3254.83
674.602	3253.25
674.951	3187.49
675.3	3203.76
675.649	3276.52
675.998	3314.04
676.346	3322.62
676.695	3323.75
677.044	3342.51
677.393	3348.16
677.741	3359.46
678.09	3351.32
678.438	3362.85
678.787	3393.58
679.135	3399.91
679.484	3401.49
679.832	3436.29
680.181	3431.32
680.529	3422.28
680.877	3415.96
681.225	3415.96
681.573	3479
681.922	3426.35
682.27	3487.82
682.618	3466.12
682.966	3504.99
683.314	3497.08
683.661	3543.41
684.009	3499.12
684.357	3547.25
684.705	3473.81
685.053	3554.03
685.4	3570.98
685.748	3515.61
686.095	3563.52
686.443	3588.83
686.79	3550.87
687.138	3558.1
687.485	3634.03
687.832	3602.84
688.18	3619.79
688.527	3589.51
688.874	3608.94
689.221	3620.02
689.568	3652.79
689.915	3608.04
690.262	3624.54
690.609	3638.32
690.956	3626.8
691.303	3661.37
691.65	3634.25
691.997	3663.63
692.344	3613.92
692.69	3643.07
693.037	3686
693.383	3644.88
693.73	3639.23
694.077	3615.95
694.423	3622.5
694.769	3670.86
695.116	3649.17
695.462	3633.35
695.808	3687.81
696.155	3648.49
696.501	3617.76
696.847	3663.41
697.193	3631.54
697.539	3631.99
697.885	3650.53
698.231	3597.65
698.577	3620.02
698.923	3606.01
699.269	3632.45
699.614	3620.47
699.96	3668.6
700.306	3606.46
700.651	3605.55
700.997	3630.86
701.342	3631.77
701.688	3606.68
702.033	3624.54
702.379	3649.17
702.724	3607.81
703.069	3666.34
703.415	3564.43
703.76	3590.64
704.105	3634.93
704.45	3631.99
704.795	3546.8
705.14	3587.93
705.485	3544.99
705.83	3556.06
706.175	3563.97
706.52	3551.77
706.865	3583.18
707.209	3559.68
707.554	3554.03
707.899	3584.76
708.243	3565.1
708.588	3592
708.932	3510.42
709.277	3544.09
709.621	3537.99
709.966	3538.21
710.31	3540.92
710.654	3477.2
710.998	3531.88
711.342	3545.22
711.687	3494.82
712.031	3518.33
712.375	3497.76
712.719	3535.27
713.063	3523.75
713.407	3520.59
713.75	3521.72
714.094	3500.47
714.438	3489.63
714.782	3540.92
715.125	3522.17
715.469	3513.81
715.812	3493.69
716.156	3491.89
716.499	3502.96
716.843	3493.92
717.186	3445.11
717.53	3512
717.873	3537.53
718.216	3487.59
718.559	3492.34
718.902	3469.97
719.246	3465.67
719.589	3481.04
719.932	3484.65
720.275	3478.1
720.617	3469.74
720.96	3507.48
721.303	3490.53
721.646	3472.23
721.989	3460.93
722.331	3523.3
722.674	3462.96
723.016	3526.46
723.359	3476.74
723.701	3455.28
724.044	3457.99
724.386	3457.31
724.729	3470.42
725.071	3472.9
725.413	3462.73
725.755	3472.9
726.097	3488.5
726.439	3496.18
726.782	3466.8
727.124	3485.11
727.465	3521.49
727.807	3505.22
728.149	3467.93
728.491	3507.93
728.833	3453.69
729.175	3477.65
729.516	3471.55
729.858	3495.73
730.199	3533.69
730.541	3507.7
730.882	3508.16
731.224	3525.78
731.565	3507.03
731.906	3519.46
732.248	3521.49
732.589	3522.17
732.93	3535.73
733.271	3534.6
733.612	3541.38
733.953	3495.5
734.294	3552.22
734.635	3533.24
734.976	3591.77
735.317	3514.03
735.658	3546.12
735.999	3558.78
736.339	3528.95
736.68	3558.55
737.021	3555.84
737.361	3564.2
737.702	3605.78
738.042	3599
738.383	3557.65
738.723	3601.49
739.063	3605.1
739.404	3641.49
739.744	3622.73
740.084	3611.43
740.424	3613.01
740.764	3639.23
741.104	3651.66
741.444	3632.9
741.784	3639.68
742.124	3645.1
742.464	3699.79
742.804	3682.39
743.143	3685.55
743.483	3698.89
743.823	3678.1
744.162	3684.2
744.502	3701.82
744.841	3696.63
745.181	3771.43
745.52	3747.02
745.86	3810.3
746.199	3838.77
746.538	3787.7
746.877	3820.69
747.216	3826.34
747.556	3848.49
747.895	3826.34
748.234	3864.53
748.573	3868.37
748.911	3933
749.25	3886.45
749.589	3861.82
749.928	3911.31
750.267	3943.17
750.605	3982.04
750.944	4000.8
751.283	3959.9
751.621	4022.04
751.96	4102.72
752.298	4037.41
752.636	4128.25
752.975	4081.7
753.313	4066.56
753.651	4075.83
753.989	4156.73
754.327	4158.99
754.666	4172.77
755.004	4164.18
755.342	4233.34
755.679	4266.33
756.017	4244.41
756.355	4266.1
756.693	4315.59
757.031	4320.11
757.368	4368.7
757.706	4388.81
758.044	4347.46
758.381	4399.43
758.719	4393.56
759.056	4439.43
759.394	4442.6
759.731	4401.01
760.068	4421.13
760.405	4432.65
760.743	4475.59
761.08	4482.59
761.417	4478.98
761.754	4478.3
762.091	4453.44
762.428	4541.12
762.765	4474.23
763.102	4523.72
763.438	4505.42
763.775	4585.42
764.112	4579.31
764.449	4584.06
764.785	4577.05
765.122	4561.69
765.458	4527.56
765.795	4587.9
766.131	4575.02
766.467	4599.43
766.804	4567.34
767.14	4605.75
767.476	4590.84
767.812	4544.06
768.148	4631.29
768.485	4579.77
768.821	4540.67
769.157	4598.3
769.492	4579.99
769.828	4614.79
770.164	4591.52
770.5	4578.64
770.836	4600.56
771.171	4553.55
771.507	4579.77
771.842	4539.99
772.178	4572.31
772.513	4522.82
772.849	4555.36
773.184	4508.36
773.519	4545.64
773.855	4492.99
774.19	4498.64
774.525	4532.76
774.86	4497.06
775.195	4535.25
775.53	4476.94
775.865	4470.16
776.2	4405.99
776.535	4406.21
776.87	4379.32
777.205	4422.48
777.539	4372.31
777.874	4428.81
778.209	4406.44
778.543	4366.44
778.878	4353.56
779.212	4368.25
779.547	4340.9
779.881	4361.02
780.215	4342.48
780.55	4299.32
780.884	4291.19
781.218	4300
781.552	4305.65
781.886	4282.6
782.22	4211.41
782.554	4280.11
782.888	4225.2
783.222	4246.44
783.556	4201.02
783.889	4191.3
784.223	4137.29
784.557	4168.25
784.89	4167.12
785.224	4156.05
785.557	4137.97
785.891	4130.96
786.224	4098.65
786.558	4149.72
786.891	4080.12
787.224	4127.12
787.557	4098.88
787.891	4097.97
788.224	4048.03
788.557	4085.32
788.89	4027.92
789.223	4065.88
789.556	4011.19
789.888	4000.57
790.221	4010.29
790.554	3933.23
790.887	3953.34
791.219	3937.07
791.552	3949.05
791.884	3942.72
792.217	3914.25
792.549	3905.21
792.882	3916.28
793.214	3909.05
793.546	3909.05
793.879	3890.07
794.211	3860.46
794.543	3848.94
794.875	3825.21
795.207	3857.3
795.539	3829.5
795.871	3842.61
796.203	3767.13
796.535	3758.32
796.867	3784.76
797.198	3756.06
797.53	3740.01
797.862	3773.23
798.193	3758.77
798.525	3732.78
798.856	3736.85
799.188	3723.97
799.519	3671.09
799.85	3665.44
800.182	3657.53
800.513	3673.35
800.844	3631.77
801.175	3620.7
801.506	3675.61
801.837	3664.99
802.168	3620.47
802.499	3586.8
802.83	3554.26
803.161	3606.01
803.491	3576.18
803.822	3607.81
804.153	3556.97
804.483	3544.54
804.814	3544.09
805.145	3503.41
805.475	3571.43
805.805	3552.45
806.136	3505.22
806.466	3531.66
806.796	3491.66
807.126	3488.72
807.457	3467.48
807.787	3512.22
808.117	3402.62
808.447	3484.43
808.777	3459.34
809.107	3451.89
809.436	3425.67
809.766	3416.63
810.096	3418.22
810.426	3378.44
810.755	3418.89
811.085	3441.49
811.414	3385
811.744	3417.76
812.073	3389.29
812.403	3325.79
812.732	3335.28
813.061	3382.74
813.39	3305.68
813.719	3342.74
814.049	3321.72
814.378	3312.23
814.707	3325.11
815.036	3330.76
815.365	3310.87
815.693	3294.15
816.022	3289.41
816.351	3256.86
816.68	3237.88
817.008	3270.65
817.337	3279.69
817.665	3222.29
817.994	3222.51
818.322	3257.54
818.651	3206.02
818.979	3227.26
819.307	3250.76
819.636	3210.31
819.964	3144.1
820.292	3169.41
820.62	3210.99
820.948	3196.53
821.276	3204.89
821.604	3168.5
821.932	3174.15
822.259	3215.73
822.587	3176.41
822.915	3181.61
823.243	3176.64
823.57	3173.02
823.898	3147.26
824.225	3187.49
824.553	3172.12
824.88	3176.19
825.207	3183.42
825.535	3180.93
825.862	3159.24
826.189	3158.11
826.516	3210.76
826.843	3226.81
827.17	3202.63
827.497	3215.73
827.824	3202.4
828.151	3194.04
828.478	3156.75
828.805	3189.07
829.131	3197.43
829.458	3165.11
829.785	3184.78
830.111	3195.17
830.438	3222.29
830.764	3173.48
831.09	3203.53
831.417	3188.16
831.743	3208.5
832.069	3156.53
832.395	3152.01
832.722	3174.38
833.048	3126.02
833.374	3142.52
833.7	3133.48
834.026	3154.49
834.351	3180.71
834.677	3168.28
835.003	3174.61
835.329	3153.82
835.654	3156.3
835.98	3145.91
836.306	3143.65
836.631	3152.23
836.956	3131.44
837.282	3155.62
837.607	3116.53
837.932	3110.43
838.258	3097.09
838.583	3085.79
838.908	3086.25
839.233	3100.03
839.558	3070.65
839.883	3079.47
840.208	3056.42
840.533	3054.83
840.858	3069.07
841.182	3061.16
841.507	3052.8
841.832	3047.6
842.156	3070.43
842.481	3040.6
842.805	3045.57
843.13	3025.23
843.454	3026.14
843.778	3003.76
844.103	3000.15
844.427	3011.67
844.751	3018.23
845.075	3013.03
845.399	2977.77
845.723	2982.97
846.047	2997.21
846.371	2959.7
846.695	2933.48
847.019	2922.86
847.343	2922.64
847.666	2959.02
847.99	2892.13
848.313	2905.46
848.637	2869.76
848.96	2881.96
849.284	2858.91
849.607	2859.13
849.931	2853.03
850.254	2867.27
850.577	2841.96
850.9	2790.21
851.223	2798.34
851.546	2802.19
851.869	2744.79
852.192	2777.1
852.515	2739.81
852.838	2775.07
853.161	2799.02
853.483	2755.18
853.806	2758.12
854.129	2718.35
854.451	2749.76
854.774	2701.62
855.096	2719.02
855.419	2730.78
855.741	2761.28
856.063	2665.01
856.385	2643.09
856.708	2660.95
857.03	2658.46
857.352	2673.6
857.674	2660.27
857.996	2658.01
858.318	2632.93
858.64	2622.76
858.961	2599.48
859.283	2579.82
859.605	2615.98
859.926	2599.71
860.248	2584.11
860.57	2569.42
860.891	2620.27
861.212	2592.25
861.534	2592.02
861.855	2584.79
862.176	2593.15
862.498	2550.89
862.819	2535.53
863.14	2571.01
863.461	2554.96
863.782	2543.21
864.103	2514.51
864.424	2533.04
864.745	2536.2
865.065	2509.31
865.386	2524.68
865.707	2535.07
866.027	2536.2
866.348	2512.25
866.668	2537.33
866.989	2494.62
867.309	2481.97
867.63	2479.48
867.95	2492.82
868.27	2439.26
868.59	2509.76
868.91	2509.54
869.23	2482.19
869.55	2487.17
869.87	2458.24
870.19	2519.26
870.51	2478.13
870.83	2438.35
871.15	2441.52
871.469	2454.85
871.789	2446.26
872.109	2438.58
872.428	2448.98
872.748	2439.48
873.067	2471.57
873.386	2443.1
873.706	2409.88
874.025	2454.17
874.344	2431.57
874.663	2454.17
874.982	2417.11
875.301	2420.5
875.62	2406.26
875.939	2400.39
876.258	2413.95
876.577	2391.8
876.896	2420.95
877.214	2413.04
877.533	2427.05
877.852	2376.43
878.17	2379.15
878.489	2401.52
878.807	2392.48
879.125	2384.8
879.444	2395.42
879.762	2361.07
880.08	2393.61
880.398	2376.43
880.716	2379.82
881.034	2326.04
881.352	2346.38
881.67	2370.11
881.988	2338.02
882.306	2331.92
882.624	2362.88
882.941	2338.92
883.259	2312.48
883.577	2347.51
883.894	2318.36
884.212	2341.63
884.529	2329.43
884.846	2322.88
885.164	2333.95
885.481	2301.63
885.798	2301.18
886.115	2320.16
886.432	2289.88
886.75	2283.56
887.067	2303.44
887.383	2288.3
887.7	2269.54
888.017	2253.73
888.334	2284.91
888.651	2278.13
888.967	2256.89
889.284	2239.49
889.6	2220.96
889.917	2240.85
890.233	2245.82
890.55	2254.4
890.866	2232.48
891.182	2202.65
891.498	2197.91
891.815	2221.41
892.131	2200.62
892.447	2168.3
892.763	2195.2
893.079	2171.47
893.395	2198.36
893.71	2165.82
894.026	2165.82
894.342	2168.76
894.657	2176.67
894.973	2144.12
895.289	2153.84
895.604	2144.58
895.92	2140.06
896.235	2107.74
896.55	2111.36
896.865	2111.81
897.181	2085.82
897.496	2097.12
897.811	2083.79
898.126	2087.4
898.441	2078.59
898.756	2060.74
899.071	2057.57
899.386	2070.23
899.7	2081.3
900.015	2020.06
900.33	2034.52
900.644	2046.95
900.959	2036.78
901.273	2028.2
901.588	2025.71
901.902	2006.73
902.216	2002.21
902.531	1999.5
902.845	2008.08
903.159	1999.95
903.473	1977.12
903.787	1977.12
904.101	1944.13
904.415	1977.58
904.729	1941.19
905.042	1958.59
905.356	1945.71
905.67	1960.17
905.984	1953.39
906.297	1931.93
906.611	1967.18
906.924	1918.59
907.237	1924.02
907.551	1909.1
907.864	1949.33
908.177	1904.13
908.491	1883.79
908.804	1873.17
909.117	1883.11
909.43	1860.74
909.743	1868.43
910.056	1843.12
910.368	1830.23
910.681	1829.33
910.994	1824.81
911.307	1846.28
911.619	1826.17
911.932	1853.96
912.244	1780.07
912.557	1792.95
912.869	1798.14
913.181	1791.37
913.494	1788.2
913.806	1775.32
914.118	1795.88
914.43	1800.86
914.742	1777.13
915.054	1764.93
915.366	1726.51
915.678	1778.26
915.99	1764.7
916.302	1736.45
916.613	1717.24
916.925	1757.92
917.236	1700.97
917.548	1677.47
917.859	1717.69
918.171	1721.76
918.482	1696.23
918.794	1717.24
919.105	1700.97
919.416	1694.64
919.727	1678.37
920.038	1663.23
920.349	1648.09
920.66	1634.08
920.971	1677.7
921.282	1655.55
921.593	1653.29
921.903	1658.49
922.214	1646.74
922.525	1630.92
922.835	1611.94
923.146	1640.18
923.456	1623.46
923.767	1628.88
924.077	1606.51
924.387	1592.73
924.697	1591.37
925.008	1573.29
925.318	1591.14
925.628	1595.89
925.938	1595.44
926.248	1562.67
926.558	1553.41
926.867	1566.74
927.177	1547.53
927.487	1555.21
927.796	1540.3
928.106	1539.62
928.416	1496.23
928.725	1515.21
929.034	1522.9
929.344	1512.5
929.653	1488.77
929.962	1480.87
930.271	1487.64
930.581	1463.24
930.89	1495.78
931.199	1487.42
931.508	1494.65
931.817	1457.36
932.125	1472.28
932.434	1427.76
932.743	1463.01
933.051	1424.6
933.36	1448.55
933.669	1434.76
933.977	1444.71
934.286	1470.7
934.594	1439.74
934.902	1438.38
935.21	1418.04
935.519	1394.54
935.827	1407.42
936.135	1396.12
936.443	1409.45
936.751	1390.25
937.059	1399.74
937.367	1389.12
937.674	1409.68
937.982	1375.56
938.29	1358.83
938.597	1371.72
938.905	1358.38
939.213	1364.94
939.52	1347.99
939.827	1340.3
940.135	1341.43
940.442	1307.76
940.749	1313.19
941.056	1331.04
941.363	1320.19
941.67	1307.99
941.977	1293.3
942.284	1313.41
942.591	1307.31
942.898	1276.12
943.205	1302.56
943.511	1295.33
943.818	1281.32
944.125	1281.77
944.431	1288.55
944.738	1272.96
945.044	1267.31
945.35	1272.28
945.657	1279.51
945.963	1253.07
946.269	1225.5
946.575	1227.99
946.881	1253.3
947.187	1263.7
947.493	1247.42
947.799	1229.8
948.105	1236.8
948.41	1226.41
948.716	1241.78
949.022	1219.85
949.327	1201.55
949.633	1220.76
949.938	1212.17
950.244	1213.3
950.549	1192.06
950.854	1179.18
951.16	1171.04
951.465	1195.22
951.77	1211.27
952.075	1190.03
952.38	1174.88
952.685	1161.33
952.99	1175.34
953.294	1175.56
953.599	1154.55
953.904	1118.84
954.209	1161.1
954.513	1153.87
954.818	1145.05
955.122	1140.53
955.426	1118.84
955.731	1102.57
956.035	1120.87
956.339	1112.97
956.643	1112.74
956.948	1125.39
957.252	1117.48
957.556	1105.96
957.86	1093.08
958.163	1086.53
958.467	1095.56
958.771	1105.51
959.075	1094.21
959.378	1091.27
959.682	1083.14
959.985	1067.32
960.289	1067.54
960.592	1087.43
960.896	1080.2
961.199	1058.73
961.502	1067.54
961.805	1062.8
962.108	1060.54
962.411	1052.18
962.714	1031.61
963.017	1066.19
963.32	1048.79
963.623	1051.27
963.926	1033.65
964.228	1036.81
964.531	1008.56
964.833	1054.66
965.136	1034.55
965.438	1024.38
965.741	1015.57
966.043	1009.92
966.345	996.36
966.648	1025.74
966.95	1015.79
967.252	1008.56
967.554	1000.43
967.856	1006.75
968.158	978.96
968.46	990.48
968.761	979.41
969.063	996.58
969.365	988.45
969.666	980.54
969.968	966.98
970.269	1005.4
970.571	972.18
970.872	939.41
971.174	954.78
971.475	963.36
971.776	981.67
972.077	949.13
972.378	945.74
972.679	962.01
972.98	923.37
973.281	942.12
973.582	941.9
973.883	952.29
974.183	931.5
974.484	921.11
974.785	951.16
975.085	914.78
975.386	947.55
975.686	924.27
975.986	951.16
976.287	939.86
976.587	889.69
976.887	910.94
977.187	921.33
977.487	890.82
977.787	902.58
978.087	865.74
978.387	885.63
978.687	908.22
978.987	889.02
979.286	873.88
979.586	900.77
979.885	907.09
980.185	891.95
980.484	868.68
980.784	868.45
981.083	884.04
981.382	861.22
981.682	854.21
981.981	839.98
982.28	861.67
982.579	865.29
982.878	838.4
983.177	838.17
983.475	846.98
983.774	830.71
984.073	860.77
984.372	830.03
984.67	832.52
984.969	816.02
985.267	833.2
985.566	829.13
985.864	800.43
986.162	833.65
986.461	818.51
986.759	851.05
987.057	808.57
987.355	824.61
987.653	810.6
987.951	810.15
988.249	795.69
988.547	818.28
988.844	794.1
989.142	810.6
989.44	781.22
989.737	799.53
990.035	785.74
990.332	785.06
990.63	807.66
990.927	779.87
991.224	784.61
991.521	784.16
991.819	776.02
992.116	790.71
992.413	774.89
992.71	785.06
993.006	761.79
993.303	765.18
993.6	783.48
993.897	765.86
994.193	757.72
994.49	751.39
994.787	762.47
995.083	767.44
995.379	738.74
995.676	722.24
995.972	750.26
996.268	745.29
996.565	763.37
996.861	721.56
997.157	729.92
997.453	719.08
997.749	730.38
998.044	733.09
998.34	724.27
998.636	731.05
998.932	712.98
999.227	732.64
999.523	707.33
999.818	726.08
1000.114	716.14
1000.409	714.56
1000.704	739.19
1001	704.61
1001.295	698.06
1001.59	681.79
1001.885	677.5
1002.18	695.57
1002.475	706.42
1002.77	678.63
1003.065	697.38
1003.359	673.2
1003.654	704.16
1003.949	686.54
1004.243	685.41
1004.538	657.61
1004.832	669.59
1005.127	678.63
1005.421	683.6
1005.715	681.34
1006.009	649.7
1006.304	680.21
1006.598	661.9
1006.892	666.2
1007.186	657.61
1007.48	653.32
1007.773	646.99
1008.067	649.47
1008.361	628.23
1008.655	635.69
1008.948	657.84
1009.242	653.77
1009.535	635.92
1009.829	625.75
1010.122	614.45
1010.415	633.2
1010.708	620.1
1011.001	615.13
1011.295	615.35
1011.588	622.81
1011.881	613.09
1012.173	596.14
1012.466	624.62
1012.759	595.92
1013.052	622.81
1013.344	615.35
1013.637	585.75
1013.93	602.92
1014.222	605.41
1014.514	590.72
1014.807	587.33
1015.099	601.11
1015.391	584.62
1015.683	586.88
1015.976	604.5
1016.268	587.56
1016.56	608.8
1016.851	584.84
1017.143	598.63
1017.435	593.2
1017.727	573.32
1018.018	580.32
1018.31	589.59
1018.602	565.18
1018.893	549.59
1019.185	550.04
1019.476	575.35
1019.767	573.77
1020.058	577.39
1020.35	558.63
1020.641	546.43
1020.932	564.05
1021.223	562.92
1021.514	543.94
1021.804	561.57
1022.095	541.91
1022.386	569.7
1022.677	547.1
1022.967	556.6
1023.258	553.43
1023.548	533.55
1023.839	540.32
1024.129	539.42
1024.419	560.21
1024.709	534.68
1025	532.42
1025.29	531.06
1025.58	523.6
1025.87	486.54
1026.16	526.31
1026.449	529.48
1026.739	504.85
1027.029	518.18
1027.319	516.82
1027.608	505.52
1027.898	515.92
1028.187	503.72
1028.477	530.38
1028.766	515.24
1029.055	512.53
1029.344	524.51
1029.634	494.45
1029.923	498.52
1030.212	520.21
1030.501	511.17
1030.79	498.97
1031.078	491.06
1031.367	486.54
1031.656	488.8
1031.945	481.12
1032.233	478.86
1032.522	477.5
1032.81	495.35
1033.099	482.93
1033.387	492.64
1033.675	500.78
1033.963	472.98
1034.251	469.59
1034.54	485.86
1034.828	464.62
1035.116	479.76
1035.403	474.79
1035.691	481.8
1035.979	465.98
1036.267	463.72
1036.554	476.15
1036.842	470.95
1037.129	462.36
1037.417	471.63
1037.704	475.69
1037.992	466.65
1038.279	445.19
1038.566	452.87
1038.853	452.87
1039.14	452.87
