Data from blue_clamp_base_FLMS001491_00057.txt Node
Date: Wed Feb 08 15:16:13 GMT 2017
User: dcchb
Spectrometer: FLMS00149
Trigger mode: 0
Integration Time (sec): 2.000000E-2
Scans to average: 10
Electric dark correction enabled: true
Nonlinearity correction enabled: false
Boxcar width: 0
XAxis mode: Wavelengths
Number of Pixels in Spectrum: 2048
>>>>>Begin Spectral Data<<<<<
341.393	-0.48
341.776	-0.48
342.16	-0.48
342.543	-63.08
342.927	-79.57
343.31	-68.28
343.693	-84.32
344.077	-51.33
344.46	-78.9
344.843	-56.07
345.226	-43.42
345.61	-33.25
345.993	-16.98
346.376	9.46
346.759	17.82
347.142	32.29
347.525	13.76
347.908	57.6
348.291	65.51
348.674	124.94
349.057	111.16
349.44	105.96
349.823	145.5
350.206	169.68
350.588	189.57
350.971	205.84
351.354	224.6
351.737	215.33
352.119	219.18
352.502	259.63
352.884	272.73
353.267	263.24
353.65	283.13
354.032	297.82
354.414	300.3
354.797	296.91
355.179	306.4
355.562	309.57
355.944	308.44
356.326	315.44
356.709	322.45
357.091	344.82
357.473	319.74
357.855	326.97
358.238	309.79
358.62	322
359.002	319.96
359.384	326.97
359.766	310.7
360.148	320.42
360.53	319.29
360.912	326.06
361.294	323.58
361.676	308.44
362.057	335.33
362.439	331.94
362.821	314.09
363.203	306.18
363.584	311.83
363.966	299.85
364.348	307.08
364.729	321.77
365.111	305.27
365.493	322
365.874	310.7
366.256	318.16
366.637	306.18
367.019	303.69
367.4	304.82
367.781	300.08
368.163	297.37
368.544	305.95
368.925	315.9
369.306	291.04
369.688	291.49
370.069	300.98
370.45	301.66
370.831	299.85
371.212	297.14
371.593	294.88
371.974	311.6
372.355	312.05
372.736	311.83
373.117	295.11
373.498	313.18
373.879	329.91
374.26	317.93
374.641	317.48
375.021	330.81
375.402	285.84
375.783	308.89
376.163	317.93
376.544	331.26
376.925	328.32
377.305	320.42
377.686	315.9
378.066	330.36
378.447	328.1
378.827	312.96
379.208	322.45
379.588	327.42
379.968	333.97
380.349	333.97
380.729	325.39
381.109	317.03
381.489	329.23
381.87	312.96
382.25	323.13
382.63	337.82
383.01	374.43
383.39	330.36
383.77	343.01
384.15	336.23
384.53	344.14
384.91	324.71
385.29	350.7
385.67	349.57
386.049	332.62
386.429	349.12
386.809	328.55
387.189	345.95
387.568	341.88
387.948	351.83
388.328	342.79
388.707	351.83
389.087	362.22
389.466	376.69
389.846	378.49
390.225	368.1
390.605	358.61
390.984	363.8
391.363	379.62
391.743	397.25
392.122	406.06
392.501	400.64
392.881	397.93
393.26	399.28
393.639	392.73
394.018	368.78
394.397	398.83
394.776	413.29
395.155	421.43
395.534	411.94
395.913	405.38
396.292	418.72
396.671	429.34
397.05	419.4
397.429	428.89
397.808	428.89
398.186	457.81
398.565	447.87
398.944	459.17
399.323	452.16
399.701	457.59
400.08	462.56
400.458	474.76
400.837	475.21
401.215	458.94
401.594	474.08
401.972	475.21
402.351	487.87
402.729	494.42
403.107	500.98
403.486	485.61
403.864	504.82
404.242	506.4
404.62	530.58
404.999	541.65
405.377	537.36
405.755	526.74
406.133	523.35
406.511	531.48
406.889	554.08
407.267	543.69
407.645	560.18
408.023	560.18
408.401	598.15
408.779	597.92
409.156	570.35
409.534	618.71
409.912	597.24
410.29	609.22
410.667	617.81
411.045	632.72
411.422	634.53
411.8	640.86
412.178	641.76
412.555	678.37
412.933	671.82
413.31	668.2
413.687	671.37
414.065	705.72
414.442	673.63
414.819	701.87
415.197	706.17
415.574	733.96
415.951	722.44
416.328	720.63
416.705	732.83
417.082	741.42
417.46	744.13
417.837	752.72
418.214	752.72
418.591	785.94
418.967	759.27
419.344	758.6
419.721	758.37
420.098	809.44
420.475	813.51
420.852	808.54
421.228	806.05
421.605	829.55
421.982	825.03
422.358	849.21
422.735	863.23
423.111	873.85
423.488	880.85
423.864	872.04
424.241	887.41
424.617	898.48
424.994	921.3
425.37	921.53
425.746	927.86
426.123	928.31
426.499	921.98
426.875	972.83
427.251	987.74
427.627	978.93
428.003	998.36
428.379	1009.21
428.756	1018.02
429.132	1018.25
429.507	1069.55
429.883	1074.97
430.259	1075.88
430.635	1103.45
431.011	1074.97
431.387	1121.75
431.763	1135.31
432.138	1117.46
432.514	1153.39
432.89	1185.48
433.265	1192.71
433.641	1186.61
434.016	1221.63
434.392	1254.85
434.767	1259.6
435.143	1279.26
435.518	1308.64
435.894	1306.15
436.269	1294.18
436.644	1344.8
437.02	1340.28
437.395	1366.26
437.77	1390.9
438.145	1405.13
438.52	1451.01
438.895	1429.54
439.271	1435.41
439.646	1465.92
440.021	1491.23
440.395	1494.62
440.77	1475.64
441.145	1489.65
441.52	1535.52
441.895	1528.75
442.27	1575.07
442.645	1567.16
443.019	1587.95
443.394	1593.83
443.769	1586.82
444.143	1591.34
444.518	1616.2
444.892	1622.98
445.267	1649.87
445.641	1642.64
446.016	1670.89
446.39	1695.52
446.764	1695.52
447.139	1696.42
447.513	1688.06
447.887	1722.41
448.262	1732.13
448.636	1759.02
449.01	1799.02
449.384	1779.13
449.758	1792.24
450.132	1835.18
450.506	1849.87
450.88	1822.3
451.254	1867.49
451.628	1863.65
452.002	1889.41
452.376	1910.2
452.75	1971.22
453.123	1928.06
453.497	1989.3
453.871	1985.68
454.244	2057.77
454.618	2036.98
454.992	2064.55
455.365	2086.47
455.739	2141.16
456.112	2128.5
456.486	2177.54
456.859	2159.01
457.232	2246.92
457.606	2202.85
457.979	2249.63
458.352	2270.19
458.725	2310.19
459.099	2326.92
459.472	2367.59
459.845	2377.54
460.218	2386.12
460.591	2463.41
460.964	2447.37
461.337	2496.4
461.71	2526.46
462.083	2545.89
462.456	2583.41
462.829	2552
463.201	2607.59
463.574	2618.43
463.947	2671.77
464.32	2679
464.692	2731.88
465.065	2755.83
465.438	2781.82
465.81	2792.21
466.183	2839.45
466.555	2886.45
466.928	2895.49
467.3	2908.37
467.672	2936.17
468.045	2973.45
468.417	3003.73
468.789	3050.29
469.161	3081.25
469.534	3081.92
469.906	3170.74
470.278	3173.67
470.65	3224.97
471.022	3280.11
471.394	3281.92
471.766	3333.44
472.138	3369.37
472.51	3453.89
472.882	3506.77
473.253	3528.01
473.625	3566.66
473.997	3592.87
474.369	3612.53
474.74	3658.86
475.112	3752.87
475.484	3783.15
475.855	3855.69
476.227	3841.45
476.598	3911.28
476.97	3973.43
477.341	4011.39
477.713	4052.75
478.084	4105.85
478.455	4179.52
478.827	4231.95
479.198	4302.68
479.569	4295.23
479.94	4464.94
480.311	4464.26
480.682	4504.49
481.053	4632.39
481.424	4679.62
481.795	4706.51
482.166	4752.62
482.537	4800.75
482.908	4871.71
483.279	4906.51
483.65	4998.48
484.021	5055.43
484.391	5062.44
484.762	5114.64
485.133	5160.29
485.503	5206.16
485.874	5274.86
486.244	5305.14
486.615	5361.64
486.985	5460.85
487.356	5492.93
487.726	5556.44
488.097	5587.85
488.467	5592.37
488.837	5704.23
489.207	5745.58
489.578	5745.13
489.948	5846.15
490.318	5863.32
490.688	5905.81
491.058	5912.81
491.428	6048.85
491.798	6050.21
492.168	6135.63
492.538	6107.83
492.908	6172.46
493.278	6253.82
493.648	6204.55
494.017	6349.86
494.387	6316.87
494.757	6323.87
495.126	6315.51
495.496	6358
495.866	6388.96
496.235	6420.14
496.605	6495.17
496.974	6468.5
497.344	6520.48
497.713	6567.03
498.082	6588.73
498.452	6645.45
498.821	6606.13
499.19	6670.3
499.559	6709.63
499.928	6671.66
500.298	6701.26
500.667	6710.08
501.036	6684.77
501.405	6787.82
501.774	6800.7
502.143	6793.69
502.512	6826.68
502.88	6871.2
503.249	6839.11
503.618	6835.95
503.987	6877.53
504.356	6883.18
504.724	6976.29
505.093	6955.27
505.462	6975.61
505.83	6986.91
506.199	6982.39
506.567	7048.15
506.936	7040.92
507.304	7135.83
507.672	7122.95
508.041	7105.32
508.409	7190.07
508.777	7187.13
509.145	7198.88
509.514	7208.14
509.882	7206.79
510.25	7245.88
510.618	7246.79
510.986	7227.35
511.354	7312.1
511.722	7308.03
512.09	7373.79
512.458	7332.89
512.826	7373.56
513.193	7388.7
513.561	7363.62
513.929	7416.05
514.297	7466.44
514.664	7473.9
515.032	7444.07
515.4	7491.53
515.767	7479.78
516.135	7571.07
516.502	7519.32
516.869	7588.02
517.237	7571.75
517.604	7581.69
517.972	7616.72
518.339	7654.46
518.706	7710.28
519.073	7678.64
519.44	7690.39
519.808	7740.56
520.175	7712.76
520.542	7892.65
520.909	7814.46
521.276	7762.03
521.643	7922.93
522.009	7941.91
522.376	7900.78
522.743	7855.13
523.11	7919.76
523.477	7991.85
523.843	8039.53
524.21	8104.62
524.577	8111.62
524.943	8167.67
525.31	8135.13
525.676	8172.41
526.043	8183.49
526.409	8268.23
526.776	8290.15
527.142	8336.93
527.508	8306.87
527.874	8416.02
528.241	8404.95
528.607	8412.63
528.973	8372.86
529.339	8515.45
529.705	8521.78
530.071	8578.28
530.437	8609.91
530.803	8598.16
531.169	8665.05
531.535	8598.84
531.901	8628.45
532.267	8637.94
532.632	8683.59
532.998	8678.84
533.364	8697.37
533.73	8797.25
534.095	8821.89
534.461	8848.78
534.826	8846.52
535.192	8873.18
535.557	8966.29
535.923	8938.72
536.288	9007.87
536.653	9037.93
537.019	8992.96
537.384	9047.19
537.749	9049.9
538.114	9097.81
538.479	9070.47
538.845	9093.97
539.21	9089.45
539.575	9150.24
539.94	9222.78
540.305	9168.09
540.67	9176
541.034	9206.28
541.399	9232.95
541.764	9217.13
542.129	9330.57
542.494	9220.97
542.858	9287.86
543.223	9303
543.587	9373.28
543.952	9340.29
544.316	9324.02
544.681	9356.79
545.045	9349.78
545.41	9431.14
545.774	9406.96
546.138	9384.13
546.503	9434.53
546.867	9325.15
547.231	9545.71
547.595	9475.2
547.959	9524.69
548.324	9512.49
548.688	9512.04
549.052	9564.69
549.416	9562.43
549.779	9592.49
550.143	9540.96
550.507	9597.23
550.871	9579.15
551.235	9566.27
551.599	9613.73
551.962	9622.32
552.326	9612.6
552.689	9737.79
553.053	9678.81
553.417	9685.14
553.78	9792.71
554.143	9752.03
554.507	9806.95
554.87	9801.75
555.234	9784.8
555.597	9777.79
555.96	9828.19
556.323	9805.59
556.686	9844.91
557.05	9830
557.413	9854.4
557.776	9874.97
558.139	9959.26
558.502	9870.9
558.865	9850.33
559.228	9952.25
559.59	9966.04
559.953	9930.78
560.316	10062.76
560.679	10048.3
561.041	10029.54
561.404	10015.3
561.767	10105.24
562.129	10071.57
562.492	10233.15
562.854	10179.14
563.217	10167.16
563.579	10187.5
563.941	10217.33
564.304	10224.34
564.666	10239.48
565.028	10291.68
565.39	10309.31
565.753	10361.51
566.115	10407.38
566.477	10431.56
566.839	10396.76
567.201	10544.1
567.563	10531.9
567.925	10609.41
568.287	10554.95
568.648	10567.38
569.01	10641.73
569.372	10722.4
569.734	10628.39
570.095	10692.57
570.457	10817.31
570.819	10793.13
571.18	10761.04
571.542	10833.59
571.903	10847.37
572.265	10886.69
572.626	10870.65
572.987	10899.8
573.349	10935.73
573.71	10994.48
574.071	10994.48
574.432	11038.55
574.794	11060.92
575.155	11063.86
575.516	11016.63
575.877	11128.04
576.238	11136.4
576.599	11188.6
576.96	11151.54
577.32	11202.16
577.681	11304.53
578.042	11279.9
578.403	11204.65
578.763	11320.13
579.124	11368.03
579.485	11426.56
579.845	11359.22
580.206	11427.92
580.566	11358.77
580.927	11396.28
581.287	11416.85
581.648	11427.02
582.008	11454.36
582.368	11445.77
582.728	11476.28
583.089	11541.59
583.449	11497.3
583.809	11491.42
584.169	11569.16
584.529	11523.51
584.889	11582.94
585.249	11501.82
585.609	11557.86
585.969	11596.5
586.329	11568.26
586.688	11509.05
587.048	11616.84
587.408	11598.31
587.768	11543.85
588.127	11623.85
588.487	11544.98
588.846	11645.32
589.206	11572.77
589.565	11624.98
589.925	11611.19
590.284	11625.88
590.643	11673.79
591.003	11704.07
591.362	11645.77
591.721	11654.58
592.08	11633.56
592.44	11719.89
592.799	11717.4
593.158	11686.44
593.517	11701.81
593.876	11728.02
594.235	11713.56
594.593	11723.05
594.952	11782.71
595.311	11685.31
595.67	11775.93
596.029	11776.61
596.387	11865.42
596.746	11866.55
597.104	11807.12
597.463	11835.14
597.822	11820.45
598.18	11849.38
598.538	11818.87
598.897	11791.53
599.255	11832.88
599.613	11890.51
599.972	11830.62
600.33	11845.08
600.688	11838.3
601.046	11804.86
601.404	11886.66
601.762	11884.63
602.12	11941.8
602.478	12014.12
602.836	11926.44
603.194	11860.22
603.552	11928.7
603.91	11953.33
604.268	11928.02
604.625	11983.16
604.983	11921.24
605.341	11868.13
605.698	11954.01
606.056	11994.91
606.413	11983.84
606.771	11966.66
607.128	11994.91
607.485	11903.61
607.843	11974.12
608.2	12006.89
608.557	12087.11
608.914	11992.42
609.272	12041.24
609.629	12061.35
609.986	12156.94
610.343	12092.76
610.7	12121.46
611.057	12115.13
611.414	12132.99
611.771	12109.71
612.127	12191.29
612.484	12154.91
612.841	12301.57
613.198	12220.89
613.554	12163.49
613.911	12226.54
614.267	12253.21
614.624	12203.49
614.98	12290.72
615.337	12360.55
615.693	12395.35
616.05	12319.42
616.406	12438.06
616.762	12417.5
617.118	12408.23
617.475	12392.41
617.831	12349.48
618.187	12363.49
618.543	12393.32
618.899	12506.54
619.255	12536.14
619.611	12452.98
619.967	12568.91
620.323	12426.99
620.678	12450.49
621.034	12459.98
621.39	12498.17
621.746	12470.15
622.101	12630.37
622.457	12465.86
622.812	12547.89
623.168	12674.21
623.523	12583.37
623.879	12661.11
624.234	12583.37
624.589	12641
624.945	12738.85
625.3	12683.03
625.655	12739.75
626.01	12699.3
626.365	12704.72
626.72	12700.43
627.075	12701.11
627.43	12790.14
627.785	12704.27
628.14	12806.64
628.495	12784.49
628.85	12764.38
629.205	12773.2
629.559	12909.69
629.914	12767.55
630.269	12777.26
630.623	12810.48
630.978	12734.55
631.332	12862.01
631.687	12878.5
632.041	12813.65
632.396	12841.44
632.75	12797.83
633.104	12899.75
633.459	12840.54
633.813	12874.89
634.167	12882.8
634.521	12869.24
634.875	12920.76
635.229	12940.2
635.583	12857.71
635.937	12815.68
636.291	12957.15
636.645	12875.57
636.999	12876.02
637.352	12946.52
637.706	12938.39
638.06	12901.33
638.413	12988.33
638.767	12955.56
639.121	12949.46
639.474	12945.85
639.828	13040.08
640.181	12982
640.534	13120.3
640.888	12993.75
641.241	12952.4
641.594	13055.67
641.947	13093.64
642.301	13105.39
642.654	13054.77
643.007	13075.79
643.36	13137.48
643.713	13053.41
644.066	13139.74
644.419	13066.97
644.771	13093.19
645.124	13068.33
645.477	13060.42
645.83	13021.55
646.182	12862.23
646.535	12873.31
646.888	12911.5
647.24	12856.13
647.593	12941.1
647.945	12943.36
648.298	12825.85
648.65	12837.83
649.002	12888.45
649.355	12940.2
649.707	12989.01
650.059	13116.69
650.411	13238.95
650.763	13285.27
651.115	13384.48
651.467	13293.18
651.819	13423.12
652.171	13407.98
652.523	13380.86
652.875	13354.2
653.227	13374.31
653.578	13489.11
653.93	13458.15
654.282	13410.24
654.633	13479.17
654.985	13410.01
655.337	13513.74
655.688	13531.59
656.039	13600.52
656.391	13447.53
656.742	13539.28
657.094	13555.77
657.445	13625.6
657.796	13639.39
658.147	13589.22
658.498	13532.05
658.849	13543.34
659.2	13558.94
659.551	13620.4
659.902	13672.83
660.253	13653.4
660.604	13703.79
660.955	13663.12
661.306	13794.64
661.656	13721.64
662.007	13666.28
662.358	13665.6
662.708	13736.79
663.059	13759.61
663.409	13678.26
663.76	13704.7
664.11	13700.63
664.461	13742.89
664.811	13797.58
665.161	13708.54
665.511	13695.66
665.862	13726.62
666.212	13784.02
666.562	13808.65
666.912	13785.37
667.262	13785.6
667.612	13692.04
667.962	13803
668.312	13734.53
668.662	13759.84
669.011	13763.45
669.361	13679.39
669.711	13656.11
670.06	13561.88
670.41	13678.93
670.76	13599.39
671.109	13739.27
671.459	13546.28
671.808	13579.05
672.157	13503.35
672.507	13498.15
672.856	13389.68
673.205	13476.91
673.554	13440.52
673.904	13445.95
674.253	13474.87
674.602	13359.62
674.951	13109.01
675.3	13104.26
675.649	13331.6
675.998	13326.63
676.346	13299.96
676.695	13324.59
677.044	13211.83
677.393	13211.6
677.741	13233.52
678.09	13177.93
678.438	13179.06
678.787	13171.83
679.135	13178.61
679.484	13108.33
679.832	13091.6
680.181	13010.48
680.529	13012.06
680.877	12920.99
681.225	12808.9
681.573	12991.49
681.922	12800.77
682.27	12900.42
682.618	12924.6
682.966	12809.13
683.314	12826.75
683.661	12815.23
684.009	12725.06
684.357	12712.18
684.705	12655.46
685.053	12659.75
685.4	12657.04
685.748	12560.09
686.095	12683.48
686.443	12558.06
686.79	12507.89
687.138	12558.96
687.485	12484.84
687.832	12454.33
688.18	12433.54
688.527	12408.91
688.874	12413.2
689.221	12304.06
689.568	12337.73
689.915	12369.59
690.262	12339.99
690.609	12337.95
690.956	12266.77
691.303	12296.6
691.65	12203.49
691.997	12197.84
692.344	12104.29
692.69	12096.15
693.037	12234.68
693.383	12085.53
693.73	12157.62
694.077	12084.17
694.423	12045.53
694.769	11996.27
695.116	12082.82
695.462	12002.59
695.808	11959.21
696.155	11944.52
696.501	11911.52
696.847	11900.9
697.193	11881.02
697.539	11948.36
697.885	11837.63
698.231	11874.69
698.577	11909.94
698.923	11851.86
699.269	11778.87
699.614	11733.22
699.96	11790.62
700.306	11774.8
700.651	11769.83
700.997	11745.88
701.342	11694.58
701.688	11664.3
702.033	11673.11
702.379	11643.96
702.724	11647.12
703.069	11710.85
703.415	11516.05
703.76	11676.95
704.105	11625.2
704.45	11608.25
704.795	11559.22
705.14	11608.48
705.485	11507.92
705.83	11519.67
706.175	11511.53
706.52	11479.67
706.865	11423.4
707.209	11502.49
707.554	11508.6
707.899	11453.23
708.243	11489.39
708.588	11511.99
708.932	11322.84
709.277	11380.69
709.621	11434.7
709.966	11328.94
710.31	11390.41
710.654	11307.02
710.998	11338.43
711.342	11334.36
711.687	11367.58
712.031	11324.42
712.375	11346.34
712.719	11343.4
713.063	11352.89
713.407	11391.54
713.75	11345.44
714.094	11283.97
714.438	11274.25
714.782	11301.82
715.125	11304.99
715.469	11369.62
715.812	11270.64
716.156	11269.96
716.499	11313.8
716.843	11214.37
717.186	11228.15
717.53	11295.72
717.873	11351.31
718.216	11283.06
718.559	11255.27
718.902	11127.81
719.246	11231.77
719.589	11242.61
719.932	11090.98
720.275	11195.84
720.617	11191.54
720.96	11144.54
721.303	11130.3
721.646	11149.74
721.989	11117.19
722.331	11190.86
722.674	11179.56
723.016	11186.57
723.359	11229.96
723.701	11288.94
724.044	11068.83
724.386	11058.44
724.729	11186.34
725.071	11186.57
725.413	11095.27
725.755	11114.93
726.097	11092.34
726.439	11105.44
726.782	11068.83
727.124	11201.49
727.465	11163.75
727.807	11197.64
728.149	11153.58
728.491	11080.58
728.833	11187.93
729.175	11161.49
729.516	11145.22
729.858	11187.47
730.199	11135.95
730.541	11205.33
730.882	11216.17
731.224	11210.98
731.565	11158.77
731.906	11219.34
732.248	11219.56
732.589	11219.34
732.93	11203.52
733.271	11268.38
733.612	11269.96
733.953	11298.43
734.294	11245.33
734.635	11262.73
734.976	11356.96
735.317	11280.13
735.658	11290.07
735.999	11356.96
736.339	11318.77
736.68	11373.01
737.021	11305.44
737.361	11333.91
737.702	11403.29
738.042	11356.06
738.383	11427.69
738.723	11417.07
739.063	11416.17
739.404	11534.58
739.744	11414.36
740.084	11495.26
740.424	11567.13
740.764	11478.54
741.104	11563.96
741.444	11529.61
741.784	11534.13
742.124	11576.16
742.464	11659.55
742.804	11610.06
743.143	11661.36
743.483	11703.62
743.823	11624.3
744.162	11706.56
744.502	11790.85
744.841	11712.88
745.181	11830.62
745.52	11787.68
745.86	11870.17
746.199	11859.32
746.538	11921.92
746.877	12009.83
747.216	12038.98
747.556	12094.12
747.895	12033.55
748.234	12099.99
748.573	12106.77
748.911	12130.27
749.25	12194
749.589	12208.46
749.928	12287.33
750.267	12343.6
750.605	12416.14
750.944	12332.08
751.283	12393.54
751.621	12393.32
751.96	12502.24
752.298	12449.81
752.636	12525.97
752.975	12482.36
753.313	12546.53
753.651	12619.98
753.989	12635.57
754.327	12654.1
754.666	12665.63
755.004	12730.48
755.342	12802.12
755.679	12826.3
756.017	12798.28
756.355	12883.7
756.693	12875.11
757.031	12850.71
757.368	12869.92
757.706	12972.29
758.044	13055.67
758.381	13012.06
758.719	13000.99
759.056	13076.92
759.394	13077.37
759.731	13004.6
760.068	13053.41
760.405	13089.8
760.743	13065.39
761.08	13140.42
761.417	13114.66
761.754	13179.74
762.091	13220.42
762.428	13210.02
762.765	13241.43
763.102	13245.5
763.438	13341.54
763.775	13329.56
764.112	13301.32
764.449	13403.91
764.785	13424.03
765.122	13323.46
765.458	13349.9
765.795	13387.42
766.131	13463.35
766.467	13408.88
766.804	13360.3
767.14	13434.19
767.476	13478.49
767.812	13384.7
768.148	13412.27
768.485	13402.33
768.821	13396.68
769.157	13423.35
769.492	13423.35
769.828	13457.7
770.164	13429
770.5	13355.33
770.836	13431.93
771.171	13364.59
771.507	13398.72
771.842	13453.18
772.178	13517.81
772.513	13481.65
772.849	13533.4
773.184	13386.74
773.519	13466.51
773.855	13424.48
774.19	13467.64
774.525	13438.94
774.86	13480.75
775.195	13429.22
775.53	13492.72
775.865	13433.52
776.2	13374.76
776.535	13325.95
776.87	13405.04
777.205	13408.43
777.539	13370.69
777.874	13455.66
778.209	13316.23
778.543	13391.48
778.878	13280.07
779.212	13361.88
779.547	13339.73
779.881	13412.27
780.215	13260.41
780.55	13336.57
780.884	13381.54
781.218	13376.8
781.552	13328.43
781.886	13315.33
782.22	13236.01
782.554	13170.25
782.888	13249.79
783.222	13177.25
783.556	13122.11
783.889	13220.42
784.223	13094.32
784.557	13160.53
784.89	13178.83
785.224	13136.8
785.557	13055.45
785.891	13116.46
786.224	13064.26
786.558	13097.03
786.891	13110.36
787.224	13032.62
787.557	13052.96
787.891	13060.87
788.224	13017.93
788.557	13033.08
788.89	13042.79
789.223	13146.07
789.556	13036.24
789.888	12960.08
790.221	13021.55
790.554	12854.32
790.887	12847.32
791.219	12912.63
791.552	12887.09
791.884	12877.37
792.217	12836.24
792.549	12896.36
792.882	12829.24
793.214	12771.16
793.546	12782.69
793.879	12804.61
794.211	12741.11
794.543	12878.73
794.875	12770.03
795.207	12798.51
795.539	12806.64
795.871	12738.62
796.203	12777.04
796.535	12710.37
796.867	12645.97
797.198	12620.66
797.53	12633.99
797.862	12516.03
798.193	12585.18
798.525	12506.31
798.856	12554.44
799.188	12501.11
799.519	12480.55
799.85	12442.36
800.182	12453.66
800.513	12488.68
800.844	12416.14
801.175	12426.09
801.506	12430.61
801.837	12401.23
802.168	12379.08
802.499	12463.37
802.83	12361.45
803.161	12400.78
803.491	12331.62
803.822	12323.72
804.153	12352.19
804.483	12142.48
804.814	12206.2
805.145	12200.1
805.475	12240.78
805.805	12207.33
806.136	12181.35
806.466	12198.52
806.796	12151.52
807.126	12051.18
807.457	12020.9
807.787	12083.27
808.117	12067.45
808.447	12003.72
808.777	12036.49
809.107	12093.21
809.436	11979.77
809.766	11965.98
810.096	11944.97
810.426	11928.7
810.755	11871.52
811.085	11853.45
811.414	11909.04
811.744	11777.97
812.073	11885.31
812.403	11830.85
812.732	11774.35
813.061	11703.39
813.39	11668.14
813.719	11745.88
814.049	11754.92
814.378	11648.03
814.707	11670.63
815.036	11681.92
815.365	11661.13
815.693	11590.63
816.022	11573.23
816.351	11557.18
816.68	11557.63
817.008	11625.88
817.337	11472.21
817.665	11436.06
817.994	11541.82
818.322	11535.71
818.651	11355.83
818.979	11370.07
819.307	11457.07
819.636	11430.63
819.964	11347.92
820.292	11462.5
820.62	11434.7
820.948	11400.8
821.276	11418.88
821.604	11402.38
821.932	11458.88
822.259	11372.55
822.587	11443.29
822.915	11342.95
823.243	11402.38
823.57	11448.26
823.898	11445.55
824.225	11436.73
824.553	11475.83
824.88	11465.88
825.207	11521.93
825.535	11459.78
825.862	11527.13
826.189	11467.24
826.516	11505.66
826.843	11511.76
827.17	11573
827.497	11567.13
827.824	11509.73
828.151	11555.37
828.478	11550.63
828.805	11592.66
829.131	11545.66
829.458	11538.88
829.785	11444.87
830.111	11497.3
830.438	11587.92
830.764	11530.97
831.09	11603.73
831.417	11553.11
831.743	11557.18
832.069	11551.76
832.395	11554.7
832.722	11575.49
833.048	11566.9
833.374	11535.49
833.7	11468.82
834.026	11513.79
834.351	11561.7
834.677	11472.66
835.003	11537.52
835.329	11486.22
835.654	11488.71
835.98	11498.65
836.306	11527.58
836.631	11412.55
836.956	11458.2
837.282	11549.05
837.607	11444.42
837.932	11327.81
838.258	11363.06
838.583	11362.38
838.908	11307.25
839.233	11325.32
839.558	11340.01
839.883	11232.9
840.208	11276.29
840.533	11254.14
840.858	11188.83
841.182	11225.21
841.507	11302.27
841.832	11167.36
842.156	11203.97
842.481	11206.91
842.805	11269.51
843.13	11190.19
843.454	11185.89
843.778	11147.48
844.103	11107.25
844.427	11043.07
844.751	11069.74
845.075	11063.86
845.399	10977.08
845.723	10950.87
846.047	11024.99
846.371	10952.23
846.695	10906.58
847.019	10864.54
847.343	10766.92
847.666	10799.24
847.99	10603.31
848.313	10669.07
848.637	10590.65
848.96	10575.29
849.284	10537.55
849.607	10472.92
849.931	10435.86
850.254	10423.88
850.577	10389.08
850.9	10315.63
851.223	10253.49
851.546	10161.96
851.869	10204
852.192	10263.2
852.515	10155.18
852.838	10133.49
853.161	10055.3
853.483	10127.62
853.806	10034.06
854.129	9999.71
854.451	9946.38
854.774	9976.88
855.096	9864.57
855.419	9888.3
855.741	9863.89
856.063	9860.96
856.385	9794.52
856.708	9807.4
857.03	9744.12
857.352	9775.31
857.674	9702.99
857.996	9670.68
858.318	9564.47
858.64	9687.63
858.961	9604.24
859.283	9535.31
859.605	9548.2
859.926	9508.42
860.248	9531.92
860.57	9375.54
860.891	9492.15
861.212	9412.15
861.534	9398.14
861.855	9371.25
862.176	9410.8
862.498	9359.05
862.819	9426.62
863.14	9379.61
863.461	9317.47
863.782	9250.35
864.103	9335.09
864.424	9232.5
864.745	9338.94
865.065	9262.33
865.386	9259.16
865.707	9211.93
866.027	9164.93
866.348	9212.16
866.668	9239.28
866.989	9160.86
867.309	9096.91
867.63	9131.48
867.95	9132.84
868.27	9140.97
868.59	9118.83
868.91	9019.17
869.23	9013.97
869.55	8966.29
869.87	9053.07
870.19	9023.01
870.51	9080.41
870.83	9028.89
871.15	8979.4
871.469	8911.38
871.789	8972.84
872.109	9013.07
872.428	8922.22
872.748	8952.5
873.067	8902.56
873.386	8930.36
873.706	8889
874.025	8841.32
874.344	8814.2
874.663	8828.44
874.982	8836.8
875.301	8853.3
875.62	8783.92
875.939	8802.23
876.258	8732.4
876.577	8747.99
876.896	8788.44
877.214	8749.12
877.533	8783.7
877.852	8727.2
878.17	8708.67
878.489	8655.11
878.807	8694.88
879.125	8610.14
879.444	8681.33
879.762	8637.94
880.08	8597.03
880.398	8583.7
880.716	8592.51
881.034	8554.1
881.352	8551.16
881.67	8531.72
881.988	8575.57
882.306	8543.7
882.624	8472.29
882.941	8515.23
883.259	8421.22
883.577	8470.94
883.894	8446.98
884.212	8433.2
884.529	8351.84
884.846	8343.03
885.164	8359.3
885.481	8307.78
885.798	8311.84
886.115	8279.98
886.432	8249.25
886.75	8213.54
887.067	8246.08
887.383	8176.93
887.7	8225.97
888.017	8232.52
888.334	8184.16
888.651	8140.1
888.967	8170.83
889.284	8086.31
889.6	8062.36
889.917	8138.74
890.233	7992.98
890.55	7971.74
890.866	8011.96
891.182	7964.73
891.498	7970.61
891.815	7908.01
892.131	7827.34
892.447	7915.92
892.763	7804.51
893.079	7836.83
893.395	7780.78
893.71	7788.02
894.026	7720.9
894.342	7693.78
894.657	7718.41
894.973	7677.96
895.289	7675.7
895.604	7659.88
895.92	7567
896.235	7562.94
896.55	7565.42
896.865	7511.19
897.181	7487.46
897.496	7505.99
897.811	7462.15
898.126	7486.55
898.441	7374.47
898.756	7430.28
899.071	7390.06
899.386	7387.8
899.7	7323.17
900.015	7260.35
900.33	7254.02
900.644	7239.33
900.959	7234.81
901.273	7212.21
901.588	7182.61
901.902	7088.6
902.216	7108.03
902.531	7158.88
902.845	7020.13
903.159	7047.24
903.473	6973.35
903.787	6930.64
904.101	6928.15
904.415	6950.52
904.729	6907.59
905.042	6878.89
905.356	6828.72
905.67	6837.53
905.984	6841.15
906.297	6822.62
906.611	6774.03
906.924	6727.93
907.237	6684.99
907.551	6718.21
907.864	6681.15
908.177	6664.88
908.491	6607.93
908.804	6541.04
909.117	6545.11
909.43	6525.68
909.743	6517.99
910.056	6466.47
910.368	6468.73
910.681	6436.41
910.994	6389.63
911.307	6337.21
911.619	6326.13
911.932	6328.39
912.244	6309.64
912.557	6244.33
912.869	6226.47
913.181	6271.67
913.494	6180.37
913.806	6127.49
914.118	6217.44
914.43	6108.51
914.742	6088.17
915.054	6088.17
915.366	6077.55
915.678	6060.38
915.99	6044.56
916.302	5919.82
916.613	5909.42
916.925	5922.98
917.236	5889.99
917.548	5855.86
917.859	5876.43
918.171	5824.9
918.482	5811.8
918.794	5819.25
919.105	5772.02
919.416	5743.1
919.727	5727.5
920.038	5702.87
920.349	5646.6
920.66	5673.95
920.971	5673.95
921.282	5628.3
921.593	5540.17
921.903	5517.57
922.214	5552.14
922.525	5506.49
922.835	5486.61
923.146	5487.74
923.456	5411.35
923.767	5425.37
924.077	5380.62
924.387	5357.35
924.697	5324.13
925.008	5307.85
925.318	5315.31
925.628	5308.08
925.938	5262.21
926.248	5228.76
926.558	5220.17
926.867	5204.35
927.177	5198.25
927.487	5176.11
927.796	5096.79
928.106	5113.74
928.416	5126.16
928.725	5032.16
929.034	5018.37
929.344	5016.56
929.653	5052.72
929.962	4999.84
930.271	4940.18
930.581	4956.9
930.89	4926.4
931.199	4907.19
931.508	4873.06
931.817	4850.92
932.125	4871.26
932.434	4835.32
932.743	4751.03
933.051	4772.05
933.36	4809.56
933.669	4756
933.977	4748.1
934.286	4745.38
934.594	4733.86
934.902	4648.89
935.21	4603.01
935.519	4592.85
935.827	4590.13
936.135	4629.68
936.443	4572.73
936.751	4542.23
937.059	4529.57
937.367	4521.43
937.674	4529.8
937.982	4512.85
938.29	4457.03
938.597	4440.08
938.905	4398.73
939.213	4344.49
939.52	4380.87
939.827	4381.1
940.135	4359.18
940.442	4330.25
940.749	4302.23
941.056	4328.9
941.363	4245.28
941.67	4219.3
941.977	4244.38
942.284	4260.65
942.591	4185.17
942.898	4185.17
943.205	4177.26
943.511	4178.84
943.818	4161.44
944.125	4135.23
944.431	4109.02
944.738	4106.53
945.044	4078.28
945.35	4071.5
945.657	4066.53
945.963	4049.13
946.269	4048.68
946.575	4039.64
946.881	3962.58
947.187	3980.43
947.493	3920.09
947.799	3922.58
948.105	3883.26
948.41	3924.16
948.716	3871.96
949.022	3853.88
949.327	3826.99
949.633	3812.75
949.938	3808.46
950.244	3792.87
950.549	3745.18
950.854	3785.63
951.16	3728.91
951.465	3757.84
951.77	3744.51
952.075	3678.07
952.38	3694.11
952.685	3670.61
952.99	3651.18
953.294	3610.05
953.599	3588.35
953.904	3610.72
954.209	3609.59
954.513	3531.4
954.818	3562.82
955.122	3559.2
955.426	3501.35
955.731	3494.57
956.035	3491.41
956.339	3503.61
956.643	3492.08
956.948	3487.56
957.252	3473.1
957.556	3406.66
957.86	3412.54
958.163	3407.79
958.467	3380.67
958.771	3364.18
959.075	3350.39
959.378	3363.27
959.682	3360.56
959.985	3313.33
960.289	3297.06
960.592	3286.89
960.896	3276.27
961.199	3256.38
961.502	3242.37
961.805	3215.48
962.108	3188.81
962.411	3200.34
962.714	3172.77
963.017	3187.68
963.32	3191.98
963.623	3146.78
963.926	3140.91
964.228	3117.18
964.531	3106.78
964.833	3078.08
965.136	3101.59
965.438	3069.27
965.741	3043.06
966.043	3024.75
966.345	3039.44
966.648	3004.64
966.95	3017.97
967.252	3011.42
967.554	2972.1
967.856	2950.4
968.158	2942.95
968.46	2934.81
968.761	2912.21
969.063	2887.13
969.365	2890.07
969.666	2857.98
969.968	2861.59
970.269	2848.94
970.571	2866.11
970.872	2817.3
971.174	2867.02
971.475	2820.69
971.776	2829.05
972.077	2803.51
972.378	2812.78
972.679	2773.23
972.98	2751.54
973.281	2747.92
973.582	2769.16
973.883	2690.07
974.183	2722.61
974.484	2703.4
974.785	2689.39
975.085	2667.7
975.386	2673.57
975.686	2675.83
975.986	2664.31
976.287	2652.56
976.587	2589.06
976.887	2634.03
977.187	2617.3
977.487	2559.45
977.787	2580.24
978.087	2583.63
978.387	2566.23
978.687	2538.89
978.987	2537.08
979.286	2493.69
979.586	2521.04
979.885	2487.82
980.185	2465.9
980.484	2486.23
980.784	2462.28
981.083	2449.85
981.382	2466.57
981.682	2457.53
981.981	2446.46
982.28	2412.11
982.579	2447.14
982.878	2416.41
983.177	2370.08
983.475	2382.73
983.774	2349.29
984.073	2375.28
984.372	2348.84
984.67	2334.6
984.969	2309.97
985.267	2302.96
985.566	2299.57
985.864	2293.47
986.162	2303.87
986.461	2274.26
986.759	2279.01
987.057	2279.23
987.355	2249.18
987.653	2234.26
987.951	2240.14
988.249	2236.52
988.547	2226.13
988.844	2211.21
989.142	2168.05
989.44	2173.25
989.737	2148.16
990.035	2158.33
990.332	2130.31
990.63	2121.27
990.927	2121.5
991.224	2136.64
991.521	2127.15
991.819	2072.01
992.116	2083.76
992.413	2105
992.71	2069.07
993.006	2079.47
993.303	2050.99
993.6	2066.58
993.897	2055.28
994.193	2036.53
994.49	2011.9
994.787	1998.56
995.083	1966.02
995.379	1959.69
995.676	1972.58
995.972	1936.19
996.268	1948.17
996.565	1917.89
996.861	1922.63
997.157	1939.13
997.453	1914.27
997.749	1904.55
998.044	1909.53
998.34	1900.71
998.636	1880.15
998.932	1873.37
999.227	1863.65
999.523	1839.7
999.818	1849.19
1000.114	1846.48
1000.409	1798.57
1000.704	1807.83
1001	1815.52
1001.295	1771.9
1001.59	1773.03
1001.885	1795.86
1002.18	1754.73
1002.475	1773.48
1002.77	1769.19
1003.065	1728.29
1003.359	1756.76
1003.654	1722.41
1003.949	1719.7
1004.243	1718.34
1004.538	1696.88
1004.832	1685.35
1005.127	1672.7
1005.421	1654.17
1005.715	1673.15
1006.009	1635.41
1006.304	1627.27
1006.598	1648.74
1006.892	1615.75
1007.186	1626.82
1007.48	1582.53
1007.773	1623.88
1008.067	1615.75
1008.361	1580.27
1008.655	1578.24
1008.948	1543.89
1009.242	1530.78
1009.535	1533.72
1009.829	1553.83
1010.122	1562.19
1010.415	1527.16
1010.708	1516.32
1011.001	1518.8
1011.295	1495.98
1011.588	1472.48
1011.881	1510.67
1012.173	1487.84
1012.466	1439.26
1012.759	1486.71
1013.052	1471.12
1013.344	1461.85
1013.637	1441.29
1013.93	1418.47
1014.222	1436.32
1014.514	1423.44
1014.807	1383.44
1015.099	1407.39
1015.391	1410.1
1015.683	1390.44
1015.976	1356.55
1016.268	1350.44
1016.56	1357.45
1016.851	1375.08
1017.143	1333.72
1017.435	1317
1017.727	1324.68
1018.018	1317
1018.31	1287.62
1018.602	1306.6
1018.893	1287.4
1019.185	1279.94
1019.476	1259.15
1019.767	1263.67
1020.058	1258.47
1020.35	1256.21
1020.641	1229.09
1020.932	1237.68
1021.223	1231.8
1021.514	1224.35
1021.804	1212.82
1022.095	1232.26
1022.386	1202.88
1022.677	1187.74
1022.967	1196.32
1023.258	1202.2
1023.548	1169.21
1023.839	1180.73
1024.129	1128.76
1024.419	1178.25
1024.709	1134.41
1025	1124.91
1025.29	1138.25
1025.58	1114.07
1025.87	1115.87
1026.16	1101.64
1026.449	1114.74
1026.739	1084.01
1027.029	1087.63
1027.319	1086.5
1027.608	1077.91
1027.898	1081.75
1028.187	1084.24
1028.477	1027.74
1028.766	1055.54
1029.055	1033.39
1029.344	1022.54
1029.634	1020.28
1029.923	1006.5
1030.212	1024.35
1030.501	1037.01
1030.79	994.75
1031.078	1000.85
1031.367	976.44
1031.656	965.6
1031.945	984.8
1032.233	962.66
1032.522	978.48
1032.81	981.87
1033.099	964.69
1033.387	944.13
1033.675	952.49
1033.963	928.08
1034.251	940.96
1034.54	921.98
1034.828	933.28
1035.116	898.48
1035.403	926.28
1035.691	914.07
1035.979	896.22
1036.267	901.87
1036.554	904.35
1036.842	880.85
1037.129	887.63
1037.417	861.42
1037.704	857.35
1037.992	867.07
1038.279	868.42
1038.566	857.58
1038.853	857.58
1039.14	857.58
