Data from blue_chair_FLMS001491_00057.txt Node
Date: Wed Feb 08 10:31:18 GMT 2017
User: dcchb
Spectrometer: FLMS00149
Trigger mode: 0
Integration Time (sec): 2.000000E-2
Scans to average: 10
Electric dark correction enabled: true
Nonlinearity correction enabled: false
Boxcar width: 0
XAxis mode: Wavelengths
Number of Pixels in Spectrum: 2048
>>>>>Begin Spectral Data<<<<<
341.393	-21.2
341.776	-21.2
342.16	-21.2
342.543	-34.53
342.927	-55.55
343.31	-71.37
343.693	-95.55
344.077	-63.01
344.46	-51.03
344.843	-57.58
345.226	-37.7
345.61	-28.88
345.993	-23.23
346.376	-9.45
346.759	19.02
347.142	21.06
347.525	61.28
347.908	78.23
348.291	55.86
348.674	87.95
349.057	114.39
349.44	123.2
349.823	139.02
350.206	131.79
350.588	155.52
350.971	189.42
351.354	205.23
351.737	201.17
352.119	231.67
352.502	227.83
352.884	247.95
353.267	265.12
353.65	272.8
354.032	278.23
354.414	272.35
354.797	272.58
355.179	277.32
355.562	294.5
355.944	279.81
356.326	306.25
356.709	298.57
357.091	302.63
357.473	296.31
357.855	306.25
358.238	308.96
358.62	329.53
359.002	322.75
359.384	316.42
359.766	318.68
360.148	307.6
360.53	305.57
360.912	286.81
361.294	307.38
361.676	316.19
362.057	319.58
362.439	302.63
362.821	286.36
363.203	294.72
363.584	282.75
363.966	272.35
364.348	299.02
364.729	301.28
365.111	307.15
365.493	283.88
365.874	299.47
366.256	293.59
366.637	283.2
367.019	240.49
367.4	283.42
367.781	289.75
368.163	289.98
368.544	283.88
368.925	269.64
369.306	283.88
369.688	264.89
370.069	292.92
370.45	265.35
370.831	292.92
371.212	256.53
371.593	268.74
371.974	267.38
372.355	280.94
372.736	259.02
373.117	269.19
373.498	275.52
373.879	299.24
374.26	296.31
374.641	275.97
375.021	292.92
375.402	278.45
375.783	291.11
376.163	291.11
376.544	288.4
376.925	270.09
377.305	279.81
377.686	287.04
378.066	271.9
378.447	301.96
378.827	286.36
379.208	291.33
379.588	302.41
379.968	279.36
380.349	295.18
380.729	285.91
381.109	272.58
381.489	268.28
381.87	291.33
382.25	296.76
382.63	301.28
383.01	294.5
383.39	313.03
383.77	295.18
384.15	307.38
384.53	313.03
384.91	308.06
385.29	301.5
385.67	281.84
386.049	299.02
386.429	293.59
386.809	314.38
387.189	327.27
387.568	308.51
387.948	312.12
388.328	312.8
388.707	305.12
389.087	306.93
389.466	294.95
389.846	298.34
390.225	310.77
390.605	308.73
390.984	313.03
391.363	328.4
391.743	300.83
392.122	310.54
392.501	311.45
392.881	313.48
393.26	319.58
393.639	330.2
394.018	314.84
394.397	314.84
394.776	330.43
395.155	321.16
395.534	314.61
395.913	320.71
396.292	341.05
396.671	310.32
397.05	340.37
397.429	304.67
397.808	326.36
398.186	306.25
398.565	317.32
398.944	334.04
399.323	321.39
399.701	309.86
400.08	326.36
400.458	342.63
400.837	323.65
401.215	343.76
401.594	321.16
401.972	341.73
402.351	338.79
402.729	376.98
403.107	337.21
403.486	351.45
403.864	368.85
404.242	368.39
404.62	361.84
404.999	353.48
405.377	370.2
405.755	352.12
406.133	348.51
406.511	366.59
406.889	354.61
407.267	374.95
407.645	363.42
408.023	382.86
408.401	380.82
408.779	370.88
409.156	374.72
409.534	368.39
409.912	376.53
410.29	375.85
410.667	384.44
411.045	390.09
411.422	387.15
411.8	389.86
412.178	384.89
412.555	391.22
412.933	419.69
413.31	384.89
413.687	418.34
414.065	417.21
414.442	401.61
414.819	419.24
415.197	405.91
415.574	395.51
415.951	425.57
416.328	408.62
416.705	426.02
417.082	436.19
417.46	433.7
417.837	423.08
418.214	448.84
418.591	429.86
418.967	414.49
419.344	420.14
419.721	421.95
420.098	439.13
420.475	445.68
420.852	435.51
421.228	440.93
421.605	443.65
421.982	452.69
422.358	445.68
422.735	445.45
423.111	468.5
423.488	461.27
423.864	470.54
424.241	473.48
424.617	474.38
424.994	480.03
425.37	466.92
425.746	506.7
426.123	499.01
426.499	492.46
426.875	506.24
427.251	507.37
427.627	496.3
428.003	504.89
428.379	516.19
428.756	513.93
429.132	513.7
429.507	533.59
429.883	526.58
430.259	555.28
430.635	508.5
431.011	529.97
431.387	552.57
431.763	544.66
432.138	523.42
432.514	536.75
432.89	557.54
433.265	574.26
433.641	551.89
434.016	577.65
434.392	613.13
434.767	598.9
435.143	581.04
435.518	602.51
435.894	614.26
436.269	652
436.644	646.35
437.02	630.76
437.395	623.75
437.77	674.37
438.145	653.81
438.52	673.7
438.895	668.05
439.271	695.17
439.646	681.83
440.021	685.9
440.395	727.25
440.77	713.02
441.145	721.83
441.52	730.87
441.895	732.68
442.27	743.07
442.645	731.55
443.019	745.56
443.394	756.18
443.769	772.9
444.143	767.25
444.518	773.58
444.892	797.99
445.267	797.76
445.641	784.2
446.016	790.3
446.39	794.37
446.764	816.74
447.139	801.6
447.513	812.22
447.887	808.38
448.262	819.46
448.636	828.72
449.01	826.91
449.384	851.09
449.758	843.64
450.132	834.82
450.506	865.78
450.88	829.4
451.254	867.82
451.628	870.75
452.002	887.25
452.376	847.7
452.75	876.4
453.123	889.06
453.497	899
453.871	879.57
454.244	887.02
454.618	918.89
454.992	920.02
455.365	943.07
455.739	927.93
456.112	975.38
456.486	953.24
456.859	955.5
457.232	983.75
457.606	956.63
457.979	966.57
458.352	984.88
458.725	996.63
459.099	1009.28
459.472	1014.93
459.845	1026.68
460.218	1029.39
460.591	1043.63
460.964	1031.43
461.337	1061.94
461.71	1081.14
462.083	1081.37
462.456	1105.55
462.829	1079.56
463.201	1098.32
463.574	1117.53
463.947	1086.79
464.32	1106
464.692	1143.52
465.065	1138.32
465.438	1151.65
465.81	1167.47
466.183	1144.42
466.555	1181.93
466.928	1155.72
467.3	1176.06
467.672	1193.23
468.045	1196.4
468.417	1233
468.789	1235.72
469.161	1208.6
469.534	1262.61
469.906	1275.26
470.278	1267.81
470.65	1261.03
471.022	1286.34
471.394	1280.91
471.766	1317.97
472.138	1316.39
472.51	1335.37
472.882	1313.91
473.253	1340.8
473.625	1366.56
473.997	1350.29
474.369	1383.96
474.74	1366.11
475.112	1402.72
475.484	1409.04
475.855	1443.85
476.227	1403.62
476.598	1465.09
476.97	1461.92
477.341	1487.23
477.713	1491.98
478.084	1477.07
478.455	1527.91
478.827	1522.71
479.198	1549.38
479.569	1579.44
479.94	1602.49
480.311	1583.73
480.682	1622.15
481.053	1647.23
481.424	1649.49
481.795	1668.47
482.166	1664.18
482.537	1685.42
482.908	1702.82
483.279	1715.48
483.65	1732.43
484.021	1762.93
484.391	1749.83
484.762	1780.11
485.133	1757.96
485.503	1791.86
485.874	1821.92
486.244	1810.62
486.615	1813.55
486.985	1812.65
487.356	1854.23
487.726	1855.59
488.097	1861.24
488.467	1847.9
488.837	1910.5
489.207	1883.61
489.578	1911.86
489.948	1923.16
490.318	1961.57
490.688	1880.22
491.058	1946.43
491.428	1968.8
491.798	1957.73
492.168	1977.17
492.538	2005.19
492.908	1993.21
493.278	1992.08
493.648	1992.08
494.017	1989.59
494.387	2003.61
494.757	1998.86
495.126	1990.05
495.496	1971.97
495.866	1988.92
496.235	1963.38
496.605	2027.79
496.974	2021.23
497.344	1992.76
497.713	1985.98
498.082	2026.88
498.452	2054.23
498.821	2006.54
499.19	1996.37
499.559	2006.54
499.928	2036.6
500.298	2028.69
500.667	1994.57
501.036	2014.45
501.405	2010.61
501.774	2019.65
502.143	2015.58
502.512	2001.35
502.88	2010.61
503.249	2005.19
503.618	1964.06
503.987	1974.45
504.356	2025.98
504.724	1985.53
505.093	1991.4
505.462	1992.08
505.83	1962.02
506.199	1973.32
506.567	2009.26
506.936	1988.69
507.304	1953.89
507.672	1986.88
508.041	2015.81
508.409	1941.69
508.777	1995.47
509.145	1982.14
509.514	1970.84
509.882	1969.71
510.25	1935.81
510.618	1935.81
510.986	1960.89
511.354	1955.02
511.722	1927.68
512.09	1958.63
512.458	1939.65
512.826	1949.37
513.193	1904.63
513.561	1900.78
513.929	1916.15
514.297	1915.7
514.664	1917.96
515.032	1882.7
515.4	1907.56
515.767	1909.6
516.135	1904.4
516.502	1865.98
516.869	1872.31
517.237	1887
517.604	1870.28
517.972	1875.47
518.339	1885.19
518.706	1872.54
519.073	1856.26
519.44	1896.04
519.808	1838.41
520.175	1835.25
520.542	1843.38
520.909	1830.73
521.276	1814.68
521.643	1830.73
522.009	1824.18
522.376	1855.36
522.743	1838.41
523.11	1844.74
523.477	1838.41
523.843	1822.37
524.21	1823.95
524.577	1800.45
524.943	1809.26
525.31	1814.68
525.676	1859.43
526.043	1851.52
526.409	1832.99
526.776	1795.93
527.142	1801.12
527.508	1794.12
527.874	1792.09
528.241	1786.21
528.607	1775.81
528.973	1749.37
529.339	1778.98
529.705	1748.47
530.071	1773.1
530.437	1750.28
530.803	1754.35
531.169	1781.24
531.535	1737.85
531.901	1731.97
532.267	1729.49
532.632	1717.29
532.998	1731.3
533.364	1716.61
533.73	1709.83
534.095	1719.77
534.461	1712.99
534.826	1712.99
535.192	1687.23
535.557	1711.41
535.923	1720.22
536.288	1682.48
536.653	1696.27
537.019	1664.63
537.384	1657.17
537.749	1647.91
538.114	1666.44
538.479	1594.58
538.845	1669.38
539.21	1642.71
539.575	1653.78
539.94	1637.97
540.305	1600.9
540.67	1638.42
541.034	1601.81
541.399	1612.66
541.764	1622.15
542.129	1596.84
542.494	1584.86
542.858	1621.47
543.223	1566.78
543.587	1616.27
543.952	1594.8
544.316	1592.32
544.681	1586.89
545.045	1562.26
545.41	1552.77
545.774	1598.87
546.138	1561.81
546.503	1521.36
546.867	1527.23
547.231	1551.64
547.595	1534.69
547.959	1534.01
548.324	1536.73
548.688	1518.87
549.052	1513
549.416	1504.41
549.779	1532.43
550.143	1475.03
550.507	1497.4
550.871	1471.19
551.235	1496.05
551.599	1511.42
551.962	1481.81
552.326	1481.59
552.689	1455.15
553.053	1490.85
553.417	1484.3
553.78	1463.51
554.143	1455.15
554.507	1463.05
554.87	1440
555.234	1426.9
555.597	1442.26
555.96	1433.9
556.323	1440.23
556.686	1444.3
557.05	1406.56
557.413	1415.6
557.776	1451.08
558.139	1455.6
558.502	1421.47
558.865	1409.72
559.228	1428.25
559.59	1423.51
559.953	1416.05
560.316	1424.41
560.679	1432.77
561.041	1442.49
561.404	1409.95
561.767	1434.13
562.129	1406.79
562.492	1439.33
562.854	1410.4
563.217	1420.57
563.579	1416.73
563.941	1452.66
564.304	1433.23
564.666	1428.71
565.028	1430.51
565.39	1419.21
565.753	1432.1
566.115	1425.09
566.477	1437.97
566.839	1430.06
567.201	1457.18
567.563	1425.09
567.925	1455.6
568.287	1439.55
568.648	1431.42
569.01	1440.46
569.372	1452.89
569.734	1425.77
570.095	1478.2
570.457	1473.68
570.819	1459.89
571.18	1428.71
571.542	1453.79
571.903	1440.46
572.265	1448.37
572.626	1457.18
572.987	1441.13
573.349	1468.7
573.71	1495.14
574.071	1453.34
574.432	1456.73
574.794	1448.14
575.155	1498.99
575.516	1487.01
575.877	1474.35
576.238	1499.89
576.599	1479.1
576.96	1485.2
577.32	1480.68
577.681	1520
578.042	1465.31
578.403	1498.53
578.763	1487.01
579.124	1472.55
579.485	1501.7
579.845	1518.42
580.206	1510.51
580.566	1505.54
580.927	1507.8
581.287	1524.3
581.648	1516.61
582.008	1530.17
582.368	1508.25
582.728	1528.36
583.089	1537.86
583.449	1508.48
583.809	1531.08
584.169	1539.66
584.529	1543.96
584.889	1544.63
585.249	1507.35
585.609	1501.02
585.969	1503.96
586.329	1538.08
586.688	1518.87
587.048	1544.18
587.408	1500.34
587.768	1518.65
588.127	1509.83
588.487	1502.38
588.846	1537.18
589.206	1512.77
589.565	1530.4
589.925	1513.22
590.284	1518.19
590.643	1484.52
591.003	1517.52
591.362	1504.18
591.721	1508.03
592.08	1512.09
592.44	1486.56
592.799	1481.81
593.158	1510.96
593.517	1497.63
593.876	1517.52
594.235	1491.75
594.593	1499.66
594.952	1536.05
595.311	1493.79
595.67	1502.83
596.029	1508.03
596.387	1514.13
596.746	1495.37
597.104	1495.14
597.463	1488.59
597.822	1516.16
598.18	1474.58
598.538	1499.21
598.897	1510.06
599.255	1495.37
599.613	1539.21
599.972	1521.58
600.33	1508.48
600.688	1504.86
601.046	1533.56
601.404	1493.34
601.762	1522.04
602.12	1508.7
602.478	1496.95
602.836	1497.63
603.194	1497.86
603.552	1509.83
603.91	1556.84
604.268	1480.91
604.625	1517.74
604.983	1512.32
605.341	1520.91
605.698	1529.27
606.056	1523.17
606.413	1516.84
606.771	1516.39
607.128	1535.14
607.485	1505.99
607.843	1524.97
608.2	1520.23
608.557	1535.6
608.914	1524.97
609.272	1521.36
609.629	1539.66
609.986	1517.97
610.343	1526.1
610.7	1546.44
611.057	1534.24
611.414	1550.74
611.771	1508.03
612.127	1537.18
612.484	1547.57
612.841	1548.48
613.198	1536.73
613.554	1539.89
613.911	1545.09
614.267	1577.18
614.624	1538.98
614.98	1546.67
615.337	1574.46
615.693	1535.6
616.05	1552.77
616.406	1551.64
616.762	1533.34
617.118	1525.43
617.475	1563.17
617.831	1576.95
618.187	1549.38
618.543	1570.85
618.899	1550.51
619.255	1555.71
619.611	1522.49
619.967	1581.02
620.323	1557.29
620.678	1535.82
621.034	1560.45
621.39	1560.91
621.746	1555.71
622.101	1585.54
622.457	1568.59
622.812	1534.01
623.168	1574.01
623.523	1581.92
623.879	1571.98
624.234	1524.07
624.589	1578.08
624.945	1576.95
625.3	1562.49
625.655	1589.15
626.01	1578.53
626.365	1566.33
626.72	1559.32
627.075	1545.99
627.43	1571.3
627.785	1567.01
628.14	1557.06
628.495	1552.54
628.85	1592.32
629.205	1578.98
629.559	1568.59
629.914	1554.8
630.269	1538.31
630.623	1550.06
630.978	1572.88
631.332	1538.08
631.687	1579.44
632.041	1556.16
632.396	1571.53
632.75	1572.2
633.104	1581.24
633.459	1571.53
633.813	1543.5
634.167	1569.27
634.521	1552.77
634.875	1552.32
635.229	1542.83
635.583	1554.58
635.937	1552.54
636.291	1576.95
636.645	1575.37
636.999	1557.97
637.352	1533.11
637.706	1540.57
638.06	1541.92
638.413	1565.42
638.767	1533.34
639.121	1538.98
639.474	1541.47
639.828	1565.88
640.181	1560.91
640.534	1571.75
640.888	1546.22
641.241	1553.67
641.594	1554.35
641.947	1576.5
642.301	1564.75
642.654	1543.5
643.007	1536.73
643.36	1573.56
643.713	1562.49
644.066	1558.87
644.419	1545.54
644.771	1552.32
645.124	1557.29
645.477	1527.46
645.83	1555.71
646.182	1523.62
646.535	1517.52
646.888	1529.49
647.24	1531.53
647.593	1531.98
647.945	1544.86
648.298	1550.96
648.65	1517.74
649.002	1534.24
649.355	1524.52
649.707	1514.35
650.059	1505.99
650.411	1537.86
650.763	1559.1
651.115	1563.39
651.467	1560
651.819	1556.84
652.171	1597.51
652.523	1573.79
652.875	1580.11
653.227	1578.08
653.578	1591.41
653.93	1566.1
654.282	1545.54
654.633	1553.67
654.985	1581.47
655.337	1585.76
655.688	1554.13
656.039	1597.06
656.391	1556.61
656.742	1568.81
657.094	1580.11
657.445	1574.24
657.796	1566.55
658.147	1578.31
658.498	1578.08
658.849	1585.76
659.2	1606.55
659.551	1577.63
659.902	1563.39
660.253	1583.73
660.604	1563.39
660.955	1610.17
661.306	1585.31
661.656	1610.17
662.007	1612.88
662.358	1586.89
662.708	1597.97
663.059	1583.96
663.409	1560.91
663.76	1606.78
664.11	1589.61
664.461	1594.58
664.811	1571.98
665.161	1587.12
665.511	1558.19
665.862	1590.74
666.212	1599.55
666.562	1592.77
666.912	1566.1
667.262	1588.93
667.612	1616.27
667.962	1620.79
668.312	1574.69
668.662	1588.25
669.011	1586.44
669.361	1555.26
669.711	1568.14
670.06	1553.9
670.41	1568.59
670.76	1589.38
671.109	1587.35
671.459	1557.97
671.808	1580.57
672.157	1556.61
672.507	1538.76
672.856	1542.6
673.205	1562.94
673.554	1577.85
673.904	1560.68
674.253	1600.9
674.602	1553.9
674.951	1538.08
675.3	1556.39
675.649	1560
675.998	1547.57
676.346	1539.21
676.695	1573.56
677.044	1570.85
677.393	1541.7
677.741	1555.48
678.09	1548.93
678.438	1536.5
678.787	1544.63
679.135	1532.66
679.484	1503.73
679.832	1526.1
680.181	1547.57
680.529	1523.39
680.877	1520.23
681.225	1503.28
681.573	1511.19
681.922	1512.54
682.27	1530.62
682.618	1493.11
682.966	1510.51
683.314	1520.45
683.661	1526.1
684.009	1497.63
684.357	1510.74
684.705	1491.08
685.053	1494.69
685.4	1479.1
685.748	1505.09
686.095	1506.44
686.443	1480
686.79	1523.84
687.138	1493.34
687.485	1478.2
687.832	1465.09
688.18	1488.82
688.527	1447.46
688.874	1451.08
689.221	1461.92
689.568	1444.75
689.915	1467.57
690.262	1458.31
690.609	1430.97
690.956	1440.91
691.303	1456.95
691.65	1431.87
691.997	1441.36
692.344	1410.17
692.69	1444.07
693.037	1425.77
693.383	1420.8
693.73	1423.51
694.077	1416.73
694.423	1433.68
694.769	1415.82
695.116	1423.96
695.462	1389.16
695.808	1413.56
696.155	1414.47
696.501	1392.77
696.847	1412.89
697.193	1402.27
697.539	1389.38
697.885	1414.02
698.231	1366.79
698.577	1389.61
698.923	1376.96
699.269	1380.12
699.614	1366.56
699.96	1369.95
700.306	1385.54
700.651	1386.22
700.997	1378.99
701.342	1378.99
701.688	1372.44
702.033	1366.33
702.379	1376.05
702.724	1369.72
703.069	1344.64
703.415	1342.61
703.76	1374.7
704.105	1353
704.45	1327.47
704.795	1363.85
705.14	1360.01
705.485	1389.84
705.83	1355.03
706.175	1356.39
706.52	1358.88
706.865	1332.89
707.209	1359.33
707.554	1353.23
707.899	1347.58
708.243	1346.45
708.588	1320.01
708.932	1339.22
709.277	1342.38
709.621	1367.01
709.966	1333.34
710.31	1368.82
710.654	1355.71
710.998	1365.66
711.342	1362.94
711.687	1350.52
712.031	1384.86
712.375	1348.93
712.719	1323.4
713.063	1316.39
713.407	1349.16
713.75	1364.3
714.094	1361.36
714.438	1350.29
714.782	1391.64
715.125	1361.36
715.469	1369.05
715.812	1388.48
716.156	1371.76
716.499	1397.07
716.843	1379.67
717.186	1382.83
717.53	1390.51
717.873	1393.9
718.216	1389.61
718.559	1424.64
718.902	1394.13
719.246	1395.71
719.589	1412.43
719.932	1438.42
720.275	1418.99
720.617	1393
720.96	1432.77
721.303	1404.3
721.646	1435.94
721.989	1401.59
722.331	1434.58
722.674	1417.63
723.016	1407.01
723.359	1423.06
723.701	1437.07
724.044	1453.79
724.386	1450.85
724.729	1450.85
725.071	1472.55
725.413	1447.69
725.755	1461.02
726.097	1480.23
726.439	1451.76
726.782	1469.83
727.124	1474.13
727.465	1470.96
727.807	1494.69
728.149	1473.22
728.491	1501.47
728.833	1514.58
729.175	1529.27
729.516	1495.82
729.858	1535.14
730.199	1554.8
730.541	1541.47
730.882	1570.17
731.224	1567.68
731.565	1534.47
731.906	1561.58
732.248	1578.31
732.589	1567.01
732.93	1572.66
733.271	1571.53
733.612	1583.05
733.953	1602.03
734.294	1631.19
734.635	1592.32
734.976	1640.68
735.317	1647.23
735.658	1625.54
735.999	1666.89
736.339	1663.5
736.68	1663.5
737.021	1679.55
737.361	1684.07
737.702	1701.69
738.042	1693.33
738.383	1720.22
738.723	1745.53
739.063	1716.61
739.404	1756.61
739.744	1756.38
740.084	1750.28
740.424	1797.06
740.764	1830.28
741.104	1833.67
741.444	1854.23
741.784	1856.04
742.124	1866.66
742.464	1917.28
742.804	1930.39
743.143	1919.09
743.483	1962.25
743.823	1982.59
744.162	1994.79
744.502	2021.46
744.841	2037.05
745.181	2062.81
745.52	2083.6
745.86	2108.69
746.199	2119.08
746.538	2167.67
746.877	2214.22
747.216	2228.46
747.556	2270.27
747.895	2263.49
748.234	2310.49
748.573	2353.43
748.911	2382.8
749.25	2433.65
749.589	2470.71
749.928	2515.68
750.267	2514.78
750.605	2543.48
750.944	2653.08
751.283	2667.54
751.621	2712.74
751.96	2819.63
752.298	2831.15
752.636	2875
752.975	2908.89
753.313	2945.95
753.651	3011.49
753.989	3074.99
754.327	3139.85
754.666	3191.6
755.004	3280.18
755.342	3357.47
755.679	3398.37
756.017	3457.8
756.355	3544.13
756.693	3565.6
757.031	3652.83
757.368	3723.56
757.706	3792.49
758.044	3863.67
758.381	3972.14
758.719	4029.99
759.056	4097.11
759.394	4184.34
759.731	4226.6
760.068	4307.05
760.405	4376.88
760.743	4461.17
761.08	4570.09
761.417	4639.92
761.754	4646.93
762.091	4720.82
762.428	4868.39
762.765	4871.33
763.102	5054.37
763.438	5047.37
763.775	5124.65
764.112	5225.89
764.449	5319.68
764.785	5353.35
765.122	5445.55
765.458	5512.21
765.795	5569.84
766.131	5697.07
766.467	5765.77
766.804	5797.4
767.14	5838.31
767.476	5956.04
767.812	5983.84
768.148	6043.95
768.485	6167.79
768.821	6184.51
769.157	6215.7
769.492	6304.06
769.828	6363.72
770.164	6428.8
770.5	6468.8
770.836	6562.81
771.171	6575.24
771.507	6671.51
771.842	6624.05
772.178	6739.53
772.513	6785.17
772.849	6837.6
773.184	6817.26
773.519	6956.7
773.855	7005.73
774.19	7029.01
774.525	6974.77
774.86	7094.77
775.195	7151.04
775.53	7214.99
775.865	7183.58
776.2	7236.24
776.535	7322.56
776.87	7246.86
777.205	7336.35
777.539	7293.86
777.874	7458.38
778.209	7418.6
778.543	7457.7
778.878	7509.45
779.212	7491.37
779.547	7479.17
779.881	7550.58
780.215	7575.44
780.55	7541.31
780.884	7609.79
781.218	7588.32
781.552	7626.51
781.886	7601.42
782.22	7686.85
782.554	7644.81
782.888	7597.58
783.222	7574.98
783.556	7664.47
783.889	7643.91
784.223	7647.98
784.557	7627.41
784.89	7692.95
785.224	7674.19
785.557	7661.99
785.891	7695.21
786.224	7731.59
786.558	7715.77
786.891	7675.32
787.224	7681.42
787.557	7713.06
787.891	7752.61
788.224	7718.94
788.557	7763.91
788.89	7724.13
789.223	7778.37
789.556	7770.91
789.888	7711.03
790.221	7735.43
790.554	7701.08
790.887	7778.82
791.219	7725.04
791.552	7763
791.884	7691.37
792.217	7688.43
792.549	7718.48
792.882	7679.39
793.214	7699.05
793.546	7654.76
793.879	7688.2
794.211	7652.5
794.543	7661.08
794.875	7663.8
795.207	7712.61
795.539	7677.35
795.871	7681.2
796.203	7667.41
796.535	7620.63
796.867	7637.81
797.198	7618.6
797.53	7577.02
797.862	7607.53
798.193	7586.96
798.525	7546.74
798.856	7553.06
799.188	7488.66
799.519	7475.78
799.85	7547.41
800.182	7557.36
800.513	7463.35
800.844	7494.31
801.175	7507.19
801.506	7459.06
801.837	7475.78
802.168	7437.36
802.499	7454.99
802.83	7460.41
803.161	7391.49
803.491	7412.05
803.822	7394.2
804.153	7403.01
804.483	7301.77
804.814	7297.48
805.145	7364.59
805.475	7310.36
805.805	7276.46
806.136	7418.15
806.466	7363.46
806.796	7287.31
807.126	7276.69
807.457	7244.82
807.787	7329.57
808.117	7258.16
808.447	7246.63
808.777	7198.95
809.107	7212.73
809.436	7201.66
809.766	7206.41
810.096	7180.19
810.426	7124.83
810.755	7182.9
811.085	7124.83
811.414	7132.51
811.744	7104.26
812.073	7119.18
812.403	7115.11
812.732	7082.57
813.061	7092.29
813.39	7064.72
813.719	7073.3
814.049	7081.66
814.378	7024.72
814.707	7033.53
815.036	7051.16
815.365	7000.76
815.693	6951.95
816.022	6987.2
816.351	6908.79
816.68	6901.56
817.008	6922.35
817.337	6857.49
817.665	6896.81
817.994	6967.77
818.322	6889.35
818.651	6843.48
818.979	6857.49
819.307	6881.22
819.636	6852.29
819.964	6830.37
820.292	6868.56
820.62	6831.05
820.948	6845.51
821.276	6884.38
821.604	6823.82
821.932	6841.22
822.259	6872.63
822.587	6821.33
822.915	6847.32
823.243	6837.38
823.57	6839.18
823.898	6867.66
824.225	6844.16
824.553	6847.77
824.88	6904.27
825.207	6921.44
825.535	6882.57
825.862	6916.7
826.189	6844.83
826.516	6939.75
826.843	6896.13
827.17	6870.6
827.497	6940.2
827.824	6918.05
828.151	6922.35
828.478	6911.73
828.805	6934.32
829.131	6830.6
829.458	6861.1
829.785	6884.83
830.111	6874.89
830.438	6906.3
830.764	6927.77
831.09	6958.28
831.417	6897.71
831.743	6934.78
832.069	6904.95
832.395	6912.18
832.722	6886.41
833.048	6869.92
833.374	6906.98
833.7	6789.02
834.026	6863.14
834.351	6868.79
834.677	6925.28
835.003	6875.34
835.329	6867.66
835.654	6891.84
835.98	6818.17
836.306	6801.45
836.631	6827.21
836.956	6854.55
837.282	6847.55
837.607	6813.65
837.932	6819.07
838.258	6789.47
838.583	6758.96
838.908	6793.54
839.233	6788.34
839.558	6716.48
839.883	6744.5
840.208	6688.68
840.533	6728.45
840.858	6730.71
841.182	6710.15
841.507	6801.67
841.832	6664.27
842.156	6709.24
842.481	6663.82
842.805	6595.8
843.13	6601.45
843.454	6615.91
843.778	6575.46
844.103	6576.14
844.427	6560.1
844.751	6573.2
845.075	6582.92
845.399	6506.99
845.723	6504.05
846.047	6539.98
846.371	6435.58
846.695	6432.19
847.019	6380.44
847.343	6341.12
847.666	6337.05
847.99	6291.85
848.313	6322.14
848.637	6263.61
848.96	6280.33
849.284	6252.31
849.607	6208.01
849.931	6171.18
850.254	6156.72
850.577	6118.98
850.9	6100.9
851.223	6137.51
851.546	6037.85
851.869	6071.07
852.192	6030.39
852.515	5986.78
852.838	5992.43
853.161	5985.2
853.483	5916.95
853.806	5969.38
854.129	5875.37
854.451	5846.89
854.774	5853
855.096	5843.28
855.419	5796.27
855.741	5806.9
856.063	5772.55
856.385	5814.58
856.708	5785.88
857.03	5696.16
857.352	5731.42
857.674	5707.24
857.996	5680.34
858.318	5662.72
858.64	5629.27
858.961	5657.52
859.283	5652.1
859.605	5607.35
859.926	5587.01
860.248	5561.25
860.57	5606.67
860.891	5575.71
861.212	5518.77
861.534	5518.77
861.855	5533.91
862.176	5529.61
862.498	5538.65
862.819	5473.12
863.14	5469.73
863.461	5440.8
863.782	5502.27
864.103	5485.32
864.424	5374.14
864.745	5474.47
865.065	5412.1
865.386	5383.18
865.707	5391.54
866.027	5398.32
866.348	5420.01
866.668	5376.62
866.989	5364.65
867.309	5314.48
867.63	5345.44
867.95	5347.02
868.27	5354.7
868.59	5288.04
868.91	5308.38
869.23	5306.34
869.55	5258.89
869.87	5289.39
870.19	5241.94
870.51	5276.74
870.83	5271.32
871.15	5306.12
871.469	5218.89
871.789	5275.38
872.109	5226.35
872.428	5223.18
872.748	5187.25
873.067	5192.67
873.386	5190.41
873.706	5204.65
874.025	5133.92
874.344	5128.5
874.663	5178.44
874.982	5127.37
875.301	5104.31
875.62	5113.35
875.939	5134.82
876.258	5113.35
876.577	5098.21
876.896	5080.81
877.214	5074.26
877.533	5059.34
877.852	5090.3
878.17	5066.35
878.489	5037.42
878.807	5027.03
879.125	4966.69
879.444	5023.19
879.762	5018.89
880.08	5049.85
880.398	4957.65
880.716	4981.15
881.034	4915.85
881.352	4964.21
881.67	4889.18
881.988	4973.02
882.306	4974.83
882.624	4915.85
882.941	4878.56
883.259	4887.82
883.577	4880.82
883.894	4835.17
884.212	4873.59
884.529	4832.68
884.846	4838.11
885.164	4816.64
885.481	4765.11
885.798	4812.8
886.115	4742.52
886.432	4796.75
886.75	4747.71
887.067	4763.08
887.383	4730.99
887.7	4734.38
888.017	4683.76
888.334	4689.18
888.651	4679.69
888.967	4657.1
889.284	4643.08
889.6	4674.5
889.917	4624.33
890.233	4601.96
890.55	4623.2
890.866	4553.82
891.182	4582.07
891.498	4512.47
891.815	4565.35
892.131	4551.11
892.447	4504.78
892.763	4515.4
893.079	4494.16
893.395	4506.36
893.71	4452.13
894.026	4454.16
894.342	4455.97
894.657	4414.84
894.973	4363.77
895.289	4421.17
895.604	4401.06
895.92	4374.84
896.235	4354.5
896.55	4342.98
896.865	4351.57
897.181	4293.49
897.496	4265.69
897.811	4225.69
898.126	4287.16
898.441	4240.61
898.756	4235.86
899.071	4221.85
899.386	4203.55
899.7	4128.3
900.015	4158.35
900.33	4130.56
900.644	4139.37
900.959	4123.78
901.273	4097.56
901.588	4055.53
901.902	4099.14
902.216	4037.22
902.531	4019.82
902.845	4021.18
903.159	3948.41
903.473	3947.96
903.787	3977.79
904.101	3921.97
904.415	3965.36
904.729	3903.22
905.042	3882.65
905.356	3878.36
905.67	3836.78
905.984	3857.12
906.297	3837.91
906.611	3847.4
906.924	3789.32
907.237	3804.24
907.551	3783.9
907.864	3729.21
908.177	3733.96
908.491	3765.37
908.804	3703.9
909.117	3728.76
909.43	3703.22
909.743	3705.71
910.056	3655.54
910.368	3614.18
910.681	3666.61
910.994	3619.38
911.307	3633.39
911.619	3612.38
911.932	3531.02
912.244	3550.23
912.557	3544.58
912.869	3514.07
913.181	3552.04
913.494	3535.77
913.806	3478.59
914.118	3498.71
914.43	3455.32
914.742	3456.45
915.054	3445.83
915.366	3425.26
915.678	3407.18
915.99	3383.46
916.302	3360.41
916.613	3361.99
916.925	3345.72
917.236	3343.91
917.548	3333.29
917.859	3321.76
918.171	3319.73
918.482	3291.03
918.794	3281.76
919.105	3303.68
919.416	3250.8
919.727	3206.74
920.038	3221.88
920.349	3240.18
920.66	3181.88
920.971	3205.16
921.282	3194.76
921.593	3173.52
921.903	3140.52
922.214	3149.79
922.525	3125.61
922.835	3129.68
923.146	3126.74
923.456	3114.31
923.767	3055.78
924.077	3045.39
924.387	3035.44
924.697	3032.51
925.008	2987.08
925.318	3042.22
925.628	3007.87
925.938	3004.26
926.248	2957.03
926.558	2947.99
926.867	2945.73
927.177	2950.02
927.487	2944.37
927.796	2924.03
928.106	2886.29
928.416	2922.45
928.725	2920.42
929.034	2866.86
929.344	2880.64
929.653	2858.95
929.962	2854.43
930.271	2855.33
930.581	2855.11
930.89	2837.71
931.199	2806.75
931.508	2794.09
931.817	2801.1
932.125	2784.83
932.434	2767.43
932.743	2722.91
933.051	2719.52
933.36	2724.49
933.669	2710.03
933.977	2677.94
934.286	2731.5
934.594	2690.37
934.902	2684.04
935.21	2708.22
935.519	2658.28
935.827	2641.1
936.135	2608.34
936.443	2576.92
936.751	2613.31
937.059	2595.91
937.367	2603.82
937.674	2613.98
937.982	2587.09
938.29	2585.51
938.597	2546.19
938.905	2466.42
939.213	2536.25
939.52	2491.95
939.827	2511.16
940.135	2502.8
940.442	2476.36
940.749	2479.3
941.056	2456.47
941.363	2435.23
941.67	2451.05
941.977	2432.52
942.284	2433.2
942.591	2414.22
942.898	2418.28
943.205	2378.96
943.511	2385.52
943.818	2387.78
944.125	2340.77
944.431	2360.66
944.738	2354.33
945.044	2322.69
945.35	2325.63
945.657	2319.76
945.963	2314.78
946.269	2295.8
946.575	2341.45
946.881	2287.21
947.187	2287.44
947.493	2280.66
947.799	2249.93
948.105	2265.97
948.41	2267.1
948.716	2251.06
949.022	2226.42
949.327	2215.58
949.633	2205.18
949.938	2240.66
950.244	2195.24
950.549	2197.05
950.854	2188.46
951.16	2136.26
951.465	2163.83
951.77	2162.02
952.075	2140.1
952.38	2125.64
952.685	2128.8
952.99	2102.36
953.294	2082.02
953.599	2114.11
953.904	2103.49
954.209	2060.55
954.513	2072.3
954.818	2024.4
955.122	2045.86
955.426	2056.49
955.731	2055.13
956.035	2046.32
956.339	2046.09
956.643	1982.82
956.948	1988.01
957.252	2001.12
957.556	1987.33
957.86	2003.61
958.163	1994.11
958.467	1964.28
958.771	1990.95
959.075	1978.75
959.378	1934.45
959.682	1961.12
959.985	1942.14
960.289	1938.52
960.592	1938.07
960.896	1905.08
961.199	1914.12
961.502	1875.93
961.805	1886.09
962.108	1851.07
962.411	1881.35
962.714	1862.82
963.017	1873.21
963.32	1860.11
963.623	1847
963.926	1866.21
964.228	1842.48
964.531	1812.88
964.833	1831.41
965.136	1841.12
965.438	1806.32
965.741	1802.71
966.043	1754.8
966.345	1761.58
966.648	1766.1
966.95	1771.07
967.252	1757.51
967.554	1738.98
967.856	1741.69
968.158	1748.24
968.46	1714.12
968.761	1730.62
969.063	1710.05
969.365	1698.53
969.666	1706.89
969.968	1691.07
970.269	1704.18
970.571	1685.42
970.872	1682.94
971.174	1643.84
971.475	1674.35
971.776	1683.84
972.077	1660.56
972.378	1633.9
972.679	1614.69
972.98	1645.87
973.281	1603.84
973.582	1627.8
973.883	1630.06
974.183	1635.93
974.484	1595.71
974.785	1590.06
975.085	1611.98
975.386	1574.69
975.686	1562.04
975.986	1567.91
976.287	1558.42
976.587	1522.04
976.887	1562.94
977.187	1539.44
977.487	1522.94
977.787	1547.57
978.087	1544.41
978.387	1527.46
978.687	1523.39
978.987	1517.29
979.286	1506.22
979.586	1520.91
979.885	1491.08
980.185	1503.96
980.484	1484.52
980.784	1464.18
981.083	1474.58
981.382	1443.62
981.682	1460.57
981.981	1449.5
982.28	1418.08
982.579	1403.4
982.878	1444.75
983.177	1438.65
983.475	1448.37
983.774	1420.8
984.073	1395.49
984.372	1375.6
984.67	1395.49
984.969	1403.62
985.267	1360.46
985.566	1382.38
985.864	1387.35
986.162	1349.16
986.461	1356.62
986.759	1352.55
987.057	1335.6
987.355	1346
987.653	1320.46
987.951	1341.48
988.249	1327.69
988.547	1343.74
988.844	1313.91
989.142	1311.19
989.44	1313.91
989.737	1285.43
990.035	1286.34
990.332	1293.34
990.63	1273.68
990.927	1257.64
991.224	1273.46
991.521	1276.17
991.819	1270.52
992.116	1258.99
992.413	1248.15
992.71	1242.27
993.006	1248.15
993.303	1258.99
993.6	1232.78
993.897	1245.21
994.193	1221.93
994.49	1232.33
994.787	1217.64
995.083	1196.85
995.379	1212.89
995.676	1205.89
995.972	1175.38
996.268	1146
996.565	1189.39
996.861	1186
997.157	1160.92
997.453	1159.33
997.749	1163.63
998.044	1125.44
998.34	1148.94
998.636	1164.98
998.932	1157.75
999.227	1129.5
999.523	1135.15
999.818	1146.45
1000.114	1125.66
1000.409	1112.78
1000.704	1113.91
1001	1113.91
1001.295	1094.02
1001.59	1106.45
1001.885	1100.8
1002.18	1076.4
1002.475	1092.44
1002.77	1042.95
1003.065	1057.19
1003.359	1048.15
1003.654	1045.21
1003.949	1042.73
1004.243	1046.79
1004.538	1046.34
1004.832	1044.76
1005.127	1011.77
1005.421	1033.69
1005.715	1009.96
1006.009	998.66
1006.304	1030.75
1006.598	1000.24
1006.892	1017.87
1007.186	1000.47
1007.48	982.39
1007.773	1009.73
1008.067	974.93
1008.361	968.38
1008.655	985.1
1008.948	975.16
1009.242	972.45
1009.535	968.6
1009.829	953.92
1010.122	939.45
1010.415	937.64
1010.708	942.16
1011.001	952.33
1011.295	928.38
1011.588	946.01
1011.881	943.97
1012.173	948.04
1012.466	903.3
1012.759	908.95
1013.052	906.69
1013.344	908.95
1013.637	901.94
1013.93	906.23
1014.222	879.34
1014.514	897.65
1014.807	875.27
1015.099	881.38
1015.391	866.01
1015.683	879.34
1015.976	860.58
1016.268	860.36
1016.56	846.35
1016.851	881.83
1017.143	854.03
1017.435	831.66
1017.727	823.98
1018.018	841.6
1018.31	837.08
1018.602	840.25
1018.893	799.57
1019.185	807.7
1019.476	815.84
1019.767	799.57
1020.058	799.57
1020.35	785.78
1020.641	782.85
1020.932	790.08
1021.223	770.64
1021.514	789.63
1021.804	779
1022.095	788.5
1022.386	776.29
1022.677	767.93
1022.967	769.97
1023.258	731.55
1023.548	770.87
1023.839	736.29
1024.129	741.49
1024.419	746.69
1024.709	711.66
1025	721.61
1025.29	746.46
1025.58	727.93
1025.87	728.38
1026.16	718.89
1026.449	722.96
1026.739	713.24
1027.029	694.04
1027.319	684.54
1027.608	665.79
1027.898	692.68
1028.187	692
1028.477	694.71
1028.766	668.5
1029.055	684.32
1029.344	684.09
1029.634	668.27
1029.923	703.75
1030.212	671.21
1030.501	667.37
1030.79	684.77
1031.078	663.53
1031.367	644.77
1031.656	649.52
1031.945	648.39
1032.233	667.82
1032.522	659.69
1032.81	636.64
1033.099	648.16
1033.387	633.02
1033.675	619.91
1033.963	630.76
1034.251	625.79
1034.54	609.29
1034.828	623.53
1035.116	610.65
1035.403	605.45
1035.691	617.43
1035.979	607.48
1036.267	610.87
1036.554	590.31
1036.842	611.78
1037.129	579.69
1037.417	592.34
1037.704	591.44
1037.992	581.04
1038.279	608.84
1038.566	581.5
1038.853	581.5
1039.14	581.5
