Data from blue_shiny_book_FLMS001491_00040.txt Node
Date: Wed Feb 08 15:26:54 GMT 2017
User: dcchb
Spectrometer: FLMS00149
Trigger mode: 0
Integration Time (sec): 2.000000E-2
Scans to average: 10
Electric dark correction enabled: true
Nonlinearity correction enabled: false
Boxcar width: 0
XAxis mode: Wavelengths
Number of Pixels in Spectrum: 2048
>>>>>Begin Spectral Data<<<<<
341.393	8.98
341.776	8.98
342.16	8.98
342.543	-74.18
342.927	-77.79
343.31	-72.14
343.693	-67.4
344.077	-53.39
344.46	-64.24
344.843	-53.16
345.226	-49.32
345.61	-24.24
345.993	-2.54
346.376	-12.71
346.759	18.47
347.142	30.9
347.525	37.46
347.908	59.15
348.291	74.97
348.674	87.17
349.057	91.01
349.44	100.96
349.823	125.14
350.206	177.79
350.588	192.71
350.971	206.04
351.354	219.6
351.737	213.95
352.119	249.88
352.502	262.54
352.884	265.02
353.267	267.73
353.65	303.21
354.032	303.44
354.414	313.61
354.797	318.13
355.179	322.42
355.562	306.38
355.944	325.81
356.326	338.47
356.709	315.19
357.091	352.93
357.473	333.27
357.855	345.02
358.238	328.07
358.62	352.93
359.002	352.93
359.384	341.63
359.766	371.69
360.148	329.88
360.53	347.5
360.912	330.33
361.294	333.04
361.676	321.52
362.057	346.15
362.439	338.01
362.821	335.98
363.203	325.81
363.584	339.37
363.966	341.63
364.348	316.77
364.729	331.01
365.111	316.55
365.493	319.48
365.874	327.84
366.256	319.48
366.637	313.16
367.019	317
367.4	344.12
367.781	325.36
368.163	321.07
368.544	319.48
368.925	352.48
369.306	335.53
369.688	325.36
370.069	323.32
370.45	345.7
370.831	335.3
371.212	334.85
371.593	333.04
371.974	333.49
372.355	326.94
372.736	325.81
373.117	352.25
373.498	333.27
373.879	331.23
374.26	338.92
374.641	336.43
375.021	326.26
375.402	353.38
375.783	339.6
376.163	347.96
376.544	366.94
376.925	344.57
377.305	357
377.686	368.3
378.066	376.43
378.447	341.4
378.827	369.43
379.208	359.26
379.588	364.91
379.968	354.74
380.349	363.78
380.729	367.17
381.109	357.45
381.489	373.49
381.87	360.16
382.25	363.78
382.63	387.96
383.01	386.83
383.39	377.33
383.77	403.55
384.15	379.14
384.53	406.26
384.91	405.81
385.29	382.31
385.67	401.74
386.049	410.33
386.429	380.72
386.809	416.43
387.189	427.73
387.568	425.24
387.948	413.94
388.328	439.03
388.707	414.4
389.087	413.49
389.466	441.97
389.846	431.8
390.225	453.49
390.605	442.87
390.984	432.02
391.363	446.94
391.743	434.28
392.122	465.69
392.501	462.76
392.881	468.18
393.26	469.99
393.639	471.8
394.018	468.63
394.397	452.36
394.776	472.47
395.155	488.29
395.534	484.68
395.913	522.19
396.292	520.38
396.671	510.21
397.05	508.4
397.429	524.22
397.808	528.97
398.186	531.23
398.565	518.57
398.944	518.35
399.323	536.2
399.701	536.65
400.08	535.07
400.458	528.52
400.837	541.85
401.215	544.11
401.594	556.54
401.972	562.19
402.351	575.3
402.729	586.59
403.107	602.19
403.486	579.14
403.864	577.78
404.242	627.27
404.62	588.4
404.999	630.66
405.377	638.8
405.755	646.48
406.133	612.13
406.511	661.85
406.889	656.42
407.267	670.89
407.645	671.56
408.023	678.8
408.401	710.43
408.779	700.04
409.156	722.41
409.534	722.18
409.912	732.13
410.29	736.2
410.667	730.32
411.045	763.09
411.422	782.07
411.8	774.84
412.178	788.4
412.555	783.43
412.933	819.13
413.31	819.36
413.687	860.71
414.065	839.47
414.442	839.7
414.819	846.02
415.197	887.15
415.574	879.92
415.951	881.5
416.328	906.36
416.705	909.07
417.082	907.04
417.46	930.77
417.837	959.01
418.214	938.68
418.591	963.31
418.967	967.6
419.344	1000.37
419.721	982.29
420.098	975.96
420.475	994.27
420.852	1007.83
421.228	1022.29
421.605	1034.72
421.982	1063.42
422.358	1057.09
422.735	1092.8
423.111	1087.6
423.488	1094.38
423.864	1107.26
424.241	1116.98
424.617	1130.99
424.994	1140.93
425.37	1173.02
425.746	1186.8
426.123	1193.36
426.499	1193.58
426.875	1218.89
427.251	1242.4
427.627	1255.28
428.003	1266.8
428.379	1304.99
428.756	1308.61
429.132	1320.81
429.507	1322.62
429.883	1360.59
430.259	1390.19
430.635	1376.18
431.011	1412.11
431.387	1447.36
431.763	1485.78
432.138	1457.53
432.514	1532.11
432.89	1515.38
433.265	1545.89
433.641	1556.96
434.016	1572.11
434.392	1614.82
434.767	1643.06
435.143	1630.64
435.518	1644.87
435.894	1696.4
436.269	1733.23
436.644	1725.32
437.02	1757.19
437.395	1769.16
437.77	1800.12
438.145	1821.36
438.52	1845.54
438.895	1825.21
439.271	1857.07
439.646	1941.36
440.021	1938.65
440.395	1930.51
440.77	1942.72
441.145	1980.23
441.52	2010.96
441.895	2017.97
442.27	2049.83
442.645	2054.8
443.019	2093.67
443.394	2081.92
443.769	2111.3
444.143	2125.54
444.518	2169.83
444.892	2157.63
445.267	2161.92
445.641	2212.54
446.016	2217.06
446.39	2242.14
446.764	2239.88
447.139	2242.82
447.513	2255.25
447.887	2301.8
448.262	2312.65
448.636	2318.75
449.01	2369.15
449.384	2347.45
449.758	2349.71
450.132	2411.41
450.506	2450.5
450.88	2467.68
451.254	2474.23
451.628	2486.66
452.002	2501.12
452.376	2528.92
452.75	2559.65
453.123	2613.89
453.497	2619.76
453.871	2673.55
454.244	2734.56
454.618	2753.09
454.992	2784.73
455.365	2810.27
455.739	2852.3
456.112	2886.65
456.486	2918.51
456.859	2947.44
457.232	3004.16
457.606	3023.59
457.979	3042.8
458.352	3099.3
458.725	3131.16
459.099	3153.76
459.472	3234.66
459.845	3320.53
460.218	3288.44
460.591	3365.28
460.964	3370.02
461.337	3443.24
461.71	3465.62
462.083	3532.05
462.456	3572.73
462.829	3609.34
463.201	3648.66
463.574	3668.77
463.947	3698.6
464.32	3830.13
464.692	3850.46
465.065	3877.58
465.438	3969.56
465.81	3996.9
466.183	4031.93
466.555	4137.01
466.928	4179.27
467.3	4174.52
467.672	4276.22
468.045	4360.51
468.417	4328.87
468.789	4394.4
469.161	4451.13
469.534	4534.29
469.906	4633.49
470.278	4640.05
470.65	4739.48
471.022	4833.26
471.394	4919.14
471.766	4959.59
472.138	4994.84
472.51	5158
472.882	5179.47
473.253	5296.08
473.625	5344.66
473.997	5388.73
474.369	5449.97
474.74	5550.76
475.112	5624.88
475.484	5692.22
475.855	5837.98
476.227	5909.84
476.598	6092.66
476.97	6097.64
477.341	6220.57
477.713	6403.62
478.084	6427.35
478.455	6612.2
478.827	6644.29
479.198	6841.35
479.569	6929.25
479.94	7008.12
480.311	7065.29
480.682	7248.34
481.053	7417.83
481.424	7585.05
481.795	7634.09
482.166	7716.8
482.537	7839.06
482.908	8101.43
483.279	8061.88
483.65	8313.4
484.021	8479.04
484.391	8610.11
484.762	8670.45
485.133	8696.89
485.503	8777.34
485.874	9025.24
486.244	9109.08
486.615	9211.68
486.985	9439.02
487.356	9563.99
487.726	9714.72
488.097	9886.24
488.467	9971.88
488.837	10169.62
489.207	10301.82
489.578	10488.71
489.948	10579.33
490.318	10780.45
490.688	10768.02
491.058	10967.79
491.428	11069.71
491.798	11281.68
492.168	11424.5
492.538	11451.39
492.908	11595.57
493.278	11732.97
493.648	11760.09
494.017	11952.17
494.387	12182.67
494.757	12269.9
495.126	12391.26
495.496	12507.41
495.866	12625.15
496.235	12716.22
496.605	12874.86
496.974	12862.66
497.344	13042.54
497.713	13195.75
498.082	13221.97
498.452	13426.48
498.821	13442.3
499.19	13392.36
499.559	13596.87
499.928	13637.78
500.298	13856.53
500.667	14014.72
501.036	13960.93
501.405	14294.03
501.774	14362.05
502.143	14467.36
502.512	14519.79
502.88	14642.27
503.249	14685.43
503.618	14790.29
503.987	14806.33
504.356	14904.41
504.724	15020.57
505.093	15049.27
505.462	15033.22
505.83	15256.94
506.199	15323.38
506.567	15562.25
506.936	15560.89
507.304	15790.26
507.672	15919.52
508.041	16041.78
508.409	16145.06
508.777	16311.61
509.145	16443.35
509.514	16521.09
509.882	16575.55
510.25	16617.13
510.618	16795.66
510.986	16797.24
511.354	16919.5
511.722	17115.2
512.09	17246.04
512.458	17217.8
512.826	17326.72
513.193	17445.13
513.561	17531.69
513.929	17745.47
514.297	17989.75
514.664	18028.17
515.032	18150.65
515.4	18469.97
515.767	18498.21
516.135	18628.61
516.502	18635.84
516.869	18939.33
517.237	18951.08
517.604	18881.71
517.972	19050.74
518.339	19210.06
518.706	19180.23
519.073	19325.76
519.44	19404.63
519.808	19656.38
520.175	19601.69
520.542	19993.99
520.909	20137.72
521.276	20156.93
521.643	20444.83
522.009	20539.29
522.376	20762.34
522.743	20940.64
523.11	21145.83
523.477	21258.82
523.843	21449.77
524.21	21647.06
524.577	21835.75
524.943	21839.82
525.31	21855.41
525.676	22044.11
526.043	22195.74
526.409	22398
526.776	22440.26
527.142	22516.19
527.508	22782.85
527.874	22934.26
528.241	23141.26
528.607	23339.44
528.973	23508.48
529.339	23576.05
529.705	23772.65
530.071	24017.17
530.437	24165.41
530.803	24360.43
531.169	24484.72
531.535	24438.4
531.901	24552.29
532.267	24535.8
532.632	24706.41
532.998	24841.32
533.364	24989.57
533.73	24946.63
534.095	25064.37
534.461	25160.64
534.826	25460.74
535.192	25525.15
535.557	25699.38
535.923	25665.71
536.288	25865.03
536.653	26087.62
537.019	26211.01
537.384	26311.12
537.749	26447.38
538.114	26477.21
538.479	26532.13
538.845	26644.44
539.21	26663.42
539.575	26807.37
539.94	26854.6
540.305	26902.74
540.67	26882.4
541.034	26783.65
541.399	27032
541.764	27102.73
542.129	27205.78
542.494	27209.4
542.858	27350.86
543.223	27486.9
543.587	27574.81
543.952	27728.71
544.316	27781.81
544.681	27947.68
545.045	28022.48
545.41	28222.48
545.774	28227.45
546.138	28276.26
546.503	28385.19
546.867	28418.63
547.231	28634.22
547.595	28486.43
547.959	28558.74
548.324	28563.94
548.688	28622.92
549.052	28681.68
549.416	28699.3
549.779	28805.29
550.143	28848.45
550.507	28986.98
550.871	29081.66
551.235	29036.92
551.599	29268.1
551.962	29455.44
552.326	29479.62
552.689	29644.81
553.053	29699.95
553.417	29879.38
553.78	30193.5
554.143	30067.63
554.507	30144.24
554.87	30255.87
555.234	30388.3
555.597	30187.62
555.96	30241.86
556.323	30386.72
556.686	30445.7
557.05	30588.52
557.413	30539.03
557.776	30596.88
558.139	30886.36
558.502	30824.67
558.865	31000.03
559.228	31127.71
559.59	31188.28
559.953	31374.03
560.316	31705.1
560.679	31776.96
561.041	31838.2
561.404	32094.69
561.767	32352.09
562.129	32167.91
562.492	32562.25
562.854	32597.05
563.217	32548.92
563.579	32677.05
563.941	32694.23
564.304	32760.89
564.666	32849.7
565.028	32838.85
565.39	33036.81
565.753	33101.22
566.115	33307.09
566.477	33364.94
566.839	33475.67
567.201	33750.47
567.563	33690.58
567.925	33924.25
568.287	34018.26
568.648	34015.55
569.01	34287.86
569.372	34385.03
569.734	34359.49
570.095	34669.09
570.457	34930.78
570.819	34924.22
571.18	35061.17
571.542	35175.06
571.903	35185.91
572.265	35286.25
572.626	35345.91
572.987	35364.89
573.349	35435.62
573.71	35557.2
574.071	35584.54
574.432	35705.22
574.794	35874.48
575.155	35725.11
575.516	35635.84
575.877	35901.6
576.238	35938.66
576.599	36223.17
576.96	36090.97
577.32	36277.18
577.681	36411.64
578.042	36701.58
578.403	36514.01
578.763	36675.82
579.124	36800.11
579.485	37029.25
579.845	37169.59
580.206	37031.74
580.566	37006.88
580.927	36970.27
581.287	37222.69
581.648	37011.63
582.008	37288.91
582.368	37263.82
582.728	37113.09
583.089	37065.18
583.449	36987.22
583.809	37138.85
584.169	37210.04
584.529	37041
584.889	37433.99
585.249	37179.53
585.609	37133.88
585.969	37355.8
586.329	37159.64
586.688	37415.68
587.048	37400.09
587.408	37411.84
587.768	37639.86
588.127	37497.04
588.487	37448.68
588.846	37836.24
589.206	37634.43
589.565	37542.69
589.925	37617.94
590.284	37506.3
590.643	37702.68
591.003	37633.76
591.362	37840.3
591.721	37531.16
592.08	37501.1
592.44	37645.06
592.799	37662.23
593.158	37669.69
593.517	37633.98
593.876	37579.97
594.235	37493.65
594.593	37814.32
594.952	37825.39
595.311	37702
595.67	37884.15
596.029	38023.12
596.387	37982.9
596.746	38118.49
597.104	37913.97
597.463	38008.44
597.822	38316.68
598.18	38173.18
598.538	38144.48
598.897	38319.84
599.255	37756.24
599.613	38537.46
599.972	38339.05
600.33	38358.26
600.688	38329.78
601.046	38357.8
601.404	38486.39
601.762	38211.37
602.12	38567.74
602.478	38356.45
602.836	38438.25
603.194	38349.67
603.552	38404.13
603.91	38277.58
604.268	38424.92
604.625	38340.86
604.983	38471.02
605.341	38177.24
605.698	38532.04
606.056	38650.45
606.413	38525.94
606.771	38894.29
607.128	38920.28
607.485	38605.71
607.843	38907.62
608.2	38945.36
608.557	39099.25
608.914	38858.81
609.272	39196.43
609.629	39199.82
609.986	39419.25
610.343	39233.04
610.7	39313.71
611.057	39277.78
611.414	39173.83
611.771	39303.54
612.127	39393.94
612.484	39327.72
612.841	39410.88
613.198	39366.14
613.554	39280.72
613.911	39555.97
614.267	39538.56
614.624	39501.05
614.98	39590.77
615.337	39761.84
615.693	39690.43
616.05	39707.6
616.406	39976.29
616.762	39883.19
617.118	39902.85
617.475	39895.62
617.831	39932.9
618.187	40135.84
618.543	40074.82
618.899	40202.28
619.255	40194.14
619.611	40167.25
619.967	40307.13
620.323	40351.2
620.678	40167.7
621.034	40284.76
621.39	40304.87
621.746	40177.87
622.101	40505.32
622.457	40165.44
622.812	40294.48
623.168	40278.66
623.523	40167.47
623.879	40361.59
624.234	40045.67
624.589	40332.22
624.945	40294.48
625.3	40256.29
625.655	40148.04
626.01	40377.86
626.365	40303.74
626.72	40189.17
627.075	40264.2
627.43	40384.19
627.785	40345.55
628.14	40186.68
628.495	40276.4
628.85	40186.68
629.205	40172.67
629.559	40467.81
629.914	40326.11
630.269	40407.69
630.623	40212.22
630.978	40207.47
631.332	40303.74
631.687	40492.21
632.041	40293.35
632.396	40218.32
632.75	40167.25
633.104	40119.57
633.459	39792.12
633.813	39955.28
634.167	39757.54
634.521	39648.17
634.875	39737.43
635.229	39731.33
635.583	39486.36
635.937	39491.56
636.291	39398
636.645	39380.83
636.999	39345.35
637.352	39494.27
637.706	39226.26
638.06	39408.17
638.413	39367.27
638.767	39365.91
639.121	39215.18
639.474	38964.12
639.828	39179.48
640.181	39133.38
640.534	39094.96
640.888	39027.39
641.241	39000.05
641.594	39225.58
641.947	39205.69
642.301	39200.49
642.654	39144.22
643.007	39074.62
643.36	38986.94
643.713	38837.34
644.066	39046.37
644.419	38792.37
644.771	38745.82
645.124	38587.4
645.477	38597.35
645.83	38205.94
646.182	37815.45
646.535	37555.57
646.888	37380.2
647.24	36982.02
647.593	37202.36
647.945	36996.03
648.298	36864.28
648.65	36740.9
649.002	36889.82
649.355	36995.13
649.707	37174.79
650.059	37464.95
650.411	38069.45
650.763	38074.42
651.115	38307.86
651.467	38100.18
651.819	38012.73
652.171	38066.51
652.523	37998.27
652.875	38010.47
653.227	37908.33
653.578	38184.48
653.93	38127.75
654.282	37944.26
654.633	37666.3
654.985	37769.35
655.337	37835.56
655.688	37824.03
656.039	37732.06
656.391	37814.09
656.742	37665.39
657.094	37633.98
657.445	37838.95
657.796	37660.65
658.147	37739.06
658.498	37529.13
658.849	37529.8
659.2	37392.41
659.551	37345.18
659.902	37700.2
660.253	37490.71
660.604	37499.07
660.955	37383.82
661.306	37698.39
661.656	37464.04
662.007	37470.37
662.358	37448.68
662.708	37410.94
663.059	37356.93
663.409	37298.85
663.76	37576.58
664.11	37656.58
664.461	37423.14
664.811	37564.15
665.161	37448
665.511	37397.15
665.862	37578.84
666.212	37587.88
666.562	37586.07
666.912	37517.6
667.262	37349.47
667.612	37429.02
667.962	37549.92
668.312	37365.51
668.662	37528
669.011	37444.16
669.361	37383.14
669.711	37250.72
670.06	37158.06
670.41	36976.82
670.76	36803.5
671.109	37092.53
671.459	36897.28
671.808	36842.82
672.157	36987.45
672.507	36712.42
672.856	36928.01
673.205	36941.12
673.554	37086.2
673.904	36804.17
674.253	37130.72
674.602	36871.52
674.951	36301.14
675.3	36231.08
675.649	36766.21
675.998	36792.42
676.346	36675.14
676.695	36803.04
677.044	36633.1
677.393	36754.46
677.741	36892.08
678.09	36644.86
678.438	36472.43
678.787	36561.24
679.135	36438.76
679.484	36223.62
679.832	36577.29
680.181	36412.55
680.529	36343.62
680.877	36094.14
681.225	36120.58
681.573	36180.69
681.922	35970.75
682.27	35782.51
682.618	35788.38
682.966	35863.63
683.314	35636.97
683.661	35707.93
684.009	35408.5
684.357	35306.36
684.705	35226.81
685.053	35314.95
685.4	35356.75
685.748	35013.26
686.095	34976.65
686.443	34951.79
686.79	34943.21
687.138	35117.89
687.485	35087.16
687.832	34762.87
688.18	34902.3
688.527	34774.62
688.874	34705.92
689.221	34651.46
689.568	34422.54
689.915	34456.44
690.262	34494.4
690.609	34279.27
690.956	34306.39
691.303	34251.7
691.65	33985.04
691.997	34208.99
692.344	33692.84
692.69	33740.07
693.037	33676.57
693.383	33403.58
693.73	33492.62
694.077	33214.44
694.423	33155.23
694.769	32978.29
695.116	32995.46
695.462	32863.71
695.808	32877.27
696.155	32850.83
696.501	32569.48
696.847	32522.93
697.193	32428.02
697.539	32369.26
697.885	32209.94
698.231	32126.1
698.577	32085.43
698.923	32012.66
699.269	32024.86
699.614	31700.58
699.96	31650.86
700.306	31661.94
700.651	31556.63
700.997	31497.42
701.342	31413.58
701.688	31321.38
702.033	31247.71
702.379	31162.06
702.724	31125.68
703.069	31280.93
703.415	30898.34
703.76	30970.88
704.105	30833.03
704.45	30632.36
704.795	30525.47
705.14	30431.69
705.485	30346.49
705.83	30300.62
706.175	30336.32
706.52	30073.05
706.865	30010.45
707.209	30087.06
707.554	29860.63
707.899	29765.49
708.243	29803.68
708.588	29556.45
708.932	29444.37
709.277	29483.69
709.621	29469.23
709.966	29273.52
710.31	29410.24
710.654	29118.05
710.998	29123.02
711.342	29160.53
711.687	29118.27
712.031	28871.27
712.375	28894.78
712.719	28866.98
713.063	28872.18
713.407	28902.46
713.75	28763.48
714.094	28713.76
714.438	28680.77
714.782	28730.26
715.125	28608.46
715.469	28524.39
715.812	28531.17
716.156	28335.02
716.499	28345.64
716.843	28429.93
717.186	28222.93
717.53	28283.49
717.873	28239.88
718.216	28148.36
718.559	28136.6
718.902	27830.4
719.246	28003.05
719.589	27897.06
719.932	27822.94
720.275	27890.74
720.617	27735.26
720.96	27704.07
721.303	27537.75
721.646	27708.37
721.989	27449.39
722.331	27644.19
722.674	27668.82
723.016	27615.49
723.359	27468.83
723.701	27443.74
724.044	27341.82
724.386	27261.6
724.729	27284.65
725.071	27363.07
725.413	27288.04
725.755	27284.65
726.097	27215.05
726.439	27080.36
726.782	27040.81
727.124	27122.39
727.465	26911.1
727.807	27065.22
728.149	26797.88
728.491	26892.8
728.833	27021.15
729.175	26933.25
729.516	26948.16
729.858	26897.99
730.199	26970.76
730.541	26990.65
730.882	26922.17
731.224	27003.08
731.565	26813.93
731.906	26723.99
732.248	26934.83
732.589	26742.74
732.93	26758.79
733.271	26739.58
733.612	26752.01
733.953	26775.96
734.294	26631.33
734.635	26648.73
734.976	26766.02
735.317	26466.14
735.658	26542.07
735.999	26635.4
736.339	26637.66
736.68	26582.07
737.021	26483.54
737.361	26421.17
737.702	26568.74
738.042	26405.58
738.383	26451.45
738.723	26540.94
739.063	26412.81
739.404	26682.41
739.744	26535.29
740.084	26538.23
740.424	26567.83
740.764	26451.23
741.104	26460.94
741.444	26420.49
741.784	26398.57
742.124	26540.94
742.464	26497.78
742.804	26499.81
743.143	26498.23
743.483	26492.35
743.823	26523.77
744.162	26508.4
744.502	26617.1
744.841	26544.33
745.181	26639.47
745.52	26615.06
745.86	26683.54
746.199	26646.25
746.538	26594.95
746.877	26749.52
747.216	26757.88
747.556	26659.81
747.895	26799.01
748.234	26568.74
748.573	26737.32
748.911	26718.34
749.25	26755.62
749.589	26747.26
749.928	26726.02
750.267	26815.51
750.605	26717.66
750.944	26849.41
751.283	26718.34
751.621	26830.65
751.96	26751.33
752.298	26835.62
752.636	26770.31
752.975	26880.37
753.313	26748.17
753.651	26815.06
753.989	26738.45
754.327	26736.87
754.666	26669.98
755.004	26828.39
755.342	26840.59
755.679	26832.91
756.017	26827.03
756.355	26907.94
756.693	26771.89
757.031	27013.92
757.368	26776.64
757.706	26818.9
758.044	26808.05
758.381	26859.35
758.719	26887.37
759.056	26936.64
759.394	26848.05
759.731	26822.06
760.068	26836.98
760.405	26744.33
760.743	26728.96
761.08	26961.95
761.417	26645.12
761.754	26789.75
762.091	26823.19
762.428	26808.28
762.765	26677.89
763.102	26762.86
763.438	26753.59
763.775	26553.82
764.112	26596.31
764.449	26699.58
764.785	26445.58
765.122	26489.64
765.458	26382.3
765.795	26415.97
766.131	26408.06
766.467	26282.42
766.804	26421.85
767.14	26232.25
767.476	26452.81
767.812	26198.8
768.148	26297.11
768.485	26067.73
768.821	25814.18
769.157	26020.28
769.492	25813.95
769.828	25906.61
770.164	25591.36
770.5	25637.91
770.836	25785.48
771.171	25570.12
771.507	25511.82
771.842	25341.42
772.178	25401.54
772.513	25416.22
772.849	25246.29
773.184	25097.81
773.519	25153.41
773.855	24974.65
774.19	24929.91
774.525	24861.21
774.86	24783.02
775.195	24937.82
775.53	24821.66
775.865	24722.46
776.2	24787.54
776.535	24544.16
776.87	24680.2
777.205	24462.8
777.539	24329.7
777.874	24289.7
778.209	24067.11
778.543	24111.4
778.878	23941.01
779.212	23977.39
779.547	23910.28
779.881	23975.58
780.215	23683.16
780.55	23794.57
780.884	23579.21
781.218	23557.74
781.552	23599.55
781.886	23390.74
782.22	23288.82
782.554	23125.44
782.888	23024.65
783.222	22935.39
783.556	22985.33
783.889	22941.71
784.223	22706.47
784.557	22687.48
784.89	22677.09
785.224	22512.35
785.557	22412.24
785.891	22334.27
786.224	22221.96
786.558	22305.12
786.891	22059.02
787.224	21955.75
787.557	21921.63
787.891	21922.53
788.224	21951.46
788.557	21923.21
788.89	21809.31
789.223	21797.79
789.556	21629.21
789.888	21547.85
790.221	21539.72
790.554	21297.01
790.887	21311.47
791.219	21237.13
791.552	21155.77
791.884	21066.96
792.217	20973.63
792.549	20930.69
792.882	20755.1
793.214	20844.37
793.546	20830.36
793.879	20775.44
794.211	20754.65
794.543	20668.78
794.875	20572.28
795.207	20604.15
795.539	20304.27
795.871	20389.69
796.203	20207.1
796.535	20218.17
796.867	20133.43
797.198	20164.16
797.53	20150.37
797.862	19946.99
798.193	20014.33
798.525	19890.72
798.856	19933.66
799.188	19837.16
799.519	19721.91
799.85	19640.56
800.182	19604.4
800.513	19570.05
800.844	19339.55
801.175	19476.95
801.506	19336.16
801.837	19278.31
802.168	19174.81
802.499	19004.19
802.83	19097.07
803.161	19079.67
803.491	19060.46
803.822	18980.46
804.153	18863.18
804.483	18769.17
804.814	18786.79
805.145	18633.35
805.475	18608.04
805.805	18531.66
806.136	18556.52
806.466	18610.53
806.796	18517.2
807.126	18267.26
807.457	18287.37
807.787	18363.75
808.117	18159.92
808.447	18189.3
808.777	18084.67
809.107	18105.91
809.436	18059.36
809.766	18090.99
810.096	18098.45
810.426	17916.08
810.755	17906.14
811.085	17839.02
811.414	17793.83
811.744	17808.51
812.073	17728.06
812.403	17762.87
812.732	17626.37
813.061	17663.89
813.39	17598.58
813.719	17389.99
814.049	17606.71
814.378	17455.76
814.707	17336.89
815.036	17340.28
815.365	17281.07
815.693	17270.9
816.022	17140.06
816.351	17093.51
816.68	17132.83
817.008	17063
817.337	16893.74
817.665	16871.82
817.994	16951.81
818.322	16921.08
818.651	16848.09
818.979	16843.34
819.307	16809.22
819.636	16678.15
819.964	16676.12
820.292	16740.29
820.62	16648.32
820.948	16588.89
821.276	16714.31
821.604	16591.15
821.932	16555.67
822.259	16629.34
822.587	16587.3
822.915	16563.12
823.243	16516.12
823.57	16612.84
823.898	16551.6
824.225	16434.09
824.553	16385.95
824.88	16496.46
825.207	16533.75
825.535	16556.57
825.862	16556.57
826.189	16446.06
826.516	16547.53
826.843	16604.7
827.17	16558.15
827.497	16539.85
827.824	16483.13
828.151	16502.11
828.478	16483.8
828.805	16633.86
829.131	16425.5
829.458	16415.78
829.785	16397.93
830.111	16417.36
830.438	16523.58
830.764	16473.86
831.09	16440.87
831.417	16472.5
831.743	16576.23
832.069	16495.78
832.395	16405.16
832.722	16586.85
833.048	16397.7
833.374	16500.3
833.7	16361.55
834.026	16445.84
834.351	16433.86
834.677	16476.8
835.003	16482.67
835.329	16450.13
835.654	16296.46
835.98	16368.55
836.306	16347.31
836.631	16312.06
836.956	16313.19
837.282	16272.51
837.607	16163.81
837.932	16085.85
838.258	16102.57
838.583	16117.94
838.908	16078.84
839.233	15936.93
839.558	15929.47
839.883	15929.69
840.208	15844.5
840.533	15877.27
840.858	15874.1
841.182	15865.97
841.507	15853.99
841.832	15674.11
842.156	15624.62
842.481	15650.15
842.805	15653.77
843.13	15555.92
843.454	15473.21
843.778	15429.37
844.103	15334.46
844.427	15402.25
844.751	15418.3
845.075	15310.28
845.399	15297.62
845.723	15149.15
846.047	15141.01
846.371	15042.94
846.695	15120.9
847.019	14986.22
847.343	14850.4
847.666	14876.61
847.99	14826.67
848.313	14790.74
848.637	14697.18
848.96	14680.91
849.284	14661.7
849.607	14515.72
849.931	14535.15
850.254	14514.82
850.577	14393.46
850.9	14286.35
851.223	14197.99
851.546	14199.34
851.869	14122.28
852.192	14237.99
852.515	14072.12
852.838	13959.12
853.161	13965
853.483	13912.57
853.806	13855.62
854.129	13878.67
854.451	13770.88
854.774	13756.64
855.096	13721.62
855.419	13692.69
855.741	13615.4
856.063	13568.17
856.385	13460.61
856.708	13502.19
857.03	13401.4
857.352	13379.03
857.674	13392.36
857.996	13374.73
858.318	13295.87
858.64	13331.34
858.961	13268.3
859.283	13189.88
859.605	13081.86
859.926	13145.36
860.248	13042.31
860.57	12992.14
860.891	13043.67
861.212	12932.94
861.534	12894.29
861.855	12838.02
862.176	12887.97
862.498	12827.18
862.819	12798.93
863.14	12728.42
863.461	12769.1
863.782	12685.94
864.103	12716.45
864.424	12647.52
864.745	12606.62
865.065	12536.11
865.386	12535.21
865.707	12633.74
866.027	12584.25
866.348	12489.78
866.668	12438.94
866.989	12431.26
867.309	12401.65
867.63	12424.25
867.95	12356.68
868.27	12342.22
868.59	12388.54
868.91	12311.03
869.23	12318.49
869.55	12211.37
869.87	12263.35
870.19	12258.15
870.51	12270.13
870.83	12312.39
871.15	12195.1
871.469	12262.67
871.789	12208.66
872.109	12195.78
872.428	12112.85
872.748	12199.4
873.067	12164.37
873.386	12153.97
873.706	12116.69
874.025	12140.42
874.344	12049.8
874.663	12086.18
874.982	12007.31
875.301	12032.4
875.62	11916.92
875.939	11991.04
876.258	11952.4
876.577	11921.89
876.896	11918.95
877.214	11791.05
877.533	11858.61
877.852	11833.08
878.17	11864.72
878.489	11818.16
878.807	11824.94
879.125	11798.28
879.444	11848.9
879.762	11782.46
880.08	11753.53
880.398	11672.86
880.716	11652.97
881.034	11525.52
881.352	11602.12
881.67	11553.31
881.988	11576.81
882.306	11556.48
882.624	11484.61
882.941	11355.13
883.259	11279.65
883.577	11361.9
883.894	11333.66
884.212	11286.43
884.529	11275.13
884.846	11228.57
885.164	11117.39
885.481	11219.76
885.798	11218.63
886.115	11079.43
886.432	11081.23
886.75	11163.94
887.067	11071.29
887.383	11016.38
887.7	11039.88
888.017	10966.66
888.334	11047.11
888.651	10950.84
888.967	10829.72
889.284	10895.93
889.6	10809.6
889.917	10762.37
890.233	10822.94
890.55	10827.91
890.866	10790.85
891.182	10781.13
891.498	10695.71
891.815	10644.86
892.131	10700.23
892.447	10621.81
892.763	10622.04
893.079	10598.53
893.395	10538.2
893.71	10553.79
894.026	10468.82
894.342	10513.79
894.657	10406.22
894.973	10453.68
895.289	10464.75
895.604	10395.15
895.92	10311.99
896.235	10277.87
896.55	10267.47
896.865	10237.87
897.181	10245.78
897.496	10204.65
897.811	10139.79
898.126	10109.73
898.441	10126.46
898.756	9963.52
899.071	9964.88
899.386	9903.19
899.7	9853.02
900.015	9809.86
900.33	9763.3
900.644	9782.74
900.959	9771.44
901.273	9758.33
901.588	9662.74
901.902	9561.05
902.216	9677.2
902.531	9570.99
902.845	9541.16
903.159	9474.27
903.473	9505.91
903.787	9446.93
904.101	9300.49
904.415	9335.29
904.729	9291.45
905.042	9286.03
905.356	9163.09
905.67	9227.27
905.984	9174.62
906.297	9181.17
906.611	9118.57
906.924	9081.74
907.237	8978.01
907.551	8981.63
907.864	8911.8
908.177	8892.82
908.491	8847.85
908.804	8787.74
909.117	8799.49
909.43	8717.91
909.743	8732.37
910.056	8730.11
910.368	8663.67
910.681	8628.64
910.994	8519.72
911.307	8579.83
911.619	8464.81
911.932	8494.64
912.244	8388.42
912.557	8536.67
912.869	8397.69
913.181	8393.4
913.494	8331.7
913.806	8276.56
914.118	8290.57
914.43	8259.61
914.742	8193.63
915.054	8116.11
915.366	8227.98
915.678	8135.55
915.99	8107.98
916.302	8047.87
916.613	8040.64
916.925	8046.06
917.236	8031.37
917.548	7911.37
917.859	7936.23
918.171	7873.86
918.482	7867.08
918.794	7779.85
919.105	7870.7
919.416	7754.77
919.727	7764.94
920.038	7689.68
920.349	7651.04
920.66	7627.31
920.971	7645.17
921.282	7567.88
921.593	7536.69
921.903	7479.07
922.214	7535.11
922.525	7494.21
922.835	7404.95
923.146	7377.6
923.456	7351.16
923.767	7366.53
924.077	7313.88
924.387	7274.78
924.697	7193.88
925.008	7205.4
925.318	7178.51
925.628	7184.84
925.938	7066.88
926.248	7081.11
926.558	7082.24
926.867	7010.61
927.177	6940.1
927.487	6937.39
927.796	6807.22
928.106	6857.16
928.416	6854.23
928.725	6815.81
929.034	6724.51
929.344	6781.23
929.653	6734.68
929.962	6670.73
930.271	6621.46
930.581	6641.12
930.89	6568.81
931.199	6558.87
931.508	6581.92
931.817	6507.79
932.125	6500.56
932.434	6449.49
932.743	6384.18
933.051	6383.73
933.36	6378.53
933.669	6357.06
933.977	6308.03
934.286	6266.22
934.594	6247.91
934.902	6192.55
935.21	6224.41
935.519	6205.88
935.827	6166.34
936.135	6120.69
936.443	6046.11
936.751	6097.86
937.059	6079.11
937.367	6103.29
937.674	6099.9
937.982	6028.03
938.29	5951.43
938.597	5998.88
938.905	5955.49
939.213	5947.81
939.52	5884.76
939.827	5868.94
940.135	5889.51
940.442	5830.3
940.749	5803.86
941.056	5760.02
941.363	5773.58
941.67	5701.26
941.977	5710.3
942.284	5674.82
942.591	5666.24
942.898	5665.11
943.205	5644.31
943.511	5553.47
943.818	5607.03
944.125	5484.32
944.431	5522.74
944.738	5497.2
945.044	5486.35
945.35	5445.45
945.657	5437.31
945.963	5373.36
946.269	5360.03
946.575	5383.08
946.881	5379.69
947.187	5308.05
947.493	5260.82
947.799	5280.48
948.105	5297.21
948.41	5259.47
948.716	5259.01
949.022	5183.76
949.327	5206.81
949.633	5142.41
949.938	5101.5
950.244	5123.2
950.549	5083.88
950.854	4966.14
951.16	5020.38
951.465	5000.49
951.77	4946.03
952.075	4910.55
952.38	4902.19
952.685	4905.13
952.99	4862.64
953.294	4851.79
953.599	4837.33
953.904	4800.27
954.209	4738.12
954.513	4754.39
954.818	4743.77
955.122	4727.5
955.426	4687.05
955.731	4708.97
956.035	4654.96
956.339	4617.22
956.643	4629.88
956.948	4606.38
957.252	4561.41
957.556	4569.09
957.86	4538.36
958.163	4500.84
958.467	4493.61
958.771	4478.92
959.075	4490.45
959.378	4391.92
959.682	4431.92
959.985	4381.07
960.289	4380.39
960.592	4361.41
960.896	4346.72
961.199	4330.9
961.502	4327.51
961.805	4338.13
962.108	4319.38
962.411	4299.49
962.714	4288.87
963.017	4263.56
963.32	4230.79
963.623	4197.12
963.926	4219.72
964.228	4158.7
964.531	4159.16
964.833	4178.36
965.136	4120.51
965.438	4172.26
965.741	4096.56
966.043	4091.59
966.345	4093.4
966.648	4049.55
966.95	4052.94
967.252	3994.41
967.554	4055.43
967.856	4040.74
968.158	3949.22
968.46	3951.03
968.761	3911.93
969.063	3983.57
969.365	3908.09
969.666	3878.94
969.968	3861.99
970.269	3867.41
970.571	3857.02
970.872	3864.93
971.174	3785.61
971.475	3817.92
971.776	3783.57
972.077	3787.41
972.378	3759.84
972.679	3789.67
972.98	3730.69
973.281	3683.46
973.582	3696.34
973.883	3663.12
974.183	3629.68
974.484	3626.97
974.785	3589.91
975.085	3586.29
975.386	3584.93
975.686	3561.88
975.986	3502.22
976.287	3514.88
976.587	3461.1
976.887	3507.2
977.187	3492.51
977.487	3443.24
977.787	3436.69
978.087	3417.48
978.387	3402.34
978.687	3375.22
978.987	3365.96
979.286	3327.54
979.586	3333.42
979.885	3322.79
980.185	3299.97
980.484	3257.48
980.784	3305.17
981.083	3272.85
981.382	3247.77
981.682	3261.78
981.981	3191.27
982.28	3200.76
982.579	3178.17
982.878	3214.32
983.177	3169.58
983.475	3146.08
983.774	3171.16
984.073	3113.31
984.372	3118.96
984.67	3093.2
984.969	3097.49
985.267	3068.79
985.566	3079.18
985.864	3045.51
986.162	3020.2
986.461	3009.36
986.759	3014.55
987.057	2953.99
987.355	2981.56
987.653	2986.98
987.951	2959.19
988.249	2952.63
988.547	2916.25
988.844	2926.87
989.142	2895.23
989.44	2863.6
989.737	2886.2
990.035	2874.9
990.332	2898.17
990.63	2852.07
990.927	2839.19
991.224	2867.89
991.521	2805.75
991.819	2803.94
992.116	2798.51
992.413	2766.42
992.71	2769.81
993.006	2751.28
993.303	2720.55
993.6	2763.03
993.897	2732.75
994.193	2712.64
994.49	2677.61
994.787	2695.47
995.083	2689.82
995.379	2669.03
995.676	2602.81
995.972	2602.13
996.268	2615.92
996.565	2622.7
996.861	2584.96
997.157	2580.44
997.453	2541.35
997.749	2523.27
998.044	2546.09
998.34	2500.22
998.636	2508.13
998.932	2505.64
999.227	2482.82
999.523	2451.18
999.818	2461.12
1000.114	2445.98
1000.409	2418.41
1000.704	2427.68
1001	2398.98
1001.295	2392.87
1001.59	2391.07
1001.885	2385.87
1002.18	2339.32
1002.475	2367.79
1002.77	2323.27
1003.065	2314.91
1003.359	2285.99
1003.654	2288.92
1003.949	2306.32
1004.243	2244.63
1004.538	2254.8
1004.832	2252.09
1005.127	2228.81
1005.421	2234.24
1005.715	2184.52
1006.009	2164.41
1006.304	2156.05
1006.598	2146.55
1006.892	2148.81
1007.186	2129.61
1007.48	2147.68
1007.773	2107.68
1008.067	2086.67
1008.361	2060.45
1008.655	2061.58
1008.948	2060.23
1009.242	2044.86
1009.535	1997.63
1009.829	2045.54
1010.122	2014.81
1010.415	1991.3
1010.708	1990.63
1011.001	1971.64
1011.295	1980.46
1011.588	1959.21
1011.881	1944.98
1012.173	1909.27
1012.466	1926.9
1012.759	1945.66
1013.052	1931.19
1013.344	1895.71
1013.637	1900.68
1013.93	1901.14
1014.222	1867.01
1014.514	1844.41
1014.807	1826.79
1015.099	1831.76
1015.391	1871.76
1015.683	1798.54
1015.976	1804.87
1016.268	1795.38
1016.56	1769.16
1016.851	1770.74
1017.143	1736.17
1017.435	1749.73
1017.727	1725.55
1018.018	1736.17
1018.31	1732.78
1018.602	1718.99
1018.893	1708.15
1019.185	1708.6
1019.476	1700.46
1019.767	1673.12
1020.058	1643.97
1020.35	1641.26
1020.641	1618.21
1020.932	1662.5
1021.223	1648.04
1021.514	1609.39
1021.804	1590.64
1022.095	1577.53
1022.386	1582.95
1022.677	1585.44
1022.967	1575.5
1023.258	1536.4
1023.548	1551.09
1023.839	1537.98
1024.129	1517.64
1024.419	1532.11
1024.709	1521.94
1025	1477.64
1025.29	1490.07
1025.58	1458.21
1025.87	1455.72
1026.16	1462.28
1026.449	1443.07
1026.739	1451.2
1027.029	1420.7
1027.319	1418.66
1027.608	1422.73
1027.898	1426.12
1028.187	1410.08
1028.477	1378.44
1028.766	1348.83
1029.055	1352.45
1029.344	1362.85
1029.634	1354.94
1029.923	1293.47
1030.212	1344.99
1030.501	1323.07
1030.79	1321.04
1031.078	1295.5
1031.367	1315.39
1031.656	1267.25
1031.945	1271.32
1032.233	1255.28
1032.522	1241.72
1032.81	1252.11
1033.099	1262.74
1033.387	1222.51
1033.675	1203.08
1033.963	1200.82
1034.251	1166.92
1034.54	1182.74
1034.828	1179.12
1035.116	1178.22
1035.403	1190.19
1035.691	1176.64
1035.979	1171.66
1036.267	1127.37
1036.554	1164.43
1036.842	1157.2
1037.129	1153.36
1037.417	1140.48
1037.704	1135.73
1037.992	1125.34
1038.279	1091.67
1038.566	1097.32
1038.853	1097.32
1039.14	1097.32
