Data from blue_chair_FLMS001491_00029.txt Node
Date: Wed Feb 08 10:30:04 GMT 2017
User: dcchb
Spectrometer: FLMS00149
Trigger mode: 0
Integration Time (sec): 2.000000E-2
Scans to average: 10
Electric dark correction enabled: true
Nonlinearity correction enabled: false
Boxcar width: 0
XAxis mode: Wavelengths
Number of Pixels in Spectrum: 2048
>>>>>Begin Spectral Data<<<<<
341.393	-33.11
341.776	-33.11
342.16	-33.11
342.543	-59.32
342.927	-91.41
343.31	-76.95
343.693	-80.11
344.077	-60.68
344.46	-52.99
344.843	-73.56
345.226	-37.85
345.61	-27
345.993	-11.86
346.376	-9.6
346.759	37.63
347.142	25.42
347.525	23.16
347.908	56.38
348.291	79.43
348.674	95.93
349.057	112.65
349.44	107.23
349.823	127.12
350.206	130.73
350.588	188.58
350.971	187.45
351.354	198.53
351.737	222.25
352.119	228.13
352.502	229.03
352.884	243.95
353.267	252.76
353.65	248.69
354.032	282.14
354.414	294.79
354.797	285.3
355.179	286.89
355.562	284.4
355.944	305.64
356.326	305.19
356.709	278.52
357.091	300.44
357.473	318.75
357.855	321.46
358.238	302.7
358.62	317.17
359.002	309.03
359.384	311.07
359.766	312.65
360.148	310.16
360.53	313.1
360.912	308.35
361.294	334.79
361.676	309.71
362.057	303.38
362.439	284.85
362.821	282.37
363.203	288.24
363.584	300.22
363.966	317.17
364.348	292.31
364.729	305.19
365.111	285.08
365.493	300.67
365.874	286.89
366.256	314.91
366.637	292.31
367.019	282.59
367.4	287.11
367.781	291.18
368.163	277.39
368.544	265.87
368.925	275.36
369.306	296.15
369.688	282.14
370.069	290.27
370.45	281.46
370.831	277.62
371.212	277.17
371.593	274
371.974	282.37
372.355	281.91
372.736	294.57
373.117	290.5
373.498	266.09
373.879	264.06
374.26	305.64
374.641	285.08
375.021	295.25
375.402	293.44
375.783	287.11
376.163	290.27
376.544	270.84
376.925	296.83
377.305	281.01
377.686	291.18
378.066	306.77
378.447	294.57
378.827	294.34
379.208	282.37
379.588	298.18
379.968	265.42
380.349	302.03
380.729	294.79
381.109	296.15
381.489	305.42
381.87	298.64
382.25	287.11
382.63	284.4
383.01	299.09
383.39	290.05
383.77	300.44
384.15	306.09
384.53	285.53
384.91	311.29
385.29	297.05
385.67	325.08
386.049	281.91
386.429	299.54
386.809	311.29
387.189	309.03
387.568	285.53
387.948	310.39
388.328	303.16
388.707	312.42
389.087	311.52
389.466	295.02
389.846	323.27
390.225	314.23
390.605	309.48
390.984	327.34
391.363	332.08
391.743	346.77
392.122	331.86
392.501	341.8
392.881	354.68
393.26	343.83
393.639	340.22
394.018	342.7
394.397	308.13
394.776	331.4
395.155	355.36
395.534	337.51
395.913	355.58
396.292	353.32
396.671	351.97
397.05	348.13
397.429	361.69
397.808	372.31
398.186	357.84
398.565	341.12
398.944	346.09
399.323	355.13
399.701	349.48
400.08	356.71
400.458	367.33
400.837	379.76
401.215	357.17
401.594	363.04
401.972	361.23
402.351	374.34
402.729	401.68
403.107	390.61
403.486	373.66
403.864	368.24
404.242	392.42
404.62	389.26
404.999	408.92
405.377	397.84
405.755	412.31
406.133	401.23
406.511	394.23
406.889	395.13
407.267	403.04
407.645	396.71
408.023	410.05
408.401	438.07
408.779	430.16
409.156	409.37
409.534	436.03
409.912	438.07
410.29	436.49
410.667	441.91
411.045	443.49
411.422	454.11
411.8	434
412.178	446.43
412.555	438.75
412.933	443.94
413.31	462.25
413.687	456.82
414.065	479.87
414.442	488.46
414.819	472.19
415.197	472.64
415.574	472.64
415.951	497.28
416.328	490.27
416.705	495.47
417.082	502.92
417.46	481.46
417.837	513.09
418.214	516.71
418.591	501.57
418.967	520.55
419.344	530.49
419.721	522.81
420.098	525.3
420.475	522.13
420.852	512.87
421.228	539.53
421.605	541.79
421.982	532.75
422.358	541.57
422.735	533.21
423.111	558.06
423.488	554.9
423.864	567.1
424.241	551.06
424.617	572.08
424.994	559.19
425.37	589.93
425.746	585.41
426.123	589.7
426.499	602.13
426.875	622.47
427.251	619.31
427.627	619.31
428.003	598.74
428.379	630.15
428.756	640.55
429.132	633.54
429.507	628.35
429.883	647.78
430.259	660.66
430.635	625.63
431.011	653.43
431.387	670.6
431.763	687.1
432.138	690.49
432.514	711.05
432.89	714.44
433.265	706.54
433.641	732.98
434.016	716.93
434.392	733.65
434.767	736.59
435.143	748.34
435.518	758.51
435.894	765.52
436.269	744.5
436.644	797.61
437.02	785.86
437.395	808.45
437.77	816.59
438.145	836.93
438.52	818.85
438.895	842.35
439.271	869.69
439.646	858.62
440.021	905.17
440.395	875.34
440.77	898.17
441.145	861.11
441.52	940.65
441.895	912.63
442.27	917.6
442.645	948.56
443.019	944.04
443.394	921.22
443.769	953.53
444.143	946.75
444.518	944.72
444.892	974.1
445.267	973.87
445.641	988.56
446.016	995.57
446.39	983.36
446.764	1000.99
447.139	1000.09
447.513	1002.12
447.887	1030.82
448.262	1020.88
448.636	1031.05
449.01	1061.33
449.384	1063.14
449.758	1036.02
450.132	1068.79
450.506	1090.93
450.88	1070.82
451.254	1080.76
451.628	1079.63
452.002	1115.79
452.376	1100.42
452.75	1137.03
453.123	1132.29
453.497	1157.82
453.871	1142.46
454.244	1176.58
454.618	1176.81
454.992	1172.96
455.365	1203.92
455.739	1217.26
456.112	1223.36
456.486	1238.27
456.859	1238.72
457.232	1250.7
457.606	1267.88
457.979	1251.38
458.352	1273.75
458.725	1301.77
459.099	1290.7
459.472	1315.33
459.845	1349.46
460.218	1372.28
460.591	1347.87
460.964	1352.62
461.337	1371.38
461.71	1394.2
462.083	1406.86
462.456	1400.53
462.829	1409.12
463.201	1436.46
463.574	1433.75
463.947	1431.49
464.32	1496.12
464.692	1479.62
465.065	1472.62
465.438	1492.96
465.81	1503.8
466.183	1564.59
466.555	1528.43
466.928	1572.28
467.3	1575.44
467.672	1581.77
468.045	1618.15
468.417	1607.3
468.789	1596.23
469.161	1620.18
469.534	1643.69
469.906	1671.48
470.278	1677.58
470.65	1697.24
471.022	1732.72
471.394	1775.89
471.766	1751.93
472.138	1753.74
472.51	1805.04
472.882	1833.29
473.253	1830.35
473.625	1842.1
473.997	1883.91
474.369	1909.22
474.74	1910.12
475.112	1930.01
475.484	1950.57
475.855	1970
476.227	1978.82
476.598	2004.58
476.97	2013.85
477.341	2036.22
477.713	2100.4
478.084	2066.5
478.455	2111.92
478.827	2160.06
479.198	2151.47
479.569	2193.05
479.94	2212.26
480.311	2235.08
480.682	2250
481.053	2270.56
481.424	2320.05
481.795	2284.12
482.166	2354.63
482.537	2348.07
482.908	2432.59
483.279	2458.58
483.65	2440.27
484.021	2478.24
484.391	2490.67
484.762	2505.81
485.133	2485.7
485.503	2491.57
485.874	2540.84
486.244	2576.32
486.615	2607.95
486.985	2596.43
487.356	2673.72
487.726	2654.96
488.097	2646.37
488.467	2648.4
488.837	2676.43
489.207	2707.61
489.578	2717.1
489.948	2747.16
490.318	2765.01
490.688	2776.76
491.058	2778.35
491.428	2788.06
491.798	2805.69
492.168	2830.55
492.538	2859.92
492.908	2870.77
493.278	2835.74
493.648	2810.66
494.017	2893.6
494.387	2898.12
494.757	2867.83
495.126	2887.95
495.496	2874.16
495.866	2871.22
496.235	2899.47
496.605	2902.41
496.974	2902.18
497.344	2934.27
497.713	2915.97
498.082	2907.16
498.452	2929.08
498.821	2915.97
499.19	2942.18
499.559	2924.1
499.928	2958
500.298	2948.74
500.667	2941.28
501.036	2916.42
501.405	2907.16
501.774	2924.56
502.143	2934.73
502.512	2909.64
502.88	2938.79
503.249	2906.7
503.618	2921.39
503.987	2916.19
504.356	2964.55
504.724	2895.4
505.093	2915.29
505.462	2922.75
505.83	2921.39
506.199	2943.99
506.567	2917.1
506.936	2949.87
507.304	2923.88
507.672	2901.51
508.041	2957.1
508.409	2926.59
508.777	2929.98
509.145	2924.56
509.514	2915.97
509.882	2932.24
510.25	2920.26
510.618	2927.04
510.986	2930.66
511.354	2931.79
511.722	2897.44
512.09	2928.17
512.458	2863.54
512.826	2918
513.193	2925.91
513.561	2926.14
513.929	2893.14
514.297	2942.41
514.664	2903.99
515.032	2867.61
515.4	2866.03
515.767	2880.94
516.135	2863.54
516.502	2821.51
516.869	2910.09
517.237	2877.1
517.604	2842.98
517.972	2861.28
518.339	2805.01
518.706	2824.9
519.073	2793.71
519.44	2839.81
519.808	2835.29
520.175	2825.35
520.542	2848.63
520.909	2806.37
521.276	2826.03
521.643	2809.53
522.009	2822.41
522.376	2819.47
522.743	2810.21
523.11	2812.24
523.477	2816.08
523.843	2833.26
524.21	2839.59
524.577	2815.86
524.943	2827.16
525.31	2774.96
525.676	2821.73
526.043	2838.68
526.409	2815.41
526.776	2818.34
527.142	2833.03
527.508	2854.05
527.874	2841.39
528.241	2827.84
528.607	2813.6
528.973	2852.24
529.339	2847.5
529.705	2826.71
530.071	2825.35
530.437	2838.91
530.803	2857.44
531.169	2879.13
531.535	2849.76
531.901	2859.47
532.267	2842.52
532.632	2860.15
532.998	2880.49
533.364	2902.41
533.73	2868.96
534.095	2886.82
534.461	2871.45
534.826	2904.9
535.192	2904.44
535.557	2901.73
535.923	2840.49
536.288	2850.66
536.653	2861.51
537.019	2873.48
537.384	2844.78
537.749	2891.11
538.114	2922.52
538.479	2932.24
538.845	2898.79
539.21	2868.96
539.575	2886.14
539.94	2880.94
540.305	2868.96
540.67	2852.69
541.034	2839.36
541.399	2875.97
541.764	2908.96
542.129	2858.57
542.494	2898.57
542.858	2855.18
543.223	2856.31
543.587	2858.12
543.952	2885.01
544.316	2874.39
544.681	2812.47
545.045	2839.13
545.41	2847.72
545.774	2864.67
546.138	2842.52
546.503	2826.25
546.867	2845.46
547.231	2814.05
547.595	2858.12
547.959	2833.48
548.324	2818.34
548.688	2832.35
549.052	2810.21
549.416	2828.06
549.779	2821.73
550.143	2809.98
550.507	2807.5
550.871	2820.6
551.235	2798.01
551.599	2834.84
551.962	2804.33
552.326	2812.92
552.689	2812.47
553.053	2826.25
553.417	2776.31
553.78	2843.43
554.143	2794.16
554.507	2798.23
554.87	2786.48
555.234	2818.8
555.597	2776.09
555.96	2789.19
556.323	2825.35
556.686	2824.67
557.05	2809.08
557.413	2786.03
557.776	2823.54
558.139	2772.02
558.502	2805.01
558.865	2822.19
559.228	2780.15
559.59	2810.43
559.953	2767.72
560.316	2831.45
560.679	2804.56
561.041	2826.71
561.404	2847.72
561.767	2843.43
562.129	2826.03
562.492	2840.72
562.854	2839.59
563.217	2840.26
563.579	2873.48
563.941	2908.29
564.304	2825.8
564.666	2909.42
565.028	2884.33
565.39	2862.18
565.753	2879.13
566.115	2877.1
566.477	2868.06
566.839	2878.91
567.201	2898.79
567.563	2910.54
567.925	2908.51
568.287	2905.8
568.648	2935.86
569.01	2936.53
569.372	2929.53
569.734	2943.54
570.095	2969.98
570.457	2965.91
570.819	2957.78
571.18	2939.7
571.542	2959.58
571.903	2996.87
572.265	3011.79
572.626	3011.11
572.987	2974.27
573.349	3025.12
573.71	3045.23
574.071	3028.51
574.432	3007.72
574.794	3085.68
575.155	3095.85
575.516	3070.99
575.877	3084.33
576.238	3092.46
576.599	3108.05
576.96	3114.38
577.32	3096.08
577.681	3132.91
578.042	3108.05
578.403	3096.08
578.763	3136.3
579.124	3132.46
579.485	3141.5
579.845	3120.93
580.206	3126.81
580.566	3159.13
580.927	3153.7
581.287	3199.58
581.648	3222.18
582.008	3174.04
582.368	3163.87
582.728	3161.61
583.089	3175.85
583.449	3178.11
583.809	3183.53
584.169	3213.59
584.529	3190.31
584.889	3242.06
585.249	3201.16
585.609	3211.55
585.969	3228.73
586.329	3204.77
586.688	3211.78
587.048	3195.74
587.408	3185.11
587.768	3253.13
588.127	3252.46
588.487	3240.48
588.846	3268.28
589.206	3236.86
589.565	3228.95
589.925	3264.43
590.284	3221.05
590.643	3258.11
591.003	3281.61
591.362	3276.86
591.721	3254.72
592.08	3246.13
592.44	3208.84
592.799	3247.49
593.158	3286.35
593.517	3218.79
593.876	3257.88
594.235	3246.81
594.593	3225.34
594.952	3264.43
595.311	3204.1
595.67	3216.3
596.029	3248.39
596.387	3230.76
596.746	3238.45
597.104	3247.03
597.463	3262.4
597.822	3261.04
598.18	3243.64
598.538	3218.56
598.897	3260.37
599.255	3226.69
599.613	3277.77
599.972	3255.62
600.33	3242.51
600.688	3253.59
601.046	3265.34
601.404	3241.38
601.762	3262.63
602.12	3264.66
602.478	3299.01
602.836	3317.54
603.194	3248.84
603.552	3248.62
603.91	3273.25
604.268	3266.69
604.625	3251.33
604.983	3255.85
605.341	3261.27
605.698	3223.31
606.056	3244.32
606.413	3216.07
606.771	3301.27
607.128	3279.57
607.485	3268.5
607.843	3266.47
608.2	3276.19
608.557	3252
608.914	3256.52
609.272	3297.2
609.629	3265.34
609.986	3268.73
610.343	3266.02
610.7	3295.39
611.057	3250.42
611.414	3253.81
611.771	3274.83
612.127	3299.01
612.484	3318.22
612.841	3327.48
613.198	3306.01
613.554	3334.49
613.911	3294.49
614.267	3304.21
614.624	3325.68
614.98	3277.99
615.337	3364.32
615.693	3360.25
616.05	3299.01
616.406	3331.1
616.762	3328.16
617.118	3346.47
617.475	3348.27
617.831	3322.29
618.187	3356.18
618.543	3327.94
618.899	3369.97
619.255	3342.17
619.611	3355.05
619.967	3365
620.323	3359.12
620.678	3341.04
621.034	3308.95
621.39	3323.64
621.746	3318.22
622.101	3353.47
622.457	3350.08
622.812	3322.96
623.168	3355.73
623.523	3346.92
623.879	3397.54
624.234	3343.75
624.589	3382.85
624.945	3359.35
625.3	3390.98
625.655	3380.59
626.01	3354.15
626.365	3393.24
626.72	3372.68
627.075	3370.19
627.43	3348.95
627.785	3354.38
628.14	3382.62
628.495	3376.52
628.85	3374.26
629.205	3397.54
629.559	3394.37
629.914	3358.22
630.269	3397.99
630.623	3379.01
630.978	3384.66
631.332	3396.41
631.687	3406.8
632.041	3393.92
632.396	3363.19
632.75	3342.4
633.104	3378.56
633.459	3374.71
633.813	3379.01
634.167	3357.54
634.521	3357.31
634.875	3391.21
635.229	3405.45
635.583	3366.35
635.937	3403.41
636.291	3369.29
636.645	3377.43
636.999	3392.79
637.352	3363.19
637.706	3379.01
638.06	3407.71
638.413	3370.65
638.767	3393.92
639.121	3368.16
639.474	3347.37
639.828	3361.83
640.181	3389.85
640.534	3374.49
640.888	3355.28
641.241	3363.64
641.594	3363.87
641.947	3367.26
642.301	3385.33
642.654	3400.48
643.007	3380.14
643.36	3360.25
643.713	3369.74
644.066	3366.58
644.419	3399.35
644.771	3366.35
645.124	3348.27
645.477	3356.41
645.83	3305.56
646.182	3280.03
646.535	3312.34
646.888	3354.6
647.24	3311.21
647.593	3328.16
647.945	3329.52
648.298	3304.21
648.65	3322.51
649.002	3305.11
649.355	3321.61
649.707	3313.92
650.059	3354.83
650.411	3359.8
650.763	3375.39
651.115	3426.46
651.467	3410.87
651.819	3424.43
652.171	3454.49
652.523	3444.54
652.875	3430.53
653.227	3425.79
653.578	3471.21
653.93	3448.38
654.282	3423.3
654.633	3437.31
654.985	3436.18
655.337	3432.57
655.688	3462.17
656.039	3477.08
656.391	3443.64
656.742	3453.36
657.094	3468.5
657.445	3450.64
657.796	3493.58
658.147	3519.57
658.498	3517.08
658.849	3482.51
659.2	3519.34
659.551	3500.59
659.902	3485.9
660.253	3472.56
660.604	3487.03
660.955	3509.17
661.306	3535.61
661.656	3492
662.007	3537.65
662.358	3560.47
662.708	3553.24
663.059	3494.71
663.409	3510.76
663.76	3550.75
664.11	3547.59
664.461	3515.05
664.811	3525.22
665.161	3579.68
665.511	3522.96
665.862	3569.51
666.212	3486.35
666.562	3524.54
666.912	3514.6
667.262	3533.13
667.612	3541.26
667.962	3545.33
668.312	3525.22
668.662	3572.9
669.011	3559.34
669.361	3529.74
669.711	3543.3
670.06	3558.21
670.41	3531.32
670.76	3495.39
671.109	3510.3
671.459	3500.59
671.808	3461.04
672.157	3536.74
672.507	3464.43
672.856	3531.55
673.205	3501.49
673.554	3520.25
673.904	3499.68
674.253	3467.59
674.602	3514.6
674.951	3431.44
675.3	3423.07
675.649	3451.55
675.998	3474.82
676.346	3499
676.695	3457.42
677.044	3466.91
677.393	3426.46
677.741	3463.07
678.09	3445.9
678.438	3416.75
678.787	3395.05
679.135	3426.24
679.484	3388.72
679.832	3352.79
680.181	3388.27
680.529	3372.91
680.877	3414.03
681.225	3350.99
681.573	3358.22
681.922	3328.61
682.27	3352.34
682.618	3346.24
682.966	3332.91
683.314	3315.73
683.661	3344.43
684.009	3283.42
684.357	3310.99
684.705	3299.46
685.053	3307.6
685.4	3294.94
685.748	3263.3
686.095	3257.43
686.443	3235.73
686.79	3231.21
687.138	3236.41
687.485	3224.43
687.832	3225.11
688.18	3219.69
688.527	3155.74
688.874	3185.57
689.221	3182.4
689.568	3155.96
689.915	3160.03
690.262	3149.41
690.609	3126.36
690.956	3126.58
691.303	3133.82
691.65	3096.53
691.997	3084.33
692.344	3068.05
692.69	3043.2
693.037	3044.55
693.383	3031.67
693.73	3023.99
694.077	3051.56
694.423	3051.11
694.769	3008.85
695.116	3018.56
695.462	3041.39
695.808	3020.82
696.155	3033.03
696.501	2976.31
696.847	3011.56
697.193	2974.05
697.539	2996.64
697.885	2915.06
698.231	2951
698.577	2940.37
698.923	2972.24
699.269	2908.29
699.614	2925.69
699.96	2910.77
700.306	2892.01
700.651	2894.27
700.997	2873.26
701.342	2877.33
701.688	2891.34
702.033	2899.25
702.379	2853.37
702.724	2865.35
703.069	2887.72
703.415	2845.24
703.76	2874.39
704.105	2820.15
704.45	2831.68
704.795	2787.38
705.14	2832.81
705.485	2792.81
705.83	2828.29
706.175	2804.11
706.52	2790.55
706.865	2812.69
707.209	2795.07
707.554	2815.63
707.899	2764.56
708.243	2754.39
708.588	2801.17
708.932	2801.85
709.277	2766.14
709.621	2762.53
709.966	2751
710.31	2761.17
710.654	2775.18
710.998	2802.07
711.342	2803.88
711.687	2787.38
712.031	2779.47
712.375	2729.53
712.719	2769.98
713.063	2768.18
713.407	2771.57
713.75	2777.44
714.094	2798.01
714.438	2733.6
714.782	2783.99
715.125	2751.23
715.469	2764.79
715.812	2775.41
716.156	2798.91
716.499	2791.45
716.843	2816.99
717.186	2790.55
717.53	2823.54
717.873	2798.01
718.216	2850.43
718.559	2788.51
718.902	2814.05
719.246	2789.42
719.589	2791.23
719.932	2797.33
720.275	2806.82
720.617	2821.96
720.96	2831.45
721.303	2866.03
721.646	2845.46
721.989	2851.34
722.331	2856.08
722.674	2860.6
723.016	2872.58
723.359	2884.33
723.701	2875.97
724.044	2901.96
724.386	2887.49
724.729	2912.58
725.071	2937.66
725.413	2939.02
725.755	2921.62
726.097	2931.56
726.439	2894.95
726.782	2922.75
727.124	2934.95
727.465	2975.18
727.807	2980.83
728.149	3010.43
728.491	2984.44
728.833	2994.61
729.175	2995.51
729.516	3037.55
729.858	3043.87
730.199	3046.36
730.541	3089.07
730.882	3102.86
731.224	3123.87
731.565	3076.42
731.906	3124.78
732.248	3119.8
732.589	3099.01
732.93	3113.03
733.271	3115.74
733.612	3181.5
733.953	3213.14
734.294	3182.4
734.635	3165.23
734.976	3214.04
735.317	3228.05
735.658	3233.7
735.999	3256.52
736.339	3270.54
736.68	3310.99
737.021	3342.4
737.361	3352.12
737.702	3367.26
738.042	3368.39
738.383	3367.71
738.723	3446.8
739.063	3442.51
739.404	3465.33
739.744	3503.98
740.084	3491.77
740.424	3556.86
740.764	3558.21
741.104	3574.26
741.444	3594.59
741.784	3576.97
742.124	3668.04
742.464	3692.45
742.804	3758.88
743.143	3740.58
743.483	3825.32
743.823	3809.05
744.162	3890.86
744.502	3883.63
744.841	3925.89
745.181	4003.17
745.52	4009.5
745.86	4120.68
746.199	4150.74
746.538	4143.51
746.877	4174.69
747.216	4222.83
747.556	4260.11
747.895	4337.63
748.234	4361.35
748.573	4432.54
748.911	4475.02
749.25	4493.55
749.589	4623.27
749.928	4630.5
750.267	4730.38
750.605	4746.65
750.944	4796.15
751.283	4901.45
751.621	4935.58
751.96	5019.42
752.298	5086.53
752.636	5124.95
752.975	5207.66
753.313	5297.83
753.651	5377.6
753.989	5424.6
754.327	5469.8
754.666	5546.18
755.004	5600.19
755.342	5633.41
755.679	5733.75
756.017	5833.18
756.355	5909.34
756.693	5998.15
757.031	6053.97
757.368	6073.4
757.706	6237.46
758.044	6227.52
758.381	6408.98
758.719	6430.23
759.056	6482.43
759.394	6589.54
759.731	6623.67
760.068	6683.55
760.405	6812.59
760.743	6868.18
761.08	6961.96
761.417	6950.21
761.754	7113.15
762.091	7169.87
762.428	7188.62
762.765	7253.48
763.102	7388.62
763.438	7345.46
763.775	7422.29
764.112	7464.55
764.449	7591.33
764.785	7626.35
765.122	7601.27
765.458	7695.05
765.795	7773.47
766.131	7834.03
766.467	7889.85
766.804	7931.66
767.14	7959.45
767.476	7997.87
767.812	8062.73
768.148	8153.8
768.485	8141.14
768.821	8207.35
769.157	8206.68
769.492	8266.34
769.828	8281.48
770.164	8303.17
770.5	8348.14
770.836	8396.5
771.171	8425.65
771.507	8413.68
771.842	8411.42
772.178	8520.11
772.513	8496.16
772.849	8507.01
773.184	8549.04
773.519	8586.78
773.855	8593.11
774.19	8577.74
774.525	8653.44
774.86	8605.76
775.195	8694.8
775.53	8692.54
775.865	8732.76
776.2	8675.82
776.535	8626.55
776.87	8754.91
777.205	8770.73
777.539	8763.72
777.874	8843.5
778.209	8791.29
778.543	8804.18
778.878	8765.76
779.212	8822.25
779.547	8817.73
779.881	8828.81
780.215	8818.86
780.55	8835.81
780.884	8824.29
781.218	8786.77
781.552	8879.43
781.886	8853.21
782.22	8790.16
782.554	8870.61
782.888	8818.41
783.222	8759.43
783.556	8828.58
783.889	8846.66
784.223	8688.47
784.557	8788.36
784.89	8838.3
785.224	8799.2
785.557	8820.22
785.891	8825.19
786.224	8809.6
786.558	8844.63
786.891	8797.4
787.224	8750.17
787.557	8689.15
787.891	8740.45
788.224	8756.27
788.557	8791.52
788.89	8692.77
789.223	8761.24
789.556	8699.55
789.888	8740.67
790.221	8711.97
790.554	8642.37
790.887	8680.79
791.219	8726.21
791.552	8706.55
791.884	8671.75
792.217	8631.3
792.549	8693.44
792.882	8653.9
793.214	8613.45
793.546	8630.17
793.879	8592.2
794.211	8625.87
794.543	8646.67
794.875	8609.38
795.207	8643.73
795.539	8584.29
795.871	8541.81
796.203	8484.86
796.535	8504.07
796.867	8466.78
797.198	8473.34
797.53	8507.69
797.862	8418.42
798.193	8464.98
798.525	8454.13
798.856	8490.51
799.188	8401.47
799.519	8377.97
799.85	8388.82
800.182	8384.98
800.513	8392.21
800.844	8349.05
801.175	8423.39
801.506	8380.46
801.837	8323.06
802.168	8309.73
802.499	8301.82
802.83	8283.06
803.161	8223.63
803.491	8274.25
803.822	8294.58
804.153	8287.13
804.483	8119.22
804.814	8147.47
805.145	8151.54
805.475	8176.62
805.805	8143.18
806.136	8180.24
806.466	8197.86
806.796	8189.73
807.126	8153.34
807.457	8107.47
807.787	8121.93
808.117	8065.66
808.447	8076.51
808.777	8099.11
809.107	8010.75
809.436	8036.51
809.766	8141.14
810.096	8074.93
810.426	8044.2
810.755	7982.95
811.085	8041.94
811.414	8055.49
811.744	8001.94
812.073	7933.92
812.403	7954.93
812.732	7980.69
813.061	7909.51
813.39	7844.88
813.719	7900.24
814.049	7925.55
814.378	7946.12
814.707	7859.12
815.036	7874.03
815.365	7817.53
815.693	7772.11
816.022	7814.6
816.351	7785.67
816.68	7740.47
817.008	7748.84
817.337	7718.1
817.665	7702.74
817.994	7715.84
818.322	7680.14
818.651	7715.39
818.979	7672
819.307	7770.08
819.636	7641.04
819.964	7648.5
820.292	7688.72
820.62	7635.62
820.948	7655.73
821.276	7657.31
821.604	7639.01
821.932	7628.16
822.259	7734.37
822.587	7667.71
822.915	7673.58
823.243	7657.76
823.57	7665.9
823.898	7706.8
824.225	7692.57
824.553	7661.38
824.88	7709.29
825.207	7776.41
825.535	7704.54
825.862	7699.57
826.189	7691.44
826.516	7791.77
826.843	7744.99
827.17	7766.91
827.497	7716.75
827.824	7781.38
828.151	7872.67
828.478	7787.48
828.805	7756.75
829.131	7762.85
829.458	7798.33
829.785	7714.71
830.111	7731.89
830.438	7782.06
830.764	7782.28
831.09	7784.32
831.417	7722.17
831.743	7784.09
832.069	7817.31
832.395	7740.02
832.722	7834.03
833.048	7736.41
833.374	7820.25
833.7	7714.03
834.026	7731.89
834.351	7774.15
834.677	7707.71
835.003	7742.28
835.329	7728.95
835.654	7777.08
835.98	7772.56
836.306	7741.15
836.631	7667.48
836.956	7727.59
837.282	7753.13
837.607	7693.24
837.932	7604.88
838.258	7705
838.583	7714.26
838.908	7681.49
839.233	7666.13
839.558	7657.76
839.883	7599.46
840.208	7624.55
840.533	7620.25
840.858	7624.32
841.182	7644.43
841.507	7606.01
841.832	7576.64
842.156	7461.39
842.481	7526.92
842.805	7464.32
843.13	7464.55
843.454	7481.27
843.778	7400.14
844.103	7399.24
844.427	7418.22
844.751	7453.25
845.075	7419.13
845.399	7434.95
845.723	7349.07
846.047	7415.06
846.371	7352.91
846.695	7312.69
847.019	7260.94
847.343	7226.36
847.666	7168.96
847.99	7192.92
848.313	7194.27
848.637	7116.76
848.96	7078.34
849.284	7092.13
849.607	7067.27
849.931	7006.48
850.254	7047.39
850.577	6965.58
850.9	6895.98
851.223	6942.76
851.546	6856.88
851.869	6849.65
852.192	6861.18
852.515	6799.26
852.838	6753.38
853.161	6764.91
853.483	6737.56
853.806	6776.43
854.129	6737.79
854.451	6712.03
854.774	6677.23
855.096	6640.84
855.419	6625.25
855.741	6668.86
856.063	6646.72
856.385	6670.45
856.708	6509.32
857.03	6501.41
857.352	6602.2
857.674	6508.64
857.996	6517.46
858.318	6469.1
858.64	6485.82
858.961	6431.58
859.283	6433.84
859.605	6377.8
859.926	6375.76
860.248	6388.42
860.57	6345.26
860.891	6347.74
861.212	6333.28
861.534	6266.16
861.855	6343.45
862.176	6382.32
862.498	6239.27
862.819	6256.22
863.14	6293.51
863.461	6256.45
863.782	6240.63
864.103	6263
864.424	6259.61
864.745	6230.01
865.065	6225.49
865.386	6182.1
865.707	6171.7
866.027	6185.49
866.348	6192.27
866.668	6157.92
866.989	6152.27
867.309	6108.43
867.63	6140.29
867.95	6175.54
868.27	6136.67
868.59	6139.39
868.91	6099.39
869.23	6115.66
869.55	6044.7
869.87	6078.82
870.19	6058.26
870.51	6021.42
870.83	6012.61
871.15	5980.97
871.469	6029.11
871.789	6008.99
872.109	6030.46
872.428	5931.26
872.748	5982.55
873.067	5992.72
873.386	6036.56
873.706	5979.62
874.025	5924.03
874.344	5950.69
874.663	5994.76
874.982	5943.91
875.301	5927.19
875.62	5936.91
875.939	5878.38
876.258	5896
876.577	5894.2
876.896	5902.33
877.214	5874.53
877.533	5879.28
877.852	5853.52
878.17	5858.72
878.489	5814.88
878.807	5799.51
879.125	5845.83
879.444	5824.14
879.762	5787.53
880.08	5806.97
880.398	5757.48
880.716	5789.79
881.034	5757.93
881.352	5792.28
881.67	5689.91
881.988	5717.25
882.306	5716.8
882.624	5696.91
882.941	5705.95
883.259	5689.68
883.577	5670.47
883.894	5627.31
884.212	5619.85
884.529	5602.45
884.846	5620.08
885.164	5565.84
885.481	5561.1
885.798	5656.91
886.115	5543.02
886.432	5552.96
886.75	5491.04
887.067	5535.56
887.383	5510.48
887.7	5505.73
888.017	5515.9
888.334	5497.6
888.651	5470.93
888.967	5451.04
889.284	5454.66
889.6	5451.72
889.917	5370.59
890.233	5403.13
890.55	5379.41
890.866	5404.49
891.182	5322.91
891.498	5350.03
891.815	5253.99
892.131	5297.15
892.447	5298.5
892.763	5246.98
893.079	5231.16
893.395	5272.06
893.71	5175.8
894.026	5207.66
894.342	5178.51
894.657	5225.74
894.973	5195.46
895.289	5130.83
895.604	5140.99
895.92	5131.73
896.235	5071.39
896.55	5070.26
896.865	5101.22
897.181	5020.77
897.496	5042.01
897.811	4981
898.126	5044.5
898.441	5038.85
898.756	4934.45
899.071	4991.39
899.386	4960.21
899.7	4872.3
900.015	4863.94
900.33	4854.22
900.644	4862.81
900.959	4851.28
901.273	4785.3
901.588	4777.84
901.902	4765.41
902.216	4798.63
902.531	4775.58
902.845	4712.53
903.159	4737.62
903.473	4719.99
903.787	4687
904.101	4670.05
904.415	4679.31
904.729	4681.8
905.042	4630.5
905.356	4577.85
905.67	4563.38
905.984	4580.33
906.297	4576.04
906.611	4539.65
906.924	4561.12
907.237	4474.57
907.551	4469.37
907.864	4488.81
908.177	4411.3
908.491	4467.11
908.804	4417.85
909.117	4395.93
909.43	4386.21
909.743	4341.47
910.056	4347.8
910.368	4330.17
910.681	4273.45
910.994	4328.13
911.307	4259.21
911.619	4238.65
911.932	4255.37
912.244	4260.79
912.557	4224.41
912.869	4180.12
913.181	4164.75
913.494	4191.64
913.806	4124.3
914.118	4108.03
914.43	4098.08
914.742	4082.04
915.054	4094.69
915.366	4074.36
915.678	4071.19
915.99	4044.98
916.302	4014.7
916.613	4040.46
916.925	4001.82
917.236	3984.87
917.548	3986
917.859	3995.04
918.171	3903.97
918.482	3920.69
918.794	3939.22
919.105	3901.93
919.416	3853.12
919.727	3873.46
920.038	3838.66
920.349	3859.45
920.66	3793.01
920.971	3784.42
921.282	3786.45
921.593	3749.62
921.903	3703.52
922.214	3727.92
922.525	3707.36
922.835	3692.45
923.146	3691.54
923.456	3696.96
923.767	3675.5
924.077	3663.07
924.387	3594.14
924.697	3600.7
925.008	3583.52
925.318	3615.84
925.628	3599.11
925.938	3549.85
926.248	3566.57
926.558	3503.75
926.867	3506.24
927.177	3541.49
927.487	3476.86
927.796	3486.8
928.106	3466.24
928.416	3465.11
928.725	3452.45
929.034	3427.37
929.344	3424.66
929.653	3402.51
929.962	3386.24
930.271	3386.46
930.581	3372.23
930.89	3357.09
931.199	3391.66
931.508	3307.14
931.817	3320.93
932.125	3340.82
932.434	3322.06
932.743	3306.69
933.051	3245.45
933.36	3259.01
933.669	3261.04
933.977	3233.93
934.286	3199.58
934.594	3198.9
934.902	3183.31
935.21	3134.27
935.519	3169.07
935.827	3144.66
936.135	3138.11
936.443	3077.55
936.751	3092.24
937.059	3094.27
937.367	3099.92
937.674	3083.42
937.982	3059.92
938.29	3044.78
938.597	3033.03
938.905	3020.15
939.213	2976.53
939.52	2974.05
939.827	2974.72
940.135	2966.36
940.442	2944.89
940.749	2969.98
941.056	2926.59
941.363	2932.47
941.67	2913.26
941.977	2866.93
942.284	2888.85
942.591	2842.52
942.898	2872.35
943.205	2868.29
943.511	2858.12
943.818	2867.16
944.125	2774.73
944.431	2773.83
944.738	2811.56
945.044	2820.15
945.35	2743.54
945.657	2760.94
945.963	2773.6
946.269	2717.78
946.575	2702.41
946.881	2705.58
947.187	2690.21
947.493	2660.83
947.799	2706.26
948.105	2659.03
948.41	2655.41
948.716	2643.89
949.022	2647.73
949.327	2641.4
949.633	2619.93
949.938	2615.64
950.244	2594.4
950.549	2603.89
950.854	2563.44
951.16	2597.11
951.465	2565.24
951.77	2527.96
952.075	2494.74
952.38	2542.65
952.685	2547.16
952.99	2536.32
953.294	2509.88
953.599	2478.24
953.904	2506.49
954.209	2468.07
954.513	2455.19
954.818	2446.83
955.122	2464.45
955.426	2417.9
955.731	2430.56
956.035	2411.12
956.339	2406.6
956.643	2384.46
956.948	2391.69
957.252	2348.07
957.556	2362.08
957.86	2348.75
958.163	2338.13
958.467	2359.82
958.771	2310.11
959.075	2334.29
959.378	2328.19
959.682	2318.47
959.985	2294.74
960.289	2274.86
960.592	2279.6
960.896	2272.14
961.199	2298.13
961.502	2238.02
961.805	2236.66
962.108	2240.51
962.411	2232.14
962.714	2192.82
963.017	2214.97
963.32	2164.35
963.623	2186.5
963.926	2154.18
964.228	2195.31
964.531	2162.09
964.833	2170.68
965.136	2148.98
965.438	2118.93
965.741	2119.38
966.043	2115.99
966.345	2122.54
966.648	2119.38
966.95	2119.61
967.252	2064.92
967.554	2094.75
967.856	2081.41
968.158	2040.06
968.46	2053.84
968.761	2019.04
969.063	2045.93
969.365	2006.16
969.666	1975.65
969.968	2006.16
970.269	1992.15
970.571	1987.41
970.872	1986.05
971.174	1960.51
971.475	1968.87
971.776	1949.44
972.077	1970.23
972.378	1967.97
972.679	1924.36
972.98	1921.19
973.281	1935.2
973.582	1929.78
973.883	1922.77
974.183	1888.42
974.484	1864.92
974.785	1917.12
975.085	1864.02
975.386	1866.5
975.686	1857.01
975.986	1836
976.287	1843.91
976.587	1835.77
976.887	1807.3
977.187	1836.22
977.487	1814.3
977.787	1796
978.087	1813.62
978.387	1804.59
978.687	1765.94
978.987	1768.88
979.286	1774.53
979.586	1771.82
979.885	1760.07
980.185	1768.88
980.484	1721.65
980.784	1737.02
981.083	1724.81
981.382	1722.1
981.682	1689.33
981.981	1683.68
982.28	1718.26
982.579	1694.31
982.878	1684.81
983.177	1676.23
983.475	1678.26
983.774	1667.19
984.073	1655.21
984.372	1669
984.67	1640.52
984.969	1642.56
985.267	1659.28
985.566	1641.88
985.864	1621.31
986.162	1631.03
986.461	1628.54
986.759	1617.7
987.057	1593.52
987.355	1581.77
987.653	1581.09
987.951	1568.66
988.249	1550.35
988.547	1556.91
988.844	1579.28
989.142	1536.57
989.44	1540.86
989.737	1538.83
990.035	1492.5
990.332	1521.65
990.63	1538.6
990.927	1503.35
991.224	1517.59
991.521	1490.02
991.819	1494.31
992.116	1487.76
992.413	1497.7
992.71	1466.74
993.006	1478.04
993.303	1446.63
993.6	1449.34
993.897	1455.44
994.193	1438.49
994.49	1437.14
994.787	1421.54
995.083	1410.25
995.379	1403.01
995.676	1417.48
995.972	1386.74
996.268	1404.82
996.565	1395.78
996.861	1363.24
997.157	1379.51
997.453	1381.09
997.749	1349.46
998.044	1361.43
998.34	1347.2
998.636	1358.5
998.932	1318.72
999.227	1335.9
999.523	1299.97
999.818	1314.65
1000.114	1302.68
1000.409	1302.45
1000.704	1325.95
1001	1306.07
1001.295	1288.44
1001.59	1297.71
1001.885	1283.24
1002.18	1265.39
1002.475	1254.54
1002.77	1265.84
1003.065	1265.84
1003.359	1257.71
1003.654	1224.71
1003.949	1241.66
1004.243	1219.52
1004.538	1201.66
1004.832	1220.19
1005.127	1204.83
1005.421	1185.17
1005.715	1210.7
1006.009	1199.18
1006.304	1195.34
1006.598	1200.53
1006.892	1150.82
1007.186	1170.93
1007.48	1146.3
1007.773	1171.83
1008.067	1165.73
1008.361	1148.56
1008.655	1113.53
1008.948	1122.34
1009.242	1134.09
1009.535	1122.57
1009.829	1115.79
1010.122	1142.91
1010.415	1102
1010.708	1088.9
1011.001	1085.96
1011.295	1088.9
1011.588	1080.31
1011.881	1052.29
1012.173	1093.64
1012.466	1057.71
1012.759	1052.29
1013.052	1032.4
1013.344	1013.65
1013.637	1029.92
1013.93	1036.24
1014.222	1021.56
1014.514	1013.42
1014.807	1036.24
1015.099	996.02
1015.391	1017.26
1015.683	1003.7
1015.976	1011.84
1016.268	958.73
1016.56	981.78
1016.851	986.75
1017.143	979.97
1017.435	971.16
1017.727	967.09
1018.018	967.55
1018.31	946.98
1018.602	914.89
1018.893	953.99
1019.185	963.03
1019.476	948.79
1019.767	922.57
1020.058	923.93
1020.35	898.17
1020.641	904.04
1020.932	907.21
1021.223	908.34
1021.514	900.88
1021.804	877.38
1022.095	867.21
1022.386	885.74
1022.677	871.5
1022.967	880.09
1023.258	888.68
1023.548	864.05
1023.839	868.79
1024.129	836.7
1024.419	857.49
1024.709	863.37
1025	835.35
1025.29	850.94
1025.58	827.66
1025.87	839.19
1026.16	836.25
1026.449	811.39
1026.739	828.34
1027.029	822.46
1027.319	818.4
1027.608	793.31
1027.898	803.03
1028.187	807.55
1028.477	787.66
1028.766	798.28
1029.055	768.68
1029.344	752.18
1029.634	770.26
1029.923	751.28
1030.212	775.46
1030.501	756.93
1030.79	757.61
1031.078	749.7
1031.367	758.29
1031.656	753.09
1031.945	739.75
1032.233	748.12
1032.522	744.5
1032.81	753.77
1033.099	735.23
1033.387	718.74
1033.675	680.32
1033.963	708.79
1034.251	709.92
1034.54	705.41
1034.828	716.03
1035.116	678.06
1035.403	704.95
1035.691	699.3
1035.979	687.33
1036.267	709.7
1036.554	687.1
1036.842	683.48
1037.129	670.6
1037.417	652.98
1037.704	662.92
1037.992	664.28
1038.279	675.12
1038.566	646.42
1038.853	646.42
1039.14	646.42
