Data from blue_shiny_book_FLMS001491_00083.txt Node
Date: Wed Feb 08 15:27:39 GMT 2017
User: dcchb
Spectrometer: FLMS00149
Trigger mode: 0
Integration Time (sec): 2.000000E-2
Scans to average: 10
Electric dark correction enabled: true
Nonlinearity correction enabled: false
Boxcar width: 0
XAxis mode: Wavelengths
Number of Pixels in Spectrum: 2048
>>>>>Begin Spectral Data<<<<<
341.393	-20.97
341.776	-20.97
342.16	-20.97
342.543	-63.68
342.927	-72.05
343.31	-78.15
343.693	-62.1
344.077	-53.74
344.46	-73.63
344.843	-73.85
345.226	-59.84
345.61	-29.79
345.993	-25.27
346.376	6.82
346.759	25.35
347.142	36.43
347.525	32.36
347.908	52.47
348.291	78.01
348.674	99.47
349.057	125.46
349.44	133.6
349.823	144.22
350.206	170.66
350.588	202.3
350.971	208.4
351.354	223.77
351.737	245.23
352.119	259.92
352.502	278.45
352.884	299.02
353.267	292.69
353.65	296.98
354.032	324.33
354.414	317.77
354.797	325.91
355.179	337.89
355.562	326.81
355.944	341.28
356.326	345.57
356.709	350.09
357.091	360.71
357.473	354.38
357.855	347.83
358.238	335.17
358.62	343.76
359.002	359.13
359.384	351.9
359.766	360.71
360.148	359.13
360.53	348.73
360.912	355.06
361.294	352.8
361.676	358.45
362.057	346.02
362.439	332.01
362.821	350.77
363.203	348.28
363.584	337.43
363.966	349.64
364.348	319.81
364.729	345.12
365.111	330.43
365.493	338.79
365.874	336.76
366.256	325.23
366.637	321.39
367.019	321.84
367.4	348.28
367.781	327.94
368.163	358.9
368.544	347.83
368.925	351.9
369.306	349.41
369.688	350.09
370.069	347.15
370.45	350.99
370.831	346.47
371.212	371.78
371.593	322.97
371.974	336.53
372.355	351.22
372.736	353.25
373.117	336.98
373.498	349.41
373.879	353.25
374.26	339.47
374.641	357.1
375.021	329.07
375.402	364.55
375.783	377.21
376.163	380.6
376.544	381.73
376.925	374.04
377.305	384.89
377.686	385.34
378.066	387.15
378.447	397.32
378.827	388.73
379.208	372.24
379.588	380.6
379.968	388.05
380.349	386.25
380.729	381.05
381.109	405.68
381.489	362.74
381.87	393.48
382.25	393.93
382.63	400.03
383.01	401.16
383.39	406.81
383.77	408.17
384.15	404.55
384.53	436.87
384.91	425.12
385.29	420.14
385.67	414.49
386.049	454.49
386.429	419.24
386.809	456.08
387.189	432.12
387.568	448.62
387.948	449.52
388.328	458.34
388.707	451.33
389.087	451.78
389.466	472.57
389.846	482.52
390.225	475.96
390.605	460.37
390.984	461.5
391.363	474.83
391.743	477.77
392.122	492.91
392.501	504.89
392.881	506.24
393.26	521.16
393.639	515.28
394.018	519.35
394.397	515.96
394.776	528.16
395.155	522.74
395.534	526.13
395.913	532.68
396.292	564.55
396.671	557.99
397.05	564.32
397.429	553.47
397.808	550.08
398.186	542.63
398.565	564.1
398.944	577.88
399.323	579.91
399.701	609.74
400.08	614.26
400.458	625.11
400.837	594.83
401.215	587.37
401.594	634.15
401.972	607.71
402.351	625.79
402.729	627.82
403.107	659.01
403.486	621.95
403.864	655.84
404.242	669.63
404.62	682.51
404.999	676.18
405.377	691.78
405.755	694.26
406.133	710.08
406.511	719.35
406.889	734.94
407.267	741.72
407.645	735.84
408.023	768.16
408.401	753.92
408.779	777.65
409.156	814.26
409.534	785.11
409.912	805.67
410.29	828.5
410.667	823.3
411.045	844.09
411.422	840.7
411.8	855.61
412.178	892.45
412.555	903.07
412.933	898.78
413.31	919.11
413.687	941.26
414.065	949.4
414.442	936.29
414.819	965.67
415.197	970.19
415.574	989.62
415.951	1014.7
416.328	1008.38
416.705	1021.26
417.082	1009.28
417.46	1051.09
417.837	1047.92
418.214	1067.81
418.591	1079.34
418.967	1078.43
419.344	1099
419.721	1077.75
420.098	1119.11
420.475	1127.02
420.852	1146
421.228	1132.22
421.605	1163.18
421.982	1203.63
422.358	1191.65
422.735	1231.42
423.111	1218.32
423.488	1261.7
423.864	1245.43
424.241	1266
424.617	1294.02
424.994	1310.06
425.37	1308.26
425.746	1328.37
426.123	1357.07
426.499	1364.53
426.875	1359.55
427.251	1413.34
427.627	1425.32
428.003	1465.31
428.379	1450.63
428.756	1476.84
429.132	1490.4
429.507	1539.21
429.883	1539.66
430.259	1558.42
430.635	1561.58
431.011	1615.14
431.387	1604.97
431.763	1698.75
432.138	1689.72
432.514	1708.47
432.89	1730.17
433.265	1767.91
433.641	1802.03
434.016	1814.01
434.392	1833.44
434.767	1859.43
435.143	1861.46
435.518	1881.57
435.894	1910.95
436.269	1976.71
436.644	2011.29
437.02	2017.84
437.395	2043.83
437.77	2048.58
438.145	2110.95
438.52	2103.94
438.895	2138.29
439.271	2124.51
439.646	2165.18
440.021	2220.1
440.395	2266.42
440.77	2208.57
441.145	2266.65
441.52	2301.22
441.895	2322.02
442.27	2333.09
442.645	2331.05
443.019	2378.51
443.394	2364.05
443.769	2377.83
444.143	2373.54
444.518	2444.05
444.892	2425.97
445.267	2468.68
445.641	2503.48
446.016	2532.41
446.39	2562.46
446.764	2571.5
447.139	2592.06
447.513	2618.96
447.887	2630.93
448.262	2627.09
448.636	2637.94
449.01	2688.56
449.384	2707.54
449.758	2720.2
450.132	2774.43
450.506	2792.51
450.88	2824.6
451.254	2812.85
451.628	2882.68
452.002	2896.24
452.376	2952.06
452.75	2987.76
453.123	3003.35
453.497	3066.63
453.871	3102.33
454.244	3112.73
454.618	3156.12
454.992	3185.95
455.365	3187.53
455.739	3299.16
456.112	3307.53
456.486	3353.63
456.859	3408.54
457.232	3508.65
457.606	3473.62
457.979	3528.31
458.352	3618.7
458.725	3631.36
459.099	3648.99
459.472	3754.29
459.845	3762.2
460.218	3843.56
460.591	3846.95
460.964	3888.3
461.337	3997.45
461.71	4037.45
462.083	4109.31
462.456	4159.71
462.829	4200.38
463.201	4245.13
463.574	4268.86
463.947	4366.03
464.32	4403.77
464.692	4490.77
465.065	4536.65
465.438	4570.54
465.81	4611.9
466.183	4675.85
466.555	4796.75
466.928	4810.99
467.3	4856.19
467.672	4938.9
468.045	5081.04
468.417	5139.34
468.789	5130.53
469.161	5221.83
469.534	5296.17
469.906	5400.58
470.278	5429.73
470.65	5504.76
471.022	5644.19
471.394	5723.28
471.766	5739.1
472.138	5878.76
472.51	5942.71
472.882	6074.68
473.253	6107.45
473.625	6249.6
473.997	6339.54
474.369	6445.75
474.74	6466.31
475.112	6656.14
475.484	6746.31
475.855	6840.99
476.227	6855.46
476.598	7046.64
476.97	7110.59
477.341	7310.58
477.713	7435.55
478.084	7450.24
478.455	7696.34
478.827	7804.13
479.198	8039.83
479.569	8025.59
479.94	8297.23
480.311	8390.56
480.682	8549.87
481.053	8729.76
481.424	8814.05
481.795	8953.25
482.166	9163.42
482.537	9107.6
482.908	9430.3
483.279	9509.85
483.65	9676.4
484.021	9918.2
484.391	10045.2
484.762	10126.33
485.133	10237.51
485.503	10452.87
485.874	10673.21
486.244	10796.59
486.615	10920.89
486.985	11079.53
487.356	11347.99
487.726	11308.22
488.097	11601.32
488.467	11714.76
488.837	11944.81
489.207	12085.37
489.578	12289.66
489.948	12360.85
490.318	12566.94
490.688	12642.87
491.058	12845.35
491.428	13134.16
491.798	13201.96
492.168	13526.47
492.538	13516.98
492.908	13784.09
493.278	13893.01
493.648	13892.78
494.017	14104.76
494.387	14313.56
494.757	14356.73
495.126	14547.68
495.496	14650.73
495.866	14763.72
496.235	14964.62
496.605	15119.19
496.974	15260.21
497.344	15414.55
497.713	15414.1
498.082	15649.8
498.452	15774.54
498.821	15886.18
499.19	15919.85
499.559	16136.34
499.928	16228.09
500.298	16345.15
500.667	16456.78
501.036	16448.2
501.405	16662.43
501.774	16697
502.143	16916.66
502.512	17063.55
502.88	17253.37
503.249	17187.16
503.618	17398.23
503.987	17567.94
504.356	17609.07
504.724	17746.92
505.093	17906.46
505.462	17915.96
505.83	18038.89
506.199	18217.19
506.567	18433.46
506.936	18330.86
507.304	18575.83
507.672	18685.2
508.041	18780.11
508.409	18925.87
508.777	19114.79
509.145	19193.44
509.514	19359.76
509.882	19479.3
510.25	19604.05
510.618	19793.42
510.986	19842.01
511.354	20124.26
511.722	20140.08
512.09	20393.86
512.458	20460.97
512.826	20620.52
513.193	20709.78
513.561	20706.62
513.929	20909.1
514.297	21149.77
514.664	21155.42
515.032	21191.58
515.4	21556.09
515.767	21601.51
516.135	21694.16
516.502	21628.4
516.869	22188.39
517.237	22271.55
517.604	22217.54
517.972	22589.28
518.339	22759.22
518.706	22707.24
519.073	22961.7
519.44	23041.47
519.808	23309.94
520.175	23277.85
520.542	23538.18
520.909	23578.86
521.276	23729.81
521.643	23806.87
522.009	24039.64
522.376	24249.35
522.743	24409.57
523.11	24711.03
523.477	24913.96
523.843	24996.22
524.21	25365.48
524.577	25611.35
524.943	25723.66
525.31	25955.52
525.676	26304.89
526.043	26240.03
526.409	26532.45
526.776	26826.91
527.142	26854.25
527.508	26833.24
527.874	27135.15
528.241	27114.81
528.607	27200.91
528.973	27550.28
529.339	27510.51
529.705	27674.79
530.071	28033.66
530.437	28264.16
530.803	28515.45
531.169	28621.66
531.535	28725.61
531.901	28927.87
532.267	29047.19
532.632	29261.87
532.998	29390.46
533.364	29688.3
533.73	29720.84
534.095	29916.09
534.461	30017.33
534.826	29965.13
535.192	30062.3
535.557	30259.59
535.923	30302.3
536.288	30304.33
536.653	30535.28
537.019	30461.61
537.384	30608.96
537.749	30811.44
538.114	30977.31
538.479	30890.98
538.845	31263.63
539.21	31349.5
539.575	31455.26
539.94	31658.42
540.305	31908.81
540.67	31775.93
541.034	31946.77
541.399	32194.45
541.764	32143.83
542.129	32016.15
542.494	32279.19
542.858	32358.97
543.223	32390.15
543.587	32485.74
543.952	32422.47
544.316	32519.41
544.681	32550.37
545.045	32709.69
545.41	32857.26
545.774	32982.9
546.138	32881.66
546.503	33109
546.867	33205.5
547.231	33609.55
547.595	33631.25
547.959	33767.74
548.324	33831.02
548.688	33878.93
549.052	34128.18
549.416	34076.21
549.779	34146.72
550.143	34170.44
550.507	34307.84
550.871	34357.78
551.235	34203.89
551.599	34440.49
551.962	34417.22
552.326	34442.3
552.689	34589.64
553.053	34558.68
553.417	34732.69
553.78	35130.64
554.143	34908.5
554.507	35246.35
554.87	35409.73
555.234	35842.26
555.597	35699.89
555.96	35718.65
556.323	36063.95
556.686	36321.57
557.05	36348.01
557.413	36580.32
557.776	36649.47
558.139	36706.42
558.502	36686.99
558.865	36658.29
559.228	36754.56
559.59	36872.29
559.953	36743.93
560.316	37091.04
560.679	36955.23
561.041	37294.65
561.404	37448.1
561.767	37721.76
562.129	37654.42
562.492	38041.08
562.854	37973.73
563.217	38122.66
563.579	38408.98
563.941	38706.82
564.304	38788.63
564.666	39135.74
565.028	39180.48
565.39	39351.32
565.753	39521.26
566.115	39586.57
566.477	39727.59
566.839	39790.18
567.201	39886
567.563	39719.9
567.925	40144.07
568.287	39977.75
568.648	40211.41
569.01	40263.39
569.372	40481.01
569.734	40178.19
570.095	40480.56
570.457	40525.76
570.819	40703.15
571.18	40881.45
571.542	40988.12
571.903	41197.83
572.265	41400.54
572.626	41582.45
572.987	41762.33
573.349	42012.27
573.71	42145.6
574.071	42303.11
574.432	42375.88
574.794	42668.52
575.155	42647.51
575.516	42345.82
575.877	42462.43
576.238	42662.65
576.599	42553.05
576.96	42588.53
577.32	42449.1
577.681	42741.52
578.042	42765.47
578.403	42661.29
578.763	42786.26
579.124	42871.46
579.485	42951.46
579.845	43218.79
580.206	43126.14
580.566	43276.42
580.927	43329.3
581.287	43586.24
581.648	43565.22
582.008	43773.81
582.368	43739.46
582.728	43993.69
583.089	43907.81
583.449	43919.79
583.809	44036.62
584.169	44121.37
584.529	43921.6
584.889	44116.17
585.249	43833.01
585.609	43768.61
585.969	43875.95
586.329	43662.17
586.688	43687.71
587.048	43614.71
587.408	43558.9
587.768	43685
588.127	43856.97
588.487	43645.67
588.846	43953.24
589.206	43633.47
589.565	43800.25
589.925	43823.97
590.284	43681.38
590.643	44044.76
591.003	44164.76
591.362	44299.22
591.721	44411.3
592.08	44328.82
592.44	44572.66
592.799	44518.42
593.158	44578.53
593.517	44486.56
593.876	44525.88
594.235	44331.76
594.593	44347.12
594.952	44375.6
595.311	44266
595.67	44190.29
596.029	44338.99
596.387	44234.13
596.746	44314.81
597.104	44011.99
597.463	44051.54
597.822	44320.91
598.18	44248.6
598.538	44116.62
598.897	44396.84
599.255	44058.32
599.613	44656.72
599.972	44607.46
600.33	44707.34
600.688	44675.25
601.046	44891.97
601.404	44986.88
601.762	44952.08
602.12	45188.68
602.478	45252.64
602.836	45288.8
603.194	45121.12
603.552	45030.95
603.91	44916.15
604.268	45018.07
604.625	44878.41
604.983	45090.38
605.341	44596.61
605.698	44861.24
606.056	44859.43
606.413	44777.85
606.771	45002.47
607.128	44913.89
607.485	44800.45
607.843	44929.26
608.2	45093.32
608.557	45107.33
608.914	44927.22
609.272	45328.57
609.629	45347.55
609.986	45688.78
610.343	45390.71
610.7	45807.88
611.057	45722.68
611.414	45778.73
611.771	45815.33
612.127	46096.68
612.484	46018.27
612.841	46069.79
613.198	46192.27
613.554	46150.02
613.911	46294.64
614.267	46222.33
614.624	46267.75
614.98	46258.71
615.337	46303.23
615.693	46114.76
616.05	45961.55
616.406	46262.1
616.762	46159.73
617.118	46149.79
617.475	46192.27
617.831	46070.47
618.187	46295.77
618.543	46209.9
618.899	46419.39
619.255	46436.79
619.611	46392.95
619.967	46590.91
620.323	46638.59
620.678	46479.05
621.034	46458.48
621.39	46666.39
621.746	46522.21
622.101	47004.91
622.457	46774.41
622.812	46791.58
623.168	46941.86
623.523	46958.36
623.879	47158.58
624.234	46790.45
624.589	47077.67
624.945	47022.53
625.3	46968.3
625.655	47084.91
626.01	46796.78
626.365	46763.78
626.72	46535.09
627.075	46583
627.43	46595.2
627.785	46567.86
628.14	46558.82
628.495	46665.93
628.85	46522.89
629.205	46394.3
629.559	46643.79
629.914	46164.48
630.269	46279.73
630.623	46268.88
630.978	46233.85
631.332	46414.87
631.687	46648.99
632.041	46426.17
632.396	46458.26
632.75	46342.1
633.104	46468.43
633.459	46248.54
633.813	46317.47
634.167	46383
634.521	46293.97
634.875	46325.38
635.229	46325.38
635.583	46114.54
635.937	46086.06
636.291	46079.28
636.645	46034.99
636.999	45893.75
637.352	45993.64
637.706	45702.57
638.06	45875.9
638.413	45849.23
638.767	45589.35
639.121	45403.82
639.474	45197.27
639.828	45343.93
640.181	45241.11
640.534	45135.8
640.888	45138.29
641.241	45011.97
641.594	44998.63
641.947	45040.44
642.301	45045.19
642.654	45152.3
643.007	45065.98
643.36	45199.53
643.713	45086.31
644.066	45146.43
644.419	45121.34
644.771	45199.76
645.124	45097.61
645.477	45128.35
645.83	44780.79
646.182	44440.46
646.535	44107.81
646.888	44026
647.24	43532.01
647.593	43739.23
647.945	43312.58
648.298	43323.87
648.65	43326.13
649.002	43219.02
649.355	43380.14
649.707	43505.34
650.059	43687.03
650.411	44093.57
650.763	44173.34
651.115	44441.81
651.467	44109.39
651.819	43989.62
652.171	43974.25
652.523	43866.23
652.875	43891.09
653.227	43701.04
653.578	44018.09
653.93	44233.23
654.282	43891.54
654.633	43777.65
654.985	43868.49
655.337	44090.63
655.688	43970.86
656.039	44223.96
656.391	43863.52
656.742	44147.81
657.094	44200.01
657.445	44364.98
657.796	44245.66
658.147	44151.65
658.498	44218.31
658.849	44306.45
659.2	44224.64
659.551	44050.41
659.902	44275.49
660.253	44070.52
660.604	44012.22
660.955	43785.56
661.306	43858.55
661.656	43532.23
662.007	43676.63
662.358	43502.85
662.708	43546.24
663.059	43395.96
663.409	43173.14
663.76	43393.7
664.11	43200.26
664.461	43231.45
664.811	43319.36
665.161	43207.49
665.511	43147.38
665.862	43176.08
666.212	43321.84
666.562	43431.22
666.912	43439.35
667.262	43398.22
667.612	43715.05
667.962	43666.92
668.312	43555.96
668.662	43633.92
669.011	43814.26
669.361	43760.93
669.711	43727.93
670.06	43675.05
670.41	43695.39
670.76	43710.76
671.109	43764.77
671.459	43643.19
671.808	43505.11
672.157	43518.22
672.507	43212.92
672.856	43235.29
673.205	43235.29
673.554	43194.61
673.904	43156.65
674.253	43215.86
674.602	43023.09
674.951	42447.51
675.3	42143.79
675.649	42810.67
675.998	42623.33
676.346	42498.81
676.695	42707.85
677.044	42292.72
677.393	42279.83
677.741	42299.72
678.09	42171.81
678.438	42187.63
678.787	42176.11
679.135	42312.6
679.484	42076.45
679.832	42238.48
680.181	42123.45
680.529	42368.42
680.877	42139.73
681.225	42337.46
681.573	42592.14
681.922	42280.74
682.27	42232.15
682.618	42253.17
682.966	42223.79
683.314	42279.38
683.661	42125.26
684.009	41881.88
684.357	41877.36
684.705	41876.91
685.053	41727.76
685.4	41586.97
685.748	41563.24
686.095	41475.79
686.443	41093.65
686.79	41078.74
687.138	41254.78
687.485	41074.89
687.832	40805.3
688.18	40741.8
688.527	40442.82
688.874	40339.77
689.221	40124.41
689.568	40028.59
689.915	39897.07
690.262	39869.5
690.609	39762.84
690.956	39589.06
691.303	39622.73
691.65	39515.39
691.997	39598.1
692.344	39242.85
692.69	39256.19
693.037	39131.67
693.383	39020.26
693.73	39206.24
694.077	39008.28
694.423	39107.94
694.769	38846.7
695.116	38995.63
695.462	38927.15
695.808	38785.24
696.155	39055.74
696.501	38566.03
696.847	38613.49
697.193	38366.94
697.539	38561.74
697.885	38285.36
698.231	38114.97
698.577	38039.27
698.923	37999.72
699.269	37799.27
699.614	37633.63
699.96	37411.94
700.306	37436.35
700.651	37276.58
700.997	36954.55
701.342	36804.95
701.688	36645.18
702.033	36567.44
702.379	36472.3
702.724	36237.51
703.069	36370.39
703.415	35783.73
703.76	35807.24
704.105	35854.24
704.45	35700.57
704.795	35583.51
705.14	35431.88
705.485	35483.63
705.83	35238.89
706.175	35446.12
706.52	35269.85
706.865	35234.37
707.209	35212.22
707.554	35278.21
707.899	35253.13
708.243	35010.42
708.588	34959.8
708.932	34944.43
709.277	35018.56
709.621	35026.47
709.966	34772.69
710.31	34884.32
710.654	34642.97
710.998	34814.04
711.342	34807.04
711.687	34537.67
712.031	34394.84
712.375	34480.27
712.719	34422.64
713.063	34169.31
713.407	34195.75
713.75	33923.22
714.094	33885.93
714.438	33768.87
714.782	33774.97
715.125	33567.97
715.469	33592.38
715.812	33302.22
716.156	33137.7
716.499	33147.87
716.843	33028.1
717.186	32766.19
717.53	32879.4
717.873	32777.26
718.216	32757.15
718.559	32527.55
718.902	32308.57
719.246	32603.7
719.589	32547.44
719.932	32341.11
720.275	32396.93
720.617	32509.24
720.96	32419.53
721.303	32458.62
721.646	32458.62
721.989	32314.67
722.331	32511.05
722.674	32487.78
723.016	32626.98
723.359	32409.81
723.701	32615
724.044	32389.25
724.386	32288.01
724.729	32593.76
725.071	32534.1
725.413	32431.05
725.755	32377.72
726.097	32337.72
726.439	32113.32
726.782	32048.47
727.124	32174.79
727.465	32098.86
727.807	31899.77
728.149	31759.66
728.491	31622.26
728.833	31790.39
729.175	31475.6
729.516	31548.37
729.858	31497.29
730.199	31600.57
730.541	31450.74
730.882	31484.19
731.224	31515.6
731.565	31188.6
731.906	31285.1
732.248	31155.61
732.589	30979.11
732.93	30916.74
733.271	30984.76
733.612	30974.6
733.953	31027.7
734.294	30913.13
734.635	30769.4
734.976	31016.4
735.317	30857.31
735.658	30952.45
735.999	30921.26
736.339	30905.67
736.68	31079.9
737.021	31081.71
737.361	31013.46
737.702	31196.96
738.042	31025.44
738.383	31156.51
738.723	31196.28
739.063	31363.51
739.404	31423.4
739.744	31281.93
740.084	31144.08
740.424	31163.29
740.764	31161.03
741.104	31217.98
741.444	31129.17
741.784	31063.18
742.124	31174.14
742.464	31116.74
742.804	31132.78
743.143	31009.17
743.483	31045.55
743.823	30756.97
744.162	30882.17
744.502	31046.23
744.841	30738.67
745.181	30922.85
745.52	30753.58
745.86	30790.65
746.199	30666.81
746.538	30520.14
746.877	30802.85
747.216	30694.83
747.556	30735.51
747.895	30601.27
748.234	30542.97
748.573	30539.8
748.911	30660.48
749.25	30569.18
749.589	30565.34
749.928	30675.85
750.267	30728.95
750.605	30706.35
750.944	30673.59
751.283	30717.43
751.621	30917.87
751.96	30841.27
752.298	30922.62
752.636	31094.14
752.975	30999
753.313	30977.98
753.651	31012.11
753.989	30944.31
754.327	30935.5
754.666	30916.97
755.004	31109.73
755.342	31148.38
755.679	31200.35
756.017	31117.64
756.355	31169.17
756.693	31109.51
757.031	31152.67
757.368	30973.47
757.706	31223.63
758.044	30970.3
758.381	30878.1
758.719	30963.3
759.056	31041.71
759.394	30910.19
759.731	30727.6
760.068	30677.43
760.405	30521.5
760.743	30566.92
761.08	30671.78
761.417	30491.67
761.754	30493.48
762.091	30473.37
762.428	30328.06
762.765	30149.53
763.102	30181.17
763.438	30060.72
763.775	29922.65
764.112	30097.56
764.449	30024.11
764.785	29902.31
765.122	29764.23
765.458	29757.45
765.795	29881.52
766.131	29677.68
766.467	29802.87
766.804	29605.82
767.14	29657.57
767.476	29758.58
767.812	29582.32
768.148	29637.68
768.485	29442.88
768.821	29386.61
769.157	29405.37
769.492	29405.14
769.828	29409.66
770.164	29221.65
770.5	29324.92
770.836	29241.76
771.171	29168.31
771.507	29032.27
771.842	28981.2
772.178	29001.54
772.513	28893.29
772.849	28910.24
773.184	28744.82
773.519	28596.35
773.855	28599.52
774.19	28405.4
774.525	28384.83
774.86	28376.92
775.195	28267.1
775.53	28285.63
775.865	28063.94
776.2	27987.33
776.535	27804.28
776.87	27905.75
777.205	27621.69
777.539	27402.71
777.874	27434.8
778.209	27230.06
778.543	27212.66
778.878	26968.37
779.212	26908.26
779.547	26772.9
779.881	26788.04
780.215	26565.45
780.55	26678.44
780.884	26485.45
781.218	26363.19
781.552	26416.3
781.886	26198.9
782.22	26106.02
782.554	26005.46
782.888	25860.61
783.222	25660.38
783.556	25646.15
783.889	25611.35
784.223	25538.58
784.557	25483.89
784.89	25452.03
785.224	25263.78
785.557	25207.97
785.891	25198.02
786.224	25147.63
786.558	25158.02
786.891	24829.9
787.224	24887.75
787.557	24921.87
787.891	24893.63
788.224	24874.42
788.557	24788.54
788.89	24807.75
789.223	24671.26
789.556	24589
789.888	24557.81
790.221	24528.66
790.554	24221.1
790.887	24421.32
791.219	24216.81
791.552	24153.53
791.884	24009.58
792.217	23916.7
792.549	23867.21
792.882	23669.48
793.214	23647.1
793.546	23699.98
793.879	23561.91
794.211	23342.25
794.543	23392.65
794.875	23368.47
795.207	23252.99
795.539	23020.45
795.871	22963.28
796.203	22772.55
796.535	22643.06
796.867	22662.5
797.198	22656.4
797.53	22584.31
797.862	22331.43
798.193	22415.95
798.525	22251.43
798.856	22279.23
799.188	22077.88
799.519	21945
799.85	21883.76
800.182	21854.83
800.513	21873.37
800.844	21579.81
801.175	21707.27
801.506	21634.28
801.837	21559.48
802.168	21594.28
802.499	21484.22
802.83	21461.17
803.161	21505.47
803.491	21485.35
803.822	21449.2
804.153	21302.08
804.483	21209.2
804.814	21146.38
805.145	21135.31
805.475	21180.28
805.805	21035.42
806.136	21066.16
806.466	21045.59
806.796	20983.22
807.126	20867.52
807.457	20803.56
807.787	20758.82
808.117	20815.31
808.447	20640.4
808.777	20696.67
809.107	20665.04
809.436	20521.76
809.766	20473.4
810.096	20470.46
810.426	20363.8
810.755	20376
811.085	20362.44
811.414	20217.14
811.744	20127.65
812.073	20027.31
812.403	20006.52
812.732	19837.03
813.061	19796.58
813.39	19648.11
813.719	19582.13
814.049	19762.69
814.378	19529.92
814.707	19489.7
815.036	19388.46
815.365	19394.79
815.693	19201.57
816.022	19184.62
816.351	19126.32
816.68	18990.73
817.008	19102.14
817.337	18757.52
817.665	18800
817.994	18831.64
818.322	18811.07
818.651	18794.58
818.979	18640.91
819.307	18749.38
819.636	18784.86
819.964	18563.85
820.292	18722.71
820.62	18662.38
820.948	18524.98
821.276	18743.28
821.604	18619.21
821.932	18660.79
822.259	18653.79
822.587	18713.9
822.915	18719.55
823.243	18729.72
823.57	18712.09
823.898	18757.52
824.225	18663.51
824.553	18626.22
824.88	18765.42
825.207	18800.45
825.535	18709.61
825.862	18752.32
826.189	18648.37
826.516	18894.46
826.843	18902.14
827.17	18833.9
827.497	18855.37
827.824	18771.3
828.151	18865.76
828.478	18731.3
828.805	18806.33
829.131	18721.81
829.458	18748.7
829.785	18667.12
830.111	18759.1
830.438	18778.08
830.764	18814.69
831.09	18763.16
831.417	18585.77
831.743	18684.52
832.069	18694.24
832.395	18662.83
832.722	18645.43
833.048	18545.77
833.374	18463.74
833.7	18329.28
834.026	18393.23
834.351	18411.31
834.677	18320.01
835.003	18334.93
835.329	18312.33
835.654	18250.86
835.98	18161.37
836.306	18264.87
836.631	18161.37
836.956	18187.36
837.282	18092.22
837.607	18002.05
837.932	17949.85
838.258	18074.37
838.583	18028.49
838.908	17844.77
839.233	17976.97
839.558	17881.61
839.883	17878.89
840.208	17675.51
840.533	17672.35
840.858	17812.91
841.182	17783.08
841.507	17785.11
841.832	17685
842.156	17682.97
842.481	17675.74
842.805	17702.4
843.13	17582.63
843.454	17601.16
843.778	17561.39
844.103	17595.06
844.427	17474.16
844.751	17506.47
845.075	17421.51
845.399	17364.11
845.723	17360.04
846.047	17400.26
846.371	17338.34
846.695	17282.07
847.019	17100.61
847.343	17037.11
847.666	16934.51
847.99	16798.47
848.313	16869.43
848.637	16736.33
848.96	16720.28
849.284	16719.15
849.607	16642.09
849.931	16551.02
850.254	16484.81
850.577	16379.95
850.9	16121.88
851.223	16127.53
851.546	16086.17
851.869	15902.9
852.192	16059.51
852.515	15787.65
852.838	15686.64
853.161	15734.54
853.483	15666.3
853.806	15572.06
854.129	15492.29
854.451	15390.82
854.774	15335.91
855.096	15293.65
855.419	15332.75
855.741	15189.7
856.063	15090.95
856.385	15094.33
856.708	14908.12
857.03	14924.85
857.352	14870.16
857.674	14847.34
857.996	14771.18
858.318	14716.04
858.64	14751.52
858.961	14745.87
859.283	14623.39
859.605	14612.54
859.926	14616.16
860.248	14598.75
860.57	14500.45
860.891	14536.61
861.212	14496.61
861.534	14504.07
861.855	14459.78
862.176	14482.37
862.498	14401.92
862.819	14468.81
863.14	14391.08
863.461	14358.08
863.782	14335.26
864.103	14412.32
864.424	14388.59
864.745	14387.01
865.065	14346.11
865.386	14239.44
865.707	14263.85
866.027	14310.4
866.348	14334.35
866.668	14341.36
866.989	14284.19
867.309	14133
867.63	14219.56
867.95	14169.39
868.27	14064.53
868.59	14098.88
868.91	14073.12
869.23	13994.25
869.55	13955.16
869.87	14025.66
870.19	13957.87
870.51	13972.78
870.83	13928.26
871.15	13789.74
871.469	13754.26
871.789	13772.79
872.109	13759.23
872.428	13663.19
872.748	13722.17
873.067	13753.13
873.386	13656.86
873.706	13740.7
874.025	13488.73
874.344	13587.03
874.663	13582.96
874.982	13450.76
875.301	13484.89
875.62	13344.1
875.939	13307.49
876.258	13356.53
876.577	13249.19
876.896	13329.18
877.214	13161.28
877.533	13277.21
877.852	13132.35
878.17	13178.68
878.489	13061.39
878.807	13109.98
879.125	13092.13
879.444	13052.35
879.762	13038.57
880.08	13052.81
880.398	13002.41
880.716	12916.54
881.034	12939.14
881.352	12963.77
881.67	12947.27
881.988	12955.86
882.306	12884
882.624	12893.26
882.941	12799.03
883.259	12868.18
883.577	12879.93
883.894	12803.1
884.212	12805.36
884.529	12741.63
884.846	12788.86
885.164	12733.72
885.481	12773.49
885.798	12752.25
886.115	12709.76
886.432	12612.37
886.75	12627.28
887.067	12590.67
887.383	12645.13
887.7	12579.37
888.017	12580.95
888.334	12625.25
888.651	12559.94
888.967	12564.46
889.284	12584.12
889.6	12489.66
889.917	12352.03
890.233	12399.49
890.55	12449.88
890.866	12392.71
891.182	12347.06
891.498	12215.54
891.815	12184.58
892.131	12131.25
892.447	12031.82
892.763	12077.24
893.079	12025.71
893.395	11999.73
893.71	11950.91
894.026	11910.69
894.342	11880.41
894.657	11732.39
894.973	11782.33
895.289	11742.33
895.604	11690.36
895.92	11532.39
896.235	11579.17
896.55	11591.6
896.865	11488.33
897.181	11370.59
897.496	11342.79
897.811	11272.74
898.126	11237.49
898.441	11170.37
898.756	11172.63
899.071	11141.9
899.386	11076.36
899.7	10947.55
900.015	10938.51
900.33	10855.12
900.644	10822.81
900.959	10824.62
901.273	10788.23
901.588	10756.82
901.902	10638.18
902.216	10712.08
902.531	10644.06
902.845	10623.27
903.159	10521.12
903.473	10545.75
903.787	10477.51
904.101	10441.8
904.415	10490.61
904.729	10393.67
905.042	10383.05
905.356	10316.16
905.67	10333.33
905.984	10420.56
906.297	10354.8
906.611	10300.56
906.924	10231.41
907.237	10219.89
907.551	10180.34
907.864	10100.34
908.177	10123.39
908.491	10077.29
908.804	10008.82
909.117	9969.5
909.43	9868.26
909.743	9850.4
910.056	9874.13
910.368	9831.2
910.681	9818.09
910.994	9801.37
911.307	9795.72
911.619	9756.62
911.932	9688.15
912.244	9681.82
912.557	9653.57
912.869	9559.34
913.181	9542.39
913.494	9555.5
913.806	9445.67
914.118	9448.83
914.43	9408.83
914.742	9394.82
915.054	9317.31
915.366	9234.38
915.678	9217.43
915.99	9209.74
916.302	9047.49
916.613	9112.12
916.925	9096.07
917.236	8948.28
917.548	8971.11
917.859	8924.33
918.171	8871.22
918.482	8791.9
918.794	8753.71
919.105	8788.74
919.416	8702.41
919.727	8607.95
920.038	8602.75
920.349	8571.34
920.66	8440.95
920.971	8471.46
921.282	8420.61
921.593	8388.97
921.903	8335.87
922.214	8299.71
922.525	8289.54
922.835	8303.33
923.146	8242.99
923.456	8120.28
923.767	8079.38
924.077	8105.14
924.387	8125.7
924.697	8003.67
925.008	8062.2
925.318	7998.02
925.628	7951.02
925.938	7875.99
926.248	7803.9
926.558	7760.74
926.867	7746.73
927.177	7711.7
927.487	7664.47
927.796	7676.22
928.106	7670.8
928.416	7649.78
928.725	7603.68
929.034	7549.22
929.344	7577.92
929.653	7563.01
929.962	7557.81
930.271	7423.12
930.581	7477.36
930.89	7434.2
931.199	7389.9
931.508	7388.77
931.817	7392.62
932.125	7329.12
932.434	7302
932.743	7263.81
933.051	7277.14
933.36	7282.79
933.669	7252.51
933.977	7154.43
934.286	7205.5
934.594	7151.72
934.902	7062
935.21	6997.37
935.519	7051.61
935.827	7010.71
936.135	7024.72
936.443	6960.99
936.751	6965.06
937.059	6912.4
937.367	6910.6
937.674	6901.56
937.982	6864.04
938.29	6814.55
938.597	6730.49
938.905	6709.92
939.213	6702.01
939.52	6661.79
939.827	6657.72
940.135	6613.65
940.442	6577.72
940.749	6500.66
941.056	6499.08
941.363	6384.28
941.67	6404.85
941.977	6347.45
942.284	6263.83
942.591	6232.19
942.898	6224.06
943.205	6204.17
943.511	6222.03
943.818	6196.04
944.125	6104.29
944.431	6072.2
944.738	6054.35
945.044	6060
945.35	6012.54
945.657	5996.49
945.963	6001.01
946.269	5937.74
946.575	5940.68
946.881	5923.5
947.187	5849.15
947.493	5867.01
947.799	5819.1
948.105	5789.04
948.41	5761.92
948.716	5812.32
949.022	5739.55
949.327	5703.17
949.633	5611.42
949.938	5667.92
950.244	5638.76
950.549	5563.51
950.854	5530.52
951.16	5595.38
951.465	5513.57
951.77	5485.32
952.075	5504.3
952.38	5408.49
952.685	5443.97
952.99	5435.83
953.294	5383.4
953.599	5433.12
953.904	5347.47
954.209	5321.26
954.513	5316.74
954.818	5296.4
955.122	5310.19
955.426	5237.19
955.731	5277.64
956.035	5210.98
956.339	5245.55
956.643	5243.29
956.948	5195.84
957.252	5195.61
957.556	5132.34
957.86	5093.92
958.163	5120.36
958.467	5076.29
958.771	5074.71
959.075	5092.79
959.378	5026.35
959.682	5026.8
959.985	5034.94
960.289	5047.37
960.592	4997.88
960.896	5001.04
961.199	4964.43
961.502	4896.86
961.805	4869.52
962.108	4841.72
962.411	4855.96
962.714	4823.87
963.017	4774.61
963.32	4784.32
963.623	4755.62
963.926	4730.77
964.228	4722.63
964.531	4693.25
964.833	4681.05
965.136	4609.41
965.438	4635.4
965.741	4562.86
966.043	4590.66
966.345	4549.3
966.648	4517.66
966.95	4479.47
967.252	4452.13
967.554	4469.3
967.856	4375.07
968.158	4388.63
968.46	4406.48
968.761	4353.37
969.063	4355.63
969.365	4285.35
969.666	4316.31
969.968	4258.46
970.269	4216.65
970.571	4274.96
970.872	4230.89
971.174	4171.91
971.475	4157.9
971.776	4145.47
972.077	4110.44
972.378	4086.26
972.679	4088.07
972.98	4066.38
973.281	4055.75
973.582	4062.08
973.883	3992.03
974.183	3986.15
974.484	3988.41
974.785	3946.15
975.085	3937.79
975.386	3987.96
975.686	3875.42
975.986	3898.92
976.287	3857.34
976.587	3827.96
976.887	3852.37
977.187	3827.29
977.487	3814.41
977.787	3793.61
978.087	3754.29
978.387	3800.85
978.687	3764.69
978.987	3727.85
979.286	3694.18
979.586	3698.02
979.885	3712.94
980.185	3648.76
980.484	3668.19
980.784	3659.83
981.083	3660.74
981.382	3635.65
981.682	3635.43
981.981	3591.59
982.28	3578.25
982.579	3593.39
982.878	3546.39
983.177	3555.43
983.475	3527.41
983.774	3519.95
984.073	3496.67
984.372	3443.34
984.67	3488.31
984.969	3510.68
985.267	3472.72
985.566	3418.26
985.864	3378.26
986.162	3412.38
986.461	3421.65
986.759	3373.96
987.057	3347.52
987.355	3363.12
987.653	3324.25
987.951	3319.5
988.249	3317.24
988.547	3288.77
988.844	3261.2
989.142	3248.54
989.44	3183.91
989.737	3219.39
990.035	3228.21
990.332	3174.65
990.63	3164.93
990.927	3142.33
991.224	3157.25
991.521	3102.11
991.819	3110.24
992.116	3124.25
992.413	3056.91
992.71	3088.77
993.006	3018.27
993.303	3024.14
993.6	3036.8
993.897	2973.07
994.193	2991.38
994.49	2977.37
994.787	2964.94
995.083	2931.94
995.379	2923.58
995.676	2895.56
995.972	2894.2
996.268	2844.71
996.565	2835
996.861	2825.28
997.157	2844.26
997.453	2793.42
997.749	2777.37
998.044	2753.64
998.34	2760.42
998.636	2784.38
998.932	2740.99
999.227	2698.73
999.523	2698.73
999.818	2653.08
1000.114	2599.07
1000.409	2650.14
1000.704	2629.58
1001	2620.09
1001.295	2601.33
1001.59	2649.46
1001.885	2572.4
1002.18	2578.96
1002.475	2555
1002.77	2547.32
1003.065	2514.55
1003.359	2480.43
1003.654	2520.43
1003.949	2474.33
1004.243	2464.84
1004.538	2447.44
1004.832	2435.01
1005.127	2436.14
1005.421	2424.61
1005.715	2395.91
1006.009	2385.97
1006.304	2388.23
1006.598	2366.99
1006.892	2354.33
1007.186	2346.42
1007.48	2318.63
1007.773	2317.04
1008.067	2290.38
1008.361	2299.19
1008.655	2272.07
1008.948	2212.19
1009.242	2283.37
1009.535	2239.53
1009.829	2252.86
1010.122	2211.06
1010.415	2222.13
1010.708	2184.39
1011.001	2200.66
1011.295	2167.89
1011.588	2213.32
1011.881	2138.74
1012.173	2157.73
1012.466	2169.25
1012.759	2135.58
1013.052	2108.69
1013.344	2122.7
1013.637	2084.96
1013.93	2104.17
1014.222	2034.34
1014.514	2066.65
1014.807	2022.81
1015.099	2031.18
1015.391	2012.42
1015.683	1996.15
1015.976	2039.54
1016.268	2001.12
1016.56	1952.31
1016.851	1962.48
1017.143	1958.41
1017.435	1937.39
1017.727	1936.04
1018.018	1924.74
1018.31	1895.81
1018.602	1906.43
1018.893	1870.28
1019.185	1848.36
1019.476	1859.43
1019.767	1832.54
1020.058	1843.84
1020.35	1818.53
1020.641	1790.73
1020.932	1817.4
1021.223	1824.85
1021.514	1784.63
1021.804	1715.48
1022.095	1747.12
1022.386	1736.49
1022.677	1715.48
1022.967	1738.08
1023.258	1678.64
1023.548	1665.08
1023.839	1652.65
1024.129	1636.16
1024.419	1656.04
1024.709	1644.52
1025	1603.62
1025.29	1596.38
1025.58	1593.45
1025.87	1569.04
1026.16	1599.1
1026.449	1567.23
1026.739	1545.76
1027.029	1531.3
1027.319	1528.59
1027.608	1536.05
1027.898	1536.73
1028.187	1487.46
1028.477	1522.04
1028.766	1483.85
1029.055	1496.73
1029.344	1446.11
1029.634	1433
1029.923	1433.68
1030.212	1427.58
1030.501	1430.29
1030.79	1426.22
1031.078	1405.88
1031.367	1416.28
1031.656	1372.44
1031.945	1373.34
1032.233	1367.69
1032.522	1350.74
1032.81	1354.36
1033.099	1342.38
1033.387	1326.79
1033.675	1347.8
1033.963	1295.83
1034.251	1303.28
1034.54	1304.19
1034.828	1307.8
1035.116	1278.88
1035.403	1248.82
1035.691	1289.73
1035.979	1243.4
1036.267	1248.37
1036.554	1225.09
1036.842	1238.65
1037.129	1259.67
1037.417	1230.97
1037.704	1215.15
1037.992	1186.23
1038.279	1208.82
1038.566	1191.42
1038.853	1191.42
1039.14	1191.42
