Data from blue_shiny_book_FLMS001491_00060.txt Node
Date: Wed Feb 08 15:27:14 GMT 2017
User: dcchb
Spectrometer: FLMS00149
Trigger mode: 0
Integration Time (sec): 2.000000E-2
Scans to average: 10
Electric dark correction enabled: true
Nonlinearity correction enabled: false
Boxcar width: 0
XAxis mode: Wavelengths
Number of Pixels in Spectrum: 2048
>>>>>Begin Spectral Data<<<<<
341.393	-14.21
341.776	-14.21
342.16	-14.21
342.543	-61.21
342.927	-65.73
343.31	-70.93
343.693	-78.16
344.077	-68.67
344.46	-34.55
344.843	-56.47
345.226	-38.39
345.61	-18.95
345.993	-7.88
346.376	-22.8
346.759	-10.14
347.142	29.41
347.525	29.41
347.908	79.8
348.291	84.55
348.674	97.2
349.057	86.58
349.44	120.48
349.823	148.95
350.206	160.02
350.588	206.8
350.971	241.6
351.354	253.35
351.737	256.29
352.119	277.54
352.502	278.44
352.884	277.99
353.267	280.47
353.65	321.15
354.032	325.9
354.414	325.44
354.797	318.66
355.179	337.65
355.562	331.32
355.944	348.95
356.326	341.49
356.709	348.72
357.091	346.46
357.473	359.11
357.855	382.39
358.238	372.9
358.62	373.8
359.002	355.05
359.384	378.55
359.766	347.59
360.148	374.26
360.53	365.67
360.912	353.47
361.294	357.31
361.676	361.15
362.057	348.49
362.439	360.02
362.821	350.75
363.203	369.28
363.584	350.98
363.966	358.66
364.348	374.48
364.729	355.73
365.111	351.21
365.493	345.33
365.874	355.95
366.256	364.76
366.637	343.07
367.019	350.3
367.4	372
367.781	362.05
368.163	363.63
368.544	354.37
368.925	339
369.306	370.41
369.688	356.18
370.069	353.24
370.45	364.99
370.831	375.39
371.212	348.72
371.593	364.99
371.974	356.86
372.355	358.89
372.736	352.11
373.117	379.68
373.498	387.36
373.879	394.14
374.26	380.13
374.641	380.36
375.021	368.15
375.402	373.8
375.783	371.32
376.163	405.67
376.544	415.38
376.925	405.67
377.305	416.51
377.686	412.45
378.066	421.94
378.447	414.48
378.827	417.87
379.208	415.84
379.588	424.65
379.968	396.63
380.349	421.94
380.729	414.93
381.109	431.2
381.489	433.92
381.87	421.49
382.25	445.89
382.63	440.02
383.01	447.93
383.39	434.37
383.77	461.26
384.15	463.97
384.53	457.19
384.91	460.81
385.29	473.46
385.67	443.18
386.049	464.65
386.429	478.89
386.809	498.55
387.189	494.25
387.568	493.57
387.948	511.65
388.328	505.1
388.707	506.68
389.087	525.66
389.466	521.6
389.846	533.35
390.225	532.44
390.605	546.91
390.984	541.03
391.363	540.58
391.743	560.47
392.122	571.09
392.501	555.04
392.881	564.99
393.26	576.51
393.639	604.53
394.018	591.88
394.397	583.97
394.776	586
395.155	617.87
395.534	594.36
395.913	612.89
396.292	655.6
396.671	620.35
397.05	627.13
397.429	618.54
397.808	653.12
398.186	644.76
398.565	669.16
398.944	659.67
399.323	671.87
399.701	678.2
400.08	714.36
400.458	713.23
400.837	709.84
401.215	687.69
401.594	727.47
401.972	728.6
402.351	722.72
402.729	742.61
403.107	746.9
403.486	787.8
403.864	769.95
404.242	782.38
404.62	795.49
404.999	798.2
405.377	812.66
405.755	809.27
406.133	818.54
406.511	817.41
406.889	841.81
407.267	874.13
407.645	887.46
408.023	882.49
408.401	905.99
408.779	905.77
409.156	934.47
409.534	939.44
409.912	955.03
410.29	974.92
410.667	969.95
411.045	996.61
411.422	996.61
411.8	1014.92
412.178	1041.36
412.555	1049.04
412.933	1094.46
413.31	1066.67
413.687	1086.33
414.065	1105.54
414.442	1096.27
414.819	1093.33
415.197	1127.91
415.574	1158.19
415.951	1195.7
416.328	1183.05
416.705	1198.19
417.082	1222.59
417.46	1245.42
417.837	1230.96
418.214	1268.02
418.591	1268.7
418.967	1261.92
419.344	1277.96
419.721	1330.39
420.098	1321.58
420.475	1352.08
420.852	1381.01
421.228	1408.13
421.605	1387.34
421.982	1421.01
422.358	1435.02
422.735	1470.72
423.111	1447.22
423.488	1489.71
423.864	1484.51
424.241	1474.34
424.617	1525.19
424.994	1566.09
425.37	1599.99
425.746	1571.74
426.123	1595.92
426.499	1622.58
426.875	1677.27
427.251	1722.92
427.627	1700.55
428.003	1707.55
428.379	1710.04
428.756	1739.87
429.132	1800.43
429.507	1837.27
429.883	1832.97
430.259	1860.77
430.635	1918.17
431.011	1925.4
431.387	1991.16
431.763	2016.92
432.138	2017.6
432.514	2049.01
432.89	2075
433.265	2089.46
433.641	2125.4
434.016	2149.8
434.392	2195.9
434.767	2246.97
435.143	2227.31
435.518	2283.58
435.894	2328.1
436.269	2335.56
436.644	2409.46
437.02	2409.23
437.395	2392.73
437.77	2414.43
438.145	2465.27
438.52	2456.01
438.895	2499.62
439.271	2517.93
439.646	2609.23
440.021	2632.73
440.395	2705.72
440.77	2645.61
441.145	2688.32
441.52	2751.82
441.895	2764.48
442.27	2776
442.645	2793.63
443.019	2839.5
443.394	2799.95
443.769	2861.65
444.143	2876.79
444.518	2887.64
444.892	2917.92
445.267	2951.82
445.641	3009.67
446.016	3015.32
446.39	3070.91
446.764	3066.84
447.139	3053.96
447.513	3095.99
447.887	3105.26
448.262	3151.58
448.636	3130.34
449.01	3230.23
449.384	3214.63
449.758	3263.45
450.132	3301.86
450.506	3305.48
450.88	3332.82
451.254	3355.19
451.628	3448.75
452.002	3484.23
452.376	3558.8
452.75	3574.4
453.123	3549.77
453.497	3660.72
453.871	3611.46
454.244	3689.42
454.618	3734.17
454.992	3843.09
455.365	3806.48
455.739	3934.39
456.112	3996.08
456.486	4038.11
456.859	4045.8
457.232	4206.47
457.606	4151.33
457.979	4219.58
458.352	4286.47
458.725	4336.86
459.099	4382.74
459.472	4475.62
459.845	4520.81
460.218	4536.63
460.591	4607.82
460.964	4628.83
461.337	4759.45
461.71	4832.9
462.083	4905.89
462.456	4923.51
462.829	4908.83
463.201	5059.78
463.574	5063.62
463.947	5137.75
464.32	5276.73
464.692	5321.92
465.065	5372.54
465.438	5473.78
465.81	5498.19
466.183	5560.11
466.555	5729.82
466.928	5733.21
467.3	5808.46
467.672	5880.1
468.045	6063.37
468.417	6047.78
468.789	6100.21
469.161	6156.93
469.534	6283.48
469.906	6415.9
470.278	6458.84
470.65	6513.98
471.022	6622.45
471.394	6843.69
471.766	6837.59
472.138	6972.95
472.51	7116.45
472.882	7202.55
473.253	7268.99
473.625	7444.13
473.997	7580.62
474.369	7640.73
474.74	7715.08
475.112	7857.22
475.484	8055.86
475.855	8145.8
476.227	8195.52
476.598	8484.32
476.97	8528.84
477.341	8729.97
477.713	8846.35
478.084	8936.74
478.455	9237.53
478.827	9316.17
479.198	9612.2
479.569	9627.35
479.94	9891.97
480.311	9925.64
480.682	10128.12
481.053	10308.91
481.424	10527.89
481.795	10642.69
482.166	10840.42
482.537	10961.1
482.908	11214.65
483.279	11349.11
483.65	11583
484.021	11888.76
484.391	11949.09
484.762	12136.43
485.133	12208.52
485.503	12361.74
485.874	12585.23
486.244	12714.27
486.615	12926.47
486.985	13126.91
487.356	13397.19
487.726	13487.13
488.097	13767.58
488.467	13906.1
488.837	14162.14
489.207	14363.49
489.578	14626.08
489.948	14776.59
490.318	14940.43
490.688	14940.2
491.058	15286.41
491.428	15578.83
491.798	15640.97
492.168	15966.61
492.538	15984.24
492.908	16245.48
493.278	16417.68
493.648	16452.7
494.017	16750.55
494.387	16922.75
494.757	17152.57
495.126	17381.27
495.496	17463.75
495.866	17621.71
496.235	17843.17
496.605	18020.57
496.974	18124.3
497.344	18317.29
497.713	18331.07
498.082	18660.78
498.452	18754.79
498.821	18800.66
499.19	18836.37
499.559	19051.28
499.928	19164.72
500.298	19272.06
500.667	19518.84
501.036	19538.5
501.405	19832.95
501.774	19904.14
502.143	20131.48
502.512	20283.34
502.88	20543.22
503.249	20518.36
503.618	20709.77
503.987	20780.27
504.356	20831.8
504.724	20895.52
505.093	21092.13
505.462	21130.55
505.83	21239.92
506.199	21446.02
506.567	21697.76
506.936	21686.92
507.304	21960.58
507.672	22069.73
508.041	22346.11
508.409	22534.35
508.777	22845.53
509.145	23024.28
509.514	23140.89
509.882	23384.72
510.25	23370.04
510.618	23561.44
510.986	23558.05
511.354	23845.95
511.722	24002.56
512.09	24135.89
512.458	24173.4
512.826	24442.1
513.193	24480.51
513.561	24577.24
513.929	24752.15
514.297	25045.92
514.664	25346.48
515.032	25520.04
515.4	25744.89
515.767	25993.7
516.135	26072.11
516.502	26031.43
516.869	26623.96
517.237	26743.73
517.604	26690.17
517.972	27025.98
518.339	27070.28
518.706	27163.61
519.073	27067.34
519.44	27390.72
519.808	27613.54
520.175	27641.79
520.542	28001.1
520.909	28139.4
521.276	28155.22
521.643	28521.31
522.009	28836.11
522.376	29042.65
522.743	29249.2
523.11	29592.24
523.477	29952.24
523.843	30187.48
524.21	30551.09
524.577	30722.61
524.943	30909.5
525.31	30943.17
525.676	31172.99
526.043	31374.12
526.409	31533.21
526.776	31821.11
527.142	31945.85
527.508	32124.61
527.874	32208.45
528.241	32426.97
528.607	32692.5
528.973	33026.96
529.339	33019.5
529.705	33529.32
530.071	33897.89
530.437	34032.13
530.803	34372.01
531.169	34680.92
531.535	34609.74
531.901	34862.61
532.267	35088.82
532.632	35308.48
532.998	35336.05
533.364	35508.25
533.73	35499.21
534.095	35590.73
534.461	35704.4
534.826	35852.42
535.192	35969.03
535.557	36136.03
535.923	36251.5
536.288	36361.11
536.653	36669.8
537.019	36643.36
537.384	36982.78
537.749	37138.49
538.114	37399.5
538.479	37469.33
538.845	37792.48
539.21	37728.75
539.575	37948.18
539.94	37974.17
540.305	38295.97
540.67	38186.82
541.034	38217.78
541.399	38242.41
541.764	38378.91
542.129	38411.22
542.494	38516.3
542.858	38635.85
543.223	38680.82
543.587	38844.88
543.952	38786.58
544.316	39149.28
544.681	39177.98
545.045	39593.34
545.41	39794.24
545.774	39959.43
546.138	40124.85
546.503	40356.93
546.867	40269.48
547.231	40709.47
547.595	40783.14
547.959	41012.06
548.324	40805.06
548.688	40833.08
549.052	40878.28
549.416	40898.39
549.779	41005.28
550.143	40888.67
550.507	41150.36
550.871	41234.65
551.235	41029.01
551.599	41537.69
551.962	41622.89
552.326	41678.03
552.689	42005.03
553.053	41922.32
553.417	42089.54
553.78	42740.83
554.143	42564.56
554.507	42955.51
554.87	43040.03
555.234	43383.29
555.597	43255.61
555.96	43327.93
556.323	43588.03
556.686	43431.65
557.05	43754.58
557.413	43747.58
557.776	43749.16
558.139	43804.75
558.502	43829.38
558.865	43856.5
559.228	44208.13
559.59	44107.57
559.953	44385.53
560.316	44634.56
560.679	44929.24
561.041	45121.1
561.404	45347.99
561.767	45597.25
562.129	45662.78
562.492	46103.9
562.854	46276.55
563.217	46350
563.579	46673.83
563.941	46961.73
564.304	47153.36
564.666	47195.17
565.028	47262.29
565.39	47434.49
565.753	47470.87
566.115	47532.11
566.477	47649.62
566.839	47460.02
567.201	47902.95
567.563	47764.65
567.925	47919.67
568.287	48063.4
568.648	48031.08
569.01	48393.78
569.372	48679.88
569.734	48610.05
570.095	48823.6
570.457	49035.58
570.819	49193.09
571.18	49122.35
571.542	49606.63
571.903	49575
572.265	49829.23
572.626	49894.76
572.987	49868.32
573.349	50125.49
573.71	50191.93
574.071	50316.22
574.432	50177.01
574.794	50398.03
575.155	50232.38
575.516	50077.36
575.877	50081.2
576.238	50224.92
576.599	50238.71
576.96	50273.73
577.32	50285.49
577.681	50306.28
578.042	50542.65
578.403	50615.87
578.763	50745.13
579.124	50792.14
579.485	50915.3
579.845	51122.07
580.206	51122.53
580.566	51198.23
580.927	51370.65
581.287	51481.61
581.648	51529.07
582.008	51561.84
582.368	51553.7
582.728	51551.89
583.089	51623.08
583.449	51522.74
583.809	51480.93
584.169	51555.28
584.529	51474.61
584.889	51586.24
585.249	51468.28
585.609	51321.62
585.969	51499.47
586.329	51416.76
586.688	51430.31
587.048	51446.13
587.408	51471.22
587.768	51470.99
588.127	51673.02
588.487	51654.49
588.846	51946.01
589.206	51792.56
589.565	51904.43
589.925	52107.81
590.284	51991.88
590.643	52004.99
591.003	52200.24
591.362	52164.08
591.721	52214.47
592.08	52035.95
592.44	52160.46
592.799	52292.21
593.158	52189.39
593.517	52036.17
593.876	52075.27
594.235	51996.63
594.593	51987.81
594.952	51921.15
595.311	51830.53
595.67	51790.98
596.029	52007.93
596.387	51982.84
596.746	52040.92
597.104	51876.18
597.463	52019.68
597.822	52157.53
598.18	52019.68
598.538	52132.89
598.897	52214.25
599.255	52048.6
599.613	52549.61
599.972	52393.68
600.33	52496.5
600.688	52377.63
601.046	52534.24
601.404	52750.51
601.762	52606.78
602.12	52746.66
602.478	52645.2
602.836	52716.16
603.194	52498.99
603.552	52585.31
603.91	52381.7
604.268	52578.31
604.625	52338.31
604.983	52461.47
605.341	52238.2
605.698	52382.15
606.056	52475.03
606.413	52486.33
606.771	52579.89
607.128	52663.28
607.485	52515.48
607.843	52656.95
608.2	52854.46
608.557	53093.77
608.914	53029.82
609.272	53117.95
609.629	53270.27
609.986	53387.78
610.343	53245.41
610.7	53522.01
611.057	53441.11
611.414	53533.08
611.771	53536.47
612.127	53680.42
612.484	53665.06
612.841	53606.75
613.198	53591.39
613.554	53481.79
613.911	53583.93
614.267	53479.07
614.624	53515.46
614.98	53551.61
615.337	53595.46
615.693	53679.52
616.05	53469.58
616.406	53734.66
616.762	53562.24
617.118	53504.38
617.475	53447.21
617.831	53579.41
618.187	53583.03
618.543	53676.13
618.899	53878.16
619.255	53814.66
619.611	53800.87
619.967	53970.59
620.323	54046.74
620.678	53952.96
621.034	53964.49
621.39	54045.16
621.746	53951.15
622.101	54299.17
622.457	54008.55
622.812	54138.27
623.168	54110.7
623.523	54072.5
623.879	54194.31
624.234	53908.89
624.589	53974.2
624.945	53918.84
625.3	53901.21
625.655	53878.61
626.01	53922.9
626.365	53922.23
626.72	53697.37
627.075	53735.11
627.43	53737.6
627.785	53657.37
628.14	53766.3
628.495	53758.16
628.85	53660.09
629.205	53630.71
629.559	53912.96
629.914	53672.74
630.269	53781.89
630.623	53814.43
630.978	53846.07
631.332	54037.93
631.687	54093.3
632.041	54056.01
632.396	54132.39
632.75	53893.3
633.104	54018.27
633.459	53937.14
633.813	54036.8
634.167	53905.05
634.521	53914.77
634.875	53847.2
635.229	53810.59
635.583	53632.97
635.937	53663.02
636.291	53499.19
636.645	53515.23
636.999	53338.51
637.352	53394.33
637.706	53125.64
638.06	53310.26
638.413	53086.77
638.767	53017.39
639.121	52973.55
639.474	52858.07
639.828	52860.11
640.181	52913.67
640.534	52918.86
640.888	52857.4
641.241	52792.99
641.594	52875.93
641.947	52914.34
642.301	52887.68
642.654	53076.6
643.007	52967.45
643.36	53012.42
643.713	52932.87
644.066	53042.48
644.419	52927
644.771	52864.85
645.124	52802.03
645.477	52643.39
645.83	52400.01
646.182	52019.45
646.535	51789.85
646.888	51684.77
647.24	51305.57
647.593	51579.46
647.945	51431.9
648.298	51214.05
648.65	51034.84
649.002	50862.19
649.355	51013.15
649.707	51047.5
650.059	51096.09
650.411	51597.99
650.763	51667.37
651.115	51980.81
651.467	51795.5
651.819	51845.67
652.171	51716.86
652.523	51640.7
652.875	51756.18
653.227	51715.28
653.578	51974.25
653.93	52045.21
654.282	51995.05
654.633	51860.81
654.985	51870.75
655.337	51926.35
655.688	51993.24
656.039	52242.72
656.391	51936.97
656.742	52056.51
657.094	52105.78
657.445	52237.07
657.796	52066
658.147	51896.74
658.498	51990.53
658.849	52032.56
659.2	51996.63
659.551	51807.93
659.902	51790.08
660.253	51735.62
660.604	51743.07
660.955	51529.97
661.306	51645
661.656	51501.95
662.007	51417.66
662.358	51322.29
662.708	51379.69
663.059	51365.68
663.409	51062.41
663.76	51375.17
664.11	51299.92
664.461	51243.65
664.811	51266.7
665.161	51321.39
665.511	51402.29
665.862	51454.95
666.212	51589.18
666.562	51623.3
666.912	51584.43
667.262	51647.26
667.612	51589.18
667.962	51698.1
668.312	51754.6
668.662	51888.38
669.011	51672.79
669.361	51680.93
669.711	51647.03
670.06	51484.55
670.41	51468.05
670.76	51380.15
671.109	51438
671.459	51169.08
671.808	51087.05
672.157	51180.83
672.507	50976.99
672.856	50968.63
673.205	50916.88
673.554	50922.08
673.904	50716.43
674.253	50884.79
674.602	50795.98
674.951	50099.95
675.3	49930.92
675.649	50417.69
675.998	50391.02
676.346	50429.21
676.695	50428.31
677.044	50251.59
677.393	50427.85
677.741	50517.12
678.09	50386.73
678.438	50468.31
678.787	50470.34
679.135	50490
679.484	50334.52
679.832	50546.72
680.181	50443.22
680.529	50511.92
680.877	50492.94
681.225	50508.98
681.573	50654.74
681.922	50504.69
682.27	50379.95
682.618	50462.2
682.966	50346.28
683.314	50298.59
683.661	50185.15
684.009	49972.95
684.357	49910.13
684.705	49856.8
685.053	49797.36
685.4	49832.84
685.748	49412.29
686.095	49336.13
686.443	49120.54
686.79	49003.03
687.138	49070.15
687.485	49043.94
687.832	48777.5
688.18	48902.25
688.527	48529.15
688.874	48528.02
689.221	48532.31
689.568	48317.18
689.915	48241.92
690.262	48290.06
690.609	48342.71
690.956	48251.19
691.303	48292.77
691.65	48134.13
691.997	48202.15
692.344	47924.19
692.69	48010.07
693.037	47945.66
693.383	47662.96
693.73	48008.71
694.077	47804.2
694.423	47760.58
694.769	47585.67
695.116	47436.97
695.462	47398.78
695.808	47332.12
696.155	47280.37
696.501	47070.2
696.847	47096.64
697.193	46821.17
697.539	46812.13
697.885	46413.95
698.231	46214.41
698.577	46061.64
698.923	45965.15
699.269	45612.39
699.614	45501.2
699.96	45413.52
700.306	45244.94
700.651	45052.4
700.997	44828.45
701.342	44576.71
701.688	44554.11
702.033	44571.74
702.379	44512.08
702.724	44374.45
703.069	44484.73
703.415	44048.81
703.76	44048.14
704.105	44007.23
704.45	43868.93
704.795	43821.02
705.14	43702.16
705.485	43549.62
705.83	43502.16
706.175	43742.15
706.52	43561.59
706.865	43565.66
707.209	43473.01
707.554	43493.57
707.899	43694.92
708.243	43299
708.588	43361.6
708.932	43178.1
709.277	43044.77
709.621	43140.36
709.966	42887.26
710.31	42995.96
710.654	42489.76
710.998	42565.91
711.342	42503.54
711.687	42380.83
712.031	42183.1
712.375	41950.56
712.719	41941.3
713.063	41858.81
713.407	41776.56
713.75	41538.37
714.094	41565.04
714.438	41243.24
714.782	41226.06
715.125	41038.95
715.469	41163.47
715.812	40843.47
716.156	40725.51
716.499	40610.03
716.843	40582.46
717.186	40316.71
717.53	40581.11
717.873	40484.61
718.216	40423.37
718.559	40487.33
718.902	40422.02
719.246	40594.89
719.589	40462.92
719.932	40606.87
720.275	40490.72
720.617	40462.69
720.96	40484.61
721.303	40633.99
721.646	40494.56
721.989	40477.83
722.331	40639.19
722.674	40358.06
723.016	40574.33
723.359	40453.65
723.701	40417.04
724.044	40105.19
724.386	39950.16
724.729	40093.89
725.071	39939.09
725.413	39946.1
725.755	40121.69
726.097	39695.26
726.439	39438.09
726.782	39272.22
727.124	39489.39
727.465	39046.91
727.807	39056.18
728.149	38871.77
728.491	38916.97
728.833	38826.8
729.175	38662.51
729.516	38476.08
729.858	38533.7
730.199	38596.3
730.541	38650.31
730.882	38467.27
731.224	38495.74
731.565	38322.41
731.906	38346.36
732.248	38330.55
732.589	38342.07
732.93	38166.93
733.271	38315.86
733.612	38262.98
733.953	38541.16
734.294	38357.44
734.635	38276.54
734.976	38438.34
735.317	38210.77
735.658	38213.71
735.999	38400.37
736.339	38273.37
736.68	38566.02
737.021	38301.85
737.361	38223.66
737.702	38390.88
738.042	38238.57
738.383	38111.79
738.723	38286.48
739.063	38117.9
739.404	38343.43
739.744	38199.25
740.084	37989.54
740.424	38083.32
740.764	37932.14
741.104	38076.99
741.444	37809.43
741.784	37827.96
742.124	37711.35
742.464	37702.54
742.804	37590.9
743.143	37545.93
743.483	37527.4
743.823	37244.25
744.162	37260.52
744.502	37486.27
744.841	37252.16
745.181	37279.05
745.52	37240.86
745.86	37320.18
746.199	37117.47
746.538	37122.89
746.877	37178.26
747.216	37180.29
747.556	37132.39
747.895	37230.24
748.234	37083.12
748.573	37151.59
748.911	37209.22
749.25	37215.32
749.589	37170.35
749.928	37518.59
750.267	37575.09
750.605	37435.65
750.944	37398.82
751.283	37465.03
751.621	37643.78
751.96	37441.08
752.298	37531.24
752.636	37742.54
752.975	37601.98
753.313	37509.55
753.651	37785.7
753.989	37451.92
754.327	37663.44
754.666	37550.91
755.004	37631.36
755.342	37633.61
755.679	37441.98
756.017	37287.64
756.355	37463.45
756.693	37293.96
757.031	37494.64
757.368	37299.84
757.706	37338.93
758.044	37075.44
758.381	37168.99
758.719	36988.43
759.056	37035.89
759.394	36812.17
759.731	36783.24
760.068	36715
760.405	36558.84
760.743	36505.51
761.08	36669.35
761.417	36499.63
761.754	36360.2
762.091	36411.73
762.428	36223.93
762.765	36091.96
763.102	36298.96
763.438	36126.08
763.775	35898.29
764.112	36003.6
764.449	36132.64
764.785	35965.86
765.122	35907.33
765.458	35807.45
765.795	35829.14
766.131	35835.02
766.467	35600.45
766.804	35444.97
767.14	35619.66
767.476	35654.01
767.812	35606.78
768.148	35557.96
768.485	35469.15
768.821	35427.57
769.157	35282.72
769.492	35295.6
769.828	35323.17
770.164	35052.67
770.5	35159.33
770.836	34921.6
771.171	34714.6
771.507	34662.17
771.842	34443.87
772.178	34584.43
772.513	34561.15
772.849	34323.19
773.184	34160.03
773.519	34102.86
773.855	33761.17
774.19	33585.81
774.525	33613.16
774.86	33557.56
775.195	33320.96
775.53	33385.37
775.865	33206.61
776.2	33029.22
776.535	32718.49
776.87	32820.18
777.205	32549.91
777.539	32385.39
777.874	32285.73
778.209	32116.25
778.543	32083.03
778.878	31851.17
779.212	31827.67
779.547	31710.15
779.881	31780.44
780.215	31558.75
780.55	31598.07
780.884	31481.91
781.218	31441.46
781.552	31246.66
781.886	31179.77
782.22	31057.29
782.554	30943.17
782.888	30744.76
783.222	30708.37
783.556	30603.07
783.889	30507.7
784.223	30365.11
784.557	30316.97
784.89	30345.67
785.224	30260.93
785.557	30196.3
785.891	30245.33
786.224	30200.82
786.558	30055.28
786.891	29835.4
787.224	29747.04
787.557	29627.05
787.891	29664.11
788.224	29611
788.557	29672.02
788.89	29610.1
789.223	29480.84
789.556	29231.12
789.888	29281.52
790.221	29043.33
790.554	28961.75
790.887	28810.57
791.219	28796.11
791.552	28731.02
791.884	28414.87
792.217	28386.63
792.549	28199.96
792.882	27993.64
793.214	27985.51
793.546	27938.5
793.879	27814.66
794.211	27745.06
794.543	27790.71
794.875	27640.88
795.207	27687.21
795.539	27427.78
795.871	27311.85
796.203	27018.53
796.535	26776.95
796.867	26814.69
797.198	26772.88
797.53	26615.6
797.862	26548.71
798.193	26598.88
798.525	26398.2
798.856	26605.43
799.188	26364.53
799.519	26108.95
799.85	26156.4
800.182	26177.65
800.513	26058.55
800.844	25935.17
801.175	26038.89
801.506	26020.36
801.837	25807.49
802.168	25894.49
802.499	25733.81
802.83	25623.54
803.161	25504.67
803.491	25664.44
803.822	25560.26
804.153	25414.28
804.483	25321.4
804.814	25308.52
805.145	25291.57
805.475	25297.67
805.805	25194.17
806.136	25127.96
806.466	25101.29
806.796	25082.98
807.126	24896.1
807.457	24863.1
807.787	24762.32
808.117	24635.76
808.447	24521.19
808.777	24695.42
809.107	24520.97
809.436	24364.59
809.766	24348.09
810.096	24284.36
810.426	24142.67
810.755	24014.76
811.085	23947.65
811.414	23853.64
811.744	23735.68
812.073	23558.5
812.403	23669.91
812.732	23399.64
813.061	23486.19
813.39	23336.14
813.719	23133.88
814.049	23306.31
814.378	23071.29
814.707	22921.23
815.036	22837.85
815.365	22670.84
815.693	22677.85
816.022	22647.34
816.351	22619.77
816.68	22506.1
817.008	22480.34
817.337	22286
817.665	22277.18
817.994	22360.12
818.322	22296.62
818.651	22111.99
818.979	22126.9
819.307	22236.51
819.636	22174.81
819.964	22018.43
820.292	22140.69
820.62	22087.58
820.948	22138.43
821.276	22292.1
821.604	22059.34
821.932	22151.76
822.259	22193.34
822.587	22212.1
822.915	22202.38
823.243	22319.44
823.57	22217.07
823.898	22307.92
824.225	22116.06
824.553	22142.72
824.88	22355.15
825.207	22528.02
825.535	22320.8
825.862	22374.58
826.189	22296.62
826.516	22488.25
826.843	22528.48
827.17	22457.52
827.497	22400.12
827.824	22375.71
828.151	22456.84
828.478	22426.33
828.805	22448.7
829.131	22289.61
829.458	22230.4
829.785	22050.75
830.111	22230.63
830.438	22194.02
830.764	22226.56
831.09	22140.92
831.417	22005.55
831.743	22140.46
832.069	22151.31
832.395	21965.1
832.722	22021.82
833.048	21854.59
833.374	21768.27
833.7	21834.03
834.026	21775.27
834.351	21794.94
834.677	21741.15
835.003	21739.8
835.329	21655.96
835.654	21651.21
835.98	21616.64
836.306	21700.02
836.631	21497.32
836.956	21529.41
837.282	21515.39
837.607	21418.67
837.932	21375.06
838.258	21458.45
838.583	21319.02
838.908	21196.31
839.233	21327.6
839.558	21239.7
839.883	21205.8
840.208	21143.43
840.533	21154.27
840.858	21156.99
841.182	21288.96
841.507	21300.03
841.832	21153.37
842.156	21138
842.481	21160.6
842.805	21084.45
843.13	21046.71
843.454	21072.47
843.778	21071.56
844.103	20938.01
844.427	20903.43
844.751	20908.18
845.075	20750.67
845.399	20814.17
845.723	20747.96
846.047	20675.19
846.371	20577.57
846.695	20495.31
847.019	20389.32
847.343	20235.88
847.666	20130.35
847.99	20133.06
848.313	20086.96
848.637	19866.17
848.96	19872.27
849.284	19739.4
849.607	19592.73
849.931	19646.97
850.254	19377.37
850.577	19251.27
850.9	19101.45
851.223	18992.52
851.546	19018.96
851.869	18879.08
852.192	18853.32
852.515	18663.94
852.838	18523.83
853.161	18487.45
853.483	18443.39
853.806	18342.37
854.129	18282.49
854.451	18164.75
854.774	18109.83
855.096	17916.17
855.419	17937.18
855.741	17878.88
856.063	17823.97
856.385	17722.73
856.708	17675.72
857.03	17657.42
857.352	17588.49
857.674	17628.94
857.996	17621.03
858.318	17496.52
858.64	17557.76
858.961	17465.56
859.283	17518.44
859.605	17407.93
859.926	17464.2
860.248	17384.43
860.57	17287.03
860.891	17274.6
861.212	17234.38
861.534	17340.59
861.855	17201.38
862.176	17345.11
862.498	17253.36
862.819	17217.43
863.14	17099.47
863.461	17223.08
863.782	17161.16
864.103	17199.58
864.424	17131.56
864.745	17164.32
865.065	17071.67
865.386	17048.17
865.707	17037.32
866.027	17077.77
866.348	17020.15
866.668	16978.56
866.989	16943.99
867.309	16839.36
867.63	16798.23
867.95	16875.06
868.27	16784.45
868.59	16789.19
868.91	16764.11
869.23	16765.46
869.55	16625.35
869.87	16668.97
870.19	16615.18
870.51	16539.93
870.83	16543.32
871.15	16336.32
871.469	16352.14
871.789	16412.93
872.109	16309.88
872.428	16181.3
872.748	16252.03
873.067	16171.81
873.386	16120.96
873.706	16118.7
874.025	15952.38
874.344	15997.57
874.663	15977.24
874.982	15867.63
875.301	15879.84
875.62	15750.8
875.939	15776.79
876.258	15813.17
876.577	15693.17
876.896	15737.47
877.214	15582.44
877.533	15626.96
877.852	15662.22
878.17	15690.69
878.489	15671.93
878.807	15641.65
879.125	15567.53
879.444	15560.98
879.762	15523.46
880.08	15563.46
880.398	15415.67
880.716	15485.5
881.034	15449.11
881.352	15418.15
881.67	15470.58
881.988	15490.69
882.306	15450.47
882.624	15456.57
882.941	15268.1
883.259	15326.63
883.577	15353.75
883.894	15316.01
884.212	15334.77
884.529	15285.95
884.846	15239.85
885.164	15300.87
885.481	15185.17
885.798	15305.39
886.115	15163.47
886.432	15037.37
886.75	15145.84
887.067	15117.14
887.383	15083.93
887.7	15043.47
888.017	15046.19
888.334	14982.69
888.651	14987.88
888.967	14952.18
889.284	14862.01
889.6	14787.66
889.917	14660.89
890.233	14676.93
890.55	14653.65
890.866	14666.54
891.182	14518.29
891.498	14509.7
891.815	14412.3
892.131	14325.3
892.447	14357.39
892.763	14219.54
893.079	14156.72
893.395	14052.31
893.71	14024.29
894.026	13954.46
894.342	13903.17
894.657	13810.29
894.973	13810.51
895.289	13841.7
895.604	13754.92
895.92	13582.27
896.235	13538.43
896.55	13533.01
896.865	13507.92
897.181	13395.38
897.496	13344.76
897.811	13253.47
898.126	13228.38
898.441	13220.47
898.756	13083.07
899.071	13006.92
899.386	13093.24
899.7	13035.62
900.015	12936.86
900.33	12850.09
900.644	12843.76
900.959	12839.46
901.273	12782.74
901.588	12740.48
901.902	12759.92
902.216	12712.24
902.531	12691.67
902.845	12668.4
903.159	12614.61
903.473	12581.62
903.787	12483.77
904.101	12513.15
904.415	12486.03
904.729	12453.26
905.042	12335.98
905.356	12313.6
905.67	12361.96
905.984	12356.54
906.297	12346.37
906.611	12182.98
906.924	12204.23
907.237	12211.01
907.551	12053.04
907.864	12051.24
908.177	12036.55
908.491	12040.84
908.804	12017.57
909.117	11857.12
909.43	11848.98
909.743	11761.98
910.056	11770.34
910.368	11727.18
910.681	11716.78
910.994	11704.58
911.307	11684.24
911.619	11645.82
911.932	11520.4
912.244	11463.68
912.557	11442.67
912.869	11334.42
913.181	11277.02
913.494	11274.53
913.806	11199.06
914.118	11154.54
914.43	11056.46
914.742	11093.07
915.054	10962.68
915.366	10888.1
915.678	10816.92
915.99	10747.99
916.302	10759.97
916.613	10672.74
916.925	10578.51
917.236	10555.68
917.548	10539.19
917.859	10453.54
918.171	10329.02
918.482	10369.7
918.794	10263.26
919.105	10222.36
919.416	10138.52
919.727	10089.25
920.038	10113.43
920.349	10022.59
920.66	9912.99
920.971	9968.81
921.282	9885.42
921.593	9873.67
921.903	9815.36
922.214	9745.31
922.525	9787.12
922.835	9656.95
923.146	9679.77
923.456	9588.25
923.767	9579.66
924.077	9554.35
924.387	9432.1
924.697	9464.64
925.008	9477.75
925.318	9426.45
925.628	9421.02
925.938	9303.06
926.248	9276.62
926.558	9235.72
926.867	9223.97
927.177	9242.72
927.487	9222.61
927.796	9109.17
928.106	9153.69
928.416	9097.42
928.725	9133.35
929.034	9138.09
929.344	9045.21
929.653	8982.39
929.962	8931.09
930.271	8904.43
930.581	8902.17
930.89	8932.22
931.199	8905.1
931.508	8861.26
931.817	8818.33
932.125	8820.14
932.434	8830.08
932.743	8708.95
933.051	8718.44
933.36	8659.91
933.669	8627.37
933.977	8626.92
934.286	8575.85
934.594	8506.7
934.902	8452.91
935.21	8449.75
935.519	8496.98
935.827	8383.99
936.135	8289.08
936.443	8342.63
936.751	8250.43
937.059	8238.46
937.367	8247.95
937.674	8175.18
937.982	8110.1
938.29	8096.54
938.597	8020.38
938.905	7959.37
939.213	7931.35
939.52	7836.88
939.827	7896.54
940.135	7790.56
940.442	7828.07
940.749	7729.09
941.056	7733.38
941.363	7520.51
941.67	7508.31
941.977	7474.86
942.284	7442.09
942.591	7452.04
942.898	7372.49
943.205	7384.24
943.511	7289.78
943.818	7289.55
944.125	7262.66
944.431	7223.79
944.738	7216.34
945.044	7098.82
945.35	7070.58
945.657	6954.42
945.963	7083.23
946.269	6995.78
946.575	7003.91
946.881	6911.03
947.187	6930.02
947.493	6921.88
947.799	6897.02
948.105	6861.32
948.41	6827.87
948.716	6838.49
949.022	6749.68
949.327	6723.92
949.633	6677.37
949.938	6709.68
950.244	6697.48
950.549	6629.01
950.854	6612.96
951.16	6619.29
951.465	6580.42
951.77	6545.39
952.075	6507.2
952.38	6515.11
952.685	6494.32
952.99	6434.66
953.294	6404.38
953.599	6419.07
953.904	6409.8
954.209	6363.25
954.513	6347.21
954.818	6314.66
955.122	6303.37
955.426	6331.61
955.731	6276.25
956.035	6238.73
956.339	6227.21
956.643	6217.27
956.948	6188.79
957.252	6236.47
957.556	6116.7
957.86	6109.02
958.163	6084.84
958.467	6096.59
958.771	6027.21
959.075	6018.4
959.378	5950.38
959.682	5946.99
959.985	5922.81
960.289	5861.12
960.592	5843.72
960.896	5800.78
961.199	5810.27
961.502	5772.53
961.805	5721.01
962.108	5665.42
962.411	5725.75
962.714	5643.95
963.017	5634.46
963.32	5609.82
963.623	5575.93
963.926	5509.94
964.228	5468.36
964.531	5462.03
964.833	5421.35
965.136	5369.83
965.438	5397.63
965.741	5327.57
966.043	5311.53
966.345	5293
966.648	5255.94
966.95	5275.82
967.252	5213.9
967.554	5170.74
967.856	5140.68
968.158	5088.26
968.46	5110.85
968.761	5058.43
969.063	5031.31
969.365	5024.08
969.666	4948.6
969.968	4938.66
970.269	4934.59
970.571	4918.32
970.872	4871.99
971.174	4850.3
971.475	4890.07
971.776	4870.18
972.077	4806.23
972.378	4756.97
972.679	4716.97
972.98	4747.02
973.281	4753.35
973.582	4703.41
973.883	4730.98
974.183	4667.93
974.484	4651.43
974.785	4590.87
975.085	4633.13
975.386	4561.94
975.686	4584.54
975.986	4590.42
976.287	4541.6
976.587	4506.35
976.887	4479.68
977.187	4519.01
977.487	4512.9
977.787	4446.92
978.087	4474.94
978.387	4429.06
978.687	4410.76
978.987	4428.84
979.286	4406.47
979.586	4403.3
979.885	4338.22
980.185	4356.75
980.484	4364.21
980.784	4311.1
981.083	4307.94
981.382	4283.08
981.682	4284.89
981.981	4226.13
982.28	4228.39
982.579	4229.52
982.878	4214.38
983.177	4198.56
983.475	4213.02
983.774	4170.99
984.073	4169.86
984.372	4122.86
984.67	4108.39
984.969	4117.43
985.267	4088.28
985.566	4111.33
985.864	4014.16
986.162	4010.77
986.461	4057.32
986.759	4035.4
987.057	3998.12
987.355	3970.77
987.653	3970.77
987.951	3983.65
988.249	3935.07
988.547	3909.3
988.844	3881.28
989.142	3859.36
989.44	3798.12
989.737	3776.43
990.035	3765.8
990.332	3767.84
990.63	3760.38
990.927	3673.15
991.224	3706.6
991.521	3657.11
991.819	3688.07
992.116	3620.27
992.413	3647.39
992.71	3583.21
993.006	3591.35
993.303	3567.17
993.6	3527.85
993.897	3521.29
994.193	3479.03
994.49	3472.25
994.787	3461.86
995.083	3416.21
995.379	3387.96
995.676	3369.43
995.972	3366.95
996.268	3333.5
996.565	3350.67
996.861	3339.83
997.157	3285.37
997.453	3278.81
997.749	3232.03
998.044	3245.14
998.34	3210.57
998.636	3239.49
998.932	3176.44
999.227	3144.58
999.523	3168.98
999.818	3131.25
1000.114	3064.81
1000.409	3116.56
1000.704	3067.29
1001	3057.35
1001.295	3059.83
1001.59	3026.62
1001.885	3053.06
1002.18	3010.12
1002.475	2982.77
1002.77	2987.97
1003.065	2952.27
1003.359	2965.6
1003.654	2931.02
1003.949	2927.63
1004.243	2892.61
1004.538	2899.61
1004.832	2865.72
1005.127	2852.83
1005.421	2849.9
1005.715	2800.18
1006.009	2804.25
1006.304	2767.19
1006.598	2808.54
1006.892	2799.73
1007.186	2760.18
1007.48	2753.4
1007.773	2728.09
1008.067	2721.99
1008.361	2691.48
1008.655	2703.91
1008.948	2691.26
1009.242	2659.17
1009.535	2642.44
1009.829	2647.87
1010.122	2599.96
1010.415	2626.4
1010.708	2596.12
1011.001	2572.16
1011.295	2586.4
1011.588	2581.88
1011.881	2586.85
1012.173	2556.57
1012.466	2516.12
1012.759	2499.17
1013.052	2468.21
1013.344	2468.44
1013.637	2413.98
1013.93	2420.53
1014.222	2432.51
1014.514	2427.54
1014.807	2369.91
1015.099	2353.86
1015.391	2333.75
1015.683	2287.43
1015.976	2327.88
1016.268	2307.54
1016.56	2327.88
1016.851	2269.8
1017.143	2241.33
1017.435	2241.78
1017.727	2228.22
1018.018	2252.62
1018.31	2213.76
1018.602	2172.4
1018.893	2160.88
1019.185	2150.71
1019.476	2165.85
1019.767	2116.13
1020.058	2097.6
1020.35	2097.6
1020.641	2078.62
1020.932	2103.7
1021.223	2048.11
1021.514	2011.5
1021.804	1992.29
1022.095	1988.68
1022.386	1991.84
1022.677	1977.15
1022.967	1958.39
1023.258	1922.69
1023.548	1938.51
1023.839	1923.59
1024.129	1864.61
1024.419	1886.76
1024.709	1873.65
1025	1898.74
1025.29	1838.85
1025.58	1816.48
1025.87	1814.22
1026.16	1812.18
1026.449	1797.95
1026.739	1743.03
1027.029	1760.21
1027.319	1769.93
1027.608	1723.37
1027.898	1750.94
1028.187	1709.36
1028.477	1703.94
1028.766	1677.72
1029.055	1669.14
1029.344	1654
1029.634	1678.85
1029.923	1624.39
1030.212	1614.22
1030.501	1619.42
1030.79	1632.98
1031.078	1601.79
1031.367	1604.05
1031.656	1573.55
1031.945	1577.39
1032.233	1557.28
1032.522	1569.93
1032.81	1561.34
1033.099	1539.42
1033.387	1524.28
1033.675	1505.75
1033.963	1503.72
1034.251	1536.26
1034.54	1471.85
1034.828	1484.06
1035.116	1478.18
1035.403	1479.09
1035.691	1444.06
1035.979	1433.66
1036.267	1459.2
1036.554	1423.04
1036.842	1413.78
1037.129	1418.97
1037.417	1375.36
1037.704	1374.23
1037.992	1373.55
1038.279	1353.44
1038.566	1355.92
1038.853	1355.92
1039.14	1355.92
