Data from blue_shiny_book_FLMS001491_00002.txt Node
Date: Wed Feb 08 15:26:26 GMT 2017
User: dcchb
Spectrometer: FLMS00149
Trigger mode: 0
Integration Time (sec): 2.000000E-2
Scans to average: 10
Electric dark correction enabled: true
Nonlinearity correction enabled: false
Boxcar width: 0
XAxis mode: Wavelengths
Number of Pixels in Spectrum: 2048
>>>>>Begin Spectral Data<<<<<
341.393	-12.95
341.776	-12.95
342.16	-12.95
342.543	-68.77
342.927	-54.98
343.31	-74.64
343.693	-52.05
344.077	-68.09
344.46	-70.35
344.843	-69.45
345.226	-57.24
345.61	-15.89
345.993	-21.31
346.376	-6.4
346.759	35.41
347.142	12.13
347.525	30.21
347.908	68.63
348.291	93.26
348.674	81.96
349.057	113.82
349.44	124.67
349.823	130.55
350.206	164.44
350.588	207.83
350.971	221.84
351.354	260.26
351.737	239.02
352.119	269.07
352.502	262.3
352.884	281.96
353.267	286.48
353.65	315.63
354.032	312.69
354.414	331.67
354.797	323.99
355.179	346.13
355.562	321.5
355.944	327.38
356.326	348.85
356.709	355.63
357.091	338.45
357.473	368.51
357.855	361.5
358.238	359.24
358.62	381.61
359.002	386.13
359.384	370.32
359.766	353.59
360.148	359.92
360.53	369.64
360.912	350.2
361.294	361.73
361.676	340.26
362.057	363.54
362.439	352.69
362.821	358.56
363.203	359.69
363.584	356.3
363.966	343.88
364.348	345.23
364.729	340.03
365.111	358.34
365.493	367.38
365.874	365.12
366.256	327.38
366.637	348.62
367.019	365.34
367.4	332.12
367.781	333.03
368.163	350.88
368.544	357.21
368.925	366.93
369.306	341.62
369.688	363.54
370.069	353.59
370.45	351.11
370.831	360.82
371.212	365.57
371.593	362.41
371.974	337.77
372.355	356.08
372.736	365.8
373.117	352.69
373.498	369.41
373.879	380.26
374.26	363.76
374.641	344.78
375.021	355.63
375.402	375.51
375.783	362.86
376.163	378.68
376.544	373.48
376.925	371.9
377.305	394.27
377.686	388.17
378.066	384.78
378.447	393.14
378.827	406.92
379.208	376.64
379.588	399.92
379.968	400.6
380.349	394.72
380.729	397.43
381.109	419.35
381.489	418.68
381.87	400.37
382.25	434.49
382.63	426.58
383.01	438.34
383.39	423.42
383.77	434.95
384.15	436.75
384.53	440.82
384.91	441.5
385.29	427.26
385.67	465.91
386.049	458.22
386.429	455.51
386.809	463.65
387.189	475.4
387.568	478.33
387.948	465.23
388.328	470.2
388.707	458.9
389.087	476.3
389.466	476.3
389.846	491.89
390.225	489.86
390.605	514.72
390.984	506.13
391.363	520.37
391.743	515.17
392.122	509.75
392.501	520.59
392.881	538.67
393.26	569.86
393.639	558.78
394.018	544.1
394.397	557.88
394.776	566.69
395.155	559.24
395.534	565.56
395.913	587.94
396.292	592.46
396.671	592.46
397.05	600.82
397.429	584.32
397.808	600.14
398.186	602.63
398.565	629.74
398.944	636.07
399.323	614.15
399.701	643.53
400.08	641.49
400.458	635.62
400.837	668.39
401.215	670.42
401.594	672.23
401.972	667.48
402.351	678.56
402.729	685.11
403.107	718.55
403.486	715.39
403.864	716.52
404.242	714.26
404.62	720.81
404.999	732.11
405.377	746.12
405.755	737.76
406.133	756.29
406.511	782.96
406.889	799.46
407.267	799
407.645	824.77
408.023	822.96
408.401	816.41
408.779	850.08
409.156	836.29
409.534	843.52
409.912	854.37
410.29	899.57
410.667	910.41
411.045	931.88
411.422	914.93
411.8	924.2
412.178	952.67
412.555	936.85
412.933	981.37
413.31	1009.17
413.687	1020.02
414.065	1009.17
414.442	1015.5
414.819	1029.96
415.197	1050.3
415.574	1059.79
415.951	1084.65
416.328	1096.62
416.705	1090.52
417.082	1121.93
417.46	1132.55
417.837	1117.87
418.214	1139.79
418.591	1168.94
418.967	1175.27
419.344	1181.82
419.721	1220.91
420.098	1214.36
420.475	1215.49
420.852	1243.29
421.228	1263.62
421.605	1253.91
421.982	1286.45
422.358	1321.02
422.735	1303.62
423.111	1328.48
423.488	1333.91
423.864	1371.42
424.241	1391.76
424.617	1393.34
424.994	1407.58
425.37	1436.73
425.746	1429.95
426.123	1456.61
426.499	1476.05
426.875	1488.7
427.251	1523.73
427.627	1528.7
428.003	1550.85
428.379	1586.78
428.756	1628.81
429.132	1633.78
429.507	1679.66
429.883	1670.62
430.259	1683.05
430.635	1700.45
431.011	1722.14
431.387	1776.83
431.763	1791.97
432.138	1825.19
432.514	1845.53
432.89	1875.59
433.265	1914.68
433.641	1952.87
434.016	1951.74
434.392	2001.68
434.767	1999.65
435.143	2019.09
435.518	2025.19
435.894	2083.04
436.269	2090.27
436.644	2114.68
437.02	2123.72
437.395	2189.7
437.77	2238.97
438.145	2247.55
438.52	2275.35
438.895	2318.29
439.271	2367.55
439.646	2361
440.021	2381.79
440.395	2377.04
440.77	2362.58
441.145	2401.45
441.52	2496.36
441.895	2422.92
442.27	2491.16
442.645	2482.12
443.019	2569.35
443.394	2556.47
443.769	2596.7
444.143	2571.16
444.518	2610.03
444.892	2633.76
445.267	2660.42
445.641	2661.78
446.016	2702.01
446.39	2683.47
446.764	2728.45
447.139	2726.19
447.513	2756.47
447.887	2754.66
448.262	2818.39
448.636	2847.99
449.01	2893.41
449.384	2930.02
449.758	2916.24
450.132	2972.05
450.506	2991.49
450.88	2997.82
451.254	3028.78
451.628	3016.8
452.002	3071.04
452.376	3101.99
452.75	3123.92
453.123	3214.99
453.497	3264.02
453.871	3309.67
454.244	3324.36
454.618	3403
454.992	3456.56
455.365	3443.91
455.739	3537.01
456.112	3528.2
456.486	3564.81
456.859	3579.95
457.232	3624.01
457.606	3625.37
457.979	3721.19
458.352	3802.09
458.725	3857.23
459.099	3944.68
459.472	3999.82
459.845	4046.15
460.218	4083.21
460.591	4122.98
460.964	4169.99
461.337	4263.32
461.71	4282.75
462.083	4325.47
462.456	4339.93
462.829	4317.1
463.201	4445.69
463.574	4469.87
463.947	4564.78
464.32	4680.94
464.692	4722.52
465.065	4806.81
465.438	4870.08
465.81	4954.6
466.183	5024.43
466.555	5056.29
466.928	5142.62
467.3	5109.4
467.672	5193.01
468.045	5338.32
468.417	5299.23
468.789	5347.59
469.161	5466.68
469.534	5626.9
469.906	5690.63
470.278	5745.54
470.65	5831.19
471.022	5929.49
471.394	6118.41
471.766	6117.28
472.138	6234.57
472.51	6333.32
472.882	6356.6
473.253	6483.37
473.625	6529.02
473.997	6645.18
474.369	6710.26
474.74	6812.63
475.112	6936.92
475.484	7015.56
475.855	7232.73
476.227	7274.54
476.598	7509.11
476.97	7554.76
477.341	7787.97
477.713	7934.41
478.084	7995.43
478.455	8182.09
478.827	8160.39
479.198	8410.56
479.569	8438.8
479.94	8662.98
480.311	8718.12
480.682	8954.72
481.053	9154.04
481.424	9332.11
481.795	9454.82
482.166	9619.56
482.537	9740.46
482.908	9984.3
483.279	10203.95
483.65	10279.89
484.021	10500.9
484.391	10553.1
484.762	10662.02
485.133	10686.65
485.503	10904.73
485.874	11062.01
486.244	11176.36
486.615	11477.37
486.985	11607.53
487.356	11919.62
487.726	11991.25
488.097	12318.48
488.467	12367.97
488.837	12714.62
489.207	12875.07
489.578	13033.26
489.948	13084.33
490.318	13292.91
490.688	13265.57
491.058	13552.57
491.428	13743.52
491.798	13862.16
492.168	14157.07
492.538	14133.34
492.908	14393.68
493.278	14519.1
493.648	14546.21
494.017	14855.36
494.387	15023.72
494.757	15138.29
495.126	15413.08
495.496	15418.73
495.866	15620.08
496.235	15763.81
496.605	15851.94
496.974	16008.1
497.344	16131.48
497.713	16157.02
498.082	16312.95
498.452	16507.07
498.821	16681.3
499.19	16584.58
499.559	16776.66
499.928	16961.07
500.298	17117.22
500.667	17331.9
501.036	17345.69
501.405	17616.87
501.774	17667.26
502.143	17824.09
502.512	17859.35
502.88	18086.01
503.249	18072.9
503.618	18297.08
503.987	18306.57
504.356	18341.37
504.724	18475.83
505.093	18591.98
505.462	18782.26
505.83	18875.14
506.199	18992.42
506.567	19335.69
506.936	19302.25
507.304	19586.53
507.672	19669.92
508.041	19743.37
508.409	19926.19
508.777	20173.41
509.145	20318.72
509.514	20344.71
509.882	20447.53
510.25	20581.99
510.618	20733.85
510.986	20771.81
511.354	20948.08
511.722	21101.3
512.09	21346.94
512.458	21355.53
512.826	21660.83
513.193	21666.25
513.561	21858.79
513.929	21893.59
514.297	22295.61
514.664	22418.32
515.032	22486.34
515.4	22751.42
515.767	22834.58
516.135	23019.66
516.502	22847.69
516.869	23289.94
517.237	23308.02
517.604	23359.99
517.972	23699.65
518.339	23729.93
518.706	23982.35
519.073	24039.52
519.44	24209.69
519.808	24417.59
520.175	24488.78
520.542	24827.75
520.909	25058.93
521.276	25134.64
521.643	25309.55
522.009	25453.5
522.376	25706.37
522.743	25844.45
523.11	26035.4
523.477	26310.2
523.843	26450.53
524.21	26667.48
524.577	26903.85
524.943	27025.66
525.31	27198.08
525.676	27372.77
526.043	27565.76
526.409	27843.72
526.776	28053.66
527.142	28231.73
527.508	28405.06
527.874	28652.96
528.241	28899.28
528.607	28973.63
528.973	29260.4
529.339	29191.25
529.705	29618.81
530.071	29701.07
530.437	29856.55
530.803	30042.53
531.169	30132.47
531.535	30178.34
531.901	30326.14
532.267	30533.36
532.632	30731.78
532.998	30877.76
533.364	31164.53
533.73	31352.33
534.095	31494.47
534.461	31708.47
534.826	31795.25
535.192	32010.84
535.557	32116.83
535.923	32145.75
536.288	32237.95
536.653	32547.55
537.019	32445.4
537.384	32637.04
537.749	32750.25
538.114	32764.94
538.479	32871.16
538.845	32979.85
539.21	32983.92
539.575	33196.12
539.94	33345.95
540.305	33644.47
540.67	33563.34
541.034	33804.24
541.399	34015.76
541.764	34045.36
542.129	34325.35
542.494	34408.52
542.858	34559.7
543.223	34484.9
543.587	34763.31
543.952	34789.07
544.316	34781.84
544.681	34837.21
545.045	34992.68
545.41	35116.07
545.774	35149.74
546.138	35203.75
546.503	35230.42
546.867	35270.19
547.231	35536.17
547.595	35532.78
547.959	35792.21
548.324	35913.56
548.688	36221.8
549.052	36313.78
549.416	36376.83
549.779	36502.47
550.143	36782.01
550.507	36907.21
550.871	36916.7
551.235	36903.14
551.599	37247.54
551.962	37132.96
552.326	37280.08
552.689	37419.06
553.053	37201.66
553.417	37424.03
553.78	37725.94
554.143	37522.78
554.507	37724.81
554.87	37680.29
555.234	38054.07
555.597	38056.56
555.96	38375.19
556.323	38442.53
556.686	38567.05
557.05	38795.97
557.413	39098.34
557.776	39307.6
558.139	39553.01
558.502	39583.07
558.865	39678.43
559.228	39893.8
559.59	40051.98
559.953	39998.88
560.316	40323.61
560.679	40349.15
561.041	40219.66
561.404	40516.38
561.767	40630.95
562.129	40606.77
562.492	40910.49
562.854	40997.95
563.217	40928.12
563.579	40974.9
563.941	41441.1
564.304	41582.56
564.666	41877.25
565.028	41917.25
565.39	42289.66
565.753	42490.56
566.115	42681.97
566.477	42945.69
566.839	43038.35
567.201	43276.31
567.563	43363.31
567.925	43681.72
568.287	43523.98
568.648	43638.56
569.01	43777.31
569.372	43773.24
569.734	43617.77
570.095	43907.02
570.457	43819.57
570.819	43855.27
571.18	43899.11
571.542	44171.88
571.903	44218.88
572.265	44452.77
572.626	44649.6
572.987	44774.8
573.349	44917.17
573.71	45210.72
574.071	45317.83
574.432	45501.56
574.794	45930.7
575.155	45818.61
575.516	45814.54
575.877	45891.6
576.238	46205.04
576.599	46174.31
576.96	46306.51
577.32	46210.69
577.681	46201.43
578.042	46322.1
578.403	46285.72
578.763	46311.03
579.124	46230.13
579.485	46301.99
579.845	46347.64
580.206	46301.31
580.566	46160.3
580.927	46247.07
581.287	46527.07
581.648	46348.99
582.008	46734.52
582.368	46824.23
582.728	47033.95
583.089	46976.1
583.449	47024.23
583.809	47257.9
584.169	47350.77
584.529	47308.29
584.889	47638.68
585.249	47378.12
585.609	47325.46
585.969	47545.35
586.329	47472.35
586.688	47500.6
587.048	47298.12
587.408	47175.86
587.768	47058.35
588.127	47012.93
588.487	46902.2
588.846	47095.64
589.206	46775.2
589.565	46805.93
589.925	47166.15
590.284	46924.8
590.643	47035.98
591.003	47192.81
591.362	47330.66
591.721	47351
592.08	47423.54
592.44	47668.28
592.799	47798.45
593.158	47823.76
593.517	47880.48
593.876	47952.57
594.235	47915.05
594.593	48135.16
594.952	48176.52
595.311	47942.85
595.67	47909.18
596.029	48168.83
596.387	48019.91
596.746	47894.72
597.104	47633.71
597.463	47582.18
597.822	47768.84
598.18	47605.68
598.538	47523.43
598.897	47602.07
599.255	47184.9
599.613	47748.5
599.972	47663.76
600.33	47665.34
600.688	47761.16
601.046	47870.31
601.404	48150.08
601.762	47931.1
602.12	48287.25
602.478	48524.76
602.836	48466
603.194	48385.55
603.552	48613.11
603.91	48456.28
604.268	48645.88
604.625	48407.02
604.983	48599.56
605.341	48410.41
605.698	48506.68
606.056	48705.77
606.413	48620.8
606.771	48565.66
607.128	48548.03
607.485	48272.33
607.843	48292.44
608.2	48548.03
608.557	48535.83
608.914	48316.17
609.272	48503.96
609.629	48652.44
609.986	48807.69
610.343	48507.35
610.7	48840.68
611.057	49027.34
611.414	48919.32
611.771	49073.89
612.127	49277.5
612.484	49364.73
612.841	49558.17
613.198	49389.59
613.554	49495.58
613.911	49774.67
614.267	49626.2
614.624	49790.71
614.98	49734.44
615.337	49888.56
615.693	49777.15
616.05	49721.79
616.406	49845.62
616.762	49671.84
617.118	49601.79
617.475	49518.85
617.831	49617.16
618.187	49581
618.543	49504.62
618.899	49653.54
619.255	49644.27
619.611	49497.61
619.967	49689.02
620.323	49726.53
620.678	49660.09
621.034	49683.82
621.39	49699.87
621.746	49610.6
622.101	49980.99
622.457	49844.72
622.812	49981.67
623.168	50227.31
623.523	50201.77
623.879	50389.79
624.234	50106.86
624.589	50309.34
624.945	50366.97
625.3	50375.33
625.655	50328.78
626.01	50276.8
626.365	50354.76
626.72	50270.7
627.075	50065.73
627.43	50021.21
627.785	49867.54
628.14	49871.39
628.495	50004.94
628.85	49821.9
629.205	49630.49
629.559	49795.23
629.914	49560.21
630.269	49630.71
630.623	49564.5
630.978	49580.77
631.332	49665.29
631.687	49697.38
632.041	49740.99
632.396	49785.96
632.75	49718.4
633.104	49831.16
633.459	49674.78
633.813	49770.82
634.167	49696.25
634.521	49776.25
634.875	49862.8
635.229	49800.43
635.583	49597.95
635.937	49778.73
636.291	49696.93
636.645	49701.45
636.999	49601.56
637.352	49672.52
637.706	49551.85
638.06	49448.57
638.413	49272.76
638.767	49056.72
639.121	49167.9
639.474	48785.31
639.828	48791.41
640.181	48794.35
640.534	48749.83
640.888	48500.35
641.241	48520.01
641.594	48526.79
641.947	48494.93
642.301	48322.27
642.654	48459.67
643.007	48377.87
643.36	48411.31
643.713	48364.99
644.066	48575.15
644.419	48458.54
644.771	48539.44
645.124	48465.77
645.477	48561.59
645.83	48093.13
646.182	47929.97
646.535	47594.16
646.888	47491.34
647.24	47271
647.593	47575.85
647.945	47471.68
648.298	47179.71
648.65	47019.48
649.002	46962.99
649.355	47190.55
649.707	47155.98
650.059	47219.48
650.411	47820.59
650.763	47774.27
651.115	47995.73
651.467	47684.55
651.819	47713.03
652.171	47460.83
652.523	47453.82
652.875	47455.63
653.227	47371.57
653.578	47589.64
653.93	47572.01
654.282	47320.27
654.633	47189.2
654.985	47422.19
655.337	47279.59
655.688	47386.71
656.039	47496.31
656.391	47161.4
656.742	47257.9
657.094	47434.84
657.445	47711.9
657.796	47634.84
658.147	47659.47
658.498	47777.88
658.849	47833.25
659.2	47828.05
659.551	47617.66
659.902	47620.82
660.253	47593.71
660.604	47612.24
660.955	47526.82
661.306	47479.36
661.656	47283.66
662.007	47255.64
662.358	47319.14
662.708	47225.81
663.059	47212.02
663.409	46943.1
663.76	47219.25
664.11	46852.03
664.461	46887.06
664.811	46598.25
665.161	46672.83
665.511	46652.94
665.862	46628.53
666.212	46759.15
666.562	46958.47
666.912	46751.02
667.262	46700.17
667.612	46894.29
667.962	46905.36
668.312	46719.83
668.662	47065.58
669.011	47029.43
669.361	47037.56
669.711	47097.22
670.06	47034.62
670.41	47009.09
670.76	47203.21
671.109	47292.92
671.459	47129.09
671.808	47096.54
672.157	47210.67
672.507	46999.6
672.856	47121.85
673.205	47016.32
673.554	47118.01
673.904	46750.56
674.253	47111.68
674.602	46779.04
674.951	46203.91
675.3	46025.16
675.649	46404.13
675.998	46300.18
676.346	46198.26
676.695	46195.78
677.044	45917.14
677.393	46086.63
677.741	45935.44
678.09	45682.57
678.438	45682.34
678.787	45723.02
679.135	45765.05
679.484	45596.7
679.832	45819.06
680.181	45539.07
680.529	45787.88
680.877	45705.62
681.225	45764.83
681.573	45861.32
681.922	45697.94
682.27	45703.36
682.618	45717.6
682.966	45731.38
683.314	45975.22
683.661	45735.9
684.009	45628.33
684.357	45549.24
684.705	45439.19
685.053	45687.09
685.4	45569.58
685.748	45249.59
686.095	45221.79
686.443	45020.89
686.79	44907.68
687.138	44945.64
687.485	44751.75
687.832	44552.66
688.18	44475.82
688.527	44196.96
688.874	44042.16
689.221	44032.22
689.568	43834.03
689.915	43711.1
690.262	43704.32
690.609	43500.48
690.956	43214.16
691.303	43201.51
691.65	43000.61
691.997	43023.88
692.344	42582.31
692.69	42772.36
693.037	42713.16
693.383	42420.96
693.73	42615.76
694.077	42275.65
694.423	42465.25
694.769	42385.48
695.116	42240.63
695.462	42479.72
695.808	42332.83
696.155	42486.04
696.501	42162.44
696.847	42297.57
697.193	41997.24
697.539	42218.48
697.885	41981.65
698.231	41884.25
698.577	41696.46
698.923	41741.66
699.269	41533.53
699.614	41209.47
699.96	41239.75
700.306	41139.41
700.651	40962.02
700.997	40719.99
701.342	40529.49
701.688	40305.54
702.033	40112.55
702.379	39939.22
702.724	39907.13
703.069	39952.1
703.415	39335.39
703.76	39365
704.105	39226.69
704.45	39087.94
704.795	38794.39
705.14	38785.58
705.485	38793.71
705.83	38530.22
706.175	38773.37
706.52	38567.73
706.865	38447.05
707.209	38500.16
707.554	38360.5
707.899	38432.59
708.243	38275.08
708.588	38271.24
708.932	38114.18
709.277	38343.78
709.621	38352.59
709.966	38177.68
710.31	38317.57
710.654	38080.51
710.998	38312.82
711.342	38276.89
711.687	38189.43
712.031	37962.77
712.375	37806.84
712.719	37961.19
713.063	37708.54
713.407	37784.7
713.75	37514.65
714.094	37340.19
714.438	37257.03
714.782	37242.79
715.125	37147.88
715.469	36946.08
715.812	36668.57
716.156	36502.02
716.499	36467.22
716.843	36342.25
717.186	36119.88
717.53	36218.64
717.873	36203.5
718.216	35896.61
718.559	35618.2
718.902	35475.83
719.246	35595.6
719.589	35366.68
719.932	35518.77
720.275	35521.93
720.617	35512.22
720.96	35382.73
721.303	35368.72
721.646	35426.12
721.989	35334.59
722.331	35587.69
722.674	35479.22
723.016	35594.25
723.359	35569.16
723.701	35672.44
724.044	35462.95
724.386	35394.03
724.729	35679.44
725.071	35505.21
725.413	35473.12
725.755	35461.37
726.097	35411.43
726.439	35313.13
726.782	35274.71
727.124	35404.2
727.465	35127.82
727.807	35198.33
728.149	35151.77
728.491	35008.05
728.833	34944.77
729.175	34702.29
729.516	34672.01
729.858	34662.07
730.199	34676.08
730.541	34349.31
730.882	34310.21
731.224	34519.7
731.565	34141.4
731.906	34076.32
732.248	34164
732.589	33895.08
732.93	33747.52
733.271	33792.94
733.612	33904.12
733.953	33842.88
734.294	33695.09
734.635	33615.54
734.976	33733.05
735.317	33592.04
735.658	33812.37
735.999	33966.27
736.339	33864.58
736.68	33900.51
737.021	33897.34
737.361	33848.98
737.702	34109.09
738.042	33949.09
738.383	34029.32
738.723	34175.53
739.063	34165.58
739.404	34276.54
739.744	34273.15
740.084	34263.66
740.424	34427.5
740.764	34253.72
741.104	34351.79
741.444	34130.33
741.784	34104.34
742.124	34303.66
742.464	34101.86
742.804	34188.63
743.143	34060.95
743.483	33974.4
743.823	33881.75
744.162	33968.98
744.502	33812.83
744.841	33649.67
745.181	33742.77
745.52	33514.53
745.86	33692.38
746.199	33389.56
746.538	33349.33
746.877	33509.33
747.216	33451.48
747.556	33385.04
747.895	33324.02
748.234	33263.91
748.573	33152.73
748.911	33192.28
749.25	33175.55
749.589	33154.31
749.928	33251.71
750.267	33200.86
750.605	33152.73
750.944	33212.39
751.283	33237.25
751.621	33348.66
751.96	33223.46
752.298	33392.05
752.636	33554.3
752.975	33338.49
753.313	33328.77
753.651	33426.85
753.989	33366.28
754.327	33578.48
754.666	33504.36
755.004	33815.31
755.342	33743
755.679	33618.71
756.017	33535.54
756.355	33754.52
756.693	33608.99
757.031	33747.74
757.368	33639.72
757.706	33671.13
758.044	33477.02
758.381	33662.1
758.719	33598.14
759.056	33744.13
759.394	33433.17
759.731	33308.88
760.068	33334.87
760.405	33146.18
760.743	33094.43
761.08	33145.95
761.417	32889.01
761.754	32888.56
762.091	32895.34
762.428	32664.83
762.765	32656.47
763.102	32733.76
763.438	32538.51
763.775	32343.94
764.112	32400.43
764.449	32403.6
764.785	32263.26
765.122	32119.76
765.458	31968.13
765.795	32085.87
766.131	32115.24
766.467	32099.65
766.804	31942.14
767.14	31769.26
767.476	31842.26
767.812	31744.86
768.148	31914.12
768.485	31739.43
768.821	31574.01
769.157	31588.25
769.492	31602.26
769.828	31724.07
770.164	31421.93
770.5	31455.37
770.836	31583.73
771.171	31344.64
771.507	31355.49
771.842	31041.83
772.178	31266.45
772.513	31158.21
772.849	31080.69
773.184	30893.13
773.519	31038.89
773.855	30797.99
774.19	30674.15
774.525	30456.08
774.86	30661.72
775.195	30472.8
775.53	30398.68
775.865	30307.38
776.2	30092.47
776.535	29880.05
776.87	29920.5
777.205	29674.86
777.539	29579.94
777.874	29533.39
778.209	29233.96
778.543	29085.49
778.878	28906.06
779.212	28840.98
779.547	28836.91
779.881	28926.17
780.215	28630.81
780.55	28670.59
780.884	28324.83
781.218	28263.59
781.552	28316.92
781.886	28124.39
782.22	28029.93
782.554	27959.87
782.888	27677.17
783.222	27600.33
783.556	27620.45
783.889	27572.99
784.223	27426.78
784.557	27221.13
784.89	27355.82
785.224	27184.3
785.557	27088.03
785.891	27139.78
786.224	26998.32
786.558	27036.05
786.891	26840.13
787.224	26718.32
787.557	26725.78
787.891	26812.11
788.224	26791.09
788.557	26617.53
788.89	26557.88
789.223	26593.58
789.556	26411.66
789.888	26345.68
790.221	26353.13
790.554	26101.84
790.887	26103.42
791.219	26039.92
791.552	25905.91
791.884	25654.4
792.217	25578.01
792.549	25625.92
792.882	25460.95
793.214	25381.63
793.546	25295.54
793.879	25133.51
794.211	25068.87
794.543	25165.37
794.875	24945.71
795.207	24900.29
795.539	24722.67
795.871	24825.04
796.203	24445.84
796.535	24248.11
796.867	24184.6
797.198	24268.22
797.53	24168.56
797.862	23912.97
798.193	23977.83
798.525	23710.72
798.856	23718.63
799.188	23616.94
799.519	23524.51
799.85	23392.31
800.182	23392.99
800.513	23447
800.844	23243.39
801.175	23323.16
801.506	23371.29
801.837	23147.12
802.168	23188.02
802.499	23117.74
802.83	22990.96
803.161	22820.35
803.491	22913.23
803.822	22950.51
804.153	22878.65
804.483	22778.77
804.814	22682.95
805.145	22651.76
805.475	22690.86
805.805	22592.1
806.136	22684.3
806.466	22635.27
806.796	22564.53
807.126	22316.86
807.457	22439.57
807.787	22361.38
808.117	22223.53
808.447	22259.68
808.777	22224.43
809.107	22154.6
809.436	22018.56
809.766	22089.07
810.096	21956.41
810.426	21980.82
810.755	21875.06
811.085	21810.88
811.414	21682.3
811.744	21598.46
812.073	21454.96
812.403	21553.49
812.732	21364.34
813.061	21298.58
813.39	21094.29
813.719	21071.24
814.049	21187.39
814.378	21174.29
814.707	21013.39
815.036	20902.88
815.365	20840.96
815.693	20699.27
816.022	20663.57
816.351	20540.41
816.68	20469.45
817.008	20478.49
817.337	20358.72
817.665	20373.63
817.994	20469.45
818.322	20281.66
818.651	20262
818.979	20117.14
819.307	20176.12
819.636	20115.78
819.964	19935.45
820.292	20038.05
820.62	20040.76
820.948	19946.52
821.276	20067.42
821.604	19866.75
821.932	20120.3
822.259	20078.5
822.587	19997.14
822.915	20026.75
823.243	20113.3
823.57	20026.75
823.898	20168.89
824.225	19997.6
824.553	20070.14
824.88	20073.3
825.207	20232.84
825.535	20065.84
825.862	20148.33
826.189	20133.19
826.516	20138.61
826.843	20230.36
827.17	20336.8
827.497	20259.74
827.824	20278.94
828.151	20261.09
828.478	20181.77
828.805	20255.89
829.131	20185.16
829.458	20219.06
829.785	20036.01
830.111	20052.51
830.438	20172.28
830.764	20079.4
831.09	20107.88
831.417	19964.83
831.743	20111.26
832.069	20158.5
832.395	19944.26
832.722	20123.69
833.048	19964.38
833.374	19917.6
833.7	19823.81
834.026	19850.71
834.351	19860.2
834.677	19818.84
835.003	19871.05
835.329	19811.84
835.654	19748.11
835.98	19540.88
836.306	19670.6
836.631	19493.2
836.956	19555.12
837.282	19498.17
837.607	19363.04
837.932	19331.62
838.258	19280.78
838.583	19202.36
838.908	19151.52
839.233	19300.89
839.558	19179.09
839.883	19054.34
840.208	19069.26
840.533	18991.29
840.858	19162.82
841.182	19233.77
841.507	19082.14
841.832	19036.94
842.156	18967.34
842.481	19045.98
842.805	18898.42
843.13	18975.7
843.454	18871.3
843.778	18834.91
844.103	18888.02
844.427	18844.63
844.751	18703.84
845.075	18631.3
845.399	18715.14
845.723	18553.57
846.047	18586.11
846.371	18445.09
846.695	18462.27
847.019	18344.08
847.343	18226.79
847.666	18141.83
847.99	18096.4
848.313	18020.02
848.637	17997.42
848.96	17958.33
849.284	17908.61
849.607	17869.97
849.931	17816.41
850.254	17658.67
850.577	17490.99
850.9	17475.18
851.223	17474.95
851.546	17308.63
851.869	17156.77
852.192	17278.8
852.515	17076.54
852.838	16956.77
853.161	17110.21
853.483	16967.62
853.806	16772.14
854.129	16806.27
854.451	16777.57
854.774	16661.41
855.096	16547.97
855.419	16586.16
855.741	16533.73
856.063	16395.88
856.385	16299.16
856.708	16249.67
857.03	16208.54
857.352	16204.02
857.674	16115.66
857.996	16080.18
858.318	15991.37
858.64	15884.71
858.961	15871.15
859.283	15846.97
859.605	15636.58
859.926	15855.33
860.248	15670.25
860.57	15644.94
860.891	15659.18
861.212	15475.23
861.534	15544.83
861.855	15637.26
862.176	15514.55
862.498	15603.59
862.819	15494.21
863.14	15402.91
863.461	15462.8
863.782	15397.94
864.103	15397.49
864.424	15388
864.745	15419.18
865.065	15292.41
865.386	15233.43
865.707	15329.47
866.027	15230.72
866.348	15222.13
866.668	15218.74
866.989	15173.99
867.309	15092.64
867.63	15129.48
867.95	15219.19
868.27	15092.87
868.59	15150.72
868.91	15126.31
869.23	15164.95
869.55	15014.9
869.87	15136.71
870.19	15042.02
870.51	15079.31
870.83	15058.74
871.15	14995.47
871.469	14907.11
871.789	14970.16
872.109	14911.63
872.428	14756.83
872.748	14816.71
873.067	14820.33
873.386	14738.75
873.706	14774.91
874.025	14667.57
874.344	14567.23
874.663	14668.02
874.982	14633.89
875.301	14556.83
875.62	14396.16
875.939	14460.11
876.258	14420.34
876.577	14283.85
876.896	14427.35
877.214	14292.21
877.533	14322.26
877.852	14207.92
878.17	14322.04
878.489	14120.91
878.807	14135.38
879.125	14102.16
879.444	14084.53
879.762	14112.55
880.08	14068.49
880.398	13892.67
880.716	13918.21
881.034	13917.08
881.352	13929.51
881.67	13861.26
881.988	13824.2
882.306	13773.8
882.624	13808.38
882.941	13670.08
883.259	13616.97
883.577	13670.08
883.894	13551.66
884.212	13580.59
884.529	13573.58
884.846	13565.67
885.164	13602.51
885.481	13582.85
885.798	13539.46
886.115	13424.66
886.432	13405.68
886.75	13447.26
887.067	13501.04
887.383	13401.61
887.7	13405
888.017	13357.54
888.334	13390.76
888.651	13314.16
888.967	13317.09
889.284	13281.39
889.6	13235.51
889.917	13156.42
890.233	13097.21
890.55	13216.53
890.866	13133.37
891.182	13174.72
891.498	13121.39
891.815	13033.48
892.131	13075.29
892.447	12943.32
892.763	12981.51
893.079	12912.58
893.395	12756.88
893.71	12825.58
894.026	12818.8
894.342	12844.56
894.657	12654.51
894.973	12634.17
895.289	12642.99
895.604	12579.26
895.92	12506.27
896.235	12443.22
896.55	12462.2
896.865	12479.6
897.181	12266.27
897.496	12380.39
897.811	12139.05
898.126	12133.4
898.441	12104.02
898.756	12122.32
899.071	12014.3
899.386	12060.86
899.7	11860.63
900.015	11833.97
900.33	11702.22
900.644	11733.63
900.959	11760.07
901.273	11653.18
901.588	11618.61
901.902	11546.29
902.216	11563.69
902.531	11490.25
902.845	11419.06
903.159	11316.02
903.473	11310.59
903.787	11306.98
904.101	11221.33
904.415	11109.02
904.729	11148.56
905.042	11038.06
905.356	11025.63
905.67	10946.76
905.984	11010.71
906.297	10950.15
906.611	10859.98
906.924	10932.75
907.237	10905.41
907.551	10834.67
907.864	10754.45
908.177	10735.01
908.491	10747.67
908.804	10615.02
909.117	10659.76
909.43	10660.67
909.743	10591.29
910.056	10601.46
910.368	10498.18
910.681	10438.75
910.994	10489.15
911.307	10479.88
911.619	10316.95
911.932	10405.53
912.244	10262.26
912.557	10369.83
912.869	10266.78
913.181	10168.48
913.494	10160.79
913.806	10194.92
914.118	10135.03
914.43	10037.86
914.742	10125.31
915.054	9997.18
915.366	10002.83
915.678	9970.74
915.99	9820.24
916.302	9865.43
916.613	9763.29
916.925	9798.77
917.236	9773.23
917.548	9650.75
917.859	9639.9
918.171	9608.26
918.482	9568.04
918.794	9528.04
919.105	9487.14
919.416	9386.12
919.727	9381.6
920.038	9338.89
920.349	9215.51
920.66	9152.01
920.971	9227.03
921.282	9122.18
921.593	9093.25
921.903	9005.57
922.214	8994.5
922.525	8949.98
922.835	8906.81
923.146	8811.68
923.456	8775.07
923.767	8743.2
924.077	8747.5
924.387	8760.6
924.697	8654.62
925.008	8621.85
925.318	8583.43
925.628	8579.59
925.938	8450.1
926.248	8397
926.558	8353.83
926.867	8326.26
927.177	8334.17
927.487	8314.06
927.796	8220.73
928.106	8190
928.416	8133.27
928.725	8139.15
929.034	8115.87
929.344	8075.88
929.653	8010.11
929.962	8017.35
930.271	7983.67
930.581	7971.02
930.89	7863.9
931.199	7923.11
931.508	7866.62
931.817	7854.41
932.125	7889.67
932.434	7856.22
932.743	7722.89
933.051	7757.01
933.36	7741.19
933.669	7659.61
933.977	7665.04
934.286	7695.77
934.594	7640.41
934.902	7547.08
935.21	7572.39
935.519	7538.71
935.827	7506.4
936.135	7485.61
936.443	7476.34
936.751	7429.56
937.059	7414.65
937.367	7438.38
937.674	7418.04
937.982	7335.1
938.29	7300.3
938.597	7293.52
938.905	7263.69
939.213	7219.4
939.52	7176.46
939.827	7203.36
940.135	7168.55
940.442	7086.97
940.749	7082.68
941.056	7084.04
941.363	6935.34
941.67	6925.17
941.977	6927.43
942.284	6872.74
942.591	6898.05
942.898	6898.51
943.205	6828.45
943.511	6762.92
943.818	6762.46
944.125	6663.93
944.431	6682.24
944.738	6602.47
945.044	6573.77
945.35	6493.77
945.657	6495.35
945.963	6445.18
946.269	6434.34
946.575	6417.39
946.881	6431.4
947.187	6327.67
947.493	6299.65
947.799	6265.75
948.105	6269.14
948.41	6195.92
948.716	6222.14
949.022	6195.92
949.327	6146.43
949.633	6040.22
949.938	6052.43
950.244	6056.95
950.549	5983.27
950.854	5977.85
951.16	5930.62
951.465	5924.07
951.77	5909.83
952.075	5883.39
952.38	5812.88
952.685	5809.49
952.99	5802.71
953.294	5756.61
953.599	5691.53
953.904	5676.84
954.209	5688.82
954.513	5676.62
954.818	5650.85
955.122	5624.19
955.426	5640.01
955.731	5602.27
956.035	5567.24
956.339	5550.07
956.643	5547.81
956.948	5543.06
957.252	5529.95
957.556	5534.47
957.86	5455.15
958.163	5487.92
958.467	5401.37
958.771	5461.03
959.075	5446.79
959.378	5366.34
959.682	5366.12
959.985	5302.39
960.289	5327.92
960.592	5327.25
960.896	5316.17
961.199	5281.37
961.502	5270.75
961.805	5267.81
962.108	5190.53
962.411	5174.03
962.714	5180.13
963.017	5179.23
963.32	5129.29
963.623	5095.39
963.926	5165.9
964.228	5119.79
964.531	5040.25
964.833	5053.58
965.136	5037.99
965.438	5007.93
965.741	4956.86
966.043	4921.83
966.345	4953.7
966.648	4904.21
966.95	4885.9
967.252	4867.37
967.554	4875.28
967.856	4812.23
968.158	4771.56
968.46	4756.19
968.761	4757.54
969.063	4663.08
969.365	4658.11
969.666	4602.07
969.968	4627.83
970.269	4619.02
970.571	4581.05
970.872	4538.79
971.174	4501.28
971.475	4478.46
971.776	4529.75
972.077	4431.9
972.378	4427.16
972.679	4359.81
972.98	4386.48
973.281	4336.09
973.582	4307.16
973.883	4324.56
974.183	4304.67
974.484	4281.17
974.785	4193.94
975.085	4243.43
975.386	4213.83
975.686	4165.02
975.986	4124.34
976.287	4134.28
976.587	4114.4
976.887	4104.23
977.187	4106.04
977.487	4098.58
977.787	4061.29
978.087	4061.07
978.387	3991.46
978.687	4001.63
978.987	3958.7
979.286	3958.47
979.586	3957.34
979.885	3937
980.185	3881.86
980.484	3857.68
980.784	3915.76
981.083	3861.52
981.382	3865.36
981.682	3823.56
981.981	3823.78
982.28	3831.02
982.579	3810
982.878	3767.74
983.177	3785.37
983.475	3777.01
983.774	3687.06
984.073	3694.52
984.372	3706.72
984.67	3706.05
984.969	3719.83
985.267	3684.13
985.566	3688.87
985.864	3686.39
986.162	3695.43
986.461	3660.17
986.759	3649.1
987.057	3586.28
987.355	3579.72
987.653	3604.13
987.951	3575.2
988.249	3589.67
988.547	3556.9
988.844	3534.98
989.142	3501.53
989.44	3489.78
989.737	3526.84
990.035	3492.04
990.332	3501.31
990.63	3433.29
990.927	3431.7
991.224	3441.42
991.521	3413.4
991.819	3378.15
992.116	3363.68
992.413	3363.23
992.71	3310.35
993.006	3306.96
993.303	3312.84
993.6	3300.18
993.897	3251.6
994.193	3281.65
994.49	3193.52
994.787	3172.95
995.083	3181.77
995.379	3148.55
995.676	3102.9
995.972	3171.37
996.268	3131.37
996.565	3111.03
996.861	3097.7
997.157	3057.25
997.453	3028.1
997.749	3044.82
998.044	3017.93
998.34	3006.86
998.636	2998.95
998.932	2952.85
999.227	2899.97
999.523	2897.48
999.818	2883.92
1000.114	2872.62
1000.409	2859.52
1000.704	2836.24
1001	2841.66
1001.295	2792.4
1001.59	2771.61
1001.885	2815.22
1002.18	2723.25
1002.475	2747.65
1002.77	2720.08
1003.065	2695.23
1003.359	2704.27
1003.654	2698.39
1003.949	2661.1
1004.243	2648.67
1004.538	2613.42
1004.832	2630.14
1005.127	2599.18
1005.421	2548.79
1005.715	2569.81
1006.009	2563.03
1006.304	2511.5
1006.598	2530.48
1006.892	2494.55
1007.186	2495.23
1007.48	2443.71
1007.773	2441
1008.067	2440.32
1008.361	2428.34
1008.655	2401
1008.948	2409.13
1009.242	2391.73
1009.535	2393.31
1009.829	2399.19
1010.122	2392.86
1010.415	2344.27
1010.708	2354.44
1011.001	2360.77
1011.295	2293.65
1011.588	2298.63
1011.881	2299.76
1012.173	2262.02
1012.466	2246.88
1012.759	2270.6
1013.052	2299.3
1013.344	2232.19
1013.637	2229.25
1013.93	2219.31
1014.222	2207.78
1014.514	2213.66
1014.807	2204.39
1015.099	2179.31
1015.391	2185.86
1015.683	2140.66
1015.976	2142.92
1016.268	2101.34
1016.56	2121.91
1016.851	2099.76
1017.143	2101.8
1017.435	2077.39
1017.727	2071.51
1018.018	2061.34
1018.31	2027.22
1018.602	2057.05
1018.893	2018.41
1019.185	1994.45
1019.476	1995.81
1019.767	1986.32
1020.058	2010.72
1020.35	1935.47
1020.641	1988.35
1020.932	1920.78
1021.223	1898.41
1021.514	1902.48
1021.804	1863.84
1022.095	1868.58
1022.386	1880.56
1022.677	1827.45
1022.967	1808.7
1023.258	1820.45
1023.548	1801.69
1023.839	1770.28
1024.129	1763.95
1024.419	1768.02
1024.709	1732.09
1025	1764.63
1025.29	1730.73
1025.58	1713.33
1025.87	1685.31
1026.16	1684.18
1026.449	1704.97
1026.739	1684.4
1027.029	1678.08
1027.319	1639.89
1027.608	1643.95
1027.898	1618.64
1028.187	1597.85
1028.477	1609.6
1028.766	1575.93
1029.055	1571.41
1029.344	1572.77
1029.634	1552.66
1029.923	1547.23
1030.212	1526.44
1030.501	1504.75
1030.79	1512.66
1031.078	1512.21
1031.367	1505.88
1031.656	1468.37
1031.945	1453.9
1032.233	1457.07
1032.522	1441.47
1032.81	1423.62
1033.099	1382.72
1033.387	1424.07
1033.675	1396.73
1033.963	1373.9
1034.251	1396.5
1034.54	1375.03
1034.828	1350.63
1035.116	1355.83
1035.403	1337.3
1035.691	1312.44
1035.979	1319.67
1036.267	1292.1
1036.554	1287.13
1036.842	1313.57
1037.129	1315.15
1037.417	1312.89
1037.704	1255.04
1037.992	1254.81
1038.279	1271.08
1038.566	1239.44
1038.853	1239.44
1039.14	1239.44
