Data from blue_surface_keyboard_FLMS001491_055.txt Node
Date: Tue Feb 07 11:13:20 GMT 2017
User: dcchb
Spectrometer: FLMS00149
Trigger mode: 0
Integration Time (sec): 2.000000E-2
Scans to average: 10
Electric dark correction enabled: true
Nonlinearity correction enabled: false
Boxcar width: 0
XAxis mode: Wavelengths
Number of Pixels in Spectrum: 2048
>>>>>Begin Spectral Data<<<<<
341.393	-20.97
341.776	-20.97
342.16	-20.97
342.543	-75.66
342.927	-83.35
343.31	-74.98
343.693	-73.18
344.077	-51.48
344.46	-84.7
344.843	-59.39
345.226	-38.15
345.61	-23.01
345.993	-11.26
346.376	-35.21
346.759	10.66
347.142	34.39
347.525	46.37
347.908	74.16
348.291	89.08
348.674	92.7
349.057	103.99
349.44	135.41
349.823	162.75
350.206	160.49
350.588	174.5
350.971	184.44
351.354	200.04
351.737	206.36
352.119	214.05
352.502	233.48
352.884	238.91
353.267	248.85
353.65	246.59
354.032	259.24
354.414	266.93
354.797	271.45
355.179	289.53
355.562	264.44
355.944	294.05
356.326	296.31
356.709	322.75
357.091	296.31
357.473	315.97
357.855	292.24
358.238	300.6
358.62	319.13
359.002	318
359.384	304.67
359.766	300.83
360.148	301.28
360.53	291.79
360.912	317.32
361.294	316.42
361.676	291.11
362.057	298.79
362.439	295.18
362.821	310.54
363.203	302.41
363.584	292.01
363.966	322.97
364.348	285.68
364.729	292.46
365.111	304.22
365.493	298.34
365.874	294.5
366.256	279.13
366.637	288.17
367.019	289.3
367.4	289.75
367.781	296.08
368.163	302.18
368.544	285.23
368.925	259.24
369.306	300.37
369.688	283.65
370.069	294.95
370.45	261.28
370.831	291.11
371.212	274.84
371.593	287.04
371.974	292.46
372.355	275.06
372.736	282.07
373.117	292.01
373.498	272.35
373.879	278.91
374.26	286.36
374.641	285.46
375.021	272.35
375.402	290.43
375.783	287.72
376.163	292.24
376.544	295.4
376.925	293.37
377.305	311.67
377.686	294.72
378.066	291.33
378.447	296.53
378.827	279.13
379.208	283.2
379.588	274.16
379.968	299.7
380.349	291.56
380.729	295.4
381.109	287.04
381.489	313.25
381.87	300.15
382.25	285.23
382.63	293.14
383.01	305.57
383.39	302.18
383.77	280.71
384.15	292.01
384.53	313.25
384.91	288.85
385.29	304.44
385.67	298.79
386.049	306.7
386.429	297.66
386.809	301.73
387.189	327.94
387.568	296.53
387.948	321.62
388.328	298.57
388.707	319.36
389.087	306.02
389.466	323.2
389.846	299.24
390.225	308.06
390.605	307.38
390.984	332.01
391.363	317.32
391.743	319.36
392.122	298.57
392.501	310.54
392.881	312.58
393.26	329.53
393.639	316.64
394.018	308.28
394.397	310.32
394.776	305.57
395.155	327.94
395.534	318.68
395.913	340.15
396.292	342.18
396.671	344.44
397.05	292.24
397.429	318.9
397.808	341.5
398.186	307.6
398.565	337.89
398.944	340.82
399.323	322.52
399.701	331.56
400.08	348.28
400.458	334.04
400.837	334.5
401.215	328.62
401.594	366.36
401.972	334.72
402.351	320.26
402.729	353.25
403.107	354.61
403.486	333.37
403.864	350.99
404.242	350.09
404.62	360.03
404.999	334.04
405.377	349.41
405.755	341.95
406.133	353.25
406.511	349.41
406.889	337.21
407.267	353.25
407.645	361.16
408.023	370.2
408.401	348.28
408.779	365
409.156	372.69
409.534	367.72
409.912	357.77
410.29	342.86
410.667	370.88
411.045	339.92
411.422	366.59
411.8	355.74
412.178	362.07
412.555	376.53
412.933	360.71
413.31	362.74
413.687	389.41
414.065	382.86
414.442	358.68
414.819	378.79
415.197	375.85
415.574	386.92
415.951	377.89
416.328	388.73
416.705	388.28
417.082	375.85
417.46	377.21
417.837	377.43
418.214	394.61
418.591	390.09
418.967	384.21
419.344	403.42
419.721	415.62
420.098	401.61
420.475	380.6
420.852	401.39
421.228	394.61
421.605	398.45
421.982	389.41
422.358	408.17
422.735	426.7
423.111	428.28
423.488	413.36
423.864	419.24
424.241	397.32
424.617	403.42
424.994	429.86
425.37	407.49
425.746	423.76
426.123	440.26
426.499	435.06
426.875	422.4
427.251	423.53
427.627	417.88
428.003	437.77
428.379	433.7
428.756	423.31
429.132	431.9
429.507	450.88
429.883	433.25
430.259	431.9
430.635	425.79
431.011	450.88
431.387	465.57
431.763	454.95
432.138	457.66
432.514	465.34
432.89	457.43
433.265	438.22
433.641	469.41
434.016	470.09
434.392	444.78
434.767	470.54
435.143	486.81
435.518	499.01
435.894	504.89
436.269	465.57
436.644	480.26
437.02	480.93
437.395	485.45
437.77	481.39
438.145	479.13
438.52	501.27
438.895	489.3
439.271	489.97
439.646	505.11
440.021	500.59
440.395	516.64
440.77	498.33
441.145	524.1
441.52	503.08
441.895	535.62
442.27	499.46
442.645	510.54
443.019	520.48
443.394	523.42
443.769	522.06
444.143	527.03
444.518	546.92
444.892	497.43
445.267	528.39
445.641	540.59
446.016	526.36
446.39	553.25
446.764	535.17
447.139	548.95
447.513	536.98
447.887	547.6
448.262	538.33
448.636	564.1
449.01	541.05
449.384	547.37
449.758	570.87
450.132	565.68
450.506	534.04
450.88	568.39
451.254	589.63
451.628	573.59
452.002	586.92
452.376	560.71
452.75	593.93
453.123	582.85
453.497	586.24
453.871	592.12
454.244	593.02
454.618	606.13
454.992	617.43
455.365	611.55
455.739	598.9
456.112	597.77
456.486	605.9
456.859	622.85
457.232	619.46
457.606	625.11
457.979	631.44
458.352	655.17
458.725	632.57
459.099	633.02
459.472	661.72
459.845	657.88
460.218	644.09
460.591	659.91
460.964	635.05
461.337	652.23
461.71	648.39
462.083	673.92
462.456	673.7
462.829	682.96
463.201	666.24
463.574	663.08
463.947	697.43
464.32	705.33
464.692	701.72
465.065	707.82
465.438	707.37
465.81	717.54
466.183	742.62
466.555	726.35
466.928	734.71
467.3	721.15
467.672	721.61
468.045	752.56
468.417	746.01
468.789	728.16
469.161	735.16
469.534	758.44
469.906	759.12
470.278	763.86
470.65	787.14
471.022	762.73
471.394	792.79
471.766	789.85
472.138	807.7
472.51	817.42
472.882	833.24
473.253	819.91
473.625	847.7
473.997	828.04
474.369	831.21
474.74	840.7
475.112	875.05
475.484	892
475.855	880.7
476.227	884.31
476.598	893.58
476.97	904.65
477.341	907.82
477.713	892.45
478.084	928.15
478.455	936.29
478.827	942.62
479.198	952.79
479.569	973.12
479.94	955.05
480.311	975.16
480.682	979.68
481.053	1021.94
481.424	1002.95
481.795	1045.44
482.166	1033.46
482.537	1040.92
482.908	1058.77
483.279	1073.01
483.65	1070.97
484.021	1080.01
484.391	1083.63
484.762	1083.18
485.133	1109.62
485.503	1109.17
485.874	1147.36
486.244	1115.95
486.615	1144.42
486.985	1156.62
487.356	1163.63
487.726	1167.24
488.097	1184.42
488.467	1178.54
488.837	1173.12
489.207	1213.57
489.578	1227.35
489.948	1215.15
490.318	1230.52
490.688	1195.94
491.058	1232.78
491.428	1263.96
491.798	1208.82
492.168	1260.12
492.538	1272.1
492.908	1267.35
493.278	1295.15
493.648	1296.05
494.017	1277.3
494.387	1277.75
494.757	1273.68
495.126	1297.41
495.496	1279.33
495.866	1301.93
496.235	1359.78
496.605	1324.3
496.974	1322.49
497.344	1330.85
497.713	1334.24
498.082	1351.87
498.452	1339.44
498.821	1362.94
499.19	1359.55
499.559	1373.11
499.928	1377.86
500.298	1374.24
500.667	1381.25
501.036	1321.36
501.405	1352.1
501.774	1394.81
502.143	1387.58
502.512	1386.9
502.88	1392.77
503.249	1384.64
503.618	1396.84
503.987	1387.35
504.356	1429.61
504.724	1406.79
505.093	1417.18
505.462	1409.27
505.83	1409.72
506.199	1420.12
506.567	1423.28
506.936	1424.86
507.304	1449.5
507.672	1448.37
508.041	1440
508.409	1442.04
508.777	1462.6
509.145	1483.39
509.514	1437.29
509.882	1461.7
510.25	1430.29
510.618	1458.99
510.986	1452.89
511.354	1488.59
511.722	1470.74
512.09	1468.93
512.458	1482.26
512.826	1449.95
513.193	1476.61
513.561	1498.76
513.929	1484.07
514.297	1500.79
514.664	1491.98
515.032	1512.09
515.4	1487.46
515.767	1494.47
516.135	1507.57
516.502	1509.38
516.869	1527.01
517.237	1501.47
517.604	1525.65
517.972	1519.55
518.339	1534.69
518.706	1536.27
519.073	1533.34
519.44	1512.32
519.808	1521.81
520.175	1504.41
520.542	1533.56
520.909	1556.61
521.276	1554.35
521.643	1580.79
522.009	1573.11
522.376	1584.86
522.743	1585.09
523.11	1575.14
523.477	1584.41
523.843	1600.23
524.21	1587.8
524.577	1534.69
524.943	1567.46
525.31	1581.7
525.676	1599.55
526.043	1610.62
526.409	1616.05
526.776	1615.14
527.142	1603.39
527.508	1634.12
527.874	1602.26
528.241	1644.29
528.607	1640.23
528.973	1633.45
529.339	1634.58
529.705	1656.72
530.071	1638.19
530.437	1663.5
530.803	1640.9
531.169	1649.49
531.535	1635.25
531.901	1632.32
532.267	1629.83
532.632	1653.33
532.998	1665.31
533.364	1676.61
533.73	1655.82
534.095	1640.9
534.461	1679.09
534.826	1676.16
535.192	1688.13
535.557	1663.73
535.923	1675.7
536.288	1691.52
536.653	1705.08
537.019	1682.71
537.384	1668.02
537.749	1700.56
538.114	1682.94
538.479	1690.85
538.845	1690.39
539.21	1647.91
539.575	1666.67
539.94	1707.57
540.305	1675.7
540.67	1689.94
541.034	1707.12
541.399	1688.36
541.764	1699.21
542.129	1688.13
542.494	1711.41
542.858	1697.17
543.223	1695.59
543.587	1681.81
543.952	1731.52
544.316	1702.82
544.681	1700.11
545.045	1687.91
545.41	1695.82
545.774	1717.96
546.138	1704.18
546.503	1706.44
546.867	1702.37
547.231	1690.17
547.595	1717.29
547.959	1709.83
548.324	1729.49
548.688	1699.21
549.052	1701.24
549.416	1737.4
549.779	1729.94
550.143	1715.7
550.507	1696.72
550.871	1693.33
551.235	1717.29
551.599	1707.79
551.962	1725.19
552.326	1702.6
552.689	1729.94
553.053	1708.7
553.417	1735.82
553.78	1737.62
554.143	1719.77
554.507	1773.78
554.87	1735.36
555.234	1743.27
555.597	1726.55
555.96	1754.8
556.323	1734.23
556.686	1732.43
557.05	1754.12
557.413	1757.06
557.776	1761.8
558.139	1780.79
558.502	1753.22
558.865	1762.71
559.228	1739.43
559.59	1765.19
559.953	1754.35
560.316	1754.8
560.679	1795.25
561.041	1770.17
561.404	1779.66
561.767	1771.75
562.129	1773.33
562.492	1788.92
562.854	1776.72
563.217	1808.81
563.579	1786.44
563.941	1769.04
564.304	1783.05
564.666	1802.48
565.028	1826.21
565.39	1797.28
565.753	1815.14
566.115	1821.92
566.477	1832.54
566.839	1809.26
567.201	1808.58
567.563	1850.16
567.925	1821.69
568.287	1835.47
568.648	1840.67
569.01	1863.5
569.372	1847.68
569.734	1836.83
570.095	1851.29
570.457	1813.55
570.819	1877.96
571.18	1857.85
571.542	1874.12
571.903	1861.24
572.265	1863.04
572.626	1872.76
572.987	1860.11
573.349	1887.68
573.71	1891.07
574.071	1883.16
574.432	1867.56
574.794	1869.37
575.155	1897.17
575.516	1873.89
575.877	1906.66
576.238	1877.73
576.599	1876.6
576.96	1909.37
577.32	1910.95
577.681	1931.97
578.042	1907.34
578.403	1880.44
578.763	1905.53
579.124	1934.68
579.485	1917.28
579.845	1897.85
580.206	1931.52
580.566	1918.18
580.927	1907.11
581.287	1914.34
581.648	1893.55
582.008	1924.51
582.368	1898.52
582.728	1935.81
583.089	1916.83
583.449	1912.76
583.809	1911.18
584.169	1909.14
584.529	1903.72
584.889	1918.18
585.249	1901.69
585.609	1907.56
585.969	1915.25
586.329	1920.67
586.688	1965.87
587.048	1917.96
587.408	1917.51
587.768	1915.92
588.127	1928.58
588.487	1942.14
588.846	1918.86
589.206	1919.54
589.565	1931.52
589.925	1927.9
590.284	1956.15
590.643	1939.65
591.003	1923.16
591.362	1932.42
591.721	1941.01
592.08	1923.16
592.44	1938.52
592.799	1926.55
593.158	1932.42
593.517	1894.46
593.876	1938.3
594.235	1924.51
594.593	1912.31
594.952	1927.68
595.311	1959.31
595.67	1975.81
596.029	1957.73
596.387	1954.12
596.746	1959.99
597.104	1969.71
597.463	1942.36
597.822	1954.79
598.18	1946.21
598.538	1923.61
598.897	1988.01
599.255	1966.32
599.613	1957.96
599.972	1952.99
600.33	1994.34
600.688	1978.3
601.046	1978.97
601.404	1987.11
601.762	1952.99
602.12	1968.58
602.478	1985.3
602.836	2006.54
603.194	1974.23
603.552	2011.51
603.91	1971.74
604.268	1984.4
604.625	1978.3
604.983	2006.54
605.341	1961.57
605.698	1978.52
606.056	1983.27
606.413	1989.37
606.771	2016.94
607.128	1998.86
607.485	2007.22
607.843	1980.33
608.2	2005.41
608.557	2027.11
608.914	2006.09
609.272	2042.02
609.629	2026.66
609.986	2027.11
610.343	2032.98
610.7	2049.48
611.057	2070.27
611.414	2017.16
611.771	2037.95
612.127	2082.93
612.484	2028.69
612.841	2083.6
613.198	2061.23
613.554	2050.38
613.911	2086.54
614.267	2028.24
614.624	2082.7
614.98	2114.56
615.337	2062.59
615.693	2086.32
616.05	2097.84
616.406	2076.82
616.762	2089.93
617.118	2082.7
617.475	2102.13
617.831	2091.51
618.187	2122.92
618.543	2110.95
618.899	2079.76
619.255	2107.56
619.611	2086.54
619.967	2118.4
620.323	2120.44
620.678	2151.4
621.034	2122.02
621.39	2115.69
621.746	2121.79
622.101	2146.43
622.457	2121.34
622.812	2141
623.168	2132.87
623.523	2140.1
623.879	2141.45
624.234	2150.27
624.589	2142.81
624.945	2131.74
625.3	2181.68
625.655	2160.66
626.01	2123.38
626.365	2175.58
626.72	2178.52
627.075	2177.16
627.43	2148.23
627.785	2170.61
628.14	2185.07
628.495	2200.89
628.85	2178.52
629.205	2150.72
629.559	2190.04
629.914	2181.68
630.269	2217.16
630.623	2199.08
630.978	2207.44
631.332	2208.12
631.687	2192.08
632.041	2235.24
632.396	2216.93
632.75	2192.3
633.104	2203.15
633.459	2227.1
633.813	2260.55
634.167	2223.94
634.521	2218.97
634.875	2220.55
635.229	2250.15
635.583	2238.85
635.937	2256.93
636.291	2280.43
636.645	2284.95
636.999	2266.2
637.352	2254.9
637.706	2234.11
638.06	2282.92
638.413	2315.91
638.767	2275.24
639.121	2277.5
639.474	2276.82
639.828	2317.5
640.181	2286.76
640.534	2286.76
640.888	2304.61
641.241	2317.04
641.594	2309.13
641.947	2310.94
642.301	2317.27
642.654	2344.16
643.007	2371.96
643.36	2346.65
643.713	2343.71
644.066	2354.78
644.419	2369.7
644.771	2373.54
645.124	2355.46
645.477	2351.39
645.83	2325.4
646.182	2322.24
646.535	2377.38
646.888	2348.91
647.24	2370.38
647.593	2388
647.945	2357.72
648.298	2367.89
648.65	2360.43
649.002	2369.25
649.355	2406.53
649.707	2437.04
650.059	2403.82
650.411	2422.8
650.763	2456.47
651.115	2495.34
651.467	2523.37
651.819	2498.51
652.171	2559.98
652.523	2525.63
652.875	2514.1
653.227	2542.57
653.578	2594.55
653.93	2584.61
654.282	2575.57
654.633	2589.35
654.985	2596.36
655.337	2622.12
655.688	2608.11
656.039	2607.66
656.391	2635
656.742	2635.23
657.094	2637.49
657.445	2654.66
657.796	2675
658.147	2701.89
658.498	2698.73
658.849	2722
659.2	2741.44
659.551	2694.21
659.902	2756.58
660.253	2775.11
660.604	2780.31
660.955	2792.06
661.306	2820.53
661.656	2804.04
662.007	2799.97
662.358	2793.42
662.708	2858.72
663.059	2859.63
663.409	2831.38
663.76	2892.17
664.11	2861.66
664.461	2916.12
664.811	2892.17
665.161	2949.8
665.511	2940.98
665.862	2949.8
666.212	2979.63
666.562	2993.41
666.912	2984.14
667.262	2989.34
667.612	3068.21
667.962	3037.48
668.312	3046.06
668.662	3050.13
669.011	3069.57
669.361	3034.76
669.711	3103.92
670.06	3096.01
670.41	3126.74
670.76	3123.12
671.109	3151.6
671.459	3192.73
671.808	3156.8
672.157	3165.83
672.507	3157.47
672.856	3212.16
673.205	3176.91
673.554	3209.68
673.904	3197.7
674.253	3267.75
674.602	3272.27
674.951	3226.4
675.3	3226.4
675.649	3289
675.998	3296.45
676.346	3325.6
676.695	3324.25
677.044	3336.9
677.393	3354.08
677.741	3394.98
678.09	3366.96
678.438	3355.66
678.787	3421.42
679.135	3433.62
679.484	3380.52
679.832	3418.03
680.181	3410.12
680.529	3455.54
680.877	3446.96
681.225	3490.8
681.573	3479.72
681.922	3489.67
682.27	3484.47
682.618	3518.82
682.966	3509.33
683.314	3499.61
683.661	3517.24
684.009	3553.62
684.357	3529.44
684.705	3581.64
685.053	3551.14
685.4	3559.04
685.748	3534.64
686.095	3555.43
686.443	3565.37
686.79	3581.19
687.138	3598.14
687.485	3606.05
687.832	3641.98
688.18	3603.11
688.527	3604.92
688.874	3636.33
689.221	3634.07
689.568	3634.52
689.915	3619.83
690.262	3659.83
690.609	3678.82
690.956	3625.48
691.303	3667.06
691.65	3676.33
691.997	3641.53
692.344	3663
692.69	3686.5
693.037	3714.97
693.383	3645.6
693.73	3690.11
694.077	3652.38
694.423	3662.32
694.769	3667.52
695.116	3658.25
695.462	3714.97
695.808	3638.82
696.155	3668.87
696.501	3683.79
696.847	3670.68
697.193	3638.14
697.539	3697.35
697.885	3635.65
698.231	3687.63
698.577	3686.95
698.923	3666.84
699.269	3639.49
699.614	3671.58
699.96	3657.35
700.306	3632.72
700.651	3638.59
700.997	3600.63
701.342	3639.72
701.688	3660.74
702.033	3633.85
702.379	3608.99
702.724	3633.39
703.069	3629.55
703.415	3599.72
703.76	3623.22
704.105	3598.59
704.45	3634.98
704.795	3644.24
705.14	3603.11
705.485	3587.52
705.83	3584.81
706.175	3594.52
706.52	3597.69
706.865	3585.26
707.209	3625.71
707.554	3578.71
707.899	3599.95
708.243	3561.08
708.588	3579.84
708.932	3572.6
709.277	3527.63
709.621	3559.04
709.966	3531.7
710.31	3565.37
710.654	3564.47
710.998	3537.8
711.342	3558.59
711.687	3536.45
712.031	3537.12
712.375	3540.06
712.719	3545.26
713.063	3567.41
713.407	3609.66
713.75	3538.48
714.094	3534.19
714.438	3510.01
714.782	3538.93
715.125	3487.41
715.469	3521.98
715.812	3551.59
716.156	3531.93
716.499	3535.09
716.843	3522.66
717.186	3533.51
717.53	3503.91
717.873	3535.54
718.216	3514.98
718.559	3515.2
718.902	3479.27
719.246	3552.49
719.589	3503.45
719.932	3515.43
720.275	3567.18
720.617	3514.98
720.96	3519.5
721.303	3543.45
721.646	3524.7
721.989	3512.49
722.331	3528.54
722.674	3506.62
723.016	3522.89
723.359	3516.79
723.701	3505.71
724.044	3524.92
724.386	3497.35
724.729	3479.95
725.071	3510.01
725.413	3496.67
725.755	3545.26
726.097	3519.05
726.439	3515.2
726.782	3522.66
727.124	3510.91
727.465	3532.6
727.807	3520.63
728.149	3514.3
728.491	3507.29
728.833	3483.57
729.175	3506.16
729.516	3503.45
729.858	3529.89
730.199	3530.8
730.541	3532.15
730.882	3528.54
731.224	3536.67
731.565	3521.08
731.906	3545.26
732.248	3527.63
732.589	3526.28
732.93	3561.3
733.271	3580.29
733.612	3548.88
733.953	3522.21
734.294	3542.1
734.635	3552.49
734.976	3565.37
735.317	3546.39
735.658	3546.39
735.999	3623.9
736.339	3538.48
736.68	3578.25
737.021	3582.1
737.361	3557.69
737.702	3583
738.042	3614.64
738.383	3631.59
738.723	3621.64
739.063	3611.02
739.404	3601.76
739.744	3636.56
740.084	3612.83
740.424	3620.51
740.764	3658.93
741.104	3679.95
741.444	3649.44
741.784	3657.12
742.124	3676.78
742.464	3649.89
742.804	3700.51
743.143	3692.83
743.483	3687.86
743.823	3730.34
744.162	3724.92
744.502	3717.23
744.841	3757.91
745.181	3764.69
745.52	3721.53
745.86	3758.36
746.199	3803.11
746.538	3760.85
746.877	3775.31
747.216	3864.35
747.556	3813.73
747.895	3839.72
748.234	3829.77
748.573	3833.39
748.911	3897.34
749.25	3904.57
749.589	3904.57
749.928	3900.5
750.267	3919.94
750.605	3946.83
750.944	3970.56
751.283	3945.7
751.621	3995.87
751.96	4013.95
752.298	4054.63
752.636	4079.48
752.975	4074.74
753.313	4088.07
753.651	4114.28
753.989	4097.56
754.327	4133.04
754.666	4158.8
755.004	4219.14
755.342	4186.37
755.679	4229.31
756.017	4231.57
756.355	4249.65
756.693	4222.53
757.031	4272.25
757.368	4270.66
757.706	4311.34
758.044	4316.99
758.381	4321.28
758.719	4362.41
759.056	4341.4
759.394	4382.3
759.731	4432.92
760.068	4402.64
760.405	4401.06
760.743	4407.61
761.08	4433.37
761.417	4424.56
761.754	4421.4
762.091	4452.58
762.428	4432.92
762.765	4488.51
763.102	4506.14
763.438	4494.61
763.775	4495.29
764.112	4536.42
764.449	4509.75
764.785	4526.7
765.122	4520.83
765.458	4478.57
765.795	4516.08
766.131	4559.92
766.467	4509.3
766.804	4528.28
767.14	4484.44
767.476	4521.73
767.812	4533.03
768.148	4563.99
768.485	4484.9
768.821	4546.36
769.157	4539.81
769.492	4543.43
769.828	4493.26
770.164	4516.76
770.5	4482.86
770.836	4486.48
771.171	4503.43
771.507	4475.4
771.842	4489.19
772.178	4489.64
772.513	4497.78
772.849	4486.7
773.184	4450.32
773.519	4504.1
773.855	4452.81
774.19	4460.94
774.525	4441.51
774.86	4446.25
775.195	4459.81
775.53	4427.5
775.865	4391.57
776.2	4394.73
776.535	4381.17
776.87	4354.5
777.205	4378.46
777.539	4310.89
777.874	4343.88
778.209	4300.49
778.543	4349.53
778.878	4272.25
779.212	4283.32
779.547	4284
779.881	4301.17
780.215	4269.08
780.55	4275.64
780.884	4254.39
781.218	4234.06
781.552	4164.23
781.886	4219.82
782.22	4228.86
782.554	4191.34
782.888	4176.2
783.222	4164.9
783.556	4174.85
783.889	4163.77
784.223	4120.16
784.557	4131.01
784.89	4105.47
785.224	4068.86
785.557	4082.42
785.891	4032.25
786.224	4089.2
786.558	4075.87
786.891	4022.08
787.224	4047.85
787.557	4019.15
787.891	3976.21
788.224	3986.15
788.557	3980.28
788.89	3994.74
789.223	3984.8
789.556	3962.2
789.888	3947.06
790.221	3932.37
790.554	3896.66
790.887	3926.49
791.219	3925.59
791.552	3886.04
791.884	3925.36
792.217	3865.7
792.549	3874.06
792.882	3855.08
793.214	3838.59
793.546	3844.01
793.879	3802.2
794.211	3797.68
794.543	3798.13
794.875	3805.37
795.207	3796.33
795.539	3763.33
795.871	3778.47
796.203	3741.86
796.535	3740.06
796.867	3745.48
797.198	3738.48
797.53	3689.89
797.862	3663.22
798.193	3688.76
798.525	3677.69
798.856	3675.2
799.188	3661.64
799.519	3585.71
799.85	3632.26
800.182	3631.36
800.513	3580.51
800.844	3573.51
801.175	3607.63
801.506	3601.98
801.837	3552.27
802.168	3580.06
802.499	3534.41
802.83	3522.21
803.161	3531.47
803.491	3543.68
803.822	3522.89
804.153	3469.78
804.483	3503
804.814	3501.87
805.145	3501.87
805.475	3462.55
805.805	3468.43
806.136	3466.39
806.466	3431.36
806.796	3441.08
807.126	3421.42
807.457	3423.68
807.787	3423.91
808.117	3418.26
808.447	3390.91
808.777	3409.9
809.107	3376.22
809.436	3308.43
809.766	3350.69
810.096	3376.45
810.426	3355.21
810.755	3348.43
811.085	3368.32
811.414	3336.23
811.744	3318.83
812.073	3349.78
812.403	3315.21
812.732	3268.88
813.061	3302.1
813.39	3302.33
813.719	3240.64
814.049	3307.3
814.378	3276.57
814.707	3266.4
815.036	3283.57
815.365	3265.04
815.693	3220.52
816.022	3200.86
816.351	3225.27
816.68	3238.15
817.008	3196.79
817.337	3190.69
817.665	3200.64
817.994	3219.39
818.322	3162.9
818.651	3157.02
818.979	3150.47
819.307	3180.98
819.636	3166.74
819.964	3145.04
820.292	3162.67
820.62	3145.04
820.948	3127.87
821.276	3161.32
821.604	3162.9
821.932	3182.78
822.259	3164.93
822.587	3147.76
822.915	3131.49
823.243	3158.83
823.57	3125.84
823.898	3147.08
824.225	3119.96
824.553	3139.17
824.88	3096.01
825.207	3144.37
825.535	3122.45
825.862	3145.04
826.189	3118.83
826.516	3148.43
826.843	3175.78
827.17	3146.17
827.497	3140.52
827.824	3186.4
828.151	3157.93
828.478	3114.99
828.805	3153.18
829.131	3117.47
829.458	3129
829.785	3140.52
830.111	3108.44
830.438	3146.4
830.764	3193.4
831.09	3126.51
831.417	3110.47
831.743	3120.64
832.069	3143.46
832.395	3106.85
832.722	3131.71
833.048	3134.2
833.374	3118.38
833.7	3098.49
834.026	3116.8
834.351	3097.59
834.677	3107.53
835.003	3121.99
835.329	3100.98
835.654	3106.18
835.98	3074.09
836.306	3116.12
836.631	3112.28
836.956	3059.85
837.282	3093.29
837.607	3054.2
837.932	3076.57
838.258	3097.81
838.583	3093.97
838.908	3063.92
839.233	3062.33
839.558	3063.01
839.883	3031.6
840.208	3046.97
840.533	3000.42
840.858	3031.15
841.182	3060.07
841.507	3019.17
841.832	2997.03
842.156	3018.95
842.481	2982.34
842.805	3039.06
843.13	3001.55
843.454	2963.35
843.778	2991.83
844.103	2964.26
844.427	2966.07
844.751	3017.14
845.075	2971.72
845.399	2955.9
845.723	2983.01
846.047	2924.26
846.371	2929.46
846.695	2968.33
847.019	2921.77
847.343	2884.49
847.666	2893.3
847.99	2907.08
848.313	2872.74
848.637	2832.28
848.96	2830.48
849.284	2863.7
849.607	2844.04
849.931	2824.83
850.254	2791.16
850.577	2787.77
850.9	2802
851.223	2774.88
851.546	2785.51
851.869	2753.42
852.192	2726.52
852.515	2758.61
852.838	2732.85
853.161	2749.35
853.483	2705.73
853.806	2689.01
854.129	2703.47
854.451	2661.89
854.774	2705.51
855.096	2649.24
855.419	2670.71
855.741	2704.6
856.063	2646.98
856.385	2648.56
856.708	2677.49
857.03	2606.75
857.352	2638.39
857.674	2576.47
857.996	2615.34
858.318	2619.18
858.64	2590.26
858.961	2608.11
859.283	2590.26
859.605	2565.62
859.926	2567.88
860.248	2580.54
860.57	2576.25
860.891	2555
861.212	2570.6
861.534	2549.58
861.855	2534.44
862.176	2540.54
862.498	2537.6
862.819	2558.62
863.14	2522.46
863.461	2511.61
863.782	2487.21
864.103	2534.66
864.424	2491.5
864.745	2519.98
865.065	2516.13
865.386	2499.19
865.707	2473.88
866.027	2541.9
866.348	2516.13
866.668	2477.04
866.989	2475.46
867.309	2436.81
867.63	2422.8
867.95	2458.06
868.27	2436.59
868.59	2471.39
868.91	2429.13
869.23	2444.05
869.55	2456.7
869.87	2466.19
870.19	2460.09
870.51	2452.18
870.83	2421.22
871.15	2399.98
871.469	2467.1
871.789	2456.7
872.109	2424.84
872.428	2440.66
872.748	2435.68
873.067	2447.44
873.386	2430.03
873.706	2412.63
874.025	2405.85
874.344	2378.06
874.663	2400.43
874.982	2406.98
875.301	2417.38
875.62	2396.59
875.939	2367.89
876.258	2381.22
876.577	2374.44
876.896	2373.31
877.214	2350.49
877.533	2356.59
877.852	2393.43
878.17	2387.78
878.489	2375.12
878.807	2364.05
879.125	2341.22
879.444	2369.92
879.762	2339.64
880.08	2300.55
880.398	2350.49
880.716	2327.66
881.034	2321.79
881.352	2312.3
881.67	2323.15
881.988	2348.23
882.306	2327.21
882.624	2299.87
882.941	2310.26
883.259	2298.74
883.577	2294.67
883.894	2294.22
884.212	2273.88
884.529	2291.28
884.846	2312.52
885.164	2273.65
885.481	2285.18
885.798	2258.97
886.115	2289.7
886.432	2228.01
886.75	2245.86
887.067	2239.08
887.383	2228.23
887.7	2260.1
888.017	2243.15
888.334	2233.88
888.651	2231.4
888.967	2236.59
889.284	2231.85
889.6	2228.01
889.917	2195.69
890.233	2223.26
890.55	2185.52
890.866	2210.38
891.182	2168.12
891.498	2191.85
891.815	2179.19
892.131	2149.82
892.447	2165.64
892.763	2168.8
893.079	2144.39
893.395	2154.79
893.71	2162.25
894.026	2155.47
894.342	2140.33
894.657	2127.67
894.973	2124.73
895.289	2081.12
895.604	2151.17
895.92	2065.3
896.235	2083.83
896.55	2101.46
896.865	2067.11
897.181	2058.75
897.496	2110.27
897.811	2079.31
898.126	2066.88
898.441	2055.13
898.756	2028.46
899.071	2039.54
899.386	2018.52
899.7	2038.86
900.015	2025.75
900.33	2007.22
900.644	2027.79
900.959	2023.72
901.273	2023.49
901.588	1991.63
901.902	1959.31
902.216	1969.26
902.531	1964.28
902.845	1948.69
903.159	1958.86
903.473	1985.53
903.787	1947.11
904.101	1929.71
904.415	1925.64
904.729	1946.66
905.042	1930.84
905.356	1912.31
905.67	1936.94
905.984	1920.67
906.297	1919.09
906.611	1908.69
906.924	1867.79
907.237	1854
907.551	1899.43
907.864	1873.21
908.177	1890.16
908.491	1875.7
908.804	1862.82
909.117	1853.1
909.43	1828.02
909.743	1870.5
910.056	1834.57
910.368	1848.13
910.681	1837.51
910.994	1823.95
911.307	1819.43
911.619	1804.29
911.932	1827.56
912.244	1821.69
912.557	1788.24
912.869	1779.66
913.181	1771.75
913.494	1776.04
913.806	1775.81
914.118	1748.7
914.43	1773.33
914.742	1756.83
915.054	1735.14
915.366	1749.37
915.678	1739.66
915.99	1725.19
916.302	1706.44
916.613	1675.48
916.925	1693.11
917.236	1707.79
917.548	1707.57
917.859	1685.2
918.171	1665.31
918.482	1695.59
918.794	1675.03
919.105	1654.69
919.416	1674.8
919.727	1652.43
920.038	1656.72
920.349	1638.42
920.66	1641.81
920.971	1615.82
921.282	1642.03
921.593	1606.33
921.903	1614.01
922.214	1604.07
922.525	1623.95
922.835	1618.08
923.146	1580.57
923.456	1590.96
923.767	1571.98
924.077	1567.91
924.387	1557.52
924.697	1559.1
925.008	1563.39
925.318	1539.66
925.628	1549.15
925.938	1541.92
926.248	1534.47
926.558	1524.97
926.867	1504.41
927.177	1544.18
927.487	1508.93
927.796	1513.45
928.106	1525.88
928.416	1513.9
928.725	1501.02
929.034	1511.42
929.344	1508.25
929.653	1484.75
929.962	1474.81
930.271	1468.48
930.581	1480.23
930.89	1469.83
931.199	1453.56
931.508	1476.84
931.817	1439.1
932.125	1447.01
932.434	1471.19
932.743	1438.87
933.051	1436.16
933.36	1426.67
933.669	1391.64
933.977	1405.43
934.286	1401.36
934.594	1422.38
934.902	1412.66
935.21	1395.71
935.519	1392.32
935.827	1387.12
936.135	1371.53
936.443	1378.09
936.751	1370.4
937.059	1363.62
937.367	1345.54
937.674	1390.74
937.982	1348.26
938.29	1378.76
938.597	1343.28
938.905	1331.76
939.213	1339.89
939.52	1353.45
939.827	1324.3
940.135	1306
940.442	1329.5
940.749	1314.36
941.056	1351.87
941.363	1310.29
941.67	1279.56
941.977	1291.53
942.284	1286.56
942.591	1292.44
942.898	1263.51
943.205	1290.18
943.511	1285.43
943.818	1252.66
944.125	1230.29
944.431	1265.09
944.738	1258.31
945.044	1263.06
945.35	1226.68
945.657	1250.86
945.963	1250.63
946.269	1233.23
946.575	1247.24
946.881	1224.42
947.187	1226.22
947.493	1249.28
947.799	1196.62
948.105	1234.59
948.41	1193.23
948.716	1192.55
949.022	1194.36
949.327	1212.44
949.633	1197.75
949.938	1216.73
950.244	1194.36
950.549	1174.25
950.854	1170.86
951.16	1178.77
951.465	1176.73
951.77	1183.06
952.075	1152.1
952.38	1148.71
952.685	1147.36
952.99	1148.71
953.294	1129.96
953.599	1162.95
953.904	1150.52
954.209	1115.27
954.513	1127.47
954.818	1115.72
955.122	1135.83
955.426	1096.96
955.731	1116.85
956.035	1123.85
956.339	1122.95
956.643	1102.61
956.948	1102.39
957.252	1102.39
957.556	1104.87
957.86	1093.57
958.163	1111.2
958.467	1091.54
958.771	1108.71
959.075	1060.81
959.378	1066.23
959.682	1084.53
959.985	1058.32
960.289	1068.71
960.592	1055.38
960.896	1071.88
961.199	1055.61
961.502	1054.03
961.805	1042.5
962.108	1037.98
962.411	1030.3
962.714	1037.98
963.017	1009.96
963.32	1023.97
963.623	1036.63
963.926	1040.24
964.228	1017.87
964.531	973.8
964.833	1013.12
965.136	1025.78
965.438	1009.96
965.741	1001.82
966.043	1007.47
966.345	1004.08
966.648	1019
966.95	998.66
967.252	999.56
967.554	1006.12
967.856	969.51
968.158	982.16
968.46	971.32
968.761	985.78
969.063	976.06
969.365	964.08
969.666	980.36
969.968	975.38
970.269	960.02
970.571	960.02
970.872	962.95
971.174	958.66
971.475	949.17
971.776	951.66
972.077	927.48
972.378	949.62
972.679	937.64
972.98	960.02
973.281	949.17
973.582	924.09
973.883	942.84
974.183	928.61
974.484	933.58
974.785	928.15
975.085	898.1
975.386	900.81
975.686	899.23
975.986	912.56
976.287	916.63
976.587	897.42
976.887	892.22
977.187	884.99
977.487	896.52
977.787	919.79
978.087	895.84
978.387	888.61
978.687	874.6
978.987	888.61
979.286	864.65
979.586	862.84
979.885	864.2
980.185	872.79
980.484	866.01
980.784	860.81
981.083	852.45
981.382	864.43
981.682	863.97
981.981	853.13
982.28	863.75
982.579	827.59
982.878	857.87
983.177	868.27
983.475	844.31
983.774	851.55
984.073	804.09
984.372	825.33
984.67	822.17
984.969	818.78
985.267	828.95
985.566	819
985.864	819.91
986.162	819.46
986.461	803.64
986.759	803.64
987.057	816.74
987.355	805.67
987.653	797.31
987.951	770.87
988.249	804.99
988.547	792.11
988.844	802.51
989.142	790.3
989.44	776.75
989.737	799.12
990.035	771.1
990.332	795.95
990.63	770.19
990.927	776.52
991.224	799.57
991.521	767.25
991.819	748.05
992.116	775.62
992.413	756.41
992.71	753.02
993.006	765.22
993.303	767.48
993.6	765.22
993.897	766.8
994.193	734.03
994.49	748.27
994.787	740.59
995.083	760.93
995.379	732.23
995.676	738.33
995.972	737.2
996.268	732
996.565	727.93
996.861	729.74
997.157	727.71
997.453	740.36
997.749	690.19
998.044	735.16
998.34	729.97
998.636	721.38
998.932	732.23
999.227	714.6
999.523	731.32
999.818	698.56
1000.114	696.52
1000.409	718.89
1000.704	712.34
1001	706.69
1001.295	696.52
1001.59	689.06
1001.885	694.94
1002.18	706.46
1002.475	656.07
1002.77	677.31
1003.065	697.88
1003.359	669.63
1003.654	657.43
1003.949	677.76
1004.243	661.95
1004.538	667.82
1004.832	659.01
1005.127	652.23
1005.421	656.07
1005.715	663.53
1006.009	646.35
1006.304	656.07
1006.598	653.13
1006.892	654.71
1007.186	647.93
1007.48	640.7
1007.773	650.19
1008.067	619.01
1008.361	644.55
1008.655	633.25
1008.948	638.22
1009.242	629.18
1009.535	642.29
1009.829	639.57
1010.122	608.84
1010.415	636.64
1010.708	628.27
1011.001	618.33
1011.295	619.91
1011.588	635.73
1011.881	610.65
1012.173	599.8
1012.466	603.42
1012.759	605.22
1013.052	586.24
1013.344	622.17
1013.637	579.91
1013.93	594.6
1014.222	593.02
1014.514	590.31
1014.807	584.66
1015.099	616.3
1015.391	615.39
1015.683	584.43
1015.976	605.22
1016.268	570.87
1016.56	587.15
1016.851	578.33
1017.143	601.16
1017.435	563.64
1017.727	569.07
1018.018	570.65
1018.31	561.84
1018.602	574.72
1018.893	560.71
1019.185	561.38
1019.476	563.64
1019.767	575.62
1020.058	552.34
1020.35	550.31
1020.641	539.01
1020.932	560.48
1021.223	538.79
1021.514	552.57
1021.804	531.78
1022.095	540.82
1022.386	549.86
1022.677	557.54
1022.967	554.6
1023.258	545.34
1023.548	538.33
1023.839	556.41
1024.129	525.9
1024.419	532.23
1024.709	526.13
1025	538.56
1025.29	542.4
1025.58	537.43
1025.87	531.33
1026.16	527.49
1026.449	526.58
1026.739	501.05
1027.029	506.24
1027.319	521.61
1027.608	516.41
1027.898	503.98
1028.187	516.86
1028.477	498.79
1028.766	500.82
1029.055	514.38
1029.344	484.78
1029.634	513.48
1029.923	512.35
1030.212	507.6
1030.501	492.23
1030.79	485.23
1031.078	485.91
1031.367	483.65
1031.656	487.94
1031.945	475.06
1032.233	475.51
1032.522	474.15
1032.81	481.39
1033.099	474.61
1033.387	477.77
1033.675	489.97
1033.963	474.15
1034.251	470.99
1034.54	453.14
1034.828	467.83
1035.116	461.05
1035.403	468.5
1035.691	470.09
1035.979	464.21
1036.267	465.34
1036.554	453.14
1036.842	461.95
1037.129	463.31
1037.417	453.82
1037.704	466.92
1037.992	463.76
1038.279	447.49
1038.566	455.17
1038.853	455.17
1039.14	455.17
