Data from blue_clamp_base_FLMS001491_00056.txt Node
Date: Wed Feb 08 15:16:13 GMT 2017
User: dcchb
Spectrometer: FLMS00149
Trigger mode: 0
Integration Time (sec): 2.000000E-2
Scans to average: 10
Electric dark correction enabled: true
Nonlinearity correction enabled: false
Boxcar width: 0
XAxis mode: Wavelengths
Number of Pixels in Spectrum: 2048
>>>>>Begin Spectral Data<<<<<
341.393	-17.32
341.776	-17.32
342.16	-17.32
342.543	-67.26
342.927	-49.18
343.31	-74.94
343.693	-75.17
344.077	-55.73
344.46	-44.89
344.843	-44.21
345.226	-55.06
345.61	-16.19
345.993	-12.34
346.376	-9.63
346.759	-7.6
347.142	26.98
347.525	55.9
347.908	50.48
348.291	57.71
348.674	90.7
349.057	113.98
349.44	119.4
349.823	143.58
350.206	177.48
350.588	193.75
350.971	181.1
351.354	208.44
351.737	217.93
352.119	250.7
352.502	249.34
352.884	259.74
353.267	291.38
353.65	275.11
354.032	292.73
354.414	286.86
354.797	291.83
355.179	305.16
355.562	302
355.944	314.2
356.326	327.08
356.709	329.57
357.091	316.46
357.473	337.93
357.855	325.27
358.238	332.73
358.62	322.11
359.002	321.66
359.384	336.8
359.766	343.35
360.148	328.89
360.53	335.9
360.912	313.52
361.294	335.22
361.676	325.05
362.057	318.72
362.439	342.22
362.821	320.08
363.203	314.2
363.584	311.71
363.966	313.52
364.348	307.2
364.729	313.07
365.111	299.74
365.493	342.67
365.874	303.81
366.256	290.47
366.637	306.07
367.019	300.19
367.4	311.49
367.781	328.66
368.163	298.38
368.544	312.84
368.925	302.9
369.306	298.83
369.688	292.05
370.069	300.19
370.45	285.95
370.831	303.58
371.212	307.87
371.593	313.75
371.974	295.44
372.355	323.92
372.736	301.32
373.117	320.53
373.498	313.52
373.879	318.04
374.26	301.77
374.641	299.51
375.021	299.74
375.402	307.87
375.783	315.33
376.163	302.45
376.544	315.1
376.925	323.69
377.305	325.95
377.686	332.73
378.066	325.95
378.447	328.66
378.827	327.08
379.208	323.01
379.588	331.83
379.968	306.74
380.349	336.8
380.729	312.17
381.109	335.22
381.489	332.51
381.87	316.01
382.25	328.66
382.63	351.49
383.01	331.38
383.39	336.57
383.77	337.93
384.15	336.8
384.53	330.02
384.91	328.21
385.29	344.26
385.67	333.18
386.049	359.85
386.429	351.71
386.809	359.85
387.189	360.08
387.568	359.17
387.948	364.37
388.328	342.67
388.707	350.13
389.087	372.73
389.466	344.48
389.846	361.88
390.225	366.85
390.605	384.03
390.984	375.22
391.363	382.45
391.743	403.46
392.122	397.36
392.501	386.97
392.881	416.12
393.26	379.51
393.639	394.42
394.018	416.34
394.397	392.84
394.776	410.24
395.155	411.37
395.534	402.11
395.913	406.63
396.292	425.38
396.671	433.75
397.05	426.29
397.429	429.23
397.808	414.99
398.186	436.23
398.565	429.9
398.944	439.62
399.323	455.89
399.701	465.38
400.08	471.48
400.458	450.24
400.837	460.64
401.215	486.4
401.594	475.33
401.972	460.86
402.351	486.17
402.729	490.69
403.107	483.24
403.486	519.39
403.864	513.74
404.242	506.29
404.62	487.3
404.999	539.73
405.377	530.92
405.755	552.16
406.133	516.46
406.511	559.62
406.889	543.57
407.267	582.44
407.645	563.46
408.023	587.41
408.401	580.63
408.779	577.47
409.156	578.83
409.534	580.41
409.912	594.65
410.29	608.66
410.667	623.57
411.045	627.86
411.422	620.41
411.8	626.28
412.178	663.12
412.555	661.31
412.933	645.04
413.31	663.8
413.687	685.49
414.065	657.92
414.442	682.78
414.819	714.42
415.197	706.05
415.574	715.55
415.951	740.18
416.328	721.87
416.705	753.51
417.082	743.12
417.46	756.68
417.837	766.84
418.214	772.04
418.591	772.49
418.967	801.19
419.344	779.5
419.721	792.38
420.098	783.79
420.475	786.96
420.852	798.03
421.228	841.42
421.605	832.38
421.982	856.79
422.358	856.79
422.735	872.38
423.111	844.36
423.488	865.37
423.864	868.54
424.241	897.69
424.617	904.92
424.994	885.94
425.37	923.22
425.746	894.07
426.123	950.34
426.499	946.5
426.875	968.65
427.251	949.66
427.627	990.12
428.003	1011.58
428.379	1039.83
428.756	1005.93
429.132	1044.8
429.507	1046.16
429.883	1072.37
430.259	1085.71
430.635	1093.39
431.011	1127.51
431.387	1107.63
431.763	1134.07
432.138	1149.21
432.514	1164.8
432.89	1154.18
433.265	1174.07
433.641	1212.48
434.016	1228.08
434.392	1225.59
434.767	1264.91
435.143	1253.39
435.518	1267.62
435.894	1300.16
436.269	1308.52
436.644	1339.48
437.02	1334.74
437.395	1380.61
437.77	1381.29
438.145	1406.6
438.52	1392.36
438.895	1429.43
439.271	1415.64
439.646	1445.24
440.021	1459.03
440.395	1471.23
440.77	1479.59
441.145	1494.96
441.52	1535.86
441.895	1557.78
442.27	1551
442.645	1560.27
443.019	1600.04
443.394	1578.8
443.769	1581.51
444.143	1581.06
444.518	1622.19
444.892	1618.57
445.267	1662.64
445.641	1658.12
446.016	1681.17
446.39	1681.85
446.764	1682.75
447.139	1737.67
447.513	1717.55
447.887	1715.75
448.262	1708.29
448.636	1727.5
449.01	1743.32
449.384	1792.81
449.758	1806.59
450.132	1827.83
450.506	1840.94
450.88	1859.02
451.254	1871.45
451.628	1882.3
452.002	1887.94
452.376	1901.96
452.75	1945.8
453.123	1969.3
453.497	1967.72
453.871	2016.08
454.244	2016.53
454.618	2070.76
454.992	2110.54
455.365	2066.02
455.739	2145.57
456.112	2153.7
456.486	2177.65
456.859	2144.21
457.232	2235.05
457.606	2226.92
457.979	2259.01
458.352	2304.2
458.725	2297.2
459.099	2313.7
459.472	2354.15
459.845	2393.02
460.218	2416.29
460.591	2421.94
460.964	2447.25
461.337	2511.66
461.71	2544.42
462.083	2554.37
462.456	2567.02
462.829	2574.93
463.201	2607.02
463.574	2631.2
463.947	2658.77
464.32	2719.79
464.692	2709.17
465.065	2723.18
465.438	2732.67
465.81	2795.04
466.183	2817.19
466.555	2924.3
466.928	2904.64
467.3	2905.77
467.672	2925.88
468.045	2989.38
468.417	3034.58
468.789	3008.37
469.161	3072.09
469.534	3105.99
469.906	3183.73
470.278	3213.56
470.65	3246.33
471.022	3254.01
471.394	3356.61
471.766	3349.6
472.138	3407.23
472.51	3457.39
472.882	3472.76
473.253	3520.22
473.625	3590.27
473.997	3631.18
474.369	3642.47
474.74	3664.17
475.112	3719.99
475.484	3749.14
475.855	3869.59
476.227	3852.86
476.598	3943.03
476.97	3938.74
477.341	4006.76
477.713	4073.65
478.084	4102.58
478.455	4187.55
478.827	4249.69
479.198	4342.8
479.569	4317.49
479.94	4433.19
480.311	4423.02
480.682	4505.73
481.053	4602.68
481.424	4632.73
481.795	4700.53
482.166	4754.54
482.537	4779.85
482.908	4896.91
483.279	4888.32
483.65	4939.62
484.021	5039.73
484.391	5099.16
484.762	5127.63
485.133	5154.75
485.503	5236.78
485.874	5269.55
486.244	5357.46
486.615	5370.34
486.985	5419.83
487.356	5521.97
487.726	5542.31
488.097	5572.82
488.467	5587.96
488.837	5697.34
489.207	5756.77
489.578	5807.39
489.948	5793.83
490.318	5872.47
490.688	5878.12
491.058	5934.62
491.428	6022.53
491.798	6046.25
492.168	6115.63
492.538	6159.7
492.908	6206.93
493.278	6204.89
493.648	6249.19
494.017	6308.62
494.387	6316.08
494.757	6293.48
495.126	6368.05
495.496	6400.82
495.866	6400.14
496.235	6448.95
496.605	6504.77
496.974	6470.42
497.344	6546.35
497.713	6544.32
498.082	6549.74
498.452	6620.48
498.821	6565.56
499.19	6640.59
499.559	6660.7
499.928	6671.1
500.298	6688.5
500.667	6750.87
501.036	6769.85
501.405	6780.7
501.774	6781.83
502.143	6818.44
502.512	6795.84
502.88	6866.34
503.249	6834.03
503.618	6894.59
503.987	6861.37
504.356	6916.06
504.724	6893.01
505.093	6926.68
505.462	6933.01
505.83	6957.87
506.199	7012.56
506.567	7026.79
506.936	7045.32
507.304	7082.38
507.672	7094.59
508.041	7103.85
508.409	7167.81
508.777	7240.8
509.145	7194.7
509.514	7217.52
509.882	7234.02
510.25	7221.36
510.618	7306.79
510.986	7213.91
511.354	7289.16
511.722	7255.71
512.09	7343.17
512.458	7278.76
512.826	7359.21
513.193	7431.98
513.561	7424.75
513.929	7424.3
514.297	7521.69
514.664	7481.24
515.032	7497.51
515.4	7511.53
515.767	7541.58
516.135	7515.14
516.502	7500.45
516.869	7622.26
517.237	7605.76
517.604	7584.97
517.972	7660.9
518.339	7667.68
518.706	7642.14
519.073	7723.5
519.44	7763.5
519.808	7745.87
520.175	7706.55
520.542	7772.99
520.909	7780.22
521.276	7775.47
521.643	7830.39
522.009	7794.68
522.376	7879.88
522.743	7938.41
523.11	8025.18
523.477	7969.37
523.843	8052.08
524.21	8087.1
524.577	8086.43
524.943	8140.66
525.31	8165.97
525.676	8222.24
526.043	8219.76
526.409	8262.92
526.776	8291.62
527.142	8338.62
527.508	8370.03
527.874	8355.8
528.241	8420.88
528.607	8384.5
528.973	8539.97
529.339	8438.51
529.705	8497.49
530.071	8596.02
530.437	8591.05
530.803	8665.62
531.169	8686.86
531.535	8573.42
531.901	8718.27
532.267	8711.27
532.632	8728.89
532.998	8750.59
533.364	8792.85
533.73	8733.19
534.095	8783.58
534.461	8863.81
534.826	8870.13
535.192	8889.79
535.557	8933.18
535.923	8946.29
536.288	9013.18
536.653	9064.71
537.019	8925.27
537.384	8952.62
537.749	9047.98
538.114	9065.61
538.479	9083.91
538.845	9089.11
539.21	9076.46
539.575	9140.64
539.94	9144.93
540.305	9206.62
540.67	9215.66
541.034	9221.76
541.399	9267.86
541.764	9228.09
542.129	9310.12
542.494	9267.19
542.858	9305.6
543.223	9301.54
543.587	9367.3
543.952	9236.23
544.316	9340.4
544.681	9361.19
545.045	9359.61
545.41	9381.53
545.774	9444.81
546.138	9446.84
546.503	9403.91
546.867	9400.52
547.231	9438.48
547.595	9398.03
547.959	9429.22
548.324	9497.24
548.688	9555.09
549.052	9543.79
549.416	9522.32
549.779	9556.22
550.143	9564.35
550.507	9540.4
550.871	9573.84
551.235	9546.95
551.599	9640.28
551.962	9642.09
552.326	9657.23
552.689	9744.24
553.053	9665.37
553.417	9666.27
553.78	9784.23
554.143	9647.74
554.507	9812.48
554.87	9786.04
555.234	9818.36
555.597	9702.43
555.96	9821.97
556.323	9860.16
556.686	9753.27
557.05	9821.97
557.413	9875.76
557.776	9909.65
558.139	9893.84
558.502	9885.02
558.865	9908.52
559.228	9935.42
559.59	9965.02
559.953	10002.53
560.316	10085.24
560.679	10051.8
561.041	10012.7
561.404	10125.92
561.767	10141.51
562.129	10100.16
562.492	10164.11
562.854	10145.35
563.217	10160.95
563.579	10259.02
563.941	10228.29
564.304	10251.34
564.666	10323.2
565.028	10238.01
565.39	10348.97
565.753	10365.01
566.115	10420.15
566.477	10393.26
566.839	10414.95
567.201	10550.77
567.563	10531.79
567.925	10633.03
568.287	10568.62
568.648	10678.22
569.01	10616.53
569.372	10679.58
569.734	10640.48
570.095	10699.24
570.457	10724.1
570.819	10813.59
571.18	10777.88
571.542	10815.62
571.903	10834.83
572.265	10858.56
572.626	10867.6
572.987	10933.81
573.349	10895.62
573.71	10906.24
574.071	10996.86
574.432	10990.53
574.794	11116.4
575.155	11039.79
575.516	11053.58
575.877	11162.96
576.238	11129.96
576.599	11164.54
576.96	11217.64
577.32	11204.99
577.681	11251.09
578.042	11317.3
578.403	11295.83
578.763	11266.68
579.124	11356.62
579.485	11349.62
579.845	11484.98
580.206	11403.85
580.566	11388.26
580.927	11344.42
581.287	11517.52
581.648	11440.01
582.008	11515.94
582.368	11451.08
582.728	11474.13
583.089	11519.33
583.449	11526.79
583.809	11507.58
584.169	11579.67
584.529	11518.2
584.889	11544.64
585.249	11569.05
585.609	11515.94
585.969	11551.19
586.329	11572.66
586.688	11598.2
587.048	11524.3
587.408	11555.04
587.768	11511.19
588.127	11554.81
588.487	11610.85
588.846	11693.79
589.206	11571.53
589.565	11557.07
589.925	11581.02
590.284	11625.09
590.643	11618.99
591.003	11685.43
591.362	11616.28
591.721	11720.91
592.08	11712.09
592.44	11769.27
592.799	11736.73
593.158	11647.01
593.517	11714.13
593.876	11695.82
594.235	11759.32
594.593	11678.42
594.952	11757.74
595.311	11700.57
595.67	11812.88
596.029	11846.33
596.387	11823.28
596.746	11767.46
597.104	11807.68
597.463	11747.12
597.822	11880.22
598.18	11861.69
598.538	11848.36
598.897	11905.76
599.255	11748.7
599.613	11977.85
599.972	11851.98
600.33	11905.99
600.688	11840.68
601.046	11868.7
601.404	11879.09
601.762	11939.88
602.12	11967.91
602.478	11955.48
602.836	11952.76
603.194	11837.06
603.552	11898.3
603.91	11866.44
604.268	11956.15
604.625	11877.06
604.983	11949.83
605.341	11912.31
605.698	11979.66
606.056	11929.94
606.413	11940.56
606.771	12019.43
607.128	12005.19
607.485	11940.79
607.843	11997.51
608.2	12054.91
608.557	12097.17
608.914	12035.02
609.272	12101.24
609.629	12026.21
609.986	12106.21
610.343	12024.18
610.7	12178.52
611.057	12130.61
611.414	12104.85
611.771	12120.9
612.127	12162.7
612.484	12232.53
612.841	12240.44
613.198	12162.48
613.554	12206.32
613.911	12237.05
614.267	12264.85
614.624	12288.12
614.98	12315.47
615.337	12264.85
615.693	12235.02
616.05	12197.73
616.406	12444.5
616.762	12327.9
617.118	12418.52
617.475	12392.53
617.831	12368.8
618.187	12349.82
618.543	12439.08
618.899	12573.77
619.255	12456.03
619.611	12461.45
619.967	12505.52
620.323	12421.23
620.678	12493.54
621.034	12440.21
621.39	12545.74
621.746	12492.19
622.101	12634.1
622.457	12589.58
622.812	12486.76
623.168	12633.88
623.523	12632.75
623.879	12692.86
624.234	12579.42
624.589	12683.82
624.945	12606.08
625.3	12619.41
625.655	12674.78
626.01	12714.78
626.365	12761.33
626.72	12720.88
627.075	12720.65
627.43	12668
627.785	12647.89
628.14	12813.31
628.495	12732.41
628.85	12772.4
629.205	12764.72
629.559	12840.88
629.914	12774.89
630.269	12778.05
630.623	12830.03
630.978	12770.14
631.332	12889.01
631.687	12901.89
632.041	12846.98
632.396	12825.06
632.75	12886.07
633.104	12922.91
633.459	12853.98
633.813	12865.96
634.167	12868.45
634.521	12862.57
634.875	12896.02
635.229	12869.58
635.583	12905.73
635.937	12899.63
636.291	12903.02
636.645	12843.81
636.999	12938.28
637.352	12984.6
637.706	12933.76
638.06	13007.43
638.413	12971.95
638.767	12933.3
639.121	13005.62
639.474	12922.68
639.828	13004.94
640.181	13058.5
640.534	13039.74
640.888	12968.33
641.241	12929.01
641.594	13024.15
641.947	13067.54
642.301	13140.98
642.654	13114.09
643.007	13146.18
643.36	13124.49
643.713	13046.52
644.066	13145.05
644.419	13089.01
644.771	13131.26
645.124	13105.5
645.477	13075.9
645.83	12961.55
646.182	12915
646.535	12864.83
646.888	12939.41
647.24	12829.13
647.593	12942.34
647.945	12839.07
648.298	12846.3
648.65	12824.15
649.002	12869.12
649.355	13009.23
649.707	12982.57
650.059	13069.57
650.411	13267.53
650.763	13297.81
651.115	13437.25
651.467	13369.9
651.819	13416.46
652.171	13468.88
652.523	13423.23
652.875	13406.06
653.227	13423.46
653.578	13541.2
653.93	13486.96
654.282	13487.19
654.633	13444.7
654.985	13548.66
655.337	13554.3
655.688	13497.13
656.039	13597.47
656.391	13480.63
656.742	13543.01
657.094	13571.48
657.445	13560.18
657.796	13654.19
658.147	13534.87
658.498	13607.64
658.849	13619.39
659.2	13682.66
659.551	13640.18
659.902	13647.18
660.253	13575.32
660.604	13735.32
660.955	13677.69
661.306	13684.7
661.656	13669.33
662.007	13748.42
662.358	13646.96
662.708	13688.54
663.059	13741.42
663.409	13692.83
663.76	13812.6
664.11	13731.25
664.461	13720.18
664.811	13712.04
665.161	13759.72
665.511	13810.8
665.862	13715.43
666.212	13780.51
666.562	13778.25
666.912	13707.29
667.262	13808.54
667.612	13740.97
667.962	13783.9
668.312	13728.31
668.662	13821.42
669.011	13684.24
669.361	13778.25
669.711	13724.24
670.06	13625.72
670.41	13627.98
670.76	13623.91
671.109	13641.53
671.459	13592.27
671.808	13576
672.157	13586.39
672.507	13467.08
672.856	13451.48
673.205	13438.6
673.554	13488.32
673.904	13462.33
674.253	13432.95
674.602	13360.64
674.951	13161.32
675.3	13028.22
675.649	13303.92
675.998	13326.51
676.346	13263.46
676.695	13294.88
677.044	13196.35
677.393	13242.67
677.741	13237.02
678.09	13213.07
678.438	13172.17
678.787	13179.4
679.135	13182.11
679.484	13042.91
679.832	13086.29
680.181	13019.4
680.529	13006.97
680.877	12937.15
681.225	12971.5
681.573	12934.43
681.922	12940.54
682.27	12849.69
682.618	12844.94
682.966	12743.03
683.314	12788.68
683.661	12783.25
684.009	12712.74
684.357	12660.99
684.705	12631.62
685.053	12674.55
685.4	12710.26
685.748	12530.38
686.095	12557.49
686.443	12537.38
686.79	12446.09
687.138	12510.04
687.485	12536.7
687.832	12450.83
688.18	12474.56
688.527	12422.36
688.874	12403.37
689.221	12301.46
689.568	12377.39
689.915	12350.27
690.262	12384.84
690.609	12276.37
690.956	12219.88
691.303	12202.02
691.65	12266.88
691.997	12225.53
692.344	12080.9
692.69	12183.04
693.037	12070.73
693.383	12025.53
693.73	12110.5
694.077	12008.13
694.423	12041.12
694.769	12049.49
695.116	12032.54
695.462	11941.24
695.808	11982.82
696.155	11977.17
696.501	11928.81
696.847	11879.09
697.193	11979.2
697.539	11939.43
697.885	11915.03
698.231	11783.96
698.577	11824.63
698.923	11807.01
699.269	11803.16
699.614	11727.91
699.96	11771.07
700.306	11780.79
700.651	11821.92
700.997	11754.58
701.342	11748.25
701.688	11643.39
702.033	11661.93
702.379	11725.43
702.724	11644.07
703.069	11733.11
703.415	11618.54
703.76	11707.57
704.105	11662.38
704.45	11597.29
704.795	11512.78
705.14	11570.63
705.485	11541.25
705.83	11456.96
706.175	11496.28
706.52	11475.94
706.865	11401.59
707.209	11420.8
707.554	11455.83
707.899	11535.83
708.243	11459.22
708.588	11473.91
708.932	11370.63
709.277	11360.24
709.621	11444.76
709.966	11358.2
710.31	11444.08
710.654	11285.89
710.998	11327.47
711.342	11412.89
711.687	11315.72
712.031	11330.86
712.375	11306.45
712.719	11357.53
713.063	11295.61
713.407	11440.01
713.75	11331.99
714.094	11393.46
714.438	11276.4
714.782	11347.13
715.125	11267.36
715.469	11357.07
715.812	11306.45
716.156	11242.73
716.499	11279.11
716.843	11259.9
717.186	11239.79
717.53	11366.34
717.873	11317.98
718.216	11251.54
718.559	11259
718.902	11287.47
719.246	11191.2
719.589	11091.09
719.932	11174.71
720.275	11200.47
720.617	11151.43
720.96	11162.05
721.303	11188.27
721.646	11178.77
721.989	11188.94
722.331	11225.33
722.674	11151.88
723.016	11146.23
723.359	11142.84
723.701	11220.35
724.044	11110.53
724.386	11124.76
724.729	11151.2
725.071	11163.18
725.413	11192.33
725.755	11066.91
726.097	11049.06
726.439	11070.75
726.782	11082.96
727.124	11176.97
727.465	11158.44
727.807	11107.36
728.149	11103.75
728.491	11155.05
728.833	11138.32
729.175	11124.09
729.516	11076.18
729.858	11156.4
730.199	11191.43
730.541	11161.15
730.882	11167.93
731.224	11153.01
731.565	11136.97
731.906	11207.93
732.248	11202.05
732.589	11159.34
732.93	11175.16
733.271	11223.52
733.612	11270.97
733.953	11259
734.294	11242.05
734.635	11239.11
734.976	11297.41
735.317	11235.5
735.658	11303.29
735.999	11315.72
736.339	11345.1
736.68	11371.09
737.021	11372.67
737.361	11332.22
737.702	11421.25
738.042	11378.77
738.383	11423.29
738.723	11442.95
739.063	11431.42
739.404	11487.01
739.744	11514.13
740.084	11531.76
740.424	11605.88
740.764	11488.37
741.104	11503.96
741.444	11517.75
741.784	11555.94
742.124	11675.03
742.464	11623.28
742.804	11679.55
743.143	11691.98
743.483	11746.89
743.823	11666.9
744.162	11667.12
744.502	11733.56
744.841	11747.35
745.181	11803.62
745.52	11825.54
745.86	11874.35
746.199	11907.12
746.538	11882.48
746.877	12043.16
747.216	12029.82
747.556	12002.48
747.895	12121.8
748.234	12096.94
748.573	12234.11
748.911	12172.42
749.25	12260.78
749.589	12221.01
749.928	12289.71
750.267	12260.33
750.605	12428.01
750.944	12405.86
751.283	12348.69
751.621	12432.3
751.96	12383.71
752.298	12496.03
752.636	12579.19
752.975	12562.24
753.313	12566.99
753.651	12757.26
753.989	12619.87
754.327	12690.6
754.666	12773.31
755.004	12730.82
755.342	12806.08
755.679	12865.06
756.017	12790.03
756.355	12936.24
756.693	12764.72
757.031	12992.29
757.368	12904.38
757.706	12921.33
758.044	13012.62
758.381	12973.3
758.719	12914.77
759.056	13072.06
759.394	13107.08
759.731	13084.49
760.068	13127.88
760.405	13098.05
760.743	13048.33
761.08	13157.7
761.417	13152.06
761.754	13229.34
762.091	13234.77
762.428	13240.19
762.765	13242.9
763.102	13256.69
763.438	13269.79
763.775	13307.76
764.112	13296.46
764.449	13365.84
764.785	13372.16
765.122	13410.13
765.458	13295.1
765.795	13410.58
766.131	13445.38
766.467	13385.27
766.804	13360.19
767.14	13331.94
767.476	13456.23
767.812	13349.79
768.148	13406.29
768.485	13415.33
768.821	13379.85
769.157	13465.27
769.492	13443.57
769.828	13411.71
770.164	13371.48
770.5	13496.45
770.836	13426.85
771.171	13489.22
771.507	13449.22
771.842	13431.37
772.178	13416
772.513	13529.45
772.849	13440.86
773.184	13449.67
773.519	13551.37
773.855	13483.8
774.19	13427.75
774.525	13458.71
774.86	13483.12
775.195	13465.49
775.53	13510.01
775.865	13383.01
776.2	13404.7
776.535	13299.85
776.87	13294.88
777.205	13311.15
777.539	13302.11
777.874	13413.97
778.209	13329.68
778.543	13393.4
778.878	13308.89
779.212	13430.69
779.547	13317.25
779.881	13354.08
780.215	13271.6
780.55	13373.97
780.884	13345.95
781.218	13351.6
781.552	13308.89
781.886	13282
782.22	13230.25
782.554	13288.1
782.888	13203.13
783.222	13183.24
783.556	13298.04
783.889	13198.83
784.223	13026.63
784.557	13195.22
784.89	13262.56
785.224	13127.2
785.557	13134.65
785.891	13080.87
786.224	13068.89
786.558	13110.47
786.891	12979.86
787.224	13023.92
787.557	13016.69
787.891	13041.78
788.224	13060.98
788.557	13060.98
788.89	12990.48
789.223	13066.63
789.556	12994.32
789.888	13002.23
790.221	12962.68
790.554	12862.12
790.887	12895.56
791.219	12846.53
791.552	12882.68
791.884	12905.28
792.217	12858.5
792.549	12945.51
792.882	12802.01
793.214	12800.2
793.546	12878.39
793.879	12786.87
794.211	12769.69
794.543	12808.11
794.875	12792.29
795.207	12810.6
795.539	12773.08
795.871	12778.96
796.203	12723.14
796.535	12634.1
796.867	12659.41
797.198	12632.07
797.53	12682.69
797.862	12647.21
798.193	12656.93
798.525	12607.21
798.856	12603.82
799.188	12556.82
799.519	12382.36
799.85	12449.02
800.182	12478.63
800.513	12410.61
800.844	12371.51
801.175	12445.18
801.506	12422.13
801.837	12441.57
802.168	12425.97
802.499	12428.01
802.83	12346.2
803.161	12382.81
803.491	12365.18
803.822	12428.01
804.153	12268.46
804.483	12229.59
804.814	12188.01
805.145	12222.59
805.475	12242.02
805.805	12183.72
806.136	12244.73
806.466	12207
806.796	12172.19
807.126	12075.93
807.457	12010.16
807.787	12096.72
808.117	12052.42
808.447	11999.77
808.777	12085.87
809.107	11986.66
809.436	11942.6
809.766	12026.44
810.096	11941.47
810.426	11847.68
810.755	11934.23
811.085	11897.17
811.414	11830.28
811.744	11788.25
812.073	11835.25
812.403	11784.86
812.732	11769.49
813.061	11753.22
813.39	11689.72
813.719	11703.05
814.049	11814.69
814.378	11742.83
814.707	11629.38
815.036	11681.59
815.365	11611.53
815.693	11522.95
816.022	11593
816.351	11608.59
816.68	11557.52
817.008	11599.1
817.337	11513.91
817.665	11484.53
817.994	11565.43
818.322	11504.42
818.651	11455.38
818.979	11423.51
819.307	11461.93
819.636	11405.66
819.964	11400.69
820.292	11398.43
820.62	11416.06
820.948	11376.06
821.276	11448.37
821.604	11439.11
821.932	11434.36
822.259	11498.31
822.587	11459.44
822.915	11388.94
823.243	11445.66
823.57	11404.76
823.898	11455.83
824.225	11458.99
824.553	11473.91
824.88	11548.03
825.207	11547.58
825.535	11414.93
825.862	11462.61
826.189	11490.4
826.516	11550.52
826.843	11518.43
827.17	11586.45
827.497	11551.65
827.824	11563.62
828.151	11533.11
828.478	11613.56
828.805	11612.89
829.131	11577.63
829.458	11512.32
829.785	11466.45
830.111	11528.6
830.438	11509.16
830.764	11551.42
831.09	11540.12
831.417	11499.67
831.743	11585.77
832.069	11577.18
832.395	11454.25
832.722	11539.89
833.048	11477.75
833.374	11555.71
833.7	11490.86
834.026	11510.52
834.351	11530.4
834.677	11516.84
835.003	11488.6
835.329	11563.62
835.654	11475.94
835.98	11469.61
836.306	11447.24
836.631	11427.58
836.956	11438.43
837.282	11455.38
837.607	11401.82
837.932	11376.51
838.258	11439.56
838.583	11435.26
838.908	11326.79
839.233	11403.63
839.558	11426
839.883	11335.61
840.208	11223.29
840.533	11295.83
840.858	11257.87
841.182	11315.72
841.507	11278.43
841.832	11178.32
842.156	11242.05
842.481	11220.81
842.805	11162.5
843.13	11164.99
843.454	11176.51
843.778	11055.16
844.103	11096.74
844.427	11071.43
844.751	11045.22
845.075	11019.91
845.399	11020.81
845.723	10973.36
846.047	10949.85
846.371	10860.59
846.695	10906.24
847.019	10844.77
847.343	10793.93
847.666	10714.38
847.99	10767.26
848.313	10679.35
848.637	10519.36
848.96	10565.23
849.284	10551.22
849.607	10498.11
849.931	10466.7
850.254	10403.65
850.577	10363.65
850.9	10275.29
851.223	10327.95
851.546	10257.67
851.869	10224.45
852.192	10225.35
852.515	10150.33
852.838	10095.64
853.161	10100.16
853.483	10089.99
853.806	10033.95
854.129	9997.34
854.451	10003.66
854.774	9987.39
855.096	9892.03
855.419	9859.03
855.741	9857.23
856.063	9839.83
856.385	9774.52
856.708	9785.14
857.03	9779.26
857.352	9776.32
857.674	9707.63
857.996	9671.02
858.318	9662.88
858.64	9660.17
858.961	9535.43
859.283	9527.97
859.605	9546.73
859.926	9526.61
860.248	9500.85
860.57	9445.94
860.891	9507.41
861.212	9420.63
861.534	9428.99
861.855	9324.59
862.176	9378.82
862.498	9409.55
862.819	9367.52
863.14	9341.53
863.461	9290.69
863.782	9362.32
864.103	9284.36
864.424	9279.39
864.745	9243.91
865.065	9214.08
865.386	9252.72
865.707	9183.12
866.027	9213.4
866.348	9192.84
866.668	9234.19
866.989	9125.04
867.309	9129.79
867.63	9126.17
867.95	9116.91
868.27	9065.84
868.59	9073.07
868.91	9096.57
869.23	9108.32
869.55	9004.59
869.87	9097.7
870.19	8969.57
870.51	9027.19
870.83	9062.22
871.15	8895.9
871.469	8931.83
871.789	9023.12
872.109	8929.34
872.428	8909.68
872.748	8922.11
873.067	8893.18
873.386	9013.86
873.706	8904.71
874.025	8897.7
874.344	8841.21
874.663	8856.35
874.982	8788.1
875.301	8748.1
875.62	8807.31
875.939	8770.02
876.258	8773.64
876.577	8769.35
876.896	8748.1
877.214	8700.87
877.533	8721.21
877.852	8720.08
878.17	8735.67
878.489	8664.26
878.807	8669.91
879.125	8679.63
879.444	8656.13
879.762	8589.46
880.08	8661.1
880.398	8604.38
880.716	8612.06
881.034	8572.97
881.352	8536.81
881.67	8531.39
881.988	8541.56
882.306	8544.94
882.624	8537.94
882.941	8487.55
883.259	8448.9
883.577	8449.58
883.894	8348.11
884.212	8408
884.529	8365.74
884.846	8322.13
885.164	8412.97
885.481	8343.37
885.798	8344.72
886.115	8275.57
886.432	8304.05
886.75	8265.63
887.067	8217.27
887.383	8180.43
887.7	8266.08
888.017	8161.23
888.334	8249.13
888.651	8132.98
888.967	8166.42
889.284	8032.87
889.6	8062.02
889.917	7986.54
890.233	8126.2
890.55	8043.94
890.866	8004.62
891.182	7919.65
891.498	7971.17
891.815	7947.67
892.131	7894.57
892.447	7856.38
892.763	7876.49
893.079	7813.66
893.395	7766.66
893.71	7793.78
894.026	7707.45
894.342	7748.81
894.657	7645.08
894.973	7624.29
895.289	7740.9
895.604	7645.31
895.92	7608.7
896.235	7586.55
896.55	7541.13
896.865	7553.78
897.181	7486.67
897.496	7497.74
897.811	7484.18
898.126	7487.35
898.441	7424.07
898.756	7399.21
899.071	7386.78
899.386	7320.57
899.7	7352.89
900.015	7339.55
900.33	7200.57
900.644	7237.41
900.959	7203.51
901.273	7213.23
901.588	7157.41
901.902	7090.52
902.216	7135.49
902.531	7111.99
902.845	7069.96
903.159	7044.19
903.473	7042.84
903.787	6906.34
904.101	6953.12
904.415	6914.71
904.729	6898.89
905.042	6872.45
905.356	6907.47
905.67	6838.77
905.984	6779.79
906.297	6775.95
906.611	6746.35
906.924	6738.66
907.237	6721.49
907.551	6712.9
907.864	6676.97
908.177	6658.44
908.491	6616.41
908.804	6620.93
909.117	6573.92
909.43	6563.3
909.743	6507.71
910.056	6505.22
910.368	6406.24
910.681	6448.73
910.994	6387.04
911.307	6321.05
911.619	6299.81
911.932	6317.43
912.244	6258.9
912.557	6270.65
912.869	6264.33
913.181	6219.58
913.494	6207.15
913.806	6234.05
914.118	6133.93
914.43	6083.99
914.742	6155.18
915.054	6106.82
915.366	6085.57
915.678	6057.78
915.99	6036.08
916.302	5980.27
916.613	5968.52
916.925	5979.14
917.236	5911.57
917.548	5864.56
917.859	5879.48
918.171	5773.72
918.482	5837.9
918.794	5771.68
919.105	5762.42
919.416	5770.55
919.727	5730.78
920.038	5733.72
920.349	5697.34
920.66	5670.44
920.971	5673.83
921.282	5616.43
921.593	5568.98
921.903	5530.79
922.214	5589.32
922.525	5548.64
922.835	5502.09
923.146	5486.04
923.456	5450.56
923.767	5412.37
924.077	5454.86
924.387	5393.84
924.697	5343.9
925.008	5303
925.318	5354.52
925.628	5314.52
925.938	5340.51
926.248	5223.9
926.558	5243.11
926.867	5211.02
927.177	5165.15
927.487	5147.75
927.796	5145.49
928.106	5100.97
928.416	5062.78
928.725	5058.71
929.034	5053.06
929.344	5019.16
929.653	5051.03
929.962	4972.84
930.271	4950.92
930.581	4999.95
930.89	4921.99
931.199	4916.79
931.508	4867.98
931.817	4870.01
932.125	4870.01
932.434	4858.71
932.743	4840.18
933.051	4828.88
933.36	4781.43
933.669	4743.24
933.977	4744.82
934.286	4728.55
934.594	4698.27
934.902	4621.88
935.21	4634.54
935.519	4646.29
935.827	4630.92
936.135	4599.96
936.443	4583.02
936.751	4572.85
937.059	4541.89
937.367	4520.19
937.674	4553.41
937.982	4522.68
938.29	4465.05
938.597	4482.23
938.905	4416.47
939.213	4334.66
939.52	4391.38
939.827	4373.76
940.135	4347.09
940.442	4329.69
940.749	4317.71
941.056	4325.39
941.363	4290.37
941.67	4250.82
941.977	4247.2
942.284	4194.32
942.591	4241.33
942.898	4181.9
943.205	4162.69
943.511	4171.5
943.818	4175.12
944.125	4097.15
944.431	4108
944.738	4125.4
945.044	4111.62
945.35	4092.86
945.657	4020.77
945.963	4046.76
946.269	3957.95
946.575	4016.93
946.881	3984.84
947.187	3966.31
947.493	3948.46
947.799	3912.75
948.105	3916.37
948.41	3889.7
948.716	3872.07
949.022	3829.36
949.327	3848.12
949.633	3816.71
949.938	3805.18
950.244	3790.49
950.549	3762.7
950.854	3769.48
951.16	3727.67
951.465	3731.06
951.77	3661.91
952.075	3676.6
952.38	3694.22
952.685	3673.43
952.99	3641.8
953.294	3657.62
953.599	3593.66
953.904	3596.6
954.209	3543.27
954.513	3593.89
954.818	3585.3
955.122	3510.05
955.426	3555.7
955.731	3455.14
956.035	3519.99
956.339	3447.45
956.643	3464.63
956.948	3477.28
957.252	3468.24
957.556	3436.83
957.86	3388.02
958.163	3378.08
958.467	3363.16
958.771	3395.7
959.075	3371.07
959.378	3362.03
959.682	3318.87
959.985	3270.06
960.289	3295.59
960.592	3255.14
960.896	3246.1
961.199	3208.36
961.502	3218.98
961.805	3223.28
962.108	3206.55
962.411	3201.36
962.714	3169.72
963.017	3214.24
963.32	3185.54
963.623	3139.21
963.926	3120.91
964.228	3106.22
964.531	3112.55
964.833	3091.3
965.136	3064.41
965.438	3063.06
965.741	3028.93
966.043	3056.95
966.345	3043.17
966.648	3025.77
966.95	3026.9
967.252	2950.06
967.554	2968.14
967.856	2982.15
968.158	2925.21
968.46	2917.3
968.761	2911.65
969.063	2918.88
969.365	2909.16
969.666	2900.8
969.968	2873.68
970.269	2889.73
970.571	2851.31
970.872	2860.8
971.174	2795.94
971.475	2828.71
971.776	2797.98
972.077	2793.01
972.378	2797.3
972.679	2772.67
972.98	2764.31
973.281	2755.27
973.582	2745.1
973.883	2723.63
974.183	2727.47
974.484	2675.72
974.785	2710.07
975.085	2706.23
975.386	2698.32
975.686	2666.23
975.986	2667.13
976.287	2671.65
976.587	2612.45
976.887	2609.73
977.187	2625.78
977.487	2614.48
977.787	2553.46
978.087	2554.59
978.387	2569.96
978.687	2565.22
978.987	2524.99
979.286	2516.18
979.586	2505.56
979.885	2523.86
980.185	2478.21
980.484	2444.77
980.784	2465.33
981.083	2463.97
981.382	2427.14
981.682	2422.62
981.981	2440.7
982.28	2423.52
982.579	2412.9
982.878	2399.12
983.177	2409.96
983.475	2378.33
983.774	2382.62
984.073	2346.46
984.372	2385.33
984.67	2321.61
984.969	2355.5
985.267	2316.86
985.566	2320.7
985.864	2291.55
986.162	2279.35
986.461	2264.66
986.759	2270.76
987.057	2235.73
987.355	2266.01
987.653	2271.44
987.951	2238.22
988.249	2215.85
988.547	2211.33
988.844	2207.03
989.142	2186.47
989.44	2184.43
989.737	2166.81
990.035	2161.16
990.332	2151.21
990.63	2160.71
990.927	2149.86
991.224	2124.32
991.521	2112.12
991.819	2123.64
992.116	2110.76
992.413	2094.27
992.71	2083.19
993.006	2035.29
993.303	2058.34
993.6	2045
993.897	2030.77
994.193	2038.68
994.49	2022.86
994.787	2023.08
995.083	1982.41
995.379	1988.28
995.676	1976.08
995.972	1960.94
996.268	1952.58
996.565	1956.64
996.861	1961.84
997.157	1940.15
997.453	1931.33
997.749	1922.07
998.044	1889.07
998.34	1895.18
998.636	1880.71
998.932	1885.46
999.227	1869.19
999.523	1844.56
999.818	1843.88
1000.114	1838.91
1000.409	1829.19
1000.704	1819.47
1001	1814.27
1001.295	1784.44
1001.59	1797.33
1001.885	1776.54
1002.18	1776.31
1002.475	1768.85
1002.77	1743.77
1003.065	1736.54
1003.359	1734.73
1003.654	1747.16
1003.949	1722.98
1004.243	1689.98
1004.538	1694.05
1004.832	1689.08
1005.127	1704.67
1005.421	1658.35
1005.715	1666.71
1006.009	1651.11
1006.304	1654.28
1006.598	1629.87
1006.892	1609.08
1007.186	1632.13
1007.48	1617.9
1007.773	1602.3
1008.067	1624.9
1008.361	1588.07
1008.655	1576.54
1008.948	1570.66
1009.242	1565.92
1009.535	1552.59
1009.829	1565.47
1010.122	1533.83
1010.415	1531.8
1010.708	1538.12
1011.001	1504
1011.295	1503.77
1011.588	1496.32
1011.881	1509.65
1012.173	1471.46
1012.466	1481.85
1012.759	1482.08
1013.052	1465.58
1013.344	1455.41
1013.637	1449.54
1013.93	1414.51
1014.222	1422.87
1014.514	1422.42
1014.807	1405.7
1015.099	1415.64
1015.391	1403.89
1015.683	1414.28
1015.976	1413.38
1016.268	1389.2
1016.56	1367.28
1016.851	1342.87
1017.143	1344.91
1017.435	1336.55
1017.727	1306.27
1018.018	1316.89
1018.31	1315.98
1018.602	1290.67
1018.893	1298.13
1019.185	1296.77
1019.476	1302.65
1019.767	1266.72
1020.058	1262.42
1020.35	1261.07
1020.641	1265.59
1020.932	1236.21
1021.223	1229.2
1021.514	1208.64
1021.804	1203.67
1022.095	1232.14
1022.386	1198.7
1022.677	1204.8
1022.967	1190.56
1023.258	1157.57
1023.548	1178.36
1023.839	1182.88
1024.129	1157.12
1024.419	1131.81
1024.709	1137
1025	1118.47
1025.29	1132.03
1025.58	1132.03
1025.87	1105.37
1026.16	1108.53
1026.449	1099.72
1026.739	1097.46
1027.029	1108.53
1027.319	1083.9
1027.608	1081.41
1027.898	1083.9
1028.187	1051.81
1028.477	1063.33
1028.766	1045.03
1029.055	1046.16
1029.344	1031.02
1029.634	1034.63
1029.923	1028.53
1030.212	1013.39
1030.501	997.57
1030.79	1005.26
1031.078	1004.58
1031.367	991.02
1031.656	1010.91
1031.945	988.53
1032.233	990.34
1032.522	955.54
1032.81	950.79
1033.099	975.2
1033.387	937.46
1033.675	955.54
1033.963	947.18
1034.251	949.44
1034.54	955.54
1034.828	923.9
1035.116	923
1035.403	926.39
1035.691	901.53
1035.979	877.35
1036.267	906.73
1036.554	895.43
1036.842	866.95
1037.129	871.7
1037.417	865.82
1037.704	897.01
1037.992	864.47
1038.279	831.93
1038.566	838.25
1038.853	838.25
1039.14	838.25
