Data from blue_surface_keyboard_FLMS001491_039.txt Node
Date: Tue Feb 07 11:13:01 GMT 2017
User: dcchb
Spectrometer: FLMS00149
Trigger mode: 0
Integration Time (sec): 2.000000E-2
Scans to average: 10
Electric dark correction enabled: true
Nonlinearity correction enabled: false
Boxcar width: 0
XAxis mode: Wavelengths
Number of Pixels in Spectrum: 2048
>>>>>Begin Spectral Data<<<<<
341.393	-6.78
341.776	-6.78
342.16	-6.78
342.543	-58.98
342.927	-62.15
343.31	-72.09
343.693	-55.59
344.077	-65.08
344.46	-63.5
344.843	-43.16
345.226	-45.87
345.61	-29.15
345.993	-4.97
346.376	-3.62
346.759	-12.66
347.142	33.67
347.525	36.84
347.908	60.34
348.291	74.35
348.674	81.58
349.057	108.92
349.44	146.66
349.823	137.85
350.206	172.42
350.588	162.03
350.971	213.1
351.354	206.55
351.737	211.97
352.119	225.76
352.502	235.7
352.884	246.32
353.267	244.29
353.65	265.53
354.032	278.41
354.414	266.89
354.797	276.38
355.179	298.52
355.562	306.66
355.944	305.75
356.326	325.64
356.709	318.18
357.091	312.31
357.473	325.64
357.855	300.56
358.238	333.78
358.62	303.95
359.002	326.77
359.384	335.13
359.766	321.12
360.148	341.01
360.53	304.17
360.912	311.63
361.294	305.08
361.676	324.06
362.057	298.3
362.439	312.31
362.821	289.71
363.203	309.6
363.584	312.08
363.966	294.68
364.348	302.36
364.729	293.78
365.111	296.26
365.493	303.49
365.874	292.87
366.256	310.5
366.637	306.66
367.019	282.03
367.4	280.22
367.781	302.82
368.163	292.87
368.544	262.37
368.925	276.83
369.306	295.59
369.688	285.87
370.069	294.68
370.45	269.15
370.831	284.74
371.212	301.01
371.593	279.31
371.974	295.36
372.355	266.21
372.736	287.9
373.117	293.55
373.498	287.68
373.879	262.37
374.26	277.51
374.641	280.44
375.021	288.81
375.402	292.42
375.783	296.04
376.163	311.18
376.544	305.98
376.925	277.73
377.305	299.88
377.686	284.29
378.066	293.33
378.447	294.91
378.827	295.36
379.208	289.94
379.588	317.28
379.968	313.89
380.349	272.76
380.729	314.12
381.109	302.36
381.489	303.72
381.87	295.81
382.25	310.27
382.63	305.3
383.01	313.21
383.39	282.7
383.77	304.62
384.15	295.81
384.53	300.33
384.91	320.9
385.29	291.74
385.67	320.9
386.049	309.14
386.429	296.72
386.809	309.14
387.189	307.56
387.568	301.24
387.948	319.31
388.328	320.9
388.707	306.43
389.087	331.29
389.466	321.12
389.846	321.12
390.225	316.15
390.605	312.08
390.984	325.64
391.363	322.93
391.743	291.52
392.122	279.09
392.501	308.47
392.881	347.11
393.26	328.13
393.639	332.19
394.018	319.31
394.397	335.81
394.776	303.72
395.155	307.34
395.534	298.98
395.913	333.1
396.292	321.57
396.671	325.64
397.05	327.9
397.429	321.57
397.808	326.09
398.186	325.64
398.565	322.93
398.944	326.77
399.323	341.23
399.701	338.52
400.08	336.49
400.458	335.81
400.837	354.34
401.215	325.42
401.594	330.16
401.972	337.84
402.351	349.6
402.729	325.42
403.107	354.79
403.486	350.5
403.864	348.24
404.242	351.18
404.62	349.6
404.999	351.18
405.377	340.1
405.755	360.67
406.133	348.92
406.511	355.24
406.889	355.7
407.267	363.61
407.645	378.07
408.023	365.41
408.401	346.88
408.779	358.41
409.156	367
409.534	349.14
409.912	364.96
410.29	355.02
410.667	362.25
411.045	366.32
411.422	386.66
411.8	371.52
412.178	362.25
412.555	382.81
412.933	373.78
413.31	363.61
413.687	370.39
414.065	388.01
414.442	391.85
414.819	374.45
415.197	379.65
415.574	382.14
415.951	389.37
416.328	379.43
416.705	401.35
417.082	392.98
417.46	369.93
417.837	400.89
418.214	391.63
418.591	397.5
418.967	382.36
419.344	405.41
419.721	401.8
420.098	411.97
420.475	398.18
420.852	380.78
421.228	401.8
421.605	390.5
421.982	420.55
422.358	407.9
422.735	397.05
423.111	409.48
423.488	395.7
423.864	427.33
424.241	399.09
424.617	422.36
424.994	402.93
425.37	405.41
425.746	428.92
426.123	437.05
426.499	420.78
426.875	422.14
427.251	442.93
427.627	444.06
428.003	441.8
428.379	426.43
428.756	429.82
429.132	434.56
429.507	433.66
429.883	444.28
430.259	446.54
430.635	434.56
431.011	446.32
431.387	454.45
431.763	424.4
432.138	449.71
432.514	456.49
432.89	449.25
433.265	434.79
433.641	455.13
434.016	483.83
434.392	464.85
434.767	469.59
435.143	462.36
435.518	475.47
435.894	479.76
436.269	501
436.644	512.3
437.02	473.89
437.395	482.7
437.77	496.26
438.145	484.51
438.52	490.61
438.895	495.81
439.271	495.13
439.646	501
440.021	491.06
440.395	512.3
440.77	503.72
441.145	491.29
441.52	515.69
441.895	522.02
442.27	502.81
442.645	528.57
443.019	506.2
443.394	523.15
443.769	503.72
444.143	508.69
444.518	518.18
444.892	520.89
445.267	513.43
445.641	519.99
446.016	526.77
446.39	521.79
446.764	542.13
447.139	546.43
447.513	534.9
447.887	538.29
448.262	556.6
448.636	513.88
449.01	541
449.384	554.79
449.758	583.26
450.132	562.47
450.506	548.01
450.88	582.36
451.254	569.48
451.628	551.4
452.002	565.41
452.376	572.87
452.75	586.2
453.123	581.68
453.497	591.4
453.871	578.97
454.244	570.83
454.618	585.97
454.992	582.13
455.365	594.11
455.739	592.53
456.112	606.76
456.486	616.25
456.859	603.15
457.232	602.02
457.606	603.37
457.979	607.67
458.352	618.97
458.725	617.84
459.099	645.41
459.472	630.72
459.845	628.01
460.218	643.37
460.591	654.67
460.964	647.67
461.337	639.53
461.71	663.94
462.083	648.57
462.456	674.78
462.829	672.07
463.201	667.1
463.574	689.93
463.947	666.88
464.32	692.19
464.692	703.26
465.065	681.34
465.438	693.99
465.81	719.3
466.183	724.05
466.555	701.68
466.928	697.83
467.3	727.89
467.672	709.13
468.045	739.19
468.417	749.13
468.789	751.17
469.161	735.12
469.534	729.25
469.906	734.67
470.278	741.68
470.65	770.15
471.022	757.95
471.394	795.46
471.766	792.07
472.138	793.43
472.51	797.49
472.882	814.67
473.253	808.57
473.625	840.2
473.997	826.87
474.369	807.44
474.74	838.85
475.112	826.42
475.484	834.55
475.855	828.68
476.227	863.93
476.598	862.35
476.97	880.88
477.341	882.24
477.713	911.16
478.084	896.47
478.455	926.3
478.827	911.39
479.198	959.75
479.569	942.35
479.94	966.08
480.311	971.05
480.682	954.78
481.053	964.04
481.424	1010.37
481.795	997.71
482.166	1003.36
482.537	1017.15
482.908	1026.87
483.279	1030.48
483.65	1044.49
484.021	1056.02
484.391	1044.49
484.762	1058.73
485.133	1063.25
485.503	1065.06
485.874	1069.35
486.244	1105.73
486.615	1126.07
486.985	1103.02
487.356	1127.2
487.726	1127.43
488.097	1136.24
488.467	1154.77
488.837	1126.98
489.207	1174.43
489.578	1176.01
489.948	1185.05
490.318	1203.58
490.688	1183.25
491.058	1211.49
491.428	1230.7
491.798	1232.28
492.168	1213.3
492.538	1256.01
492.908	1256.69
493.278	1260.98
493.648	1275.22
494.017	1255.79
494.387	1231.15
494.757	1303.92
495.126	1257.14
495.496	1264.83
495.866	1262.34
496.235	1285.62
496.605	1280.42
496.974	1298.04
497.344	1305.5
497.713	1266.86
498.082	1296.46
498.452	1309.57
498.821	1310.7
499.19	1310.93
499.559	1345.5
499.928	1352.51
500.298	1310.7
500.667	1319.29
501.036	1310.25
501.405	1339.85
501.774	1352.51
502.143	1337.37
502.512	1347.76
502.88	1349.34
503.249	1344.15
503.618	1321.32
503.987	1336.91
504.356	1348.21
504.724	1364.26
505.093	1402.9
505.462	1392.51
505.83	1348.67
506.199	1357.03
506.567	1387.53
506.936	1385.27
507.304	1397.48
507.672	1400.87
508.041	1413.52
508.409	1398.61
508.777	1422.79
509.145	1410.36
509.514	1420.3
509.882	1410.36
510.25	1433.18
510.618	1416.23
510.986	1407.42
511.354	1434.09
511.722	1414.43
512.09	1434.31
512.458	1425.5
512.826	1441.77
513.193	1447.65
513.561	1420.98
513.929	1427.53
514.297	1477.7
514.664	1416.01
515.032	1487.87
515.4	1461.88
515.767	1446.52
516.135	1464.14
516.502	1487.19
516.869	1481.77
517.237	1479.74
517.604	1476.57
517.972	1482.22
518.339	1470.92
518.706	1498.72
519.073	1488.55
519.44	1495.1
519.808	1486.97
520.175	1516.12
520.542	1499.62
520.909	1522.45
521.276	1529.68
521.643	1509.56
522.009	1496.23
522.376	1507.53
522.743	1486.51
523.11	1531.94
523.477	1533.97
523.843	1550.47
524.21	1546.4
524.577	1543.01
524.943	1553.41
525.31	1578.04
525.676	1539.62
526.043	1581.43
526.409	1569
526.776	1574.65
527.142	1623.46
527.508	1554.99
527.874	1560.64
528.241	1604.03
528.607	1589.11
528.973	1596.12
529.339	1582.78
529.705	1618.94
530.071	1630.24
530.437	1587.75
530.803	1591.82
531.169	1616.23
531.535	1628.21
531.901	1601.54
532.267	1605.83
532.632	1609.9
532.998	1632.27
533.364	1622.1
533.73	1613.74
534.095	1638.37
534.461	1604.48
534.826	1625.04
535.192	1634.31
535.557	1604.03
535.923	1623.01
536.288	1629.79
536.653	1633.63
537.019	1666.62
537.384	1672.27
537.749	1641.09
538.114	1651.71
538.479	1635.21
538.845	1602.67
539.21	1649.22
539.575	1629.56
539.94	1659.84
540.305	1646.96
540.67	1663.91
541.034	1665.94
541.399	1679.96
541.764	1660.75
542.129	1646.28
542.494	1665.94
542.858	1673.63
543.223	1627.98
543.587	1666.85
543.952	1688.32
544.316	1675.44
544.681	1656.23
545.045	1684.25
545.41	1673.18
545.774	1651.71
546.138	1669.11
546.503	1686.74
546.867	1658.26
547.231	1663.46
547.595	1683.35
547.959	1655.78
548.324	1712.5
548.688	1707.07
549.052	1685.15
549.416	1670.92
549.779	1655.55
550.143	1676.11
550.507	1661.88
550.871	1681.99
551.235	1688.32
551.599	1698.49
551.962	1694.19
552.326	1747.3
552.689	1699.62
553.053	1686.28
553.417	1684.02
553.78	1712.5
554.143	1691.03
554.507	1707.53
554.87	1688.77
555.234	1703.23
555.597	1712.72
555.96	1704.59
556.323	1725.83
556.686	1726.73
557.05	1695.32
557.413	1717.02
557.776	1698.49
558.139	1745.49
558.502	1736
558.865	1702.33
559.228	1741.42
559.59	1738.71
559.953	1750.91
560.316	1746.17
560.679	1725.38
561.041	1752.5
561.404	1738.71
561.767	1758.37
562.129	1731.71
562.492	1785.72
562.854	1760.18
563.217	1764.47
563.579	1732.16
563.941	1744.13
564.304	1747.3
564.666	1784.36
565.028	1767.86
565.39	1780.07
565.753	1785.94
566.115	1776.22
566.477	1765.38
566.839	1783.23
567.201	1787.52
567.563	1798.82
567.925	1757.92
568.287	1796.79
568.648	1822.55
569.01	1786.39
569.372	1845.15
569.734	1804.25
570.095	1823.68
570.457	1825.04
570.819	1814.64
571.18	1798.14
571.542	1821.65
571.903	1810.8
572.265	1819.16
572.626	1836.11
572.987	1833.85
573.349	1824.36
573.71	1849.67
574.071	1878.59
574.432	1848.76
574.794	1857.13
575.155	1865.26
575.516	1845.83
575.877	1853.51
576.238	1845.15
576.599	1846.96
576.96	1845.83
577.32	1871.14
577.681	1836.56
578.042	1874.08
578.403	1866.39
578.763	1877.92
579.124	1844.7
579.485	1888.09
579.845	1846.51
580.206	1874.08
580.566	1898.26
580.927	1889.22
581.287	1879.95
581.648	1894.19
582.008	1923.57
582.368	1883.34
582.728	1885.83
583.089	1905.71
583.449	1872.72
583.809	1886.05
584.169	1911.14
584.529	1854.64
584.889	1897.35
585.249	1905.26
585.609	1909.55
585.969	1914.75
586.329	1917.01
586.688	1903
587.048	1896.45
587.408	1879.27
587.768	1898.48
588.127	1924.47
588.487	1898.03
588.846	1900.29
589.206	1891.02
589.565	1918.14
589.925	1911.36
590.284	1896.67
590.643	1922.44
591.003	1891.7
591.362	1935.99
591.721	1916.11
592.08	1912.72
592.44	1930.34
592.799	1896.45
593.158	1909.55
593.517	1912.49
593.876	1916.11
594.235	1905.03
594.593	1908.42
594.952	1922.44
595.311	1915.66
595.67	1910.01
596.029	1905.49
596.387	1932.83
596.746	1933.96
597.104	1893.74
597.463	1945.94
597.822	1945.49
598.18	1935.54
598.538	1929.67
598.897	1942.77
599.255	1932.15
599.613	1956.56
599.972	1931.93
600.33	1957.24
600.688	1935.09
601.046	1947.97
601.404	1953.62
601.762	1945.94
602.12	1939.38
602.478	1970.12
602.836	1951.59
603.194	1940.06
603.552	1939.61
603.91	1959.95
604.268	1987.29
604.625	1949.78
604.983	1991.36
605.341	1928.54
605.698	1962.66
606.056	1965.82
606.413	1996.78
606.771	1965.6
607.128	2000.17
607.485	1978.48
607.843	1990
608.2	1968.99
608.557	1992.94
608.914	1995.65
609.272	2005.82
609.629	1988.65
609.986	1981.87
610.343	1982.55
610.7	2025.48
611.057	2027.74
611.414	2028.2
611.771	2028.2
612.127	2033.62
612.484	2033.17
612.841	2060.28
613.198	1999.95
613.554	2003.34
613.911	2057.57
614.267	2042.43
614.624	2033.17
614.98	2007.18
615.337	2054.41
615.693	2034.3
616.05	2006.27
616.406	2057.35
616.762	2027.29
617.118	2043.11
617.475	2055.31
617.831	2063.9
618.187	2055.31
618.543	2027.29
618.899	2041.3
619.255	2097.57
619.611	2019.83
619.967	2078.14
620.323	2088.98
620.678	2099.38
621.034	2103.22
621.39	2087.63
621.746	2072.71
622.101	2072.71
622.457	2108.42
622.812	2089.21
623.168	2074.3
623.523	2086.05
623.879	2079.04
624.234	2109.55
624.589	2115.42
624.945	2074.75
625.3	2086.95
625.655	2135.54
626.01	2135.09
626.365	2141.41
626.72	2101.64
627.075	2107.74
627.43	2123.56
627.785	2131.7
628.14	2177.57
628.495	2117.46
628.85	2158.36
629.205	2174.41
629.559	2158.14
629.914	2132.6
630.269	2154.97
630.623	2095.99
630.978	2119.49
631.332	2135.31
631.687	2147.06
632.041	2151.36
632.396	2142.32
632.75	2170.11
633.104	2137.34
633.459	2175.54
633.813	2134.41
634.167	2160.17
634.521	2187.97
634.875	2208.08
635.229	2201.3
635.583	2187.74
635.937	2194.52
636.291	2226.16
636.645	2219.15
636.999	2211.47
637.352	2223.67
637.706	2170.34
638.06	2188.42
638.413	2230.22
638.767	2208.3
639.121	2222.99
639.474	2220.96
639.828	2208.08
640.181	2222.54
640.534	2242.2
640.888	2239.04
641.241	2277.68
641.594	2227.74
641.947	2251.92
642.301	2265.03
642.654	2221.86
643.007	2230
643.36	2236.55
643.713	2298.24
644.066	2283.78
644.419	2246.95
644.771	2268.19
645.124	2230.68
645.477	2292.82
645.83	2271.13
646.182	2271.35
646.535	2281.07
646.888	2267.74
647.24	2269.09
647.593	2295.76
647.945	2286.04
648.298	2281.97
648.65	2312.03
649.002	2275.65
649.355	2315.87
649.707	2330.56
650.059	2338.47
650.411	2372.82
650.763	2431.35
651.115	2411.69
651.467	2408.98
651.819	2406.72
652.171	2441.07
652.523	2397
652.875	2437.68
653.227	2430.9
653.578	2472.93
653.93	2483.1
654.282	2460.95
654.633	2436.77
654.985	2472.25
655.337	2467.05
655.688	2494.17
656.039	2537.11
656.391	2517
656.742	2534.62
657.094	2545.47
657.445	2521.52
657.796	2540.95
658.147	2585.24
658.498	2573.49
658.849	2560.84
659.2	2551.35
659.551	2578.24
659.902	2597.9
660.253	2640.16
660.604	2635.18
660.955	2631.12
661.306	2640.83
661.656	2640.16
662.007	2652.36
662.358	2690.55
662.708	2673.38
663.059	2721.51
663.409	2707.73
663.76	2724.22
664.11	2730.55
664.461	2768.97
664.811	2757.67
665.161	2767.38
665.511	2800.83
665.862	2759.25
666.212	2800.38
666.562	2807.61
666.912	2830.21
667.262	2828.63
667.612	2856.87
667.962	2854.39
668.312	2871.34
668.662	2886.93
669.011	2861.62
669.361	2873.6
669.711	2923.31
670.06	2898
670.41	2940.26
670.76	2974.84
671.109	2967.61
671.459	2973.71
671.808	2977.55
672.157	3012.58
672.507	3004.67
672.856	2993.14
673.205	3016.19
673.554	3049.64
673.904	3011.9
674.253	3058.45
674.602	3070.65
674.951	3028.85
675.3	3045.34
675.649	3099.35
675.998	3107.04
676.346	3130.99
676.695	3149.3
677.044	3091.9
677.393	3117.43
677.741	3159.01
678.09	3153.59
678.438	3166.92
678.787	3170.09
679.135	3191.78
679.484	3186.81
679.832	3215.96
680.181	3197.88
680.529	3214.15
680.877	3228.84
681.225	3244.43
681.573	3251.67
681.922	3248.95
682.27	3257.99
682.618	3244.43
682.966	3293.02
683.314	3287.37
683.661	3259.12
684.009	3241.72
684.357	3286.47
684.705	3261.16
685.053	3266.35
685.4	3329.4
685.748	3306.35
686.095	3277.43
686.443	3313.13
686.79	3288.73
687.138	3325.56
687.485	3334.83
687.832	3321.72
688.18	3360.59
688.527	3321.27
688.874	3349.52
689.221	3341.83
689.568	3369.18
689.915	3375.73
690.262	3363.98
690.609	3406.69
690.956	3356.3
691.303	3382.74
691.65	3362.4
691.997	3370.31
692.344	3394.49
692.69	3362.4
693.037	3377.99
693.383	3337.31
693.73	3342.51
694.077	3362.17
694.423	3396.97
694.769	3342.51
695.116	3384.77
695.462	3355.84
695.808	3354.71
696.155	3407.37
696.501	3314.49
696.847	3346.13
697.193	3337.31
697.539	3400.59
697.885	3326.92
698.231	3362.62
698.577	3309.74
698.923	3320.82
699.269	3324.66
699.614	3289.41
699.96	3365.79
700.306	3316.07
700.651	3324.66
700.997	3341.61
701.342	3295.73
701.688	3312.46
702.033	3317.88
702.379	3307.94
702.724	3278.56
703.069	3328.73
703.415	3284.43
703.76	3276.75
704.105	3308.16
704.45	3288.05
704.795	3287.6
705.14	3253.47
705.485	3240.37
705.83	3241.04
706.175	3285.34
706.52	3262.97
706.865	3271.78
707.209	3245.56
707.554	3225
707.899	3268.61
708.243	3209.41
708.588	3236.75
708.932	3222.97
709.277	3217.99
709.621	3265.68
709.966	3166.92
710.31	3220.25
710.654	3205.34
710.998	3219.8
711.342	3209.86
711.687	3179.35
712.031	3194.49
712.375	3197.2
712.719	3239.69
713.063	3189.29
713.407	3185.45
713.75	3225
714.094	3197.2
714.438	3203.08
714.782	3183.19
715.125	3195.4
715.469	3217.99
715.812	3193.14
716.156	3202.63
716.499	3175.06
716.843	3199.01
717.186	3164.21
717.53	3191.33
717.873	3163.76
718.216	3203.31
718.559	3167.37
718.902	3162.85
719.246	3172.57
719.589	3136.19
719.932	3172.8
720.275	3159.92
720.617	3172.12
720.96	3156.08
721.303	3205.57
721.646	3187.03
721.989	3164.66
722.331	3183.42
722.674	3152.46
723.016	3163.31
723.359	3161.95
723.701	3181.84
724.044	3156.08
724.386	3138.45
724.729	3187.71
725.071	3161.05
725.413	3159.24
725.755	3158.11
726.097	3188.62
726.439	3196.75
726.782	3175.51
727.124	3160.59
727.465	3170.09
727.807	3192.68
728.149	3178
728.491	3171.89
728.833	3189.97
729.175	3180.48
729.516	3189.52
729.858	3179.13
730.199	3193.81
730.541	3204.44
730.882	3179.8
731.224	3215.28
731.565	3189.97
731.906	3212.12
732.248	3240.59
732.589	3195.85
732.93	3208.05
733.271	3237.65
733.612	3230.2
733.953	3198.56
734.294	3248.05
734.635	3260.48
734.976	3233.36
735.317	3233.36
735.658	3240.37
735.999	3215.73
736.339	3203.53
736.68	3215.96
737.021	3217.54
737.361	3241.04
737.702	3292.34
738.042	3299.8
738.383	3270.65
738.723	3268.39
739.063	3266.81
739.404	3303.64
739.744	3285.79
740.084	3283.53
740.424	3299.35
740.764	3300.48
741.104	3327.82
741.444	3281.27
741.784	3313.36
742.124	3317.88
742.464	3308.39
742.804	3356.52
743.143	3304.09
743.483	3369.4
743.823	3394.26
744.162	3356.3
744.502	3382.51
744.841	3399.23
745.181	3439.01
745.52	3419.57
745.86	3456.41
746.199	3461.6
746.538	3447.14
746.877	3511.77
747.216	3486.69
747.556	3486.91
747.895	3544.54
748.234	3506.57
748.573	3563.75
748.911	3584.09
749.25	3584.31
749.589	3563.75
749.928	3624.76
750.267	3620.02
750.605	3662.05
750.944	3648.27
751.283	3682.84
751.621	3690.52
751.96	3693.46
752.298	3713.8
752.636	3723.29
752.975	3790.18
753.313	3764.19
753.651	3780.69
753.989	3817.3
754.327	3810.3
754.666	3850.07
755.004	3893.23
755.342	3922.83
755.679	3936.62
756.017	3921.25
756.355	3933.68
756.693	3922.61
757.031	3999.44
757.368	4033.79
757.706	4007.58
758.044	3985.66
758.381	4059.55
758.719	4048.26
759.056	4070.4
759.394	4099.33
759.731	4088.25
760.068	4155.14
760.405	4117.41
760.743	4142.94
761.08	4154.92
761.417	4158.53
761.754	4176.61
762.091	4192.21
762.428	4209.15
762.765	4198.31
763.102	4208.02
763.438	4201.92
763.775	4236.27
764.112	4224.52
764.449	4272.88
764.785	4265.88
765.122	4212.77
765.458	4235.14
765.795	4255.71
766.131	4245.76
766.467	4265.42
766.804	4288.25
767.14	4261.36
767.476	4267.68
767.812	4259.32
768.148	4323.95
768.485	4297.51
768.821	4293.67
769.157	4309.72
769.492	4274.46
769.828	4276.05
770.164	4264.75
770.5	4320.34
770.836	4203.73
771.171	4234.92
771.507	4239.66
771.842	4214.13
772.178	4250.51
772.513	4276.95
772.849	4227.46
773.184	4216.61
773.519	4241.7
773.855	4192.43
774.19	4193.34
774.525	4194.47
774.86	4216.39
775.195	4210.51
775.53	4161.92
775.865	4194.69
776.2	4122.38
776.535	4123.51
776.87	4110.17
777.205	4119.21
777.539	4098.65
777.874	4133.9
778.209	4033.79
778.543	4071.31
778.878	4064.75
779.212	4043.28
779.547	4072.89
779.881	4068.82
780.215	4067.46
780.55	4036.5
780.884	4036.05
781.218	4010.06
781.552	4020.01
781.886	4020.91
782.22	3998.09
782.554	3978.65
782.888	4004.41
783.222	3894.13
783.556	3951.99
783.889	3965.09
784.223	3939.33
784.557	3901.82
784.89	3896.85
785.224	3891.2
785.557	3906.79
785.891	3900.69
786.224	3867.47
786.558	3837.19
786.891	3846.45
787.224	3815.49
787.557	3829.28
787.891	3813.46
788.224	3817.53
788.557	3787.02
788.89	3791.31
789.223	3776.85
789.556	3755.16
789.888	3752.9
790.221	3756.06
790.554	3715.61
790.887	3771.65
791.219	3705.21
791.552	3717.42
791.884	3704.31
792.217	3703.41
792.549	3690.52
792.882	3672.22
793.214	3635.84
793.546	3675.16
793.879	3615.27
794.211	3638.32
794.543	3608.49
794.875	3633.58
795.207	3603.52
795.539	3581.6
795.871	3604.2
796.203	3565.1
796.535	3583.63
796.867	3565.78
797.198	3549.74
797.53	3495.05
797.862	3507.93
798.193	3516.07
798.525	3536.4
798.856	3481.94
799.188	3476.07
799.519	3480.59
799.85	3463.19
800.182	3441.72
800.513	3426.12
800.844	3414.15
801.175	3471.1
801.506	3408.5
801.837	3386.8
802.168	3382.74
802.499	3418.67
802.83	3389.06
803.161	3367.6
803.491	3387.03
803.822	3397.65
804.153	3351.78
804.483	3328.27
804.814	3278.11
805.145	3326.01
805.475	3326.69
805.805	3300.03
806.136	3323.08
806.466	3316.75
806.796	3268.84
807.126	3297.77
807.457	3296.64
807.787	3239.91
808.117	3223.64
808.447	3270.42
808.777	3225.68
809.107	3219.12
809.436	3209.63
809.766	3222.29
810.096	3213.93
810.426	3221.38
810.755	3217.09
811.085	3203.53
811.414	3222.51
811.744	3176.87
812.073	3166.7
812.403	3138.45
812.732	3174.38
813.061	3156.3
813.39	3108.39
813.719	3151.1
814.049	3144.78
814.378	3145.68
814.707	3136.87
815.036	3106.81
815.365	3096.42
815.693	3104.1
816.022	3095.74
816.351	3072.46
816.68	3041.95
817.008	3068.17
817.337	3076.3
817.665	3088.73
817.994	3054.16
818.322	3064.33
818.651	3023.88
818.979	3036.76
819.307	3032.46
819.636	3007.38
819.964	3028.39
820.292	3009.64
820.62	3011.22
820.948	2980.94
821.276	3006.7
821.604	3020.71
821.932	3019.36
822.259	3006.47
822.587	3022.75
822.915	3009.86
823.243	2980.94
823.57	3007.83
823.898	2994.05
824.225	2941.39
824.553	2985.01
824.88	2960.15
825.207	2981.62
825.535	2976.87
825.862	3011.67
826.189	2989.53
826.516	3005.34
826.843	3071.78
827.17	3016.19
827.497	2980.03
827.824	2992.24
828.151	2972.13
828.478	2988.62
828.805	3009.19
829.131	2989.75
829.458	2969.64
829.785	2968.28
830.111	2974.84
830.438	3010.32
830.764	2992.01
831.09	2989.75
831.417	3000.37
831.743	2971
832.069	2987.49
832.395	2991.56
832.722	2984.33
833.048	2974.39
833.374	2969.19
833.7	2963.54
834.026	2965.35
834.351	3004.67
834.677	2969.41
835.003	3003.76
835.329	2968.28
835.654	2956.31
835.98	2929.41
836.306	2941.39
836.631	2938.68
836.956	2938.91
837.282	2963.09
837.607	2940.94
837.932	2930.77
838.258	2924.67
838.583	2926.48
838.908	2902.75
839.233	2945.01
839.558	2921.73
839.883	2916.76
840.208	2906.14
840.533	2905.91
840.858	2902.52
841.182	2906.59
841.507	2882.41
841.832	2874.05
842.156	2888.06
842.481	2879.25
842.805	2877.66
843.13	2868.85
843.454	2862.07
843.778	2836.08
844.103	2822.07
844.427	2846.03
844.751	2820.72
845.075	2802.19
845.399	2800.38
845.723	2803.54
846.047	2814.39
846.371	2784.56
846.695	2791.11
847.019	2793.6
847.343	2757.89
847.666	2724.9
847.99	2757.67
848.313	2733.94
848.637	2721.74
848.96	2725.8
849.284	2761.06
849.607	2670.66
849.931	2710.89
850.254	2682.64
850.577	2650.78
850.9	2640.38
851.223	2660.95
851.546	2625.69
851.869	2594.28
852.192	2673.83
852.515	2621.4
852.838	2643.09
853.161	2623.66
853.483	2610.55
853.806	2599.03
854.129	2585.24
854.451	2573.94
854.774	2573.27
855.096	2539.37
855.419	2540.05
855.741	2570.33
856.063	2516.32
856.385	2544.57
856.708	2510.22
857.03	2511.12
857.352	2507.28
857.674	2535.98
857.996	2495.3
858.318	2499.37
858.64	2504.11
858.961	2491.69
859.283	2487.39
859.605	2435.87
859.926	2443.78
860.248	2419.37
860.57	2422.99
860.891	2451.69
861.212	2434.74
861.534	2426.15
861.855	2443.33
862.176	2431.8
862.498	2437.9
862.819	2449.88
863.14	2389.54
863.461	2392.25
863.782	2401.74
864.103	2403.33
864.424	2362.2
864.745	2396.32
865.065	2403.55
865.386	2383.44
865.707	2382.99
866.027	2391.35
866.348	2399.71
866.668	2381.86
866.989	2366.49
867.309	2356.32
867.63	2366.27
867.95	2351.35
868.27	2343.44
868.59	2347.06
868.91	2335.98
869.23	2343.22
869.55	2322.65
869.87	2327.85
870.19	2353.61
870.51	2342.54
870.83	2386.6
871.15	2333.72
871.469	2335.08
871.789	2281.07
872.109	2299.83
872.428	2286.04
872.748	2320.62
873.067	2300.5
873.386	2314.06
873.706	2286.27
874.025	2321.75
874.344	2289.66
874.663	2291.24
874.982	2275.87
875.301	2286.27
875.62	2288.98
875.939	2292.82
876.258	2302.54
876.577	2315.42
876.896	2244.46
877.214	2283.33
877.533	2268.41
877.852	2281.07
878.17	2272.93
878.489	2268.19
878.807	2251.47
879.125	2261.18
879.444	2244.69
879.762	2222.54
880.08	2240.17
880.398	2223.22
880.716	2248.08
881.034	2247.17
881.352	2204.69
881.67	2244.46
881.988	2233.84
882.306	2207.63
882.624	2205.14
882.941	2194.07
883.259	2196.55
883.577	2201.3
883.894	2173.5
884.212	2185.93
884.529	2187.51
884.846	2179.83
885.164	2205.59
885.481	2162.43
885.798	2178.7
886.115	2159.04
886.432	2131.47
886.75	2160.85
887.067	2144.8
887.383	2154.75
887.7	2146.61
888.017	2126.72
888.334	2143.22
888.651	2123.33
888.967	2126.72
889.284	2106.39
889.6	2128.31
889.917	2138.25
890.233	2106.84
890.55	2089.66
890.866	2110
891.182	2103.67
891.498	2077.91
891.815	2091.7
892.131	2064.8
892.447	2086.95
892.763	2075.2
893.079	2094.86
893.395	2094.18
893.71	2050.79
894.026	2052.15
894.342	2042.66
894.657	2017.8
894.973	2045.14
895.289	2057.57
895.604	2026.39
895.92	2000.85
896.235	1986.16
896.55	2013.51
896.865	1980.74
897.181	1975.54
897.496	1976.67
897.811	1969.89
898.126	1996.78
898.441	1983.68
898.756	1954.98
899.071	1959.27
899.386	1970.12
899.7	1941.87
900.015	1936.9
900.33	1924.92
900.644	1962.89
900.959	1938.71
901.273	1920.4
901.588	1891.02
901.902	1912.94
902.216	1896
902.531	1903.68
902.845	1905.94
903.159	1876.11
903.473	1868.2
903.787	1890.35
904.101	1837.92
904.415	1868.2
904.729	1854.87
905.042	1855.32
905.356	1820.29
905.67	1840.86
905.984	1832.27
906.297	1839.05
906.611	1818.71
906.924	1797.24
907.237	1814.64
907.551	1808.09
907.864	1787.98
908.177	1783.46
908.491	1788.43
908.804	1811.03
909.117	1774.87
909.43	1761.31
909.743	1750.24
910.056	1774.42
910.368	1738.49
910.681	1733.51
910.994	1743.46
911.307	1729.22
911.619	1713.63
911.932	1730.8
912.244	1715.21
912.557	1707.98
912.869	1736.45
913.181	1686.51
913.494	1689.45
913.806	1705.94
914.118	1685.38
914.43	1670.24
914.742	1671.14
915.054	1678.6
915.366	1665.72
915.678	1657.36
915.99	1645.15
916.302	1611.26
916.613	1642.22
916.925	1613.97
917.236	1640.86
917.548	1603.12
917.859	1619.17
918.171	1597.47
918.482	1609
918.794	1615.32
919.105	1614.87
919.416	1588.88
919.727	1616.91
920.038	1579.39
920.349	1579.62
920.66	1566.29
920.971	1564.93
921.282	1571.71
921.593	1541.65
921.903	1556.57
922.214	1538.04
922.525	1547.76
922.835	1537.59
923.146	1532.39
923.456	1503.01
923.767	1522.22
924.077	1496.23
924.387	1528.77
924.697	1536.46
925.008	1510.47
925.318	1488.77
925.628	1461.88
925.938	1493.97
926.248	1484.03
926.558	1477.25
926.867	1500.75
927.177	1451.04
927.487	1440.41
927.796	1442.67
928.106	1437.02
928.416	1433.86
928.725	1419.85
929.034	1436.57
929.344	1427.08
929.653	1443.13
929.962	1406.74
930.271	1415.56
930.581	1420.53
930.89	1394.77
931.199	1397.93
931.508	1399.51
931.817	1387.76
932.125	1382.79
932.434	1411.94
932.743	1371.49
933.051	1352.96
933.36	1381.21
933.669	1379.85
933.977	1372.17
934.286	1352.96
934.594	1360.19
934.902	1351.83
935.21	1356.12
935.519	1337.59
935.827	1335.56
936.135	1320.19
936.443	1318.61
936.751	1325.61
937.059	1314.99
937.367	1309.8
937.674	1328.55
937.982	1305.73
938.29	1308.67
938.597	1306.41
938.905	1286.52
939.213	1266.18
939.52	1291.72
939.827	1289.01
940.135	1276.35
940.442	1265.73
940.749	1285.16
941.056	1252.62
941.363	1272.06
941.67	1253.3
941.977	1223.47
942.284	1256.92
942.591	1241.1
942.898	1240.42
943.205	1232.96
943.511	1246.52
943.818	1236.35
944.125	1213.75
944.431	1217.82
944.738	1227.76
945.044	1235
945.35	1191.83
945.657	1191.61
945.963	1181.44
946.269	1183.02
946.575	1183.47
946.881	1194.32
947.187	1188.44
947.493	1185.73
947.799	1192.51
948.105	1167.88
948.41	1163.59
948.716	1186.64
949.022	1163.59
949.327	1165.17
949.633	1159.52
949.938	1173.3
950.244	1152.06
950.549	1135.79
950.854	1144.15
951.16	1140.53
951.465	1158.39
951.77	1129.91
952.075	1111.16
952.38	1103.7
952.685	1141.89
952.99	1087.66
953.294	1106.41
953.599	1093.53
953.904	1097.37
954.209	1092.4
954.513	1115.9
954.818	1080.42
955.122	1082.46
955.426	1067.09
955.731	1065.06
956.035	1096.24
956.339	1077.03
956.643	1097.15
956.948	1077.94
957.252	1060.99
957.556	1054.21
957.86	1051.95
958.163	1044.49
958.467	1041.55
958.771	1040.42
959.075	1058.05
959.378	1046.07
959.682	1026.41
959.985	1033.65
960.289	1043.59
960.592	1035.23
960.896	1012.85
961.199	1000.43
961.502	1032.52
961.805	1014.66
962.108	992.52
962.411	1000.2
962.714	1002.23
963.017	998.84
963.32	994.78
963.623	986.41
963.926	999.97
964.228	988.9
964.531	984.61
964.833	989.13
965.136	991.61
965.438	979.64
965.741	969.92
966.043	961.33
966.345	961.33
966.648	957.71
966.95	943.93
967.252	952.52
967.554	952.29
967.856	958.39
968.158	954.1
968.46	952.74
968.761	940.77
969.063	936.25
969.365	910.48
969.666	939.18
969.968	948.22
970.269	887.66
970.571	931.73
970.872	935.12
971.174	921.56
971.475	933.31
971.776	926.53
972.077	906.19
972.378	903.71
972.679	914.78
972.98	892.41
973.281	908.45
973.582	910.03
973.883	922.69
974.183	903.93
974.484	903.93
974.785	882.46
975.085	905.74
975.386	904.38
975.686	887.89
975.986	871.62
976.287	853.54
976.587	877.04
976.887	886.08
977.187	869.81
977.487	895.34
977.787	860.09
978.087	863.93
978.387	872.75
978.687	859.19
978.987	853.08
979.286	852.41
979.586	830.94
979.885	835.46
980.185	858.51
980.484	832.07
980.784	829.36
981.083	824.61
981.382	817.61
981.682	816.25
981.981	816.7
982.28	836.59
982.579	822.8
982.878	823.71
983.177	796.36
983.475	819.41
983.774	792.75
984.073	813.76
984.372	830.49
984.67	811.73
984.969	807.66
985.267	804.5
985.566	821.22
985.864	816.25
986.162	782.13
986.461	770.15
986.759	769.02
987.057	782.13
987.355	781.67
987.653	787.78
987.951	798.62
988.249	763.82
988.547	769.92
988.844	762.47
989.142	761.79
989.44	772.64
989.737	757.04
990.035	746.87
990.332	775.8
990.63	759.08
990.927	735.12
991.224	754.78
991.521	769.02
991.819	745.52
992.116	753.88
992.413	756.59
992.71	736.48
993.006	752.52
993.303	726.08
993.6	754.33
993.897	726.53
994.193	722.01
994.49	736.48
994.787	707.55
995.083	719.3
995.379	721.34
995.676	726.53
995.972	731.28
996.268	723.14
996.565	724.95
996.861	700.09
997.157	724.73
997.453	691.96
997.749	694.45
998.044	712.3
998.34	721.79
998.636	699.19
998.932	702.13
999.227	687.44
999.523	699.19
999.818	675.46
1000.114	712.98
1000.409	674.56
1000.704	647.67
1001	664.62
1001.295	676.59
1001.59	684.73
1001.885	678.63
1002.18	699.19
1002.475	678.17
1002.77	653.99
1003.065	651.51
1003.359	666.65
1003.654	668.68
1003.949	643.6
1004.243	650.15
1004.538	651.06
1004.832	657.16
1005.127	655.12
1005.421	644.73
1005.715	648.12
1006.009	663.94
1006.304	623.71
1006.598	633.88
1006.892	652.86
1007.186	635.69
1007.48	639.08
1007.773	635.69
1008.067	620.55
1008.361	641.34
1008.655	624.62
1008.948	620.32
1009.242	633.43
1009.535	616.25
1009.829	609.02
1010.122	627.1
1010.415	614
1010.708	600.89
1011.001	601.11
1011.295	619.19
1011.588	602.47
1011.881	589.81
1012.173	601.57
1012.466	604.5
1012.759	603.6
1013.052	617.61
1013.344	609.02
1013.637	597.27
1013.93	595.46
1014.222	581.68
1014.514	609.93
1014.807	598.4
1015.099	593.2
1015.391	583.71
1015.683	585.97
1015.976	592.75
1016.268	562.25
1016.56	583.04
1016.851	571.74
1017.143	581.23
1017.435	569.7
1017.727	563.38
1018.018	570.15
1018.31	557.73
1018.602	581.68
1018.893	552.98
1019.185	551.17
1019.476	558.4
1019.767	539.65
1020.058	559.08
1020.35	552.3
1020.641	548.01
1020.932	530.16
1021.223	531.29
1021.514	551.62
1021.804	540.1
1022.095	519.99
1022.386	533.32
1022.677	554.79
1022.967	519.99
1023.258	522.7
1023.548	519.31
1023.839	521.79
1024.129	516.37
1024.419	517.73
1024.709	529.93
1025	525.86
1025.29	519.76
1025.58	528.12
1025.87	513.66
1026.16	516.82
1026.449	524.51
1026.739	506.43
1027.029	505.52
1027.319	504.85
1027.608	505.98
1027.898	511.62
1028.187	516.6
1028.477	505.3
1028.766	488.8
1029.055	511.4
1029.344	502.59
1029.634	481.57
1029.923	484.28
1030.212	488.12
1030.501	483.6
1030.79	489.25
1031.078	477.73
1031.367	476.82
1031.656	489.7
1031.945	493.55
1032.233	483.15
1032.522	477.05
1032.81	463.26
1033.099	501.23
1033.387	485.41
1033.675	454
1033.963	462.36
1034.251	466.65
1034.54	476.82
1034.828	466.2
1035.116	489.7
1035.403	440.44
1035.691	459.65
1035.979	460.55
1036.267	436.6
1036.554	471.4
1036.842	462.13
1037.129	451.06
1037.417	462.81
1037.704	443.38
1037.992	461.46
1038.279	455.58
1038.566	436.15
1038.853	436.15
1039.14	436.15
