Data from blue_shiny_book_FLMS001491_00053.txt Node
Date: Wed Feb 08 15:27:12 GMT 2017
User: dcchb
Spectrometer: FLMS00149
Trigger mode: 0
Integration Time (sec): 2.000000E-2
Scans to average: 10
Electric dark correction enabled: true
Nonlinearity correction enabled: false
Boxcar width: 0
XAxis mode: Wavelengths
Number of Pixels in Spectrum: 2048
>>>>>Begin Spectral Data<<<<<
341.393	-5.65
341.776	-5.65
342.16	-5.65
342.543	-56.27
342.927	-47.23
343.31	-69.15
343.693	-70.05
344.077	-61.69
344.46	-65.99
344.843	-53.78
345.226	-36.16
345.61	-28.02
345.993	0.23
346.376	-10.17
346.759	21.02
347.142	25.08
347.525	36.16
347.908	36.16
348.291	66.44
348.674	101.69
349.057	108.25
349.44	108.92
349.823	159.77
350.206	167.91
350.588	213.78
350.971	235.47
351.354	245.19
351.737	242.03
352.119	265.98
352.502	271.63
352.884	295.13
353.267	291.97
353.65	310.73
354.032	329.48
354.414	332.87
354.797	342.36
355.179	339.65
355.562	338.97
355.944	369.93
356.326	336.94
356.709	340.56
357.091	371.97
357.473	382.59
357.855	374.23
358.238	379.43
358.62	372.42
359.002	366.09
359.384	360.44
359.766	376.04
360.148	354.57
360.53	391.63
360.912	355.47
361.294	374.91
361.676	379.43
362.057	359.54
362.439	362.93
362.821	359.99
363.203	377.84
363.584	363.15
363.966	359.99
364.348	368.8
364.729	362.93
365.111	352.31
365.493	354.57
365.874	362.48
366.256	357.28
366.637	348.69
367.019	356.83
367.4	356.15
367.781	346.21
368.163	357.5
368.544	345.08
368.925	374.68
369.306	360.44
369.688	358.41
370.069	352.99
370.45	376.94
370.831	379.43
371.212	354.79
371.593	345.98
371.974	368.13
372.355	350.73
372.736	378.75
373.117	371.29
373.498	362.02
373.879	375.81
374.26	367
374.641	372.42
375.021	367
375.402	366.77
375.783	381.23
376.163	429.14
376.544	409.71
376.925	378.52
377.305	390.05
377.686	409.25
378.066	416.94
378.447	419.88
378.827	403.38
379.208	415.13
379.588	417.62
379.968	402.48
380.349	409.03
380.729	415.81
381.109	419.65
381.489	427.11
381.87	428.92
382.25	442.25
382.63	443.15
383.01	469.14
383.39	464.85
383.77	443.15
384.15	463.94
384.53	454.9
384.91	461.91
385.29	471.85
385.67	480.67
386.049	491.29
386.429	499.87
386.809	488.57
387.189	495.35
387.568	508.01
387.948	484.06
388.328	499.87
388.707	507.78
389.087	519.31
389.466	516.14
389.846	530.16
390.225	545.07
390.605	532.87
390.984	555.69
391.363	526.99
391.743	542.36
392.122	575.8
392.501	552.98
392.881	570.83
393.26	584.62
393.639	573.77
394.018	586.65
394.397	607.89
394.776	589.81
395.155	619.42
395.534	622.81
395.913	613.77
396.292	649.47
396.671	630.94
397.05	641.57
397.429	634.11
397.808	653.09
398.186	660.1
398.565	661.23
398.944	650.38
399.323	689.47
399.701	670.72
400.08	689.7
400.458	702.58
400.837	710.72
401.215	722.24
401.594	720.21
401.972	720.88
402.351	729.92
402.729	746.87
403.107	754.1
403.486	758.17
403.864	784.16
404.242	786.42
404.62	810.6
404.999	804.05
405.377	781.22
405.755	819.41
406.133	828.45
406.511	833.88
406.889	837.49
407.267	861.45
407.645	876.36
408.023	887.66
408.401	918.85
408.779	934.66
409.156	934.89
409.534	912.07
409.912	942.8
410.29	952.07
410.667	975.79
411.045	975.79
411.422	1012.63
411.8	1009.46
412.178	1035.68
412.555	1078.62
412.933	1052.63
413.31	1111.84
413.687	1098.95
414.065	1125.62
414.442	1122.23
414.819	1135.11
415.197	1169.23
415.574	1186.41
415.951	1190.93
416.328	1187.31
416.705	1227.54
417.082	1232.06
417.46	1263.02
417.837	1237.48
418.214	1278.16
418.591	1284.49
418.967	1289.46
419.344	1302.56
419.721	1314.77
420.098	1348.89
420.475	1355.67
420.852	1350.92
421.228	1370.13
421.605	1418.49
421.982	1410.13
422.358	1460.07
422.735	1443.58
423.111	1455.33
423.488	1492.62
423.864	1475.22
424.241	1490.36
424.617	1490.58
424.994	1523.58
425.37	1583.69
425.746	1588.43
426.123	1613.52
426.499	1608.09
426.875	1670.24
427.251	1666.85
427.627	1698.03
428.003	1734.64
428.379	1743.46
428.756	1744.36
429.132	1757.24
429.507	1840.86
429.883	1839.5
430.259	1886.5
430.635	1893.28
431.011	1929.21
431.387	1959.27
431.763	1995.88
432.138	2022.09
432.514	2060.28
432.89	2071.58
433.265	2133.73
433.641	2114.97
434.016	2124.92
434.392	2197.46
434.767	2256.21
435.143	2239.49
435.518	2263.9
435.894	2304.12
436.269	2348.64
436.644	2378.02
437.02	2393.84
437.395	2424.34
437.77	2453.04
438.145	2452.14
438.52	2483.55
438.895	2510.22
439.271	2544.34
439.646	2633.6
440.021	2660.27
440.395	2646.94
440.77	2643.77
441.145	2712.47
441.52	2744.33
441.895	2757.44
442.27	2778.23
442.645	2796.76
443.019	2822.3
443.394	2836.31
443.769	2854.16
444.143	2841.96
444.518	2889.64
444.892	2905.01
445.267	2967.83
445.641	2984.55
446.016	3018.23
446.39	3007.83
446.764	3061.16
447.139	3042.86
447.513	3106.81
447.887	3106.36
448.262	3125.79
448.636	3153.36
449.01	3202.85
449.384	3212.34
449.758	3273.81
450.132	3312.68
450.506	3320.36
450.88	3354.49
451.254	3375.05
451.628	3419.8
452.002	3469.29
452.376	3489.85
452.75	3516.74
453.123	3559
453.497	3603.75
453.871	3660.92
454.244	3727.59
454.618	3727.13
454.992	3832.44
455.365	3840.13
455.739	3915.38
456.112	4003.96
456.486	3990.63
456.859	4023.4
457.232	4135.71
457.606	4158.76
457.979	4187.69
458.352	4301.36
458.725	4316.27
459.099	4367.12
459.472	4477.17
459.845	4497.51
460.218	4554.46
460.591	4579.77
460.964	4602.59
461.337	4753.55
461.71	4824.73
462.083	4919.19
462.456	4936.82
462.829	4903.83
463.201	5067.21
463.574	5043.48
463.947	5162.12
464.32	5285.51
464.692	5318.73
465.065	5341.33
465.438	5479.4
465.81	5506.75
466.183	5553.98
466.555	5695.44
466.928	5748.78
467.3	5764.37
467.672	5865.16
468.045	5989.9
468.417	6039.39
468.789	6095.66
469.161	6178.14
469.534	6246.39
469.906	6379.04
470.278	6447.97
470.65	6504.46
471.022	6638.02
471.394	6758.47
471.766	6895.19
472.138	6909.87
472.51	7097.67
472.882	7191.22
473.253	7316.64
473.625	7421.73
473.997	7593.92
474.369	7600.93
474.74	7698.33
475.112	7913.69
475.484	8052.44
475.855	8132.44
476.227	8215.6
476.598	8402.72
476.97	8498.76
477.341	8697.4
477.713	8852.2
478.084	8927.22
478.455	9174
478.827	9228.68
479.198	9540.54
479.569	9524.27
479.94	9847.65
480.311	9903.69
480.682	10075.89
481.053	10340.97
481.424	10448.54
481.795	10533.06
482.166	10840.84
482.537	10941.63
482.908	11228.18
483.279	11322.87
483.65	11585.23
484.021	11793.81
484.391	11864.09
484.762	12055.73
485.133	12133.69
485.503	12341.82
485.874	12587.92
486.244	12738.65
486.615	12934.58
486.985	13112.42
487.356	13384.05
487.726	13426.99
488.097	13777.94
488.467	13821.78
488.837	14093.41
489.207	14296.8
489.578	14598.26
489.948	14703.57
490.318	14913.51
490.688	15006.16
491.058	15224.46
491.428	15457.9
491.798	15604.11
492.168	15912.58
492.538	15944.67
492.908	16089.07
493.278	16309.63
493.648	16426.69
494.017	16668.26
494.387	16876.17
494.757	17020.8
495.126	17221.47
495.496	17399.77
495.866	17511.18
496.235	17834.33
496.605	17988.45
496.974	18067.55
497.344	18282.91
497.713	18275.23
498.082	18375.11
498.452	18678.6
498.821	18811.03
499.19	18750.02
499.559	18946.17
499.928	19010.57
500.298	19196.11
500.667	19373.95
501.036	19452.6
501.405	19710.44
501.774	19869.53
502.143	19987.05
502.512	20232.46
502.88	20398.79
503.249	20450.08
503.618	20644.2
503.987	20643.07
504.356	20710.87
504.724	20981.37
505.093	20985.66
505.462	21082.61
505.83	21172.55
506.199	21368.7
506.567	21643.05
506.936	21577.06
507.304	21902.47
507.672	22003.04
508.041	22231.96
508.409	22515.57
508.777	22731.38
509.145	22844.15
509.514	23099.51
509.882	23235.32
510.25	23267.41
510.618	23408.65
510.986	23527.07
511.354	23864.46
511.722	23854.29
512.09	24157.78
512.458	24087.95
512.826	24385.35
513.193	24378.12
513.561	24546.93
513.929	24794.38
514.297	25045.44
514.664	25203.41
515.032	25348.94
515.4	25642.26
515.767	25770.4
516.135	26056.72
516.502	25973.33
516.869	26511.17
517.237	26618.28
517.604	26540.77
517.972	26922.68
518.339	27022.34
518.706	26927.65
519.073	26935.56
519.44	27187.53
519.808	27529.67
520.175	27482.89
520.542	27792.49
520.909	28067.96
521.276	27984.57
521.643	28372.81
522.009	28681.28
522.376	28903.42
522.743	29182.74
523.11	29427.47
523.477	29760.35
523.843	30065.88
524.21	30414.57
524.577	30602.81
524.943	30839.87
525.31	30983.37
525.676	31167.77
526.043	31285.28
526.409	31377.25
526.776	31711.26
527.142	31844.36
527.508	31899.05
527.874	32119.38
528.241	32401.86
528.607	32555.3
528.973	32995.29
529.339	33013.37
529.705	33365.9
530.071	33734.71
530.437	33984.19
530.803	34230.06
531.169	34608.36
531.535	34526.55
531.901	34714.57
532.267	34838.86
532.632	34998.4
532.998	35266.64
533.364	35371.95
533.73	35305.29
534.095	35421.67
534.461	35592.51
534.826	35821.66
535.192	35833.63
535.557	36043.12
535.923	36011.71
536.288	36142.55
536.653	36493.96
537.019	36648.98
537.384	36970.33
537.749	37129.19
538.114	37374.84
538.479	37277.66
538.845	37540.71
539.21	37555.62
539.575	37803.75
539.94	37848.5
540.305	38091.65
540.67	37936.63
541.034	38050.3
541.399	38170.52
541.764	38165.78
542.129	38325.32
542.494	38428.82
542.858	38592.21
543.223	38501.36
543.587	38627.68
543.952	38844.85
544.316	39114.23
544.681	39307.22
545.045	39485.97
545.41	39760.08
545.774	39887.99
546.138	40008.44
546.503	40287.75
546.867	40258.15
547.231	40643.9
547.595	40747.4
547.959	40772.26
548.324	40718.03
548.688	40732.94
549.052	40760.28
549.416	40865.59
549.779	40802.09
550.143	40847.51
550.507	40986.27
550.871	41193.72
551.235	41073.04
551.599	41458.8
551.962	41416.31
552.326	41620.6
552.689	41887.94
553.053	41844.55
553.417	42026.01
553.78	42532.21
554.143	42397.98
554.507	42795.94
554.87	43007.23
555.234	43318.18
555.597	43061.01
555.96	43272.31
556.323	43433.43
556.686	43455.13
557.05	43635.69
557.413	43590.49
557.776	43592.53
558.139	43686.99
558.502	43798.17
558.865	43665.52
559.228	43991.61
559.59	44089.46
559.953	44119.29
560.316	44566.29
560.679	44653.97
561.041	45115.88
561.404	45253.5
561.767	45556.54
562.129	45573.26
562.492	46154.04
562.854	46170.09
563.217	46120.37
563.579	46537.31
563.941	46714.48
564.304	46853.91
564.666	47064.07
565.028	47096.16
565.39	47171.87
565.753	47460.45
566.115	47453.44
566.477	47465.64
566.839	47454.8
567.201	47598.75
567.563	47668.13
567.925	47722.59
568.287	47823.6
568.648	47946.76
569.01	48140.66
569.372	48417.03
569.734	48284.83
570.095	48638.72
570.457	48793.97
570.819	48973.85
571.18	49076.9
571.542	49524.57
571.903	49559.6
572.265	49633.95
572.626	49752.59
572.987	49906.26
573.349	50007.95
573.71	50131.11
574.071	50107.38
574.432	50200.71
574.794	50213.59
575.155	50129.98
575.516	49868.52
575.877	50028.29
576.238	50013.83
576.599	50125.01
576.96	50150.55
577.32	50198.91
577.681	50311.45
578.042	50469.63
578.403	50382.4
578.763	50619.01
579.124	50709.85
579.485	50969.28
579.845	51041.37
580.206	51058.77
580.566	51159.56
580.927	51243.4
581.287	51499.44
581.648	51362.04
582.008	51529.49
582.368	51476.84
582.728	51498.08
583.089	51511.87
583.449	51414.24
583.809	51479.78
584.169	51506.44
584.529	51362.94
584.889	51475.48
585.249	51260.8
585.609	51167.24
585.969	51402.49
586.329	51245.66
586.688	51338.09
587.048	51381.02
587.408	51348.48
587.768	51418.54
588.127	51515.03
588.487	51523.62
588.846	51858.98
589.206	51718.87
589.565	51758.64
589.925	51961.57
590.284	51879.31
590.643	51885.19
591.003	52104.39
591.362	52159.76
591.721	52063.04
592.08	52065.07
592.44	52117.27
592.799	52151.62
593.158	51979.42
593.517	51807.45
593.876	51944.17
594.235	51781.92
594.593	51858.98
594.952	51976.71
595.311	51682.93
595.67	51748.7
596.029	51919.76
596.387	51953.66
596.746	51889.48
597.104	51729.26
597.463	51837.73
597.822	52101.23
598.18	51876.15
598.538	52006.77
598.897	52186.2
599.255	52061.68
599.613	52483.37
599.972	52271.17
600.33	52352.07
600.688	52277.04
601.046	52492.41
601.404	52634.77
601.762	52498.05
602.12	52624.15
602.478	52561.78
602.836	52586.64
603.194	52480.88
603.552	52530.14
603.91	52334.44
604.268	52416.7
604.625	52248.34
604.983	52284.5
605.341	52082.47
605.698	52341.45
606.056	52360.21
606.413	52401.79
606.771	52490.82
607.128	52579.63
607.485	52385.74
607.843	52567.66
608.2	52789.35
608.557	52994.54
608.914	52955.22
609.272	53121.09
609.629	53190.01
609.986	53292.84
610.343	53235.89
610.7	53405.15
611.057	53348.65
611.414	53440.4
611.771	53393.4
612.127	53531.7
612.484	53507.07
612.841	53611.47
613.198	53410.35
613.554	53491.93
613.911	53584.35
614.267	53480.4
614.624	53390.46
614.98	53427.97
615.337	53501.64
615.693	53501.87
616.05	53412.38
616.406	53612.6
616.762	53397.24
617.118	53421.42
617.475	53419.84
617.831	53452.15
618.187	53582.77
618.543	53643.79
618.899	53810.79
619.255	53725.37
619.611	53734.63
619.967	53878.81
620.323	54069.76
620.678	53899.37
621.034	53861.86
621.39	53950.9
621.746	53962.42
622.101	54163.55
622.457	53964.46
622.812	53956.55
623.168	54119.71
623.523	53994.74
623.879	54010.56
624.234	53886.72
624.589	53917
624.945	53843.1
625.3	53811.24
625.655	53747.06
626.01	53764.46
626.365	53749.77
626.72	53654.86
627.075	53602.43
627.43	53678.14
627.785	53574.41
628.14	53639.27
628.495	53671.13
628.85	53648.08
629.205	53565.6
629.559	53713.16
629.914	53667.06
630.269	53782.09
630.623	53771.24
630.978	53739.6
631.332	53878.81
631.687	54047.62
632.041	53896.66
632.396	53955.19
632.75	53907.51
633.104	53953.38
633.459	53803.78
633.813	53895.98
634.167	53847.62
634.521	53818.7
634.875	53770.11
635.229	53673.39
635.583	53486.5
635.937	53485.37
636.291	53421.19
636.645	53432.27
636.999	53277.24
637.352	53347.3
637.706	53049.9
638.06	53189.11
638.413	53104.82
638.767	52962
639.121	52825.28
639.474	52747.31
639.828	52759.97
640.181	52904.37
640.534	52880.87
640.888	52775.34
641.241	52718.61
641.594	52813.75
641.947	52844.71
642.301	52774.66
642.654	52933.07
643.007	52849.91
643.36	52845.62
643.713	52795
644.066	52940.08
644.419	52901.66
644.771	52904.6
645.124	52772.62
645.477	52663.93
645.83	52263.94
646.182	51886.32
646.535	51593.45
646.888	51552.09
647.24	51273.23
647.593	51478.87
647.945	51209.5
648.298	51108.03
648.65	50931.09
649.002	50860.13
649.355	50940.36
649.707	50940.81
650.059	51122.72
650.411	51555.25
650.763	51564.97
651.115	51957.05
651.467	51764.29
651.819	51809.94
652.171	51726.1
652.523	51740.33
652.875	51662.14
653.227	51609.49
653.578	51929.26
653.93	51911.86
654.282	51807.23
654.633	51731.97
654.985	51864.17
655.337	51863.27
655.688	51882.93
656.039	52079.76
656.391	51919.54
656.742	51830.95
657.094	51921.8
657.445	52080.21
657.796	51914.57
658.147	51928.35
658.498	51786.21
658.849	51872.99
659.2	51878.18
659.551	51778.98
659.902	51692.2
660.253	51697.62
660.604	51563.84
660.955	51491.98
661.306	51475.26
661.656	51308.71
662.007	51250.86
662.358	51272.55
662.708	51350.74
663.059	51252.44
663.409	50922.05
663.76	51308.48
664.11	51099.45
664.461	51248.37
664.811	51278.88
665.161	51245.88
665.511	51234.36
665.862	51299.67
666.212	51527.01
666.562	51547.12
666.912	51516.39
667.262	51425.99
667.612	51599.1
667.962	51676.16
668.312	51656.04
668.662	51722.03
669.011	51614.01
669.361	51708.24
669.711	51602.48
670.06	51394.13
670.41	51306.22
670.76	51173.12
671.109	51268.03
671.459	51120.24
671.808	51062.84
672.157	51054.48
672.507	50926.34
672.856	50812.68
673.205	50821.26
673.554	50794.6
673.904	50592.12
674.253	50681.61
674.602	50606.8
674.951	50037.78
675.3	49897.9
675.649	50369.07
675.998	50390.54
676.346	50079.59
676.695	50337.89
677.044	50209.08
677.393	50267.83
677.741	50451.33
678.09	50269.19
678.438	50319.13
678.787	50403.65
679.135	50491.55
679.484	50144.67
679.832	50448.62
680.181	50303.76
680.529	50452.68
680.877	50454.72
681.225	50507.37
681.573	50692.45
681.922	50428.05
682.27	50357.77
682.618	50311.22
682.966	50237.32
683.314	50263.54
683.661	50084.33
684.009	49859.93
684.357	49826.49
684.705	49769.31
685.053	49726.83
685.4	49402.99
685.748	49392.6
686.095	49163.23
686.443	49080.52
686.79	48976.34
687.138	48899.96
687.485	48872.61
687.832	48756.46
688.18	48735.67
688.527	48546.29
688.874	48397.6
689.221	48362.8
689.568	48259.97
689.915	48053.88
690.262	48290.48
690.609	48038.51
690.956	48214.1
691.303	48073.76
691.65	48037.61
691.997	48111.73
692.344	47749.7
692.69	47925.29
693.037	47812.53
693.383	47751.74
693.73	48005.52
694.077	47671.74
694.423	47628.13
694.769	47480.11
695.116	47350.62
695.462	47384.74
695.808	47265.42
696.155	47255.71
696.501	46926.22
696.847	46767.13
697.193	46711.77
697.539	46663.41
697.885	46327.37
698.231	46215.28
698.577	45938
698.923	45819.13
699.269	45603.77
699.614	45454.85
699.96	45315.87
700.306	45137.12
700.651	44791.14
700.997	44734.42
701.342	44638.15
701.688	44532.39
702.033	44310.47
702.379	44364.71
702.724	44328.1
703.069	44376.46
703.415	43897.6
703.76	43937.38
704.105	43920.88
704.45	43841.79
704.795	43692.64
705.14	43679.08
705.485	43589.36
705.83	43466.2
706.175	43614.67
706.52	43419.2
706.865	43526.09
707.209	43449.71
707.554	43398.41
707.899	43398.41
708.243	43062.6
708.588	43059.43
708.932	42970.17
709.277	43026.44
709.621	43112.99
709.966	42707.13
710.31	42802.94
710.654	42432.33
710.998	42489.5
711.342	42467.81
711.687	42200.47
712.031	41940.37
712.375	41849.97
712.719	41936.52
713.063	41665.57
713.407	41618.34
713.75	41339.7
714.094	41388.06
714.438	41125.92
714.782	41167.28
715.125	40883.9
715.469	41038.69
715.812	40783.79
716.156	40587.41
716.499	40558.71
716.843	40595.09
717.186	40249.11
717.53	40407.07
717.873	40533.85
718.216	40302.67
718.559	40226.06
718.902	40169.57
719.246	40526.39
719.589	40485.26
719.932	40257.02
720.275	40358.71
720.617	40406.17
720.96	40256.79
721.303	40502.21
721.646	40472.61
721.989	40334.53
722.331	40443.91
722.674	40411.82
723.016	40413.4
723.359	40398.26
723.701	40292.27
724.044	39978.61
724.386	39846.86
724.729	40128.44
725.071	40010.93
725.413	39920.53
725.755	39917.37
726.097	39629.47
726.439	39399.19
726.782	39198.97
727.124	39364.61
727.465	39111.06
727.807	38991.97
728.149	38784.97
728.491	38692.54
728.833	38797.85
729.175	38636.27
729.516	38516.95
729.858	38497.97
730.199	38309.73
730.541	38304.3
730.882	38376.39
731.224	38434.47
731.565	38154.93
731.906	38287.35
732.248	38344.53
732.589	38271.76
732.93	38057.3
733.271	38115.16
733.612	38198.32
733.953	38228.37
734.294	38121.71
734.635	38186.11
734.976	38350.4
735.317	38217.3
735.658	38110.86
735.999	38330.29
736.339	38208.94
736.68	38293.23
737.021	38242.84
737.361	38009.62
737.702	38301.14
738.042	38161.03
738.383	38099.34
738.723	38129.62
739.063	38081.03
739.404	38111.54
739.744	37964.65
740.084	37893.47
740.424	38028.83
740.764	37872.22
741.104	37977.98
741.444	37725.79
741.784	37657.09
742.124	37575.96
742.464	37506.36
742.804	37552.23
743.143	37488.51
743.483	37373.25
743.823	37207.84
744.162	37225.46
744.502	37378.68
744.841	37038.12
745.181	37245.35
745.52	37030.44
745.86	37160.38
746.199	36955.19
746.538	37149.76
746.877	37259.59
747.216	37074.28
747.556	37045.35
747.895	37116.31
748.234	36994.51
748.573	37120.38
748.911	37160.83
749.25	37152.92
749.589	37164.9
749.928	37259.81
750.267	37523.53
750.605	37293.71
750.944	37318.11
751.283	37351.33
751.621	37573.25
751.96	37354.05
752.298	37521.95
752.636	37631.55
752.975	37406.25
753.313	37272.47
753.651	37600.82
753.989	37504.1
754.327	37474.49
754.666	37412.58
755.004	37528.96
755.342	37515.4
755.679	37549.97
756.017	37309.3
756.355	37428.39
756.693	37232.69
757.031	37347.94
757.368	37206.71
757.706	37137.1
758.044	37037.67
758.381	37011.46
758.719	36813.5
759.056	37056.43
759.394	36781.63
759.731	36712.48
760.068	36509.32
760.405	36496.89
760.743	36345.71
761.08	36498.93
761.417	36324.24
761.754	36319.5
762.091	36321.98
762.428	36269.78
762.765	36096
763.102	36183.91
763.438	35956.57
763.775	36089.22
764.112	35917.7
764.449	35951.37
764.785	35919.73
765.122	35797.7
765.458	35811.71
765.795	35696.24
766.131	35703.92
766.467	35678.84
766.804	35563.58
767.14	35628.67
767.476	35559.52
767.812	35537.14
768.148	35587.09
768.485	35439.07
768.821	35302.12
769.157	35281.33
769.492	35131.51
769.828	35391.84
770.164	34909.14
770.5	34875.24
770.836	34896.71
771.171	34708.69
771.507	34620.11
771.842	34488.36
772.178	34530.62
772.513	34331.07
772.849	34244.98
773.184	34137.18
773.519	34080.23
773.855	33882.05
774.19	33747.14
774.525	33479.12
774.86	33655.16
775.195	33448.84
775.53	33366.81
775.865	33182.18
776.2	32929.76
776.535	32655.19
776.87	32656.09
777.205	32455.42
777.539	32286.83
777.874	32318.25
778.209	31985.37
778.543	31946.96
778.878	31765.72
779.212	31740.86
779.547	31585.61
779.881	31769.33
780.215	31480.08
780.55	31443.47
780.884	31306.75
781.218	31252.51
781.552	31245.73
781.886	31089.35
782.22	30919.86
782.554	30877.38
782.888	30681.45
783.222	30628.12
783.556	30501.57
783.889	30540.44
784.223	30283.5
784.557	30167.12
784.89	30377.05
785.224	30264.29
785.557	30139.32
785.891	30076.95
786.224	30121.02
786.558	29933.68
786.891	29746.34
787.224	29759.67
787.557	29625.44
787.891	29530.3
788.224	29666.79
788.557	29613.01
788.89	29511.31
789.223	29508.38
789.556	29213.7
789.888	29087.14
790.221	28963.98
790.554	28870.88
790.887	28794.05
791.219	28647.38
791.552	28565.8
791.884	28369.88
792.217	28351.57
792.549	28167.62
792.882	28013.5
793.214	27885.82
793.546	27983.9
793.879	27679.72
794.211	27680.4
794.543	27837.69
794.875	27663.45
795.207	27593.4
795.539	27382.1
795.871	27209
796.203	26929.46
796.535	26671.16
796.867	26765.62
797.198	26654.44
797.53	26758.39
797.862	26567.66
798.193	26627.32
798.525	26396.82
798.856	26470.26
799.188	26153.21
799.519	26180.78
799.85	26251.97
800.182	26072.31
800.513	26053.78
800.844	25885.65
801.175	25916.83
801.506	25914.57
801.837	25847.23
802.168	25711.87
802.499	25595.03
802.83	25591.19
803.161	25505.54
803.491	25504.87
803.822	25513.45
804.153	25382.84
804.483	25220.35
804.814	25177.19
805.145	25242.27
805.475	25280.24
805.805	25123.86
806.136	25050.41
806.466	25075.05
806.796	24899.68
807.126	24928.61
807.457	24622.63
807.787	24793.02
808.117	24546.02
808.447	24540.82
808.777	24608.17
809.107	24432.8
809.436	24281.62
809.766	24233.94
810.096	24177.67
810.426	24040.72
810.755	24027.62
811.085	23799.15
811.414	23806.61
811.744	23637.12
812.073	23593.5
812.403	23667.17
812.732	23483.45
813.061	23423.56
813.39	23215.43
813.719	23056.57
814.049	23250.46
814.378	23075.78
814.707	22853.18
815.036	22896.57
815.365	22808.67
815.693	22647.09
816.022	22505.17
816.351	22542.91
816.68	22409.13
817.008	22498.39
817.337	22236.03
817.665	22192.41
817.994	22351.28
818.322	22231.05
818.651	22263.37
818.979	22132.75
819.307	22195.12
819.636	22102.7
819.964	21970.04
820.292	22063.6
820.62	22012.3
820.948	22146.54
821.276	22272.41
821.604	22214.11
821.932	22113.32
822.259	22283.71
822.587	22190.15
822.915	22010.72
823.243	22269.7
823.57	22246.65
823.898	22203.03
824.225	22059.08
824.553	22224.05
824.88	22295.68
825.207	22416.36
825.535	22360.99
825.862	22340.2
826.189	22217.49
826.516	22373.42
826.843	22527.54
827.17	22429.24
827.497	22410.71
827.824	22279.19
828.151	22405.06
828.478	22274.67
828.805	22281.22
829.131	22125.29
829.458	22070.83
829.785	22099.76
830.111	22072.19
830.438	22179.3
830.764	22041.91
831.09	22173.65
831.417	21974.11
831.743	22076.26
832.069	22097.05
832.395	21888.01
832.722	21957.84
833.048	21766.43
833.374	21822.25
833.7	21686.44
834.026	21760.56
834.351	21767.79
834.677	21682.37
835.003	21777.28
835.329	21813.89
835.654	21597.17
835.98	21613.67
836.306	21570.96
836.631	21341.36
836.956	21495.25
837.282	21555.82
837.607	21372.55
837.932	21350.85
838.258	21375.94
838.583	21373.45
838.908	21222.49
839.233	21230.85
839.558	21337.52
839.883	21103.63
840.208	21180.69
840.533	21101.14
840.858	21260.23
841.182	21255.03
841.507	21213.23
841.832	21151.08
842.156	21076.51
842.481	21177.75
842.805	21074.93
843.13	21013.23
843.454	20966.45
843.778	20823.41
844.103	21019.56
844.427	20898.66
844.751	20907.47
845.075	20821.83
845.399	20731.21
845.723	20613.7
846.047	20655.28
846.371	20453.7
846.695	20482.85
847.019	20258.45
847.343	20270.2
847.666	20176.64
847.99	19987.05
848.313	20003.32
848.637	19818.24
848.96	19753.38
849.284	19722.87
849.607	19610.11
849.931	19529.66
850.254	19335.99
850.577	19275.65
850.9	19023.45
851.223	18908.43
851.546	18882.22
851.869	18783.69
852.192	18819.62
852.515	18603.13
852.838	18549.12
853.161	18465.73
853.483	18350.25
853.806	18229.35
854.129	18216.92
854.451	18002.69
854.774	18062.58
855.096	17989.81
855.419	17920.21
855.741	17954.33
856.063	17760.44
856.385	17778.29
856.708	17661.68
857.03	17627.11
857.352	17669.14
857.674	17563.38
857.996	17572.87
858.318	17483.83
858.64	17514.34
858.961	17377.4
859.283	17398.19
859.605	17415.36
859.926	17463.04
860.248	17387.11
860.57	17274.35
860.891	17264.4
861.212	17201.58
861.534	17237.96
861.855	17218.98
862.176	17319.09
862.498	17140.57
862.819	17183.95
863.14	17077.74
863.461	17218.08
863.782	17056.05
864.103	17060.79
864.424	17091.75
864.745	17101.7
865.065	17066.67
865.386	17073
865.707	16981.02
866.027	17018.54
866.348	17046.56
866.668	16922.49
866.989	16894.25
867.309	16722.5
867.63	16832.1
867.95	16787.58
868.27	16716.17
868.59	16768.6
868.91	16724.76
869.23	16688.83
869.55	16580.58
869.87	16634.82
870.19	16632.78
870.51	16516.4
870.83	16475.05
871.15	16233.47
871.469	16341.04
871.789	16323.64
872.109	16286.58
872.428	16117.32
872.748	16181.27
873.067	16119.12
873.386	16153.02
873.706	16048.17
874.025	15982.4
874.344	16018.11
874.663	15933.59
874.982	15909.64
875.301	15878.9
875.62	15796.87
875.939	15761.85
876.258	15783.31
876.577	15611.79
876.896	15703.54
877.214	15630.32
877.533	15693.15
877.852	15555.98
878.17	15614.28
878.489	15617.67
878.807	15511.46
879.125	15560.04
879.444	15532.25
879.762	15516.88
880.08	15532.47
880.398	15350.1
880.716	15453.83
881.034	15464.23
881.352	15464.23
881.67	15435.75
881.988	15445.02
882.306	15400.73
882.624	15492.25
882.941	15309.88
883.259	15232.82
883.577	15263.1
883.894	15349.65
884.212	15323.66
884.529	15297.22
884.846	15270.78
885.164	15176.78
885.481	15132.71
885.798	15212.48
886.115	15191.92
886.432	15109.66
886.75	15033.28
887.067	15053.62
887.383	15110.11
887.7	15117.57
888.017	15025.14
888.334	14930.91
888.651	14955.54
888.967	14891.59
889.284	14838.71
889.6	14786.5
889.917	14686.62
890.233	14623.12
890.55	14539.28
890.866	14620.63
891.182	14463.8
891.498	14473.97
891.815	14323.92
892.131	14402.33
892.447	14332.73
892.763	14133.41
893.079	14136.8
893.395	14003.25
893.71	14041.44
894.026	13913.76
894.342	13906.08
894.657	13823.59
894.973	13828.79
895.289	13805.51
895.604	13755.34
895.92	13542.92
896.235	13516.48
896.55	13530.49
896.865	13427.22
897.181	13361.46
897.496	13379.99
897.811	13299.54
898.126	13201.69
898.441	13166.89
898.756	13020.45
899.071	13048.24
899.386	13115.81
899.7	12944.52
900.015	12930.06
900.33	12806.44
900.644	12832.88
900.959	12800.34
901.273	12773.9
901.588	12691.19
901.902	12660.91
902.216	12721.7
902.531	12654.13
902.845	12657.52
903.159	12557.64
903.473	12594.7
903.787	12526.22
904.101	12505.43
904.415	12482.84
904.729	12417.53
905.042	12386.34
905.356	12365.55
905.67	12261.6
905.984	12330.3
906.297	12216.18
906.611	12143.41
906.924	12182.96
907.237	12112.45
907.551	12101.83
907.864	12042.17
908.177	11950.42
908.491	11996.29
908.804	11911.33
909.117	11880.14
909.43	11827.49
909.743	11692.12
910.056	11780.93
910.368	11718.79
910.681	11674.04
910.994	11666.36
911.307	11618
911.619	11598.11
911.932	11541.17
912.244	11478.79
912.557	11463.65
912.869	11328.06
913.181	11274.05
913.494	11228.41
913.806	11097.11
914.118	11104.57
914.43	11059.14
914.742	10968.98
915.054	10958.13
915.366	10916.1
915.678	10770.11
915.99	10746.16
916.302	10707.29
916.613	10563.34
916.925	10555.88
917.236	10436.11
917.548	10469.78
917.859	10503.9
918.171	10418.71
918.482	10311.59
918.794	10263.23
919.105	10229.34
919.416	10186.62
919.727	10138.26
920.038	10060.3
920.349	9970.13
920.66	9980.3
920.971	9987.08
921.282	9872.06
921.593	9813.3
921.903	9755.22
922.214	9745.96
922.525	9721.33
922.835	9701.44
923.146	9664.38
923.456	9563.36
923.767	9525.63
924.077	9545.96
924.387	9563.14
924.697	9417.61
925.008	9456.25
925.318	9464.16
925.628	9455.34
925.938	9319.08
926.248	9285.86
926.558	9196.37
926.867	9229.59
927.177	9236.82
927.487	9179.19
927.796	9135.58
928.106	9172.19
928.416	9147.56
928.725	9083.6
929.034	9128.8
929.344	9034.56
929.653	8966.54
929.962	8923.83
930.271	8931.97
930.581	8913.21
930.89	8854
931.199	8840.22
931.508	8864.85
931.817	8837.96
932.125	8803.84
932.434	8753.89
932.743	8728.58
933.051	8674.35
933.36	8667.79
933.669	8587.8
933.977	8563.16
934.286	8595.48
934.594	8563.84
934.902	8436.39
935.21	8411.08
935.519	8366.33
935.827	8392.1
936.135	8370.85
936.443	8272.32
936.751	8311.42
937.059	8305.77
937.367	8195.49
937.674	8208.82
937.982	8115.49
938.29	8061.71
938.597	8026.68
938.905	7953.92
939.213	7938.1
939.52	7845.22
939.827	7868.49
940.135	7765.45
940.442	7717.54
940.749	7636.41
941.056	7638.67
941.363	7563.64
941.67	7518.22
941.977	7487.71
942.284	7425.34
942.591	7425.34
942.898	7388.28
943.205	7349.86
943.511	7289.07
943.818	7229.19
944.125	7202.97
944.431	7231
944.738	7146.48
945.044	7066.03
945.35	7069.19
945.657	7028.74
945.963	7005.24
946.269	6932.93
946.575	6970.21
946.881	7016.76
947.187	6917.11
947.493	6856.09
947.799	6857.9
948.105	6885.02
948.41	6841.63
948.716	6790.78
949.022	6749.2
949.327	6748.98
949.633	6624.91
949.938	6685.02
950.244	6664.91
950.549	6620.39
950.854	6621.29
951.16	6578.13
951.465	6533.61
951.77	6552.6
952.075	6515.99
952.38	6453.84
952.685	6469.66
952.99	6444.35
953.294	6430.34
953.599	6392.83
953.904	6374.07
954.209	6347.63
954.513	6383.33
954.818	6296.33
955.122	6321.64
955.426	6307.86
955.731	6261.3
956.035	6188.31
956.339	6259.27
956.643	6214.53
956.948	6176.11
957.252	6137.24
957.556	6161.19
957.86	6098.82
958.163	6115.55
958.467	6085.72
958.771	6040.29
959.075	5965.27
959.378	5921.88
959.682	5974.31
959.985	5934.31
960.289	5847.08
960.592	5815.21
960.896	5863.35
961.199	5834.42
961.502	5775.67
961.805	5720.75
962.108	5705.61
962.411	5695.44
962.714	5611.15
963.017	5593.3
963.32	5650.25
963.623	5595.33
963.926	5602.56
964.228	5479.18
964.531	5467.43
964.833	5442.12
965.136	5377.49
965.438	5380.42
965.741	5385.4
966.043	5304.04
966.345	5262.69
966.648	5270.6
966.95	5283.25
967.252	5201.22
967.554	5204.38
967.856	5168.23
968.158	5108.34
968.46	5120.09
968.761	5090.94
969.063	5009.81
969.365	4972.75
969.666	4970.49
969.968	4945.86
970.269	4926.88
970.571	4933.43
970.872	4909.48
971.174	4847.78
971.475	4878.06
971.776	4823.38
972.077	4820.89
972.378	4767.11
972.679	4792.87
972.98	4734.11
973.281	4745.19
973.582	4696.83
973.883	4696.37
974.183	4630.16
974.484	4636.94
974.785	4625.19
975.085	4653.21
975.386	4587.9
975.686	4560.33
975.986	4566.21
976.287	4552.42
976.587	4497.73
976.887	4465.19
977.187	4511.52
977.487	4494.12
977.787	4472.2
978.087	4485.98
978.387	4433.1
978.687	4424.52
978.987	4428.13
979.286	4414.57
979.586	4371.86
979.885	4331.86
980.185	4391.97
980.484	4311.98
980.784	4307.46
981.083	4255.03
981.382	4311.07
981.682	4257.52
981.981	4229.72
982.28	4247.35
982.579	4204.41
982.878	4257.29
983.177	4202.6
983.475	4192.21
983.774	4133.45
984.073	4121.93
984.372	4165.54
984.67	4097.75
984.969	4112.89
985.267	4125.77
985.566	4081.25
985.864	4083.51
986.162	4059.33
986.461	4046
986.759	4036.96
987.057	3991.08
987.355	3944.76
987.653	3981.36
987.951	3950.18
988.249	3879.45
988.547	3905.89
988.844	3867.47
989.142	3849.62
989.44	3789.28
989.737	3814.14
990.035	3818.66
990.332	3746.79
990.63	3750.18
990.927	3728.26
991.224	3702.05
991.521	3686.68
991.819	3710.18
992.116	3629.06
992.413	3627.48
992.71	3576.4
993.006	3557.42
993.303	3518.1
993.6	3494.6
993.897	3499.12
994.193	3480.13
994.49	3450.08
994.787	3426.58
995.083	3394.71
995.379	3409.18
995.676	3365.34
995.972	3333.25
996.268	3369.4
996.565	3320.36
996.861	3315.17
997.157	3269.74
997.453	3220.25
997.749	3241.5
998.044	3223.19
998.34	3211.22
998.636	3213.25
998.932	3158.79
999.227	3167.37
999.523	3167.15
999.818	3114.95
1000.114	3137.54
1000.409	3074.27
1000.704	3094.61
1001	3071.78
1001.295	3098.45
1001.59	3053.48
1001.885	3061.39
1002.18	3003.08
1002.475	3011.9
1002.77	2980.26
1003.065	2961.05
1003.359	2978.9
1003.654	2892.81
1003.949	2909.53
1004.243	2891.22
1004.538	2920.15
1004.832	2873.14
1005.127	2832.24
1005.421	2893.71
1005.715	2847.83
1006.009	2846.03
1006.304	2793.6
1006.598	2773.71
1006.892	2767.16
1007.186	2755.18
1007.48	2746.82
1007.773	2698.01
1008.067	2708.63
1008.361	2670.66
1008.655	2637.22
1008.948	2661.62
1009.242	2657.78
1009.535	2638.12
1009.829	2648.97
1010.122	2612.59
1010.415	2601.06
1010.708	2587.5
1011.001	2575.07
1011.295	2596.77
1011.588	2580.05
1011.881	2547.5
1012.173	2508.86
1012.466	2508.63
1012.759	2508.18
1013.052	2512.48
1013.344	2494.17
1013.637	2434.29
1013.93	2422.31
1014.222	2409.43
1014.514	2414.85
1014.807	2388.41
1015.099	2362.2
1015.391	2348.86
1015.683	2288.53
1015.976	2324.46
1016.268	2310.9
1016.56	2308.19
1016.851	2317.68
1017.143	2266.16
1017.435	2244.46
1017.727	2241.97
1018.018	2185.03
1018.31	2198.36
1018.602	2217.57
1018.893	2167.17
1019.185	2153.62
1019.476	2135.09
1019.767	2125.14
1020.058	2114.97
1020.35	2081.98
1020.641	2008.31
1020.932	2060.51
1021.223	2073.17
1021.514	2054.41
1021.804	2008.08
1022.095	2009.44
1022.386	1993.39
1022.677	1985.48
1022.967	1960.85
1023.258	1958.82
1023.548	1920.85
1023.839	1929.89
1024.129	1901.64
1024.419	1898.48
1024.709	1885.15
1025	1852.61
1025.29	1851.93
1025.58	1825.04
1025.87	1804.92
1026.16	1791.14
1026.449	1795.43
1026.739	1794.53
1027.029	1793.17
1027.319	1743.91
1027.608	1709.11
1027.898	1711.59
1028.187	1704.81
1028.477	1711.59
1028.766	1690.35
1029.055	1702.55
1029.344	1676.11
1029.634	1654.87
1029.923	1660.52
1030.212	1620.97
1030.501	1615.1
1030.79	1602.44
1031.078	1585.04
1031.367	1580.75
1031.656	1580.07
1031.945	1574.65
1032.233	1566.29
1032.522	1557.7
1032.81	1518.83
1033.099	1530.36
1033.387	1527.87
1033.675	1519.06
1033.963	1492.84
1034.251	1515.21
1034.54	1484.48
1034.828	1478.61
1035.116	1479.28
1035.403	1458.49
1035.691	1455.55
1035.979	1462.79
1036.267	1423.24
1036.554	1453.97
1036.842	1409.68
1037.129	1438.38
1037.417	1409.45
1037.704	1392.05
1037.992	1357.93
1038.279	1351.38
1038.566	1338.27
1038.853	1338.27
1039.14	1338.27
