Data from blue_clamp_base_FLMS001491_00050.txt Node
Date: Wed Feb 08 15:16:05 GMT 2017
User: dcchb
Spectrometer: FLMS00149
Trigger mode: 0
Integration Time (sec): 2.000000E-2
Scans to average: 10
Electric dark correction enabled: true
Nonlinearity correction enabled: false
Boxcar width: 0
XAxis mode: Wavelengths
Number of Pixels in Spectrum: 2048
>>>>>Begin Spectral Data<<<<<
341.393	-8.77
341.776	-8.77
342.16	-8.77
342.543	-61.2
342.927	-58.04
343.31	-66.17
343.693	-68.43
344.077	-64.59
344.46	-50.35
344.843	-46.28
345.226	-39.05
345.61	-50.13
345.993	-6.96
346.376	2.98
346.759	1.17
347.142	14.96
347.525	53.6
347.908	47.95
348.291	66.93
348.674	92.24
349.057	112.13
349.44	131.79
349.823	146.93
350.206	175.63
350.588	195.74
350.971	220.83
351.354	228.74
351.737	241.84
352.119	266.48
352.502	286.59
352.884	294.05
353.267	293.14
353.65	311.45
354.032	297.44
354.414	313.93
354.797	342.41
355.179	321.39
355.562	355.29
355.944	341.5
356.326	340.37
356.709	344.21
357.091	349.41
357.473	366.81
357.855	362.52
358.238	338.34
358.62	354.38
359.002	358
359.384	370.2
359.766	351.67
360.148	355.51
360.53	357.77
360.912	362.74
361.294	347.6
361.676	341.05
362.057	354.61
362.439	355.29
362.821	341.95
363.203	351.67
363.584	347.38
363.966	337.21
364.348	322.52
364.729	351.9
365.111	325.91
365.493	351.67
365.874	327.72
366.256	349.86
366.637	322.29
367.019	345.34
367.4	308.06
367.781	327.27
368.163	327.49
368.544	323.65
368.925	325.91
369.306	349.41
369.688	329.98
370.069	350.99
370.45	352.8
370.831	358.23
371.212	331.11
371.593	358.45
371.974	362.97
372.355	329.07
372.736	334.5
373.117	324.33
373.498	361.84
373.879	329.07
374.26	334.04
374.641	335.17
375.021	345.57
375.402	375.85
375.783	369.3
376.163	362.29
376.544	350.32
376.925	359.81
377.305	355.06
377.686	356.19
378.066	368.62
378.447	368.39
378.827	384.21
379.208	366.13
379.588	381.28
379.968	372.91
380.349	364.78
380.729	385.12
381.109	377.21
381.489	384.21
381.87	370.65
382.25	390.77
382.63	387.38
383.01	386.7
383.39	388.73
383.77	377.43
384.15	388.28
384.53	403.87
384.91	413.59
385.29	388.51
385.67	401.16
386.049	430.99
386.429	409.07
386.809	418.11
387.189	394.83
387.568	444.78
387.948	446.13
388.328	436.87
388.707	412.01
389.087	432.57
389.466	428.96
389.846	453.59
390.225	418.79
390.605	444.55
390.984	461.27
391.363	449.3
391.743	463.76
392.122	450.43
392.501	461.05
392.881	467.37
393.26	486.13
393.639	475.06
394.018	514.61
394.397	488.62
394.776	486.36
395.155	484.1
395.534	491.55
395.913	492.46
396.292	506.02
396.671	515.06
397.05	525.68
397.429	506.47
397.808	523.42
398.186	538.56
398.565	520.71
398.944	548.28
399.323	549.86
399.701	565.9
400.08	560.03
400.458	543.98
400.837	568.39
401.215	561.61
401.594	579.24
401.972	559.35
402.351	581.27
402.729	602.06
403.107	567.03
403.486	614.72
403.864	627.37
404.242	621.04
404.62	616.07
404.999	628.5
405.377	651.78
405.755	632.12
406.133	650.42
406.511	677.54
406.889	662.62
407.267	669.63
407.645	674.15
408.023	675.5
408.401	697.2
408.779	705.79
409.156	719.12
409.534	742.17
409.912	736.52
410.29	764.09
410.667	762.51
411.045	775.62
411.422	773.13
411.8	782.62
412.178	792.11
412.555	821.72
412.933	819.23
413.31	814.94
413.687	836.4
414.065	842.05
414.442	851.09
414.819	877.53
415.197	843.86
415.574	880.02
415.951	871.43
416.328	886.8
416.705	897.42
417.082	916.85
417.46	936.06
417.837	914.37
418.214	931.32
418.591	960.92
418.967	983.75
419.344	955.05
419.721	993.24
420.098	988.49
420.475	1000.24
420.852	970.41
421.228	1018.09
421.605	1030.98
421.982	1046.34
422.358	1050.86
422.735	1047.02
423.111	1052.44
423.488	1068.71
423.864	1065.1
424.241	1064.42
424.617	1121.14
424.994	1092.89
425.37	1101.93
425.746	1140.58
426.123	1131.31
426.499	1141.93
426.875	1174.47
427.251	1193.68
427.627	1193.23
428.003	1212.67
428.379	1233
428.756	1244.08
429.132	1257.41
429.507	1289.95
429.883	1291.08
430.259	1338.09
430.635	1320.69
431.011	1335.15
431.387	1369.05
431.763	1424.64
432.138	1435.26
432.514	1425.99
432.89	1417.63
433.265	1472.55
433.641	1476.84
434.016	1489.04
434.392	1527.01
434.767	1524.52
435.143	1527.01
435.518	1566.33
435.894	1568.36
436.269	1573.79
436.644	1623.73
437.02	1618.98
437.395	1645.42
437.77	1685.65
438.145	1690.62
438.52	1672.77
438.895	1719.09
439.271	1716.16
439.646	1765.42
440.021	1789.15
440.395	1799.32
440.77	1794.12
441.145	1820.11
441.52	1858.07
441.895	1844.97
442.27	1869.15
442.645	1866.21
443.019	1941.23
443.394	1899.88
443.769	1932.87
444.143	1898.52
444.518	1951.18
444.892	1972.19
445.267	1974.91
445.641	1992.76
446.016	2013.32
446.39	2020.78
446.764	2046.54
447.139	2055.81
447.513	2065.98
447.887	2059.42
448.262	2107.78
448.636	2105.07
449.01	2153.21
449.384	2149.59
449.758	2162.92
450.132	2169.02
450.506	2202.02
450.88	2199.53
451.254	2225.75
451.628	2224.39
452.002	2260.77
452.376	2309.59
452.75	2335.8
453.123	2327.44
453.497	2386.65
453.871	2395.69
454.244	2458.06
454.618	2426.65
454.992	2477.94
455.365	2517.72
455.739	2547.09
456.112	2569.01
456.486	2589.13
456.859	2606.98
457.232	2628.22
457.606	2654.44
457.979	2723.36
458.352	2742.8
458.725	2763.13
459.099	2820.53
459.472	2841.1
459.845	2840.65
460.218	2883.58
460.591	2903.02
460.964	2936.91
461.337	2940.53
461.71	3003.35
462.083	3059.85
462.456	3017.59
462.829	3060.3
463.201	3140.52
463.574	3133.29
463.947	3182.78
464.32	3218.94
464.692	3272.95
465.065	3279.96
465.438	3342.55
465.81	3326.96
466.183	3425.49
466.555	3438.14
466.928	3418.71
467.3	3438.82
467.672	3538.48
468.045	3604.92
468.417	3632.04
468.789	3630.46
469.161	3664.35
469.534	3708.19
469.906	3798.13
470.278	3846.04
470.65	3871.13
471.022	3909.32
471.394	3978.69
471.766	4006.94
472.138	4049.88
472.51	4098.92
472.882	4185.47
473.253	4201.74
473.625	4235.41
473.997	4312.25
474.369	4364.9
474.74	4391.79
475.112	4459.36
475.484	4529.64
475.855	4599.92
476.227	4636.98
476.598	4715.4
476.97	4754.27
477.341	4831.1
477.713	4897.09
478.084	4926.69
478.455	5081.72
478.827	5113.58
479.198	5184.31
479.569	5202.17
479.94	5339.56
480.311	5344.76
480.682	5399
481.053	5529.61
481.424	5595.15
481.795	5635.83
482.166	5747.69
482.537	5817.97
482.908	5868.59
483.279	5895.93
483.65	5990.85
484.021	6139.99
484.391	6147.45
484.762	6178.64
485.133	6235.81
485.503	6277.39
485.874	6409.59
486.244	6501.11
486.615	6572.52
486.985	6578.63
487.356	6670.83
487.726	6705.4
488.097	6793.76
488.467	6786.98
488.837	6942.68
489.207	6966.64
489.578	7085.73
489.948	7084.38
490.318	7191.27
490.688	7184.71
491.058	7278.27
491.428	7318.95
491.798	7365.27
492.168	7450.24
492.538	7534.31
492.908	7557.36
493.278	7594.64
493.648	7620.18
494.017	7692.72
494.387	7793.96
494.757	7793.96
495.126	7821.53
495.496	7852.49
495.866	7860.4
496.235	7955.77
496.605	7932.26
496.974	7987.85
497.344	8018.81
497.713	8098.13
498.082	8087.06
498.452	8158.25
498.821	8171.8
499.19	8169.55
499.559	8220.39
499.928	8291.8
500.298	8270.11
500.667	8378.58
501.036	8334.96
501.405	8324.34
501.774	8410.44
502.143	8405.25
502.512	8499.03
502.88	8515.52
503.249	8551.46
503.618	8533.15
503.987	8576.31
504.356	8598.01
504.724	8648.4
505.093	8640.49
505.462	8632.13
505.83	8722.3
506.199	8706.71
506.567	8834.16
506.936	8760.26
507.304	8845.46
507.672	8840.94
508.041	8888.85
508.409	8947.15
508.777	9041.84
509.145	9029.86
509.514	8992.12
509.882	9087.71
510.25	9098.11
510.618	9085
510.986	9105.34
511.354	9230.53
511.722	9217.43
512.09	9282.51
512.458	9286.35
512.826	9337.88
513.193	9358.67
513.561	9328.61
513.929	9384.2
514.297	9428.04
514.664	9475.73
515.032	9530.87
515.4	9581.03
515.767	9614.93
516.135	9630.07
516.502	9538.1
516.869	9675.27
517.237	9693.12
517.604	9689.28
517.972	9784.64
518.339	9842.72
518.706	9796.39
519.073	9870.74
519.44	9847.69
519.808	9910.06
520.175	9959.78
520.542	10027.35
520.909	10070.29
521.276	10022.83
521.643	10060.34
522.009	10157.06
522.376	10264.18
522.743	10203.16
523.11	10318.87
523.477	10349.6
523.843	10453.78
524.21	10484.29
524.577	10530.16
524.943	10549.37
525.31	10588.69
525.676	10601.8
526.043	10743.94
526.409	10773.77
526.776	10823.49
527.142	10821.45
527.508	10846.08
527.874	10983.71
528.241	10995.23
528.607	10988.23
528.973	11065.97
529.339	11071.39
529.705	11188.22
530.071	11251.95
530.437	11271.84
530.803	11363.59
531.169	11336.02
531.535	11280.88
531.901	11346.64
532.267	11450.36
532.632	11580.75
532.998	11586.18
533.364	11576.46
533.73	11571.26
534.095	11715.89
534.461	11702.79
534.826	11699.62
535.192	11858.26
535.557	11873.85
535.923	11800.86
536.288	11887.19
536.653	11975.32
537.019	11862.1
537.384	12071.59
537.749	12100.97
538.114	12057.13
538.479	12123.57
538.845	12150.46
539.21	12212.38
539.575	12138.25
539.94	12182.77
540.305	12289.21
540.67	12269.55
541.034	12315.88
541.399	12381.86
541.764	12367.85
542.129	12429.77
542.494	12510.45
542.858	12516.55
543.223	12557.23
543.587	12609.88
543.952	12586.6
544.316	12644.91
544.681	12599.49
545.045	12685.81
545.41	12742.98
545.774	12701.4
546.138	12750.44
546.503	12834.73
546.867	12816.88
547.231	12910.44
547.595	12923.09
547.959	12927.16
548.324	12915.18
548.688	12990.89
549.052	12970.55
549.416	13016.88
549.779	13011.23
550.143	13076.08
550.507	13071.79
550.871	13131.67
551.235	13155.18
551.599	13309.75
551.962	13306.13
552.326	13241.5
552.689	13354.49
553.053	13347.94
553.417	13238.34
553.78	13460.93
554.143	13504.09
554.507	13468.39
554.87	13414.38
555.234	13625.67
555.597	13545.9
555.96	13612.57
556.323	13634.49
556.686	13719.68
557.05	13691.66
557.413	13777.99
557.776	13777.99
558.139	13794.48
558.502	13850.07
558.865	13947.7
559.228	14029.28
559.59	14052.55
559.953	14025.66
560.316	14169.84
560.679	14202.38
561.041	14270.4
561.404	14145.89
561.767	14355.82
562.129	14280.8
562.492	14423.84
562.854	14390.4
563.217	14464.97
563.579	14461.58
563.941	14584.97
564.304	14670.84
564.666	14735.93
565.028	14737.06
565.39	14772.08
565.753	14857.73
566.115	14935.24
566.477	14961
566.839	15027.9
567.201	15135.92
567.563	15053.43
567.925	15201
568.287	15094.56
568.648	15230.38
569.01	15303.14
569.372	15441.22
569.734	15309.47
570.095	15493.19
570.457	15537.03
570.819	15509.69
571.18	15547.2
571.542	15710.36
571.903	15732.51
572.265	15732.51
572.626	15764.37
572.987	15877.59
573.349	15946.06
573.71	15968.44
574.071	16047.98
574.432	16065.83
574.794	16232.84
575.155	16217.7
575.516	16102.67
575.877	16251.14
576.238	16266.28
576.599	16358.03
576.96	16343.79
577.32	16379.05
577.681	16384.02
578.042	16471.02
578.403	16470.34
578.763	16417.92
579.124	16522.09
579.485	16601.64
579.845	16602.77
580.206	16597.8
580.566	16603
580.927	16671.47
581.287	16688.87
581.648	16616.1
582.008	16749.66
582.368	16689.1
582.728	16775.42
583.089	16714.18
583.449	16684.8
583.809	16891.8
584.169	16851.58
584.529	16805.7
584.889	16991.46
585.249	16766.61
585.609	16752.6
585.969	16922.08
586.329	16821.07
586.688	16942.65
587.048	16966.6
587.408	16878.69
587.768	16970.67
588.127	16970.44
588.487	16880.28
588.846	17068.75
589.206	16901.29
589.565	16947.62
589.925	17051.12
590.284	16899.03
590.643	17083.89
591.003	17132.25
591.362	17120.04
591.721	17055.87
592.08	17086.37
592.44	17083.43
592.799	17162.98
593.158	17076.43
593.517	17065.36
593.876	17158.01
594.235	17077.56
594.593	17110.1
594.952	17111.46
595.311	17129.54
595.67	17194.39
596.029	17224.45
596.387	17303.09
596.746	17320.49
597.104	17230.1
597.463	17256.76
597.822	17299.25
598.18	17248.63
598.538	17169.31
598.897	17315.75
599.255	17207.05
599.613	17466.93
599.972	17312.13
600.33	17312.36
600.688	17202.53
601.046	17283.43
601.404	17402.3
601.762	17412.69
602.12	17468.96
602.478	17392.35
602.836	17525.23
603.194	17316.88
603.552	17402.52
603.91	17377.89
604.268	17473.26
604.625	17426.7
604.983	17489.3
605.341	17416.08
605.698	17551.45
606.056	17550.54
606.413	17479.81
606.771	17613.59
607.128	17576.3
607.485	17483.42
607.843	17555.96
608.2	17616.08
608.557	17698.79
608.914	17616.75
609.272	17763.87
609.629	17782.4
609.986	17735.17
610.343	17741.27
610.7	17867.37
611.057	17756.41
611.414	17740.59
611.771	17809.52
612.127	17841.16
612.484	17858.1
612.841	17864.88
613.198	17917.76
613.554	17853.36
613.911	17967.93
614.267	17935.16
614.624	17890.65
614.98	18059.45
615.337	18058.1
615.693	18115.72
616.05	18017.87
616.406	18101.26
616.762	17964.77
617.118	18128.61
617.475	17984.43
617.831	18084.76
618.187	18088.38
618.543	18097.42
618.899	18319.79
619.255	18220.58
619.611	18220.35
619.967	18246.79
620.323	18233.01
620.678	18195.72
621.034	18248.6
621.39	18287.47
621.746	18240.24
622.101	18475.49
622.457	18345.32
622.812	18264.42
623.168	18402.95
623.523	18524.08
623.879	18394.36
624.234	18393.68
624.589	18446.34
624.945	18385.77
625.3	18515.26
625.655	18438.88
626.01	18479.33
626.365	18623.96
626.72	18546.22
627.075	18636.84
627.43	18569.27
627.785	18413.57
628.14	18498.54
628.495	18559.1
628.85	18589.16
629.205	18541.93
629.559	18671.64
629.914	18544.87
630.269	18585.54
630.623	18626.45
630.978	18510.74
631.332	18534.24
631.687	18672.09
632.041	18560.46
632.396	18581.93
632.75	18569.72
633.104	18609.5
633.459	18591.64
633.813	18601.36
634.167	18665.77
634.521	18545.54
634.875	18673.9
635.229	18665.09
635.583	18621.47
635.937	18627.58
636.291	18549.16
636.645	18614.24
636.999	18551.64
637.352	18689.95
637.706	18567.92
638.06	18697.4
638.413	18632.55
638.767	18607.01
639.121	18817.17
639.474	18589.61
639.828	18648.37
640.181	18707.8
640.534	18738.53
640.888	18697.86
641.241	18533.79
641.594	18734.69
641.947	18718.19
642.301	18621.25
642.654	18709.61
643.007	18698.76
643.36	18692.21
643.713	18712.77
644.066	18766.55
644.419	18666.44
644.771	18576.96
645.124	18378.77
645.477	18348.03
645.83	18233.69
646.182	18267.36
646.535	18235.5
646.888	18382.61
647.24	18272.33
647.593	18437.98
647.945	18492.44
648.298	18395.94
648.65	18400.91
649.002	18357.3
649.355	18450.18
649.707	18381.25
650.059	18526.11
650.411	18627.35
650.763	18704.86
651.115	18879.32
651.467	18863.05
651.819	18901.47
652.171	19053.33
652.523	18929.26
652.875	18890.17
653.227	18911.18
653.578	19092.87
653.93	19061.24
654.282	19023.95
654.633	19040.9
654.985	18972.88
655.337	19075.92
655.688	19005.87
656.039	19210.84
656.391	19012.65
656.742	18950.28
657.094	19086.77
657.445	19133.55
657.796	19119.09
658.147	19045.64
658.498	19070.5
658.849	19115.47
659.2	19038.19
659.551	19079.09
659.902	19125.64
660.253	19146.21
660.604	19121.57
660.955	19074.8
661.306	19145.08
661.656	19108.69
662.007	19114.12
662.358	19236.37
662.708	19129.93
663.059	19134.68
663.409	19056.26
663.76	19185.98
664.11	19188.46
664.461	19251.74
664.811	19165.64
665.161	19214
665.511	19104.62
665.862	19250.84
666.212	19184.17
666.562	19247.67
666.912	19147.11
667.262	19189.82
667.612	19136.71
667.962	19135.58
668.312	19104.85
668.662	19175.13
669.011	19165.19
669.361	19070.73
669.711	19164.96
670.06	19021.24
670.41	18937.17
670.76	19060.33
671.109	19089.26
671.459	19009.49
671.808	18874.8
672.157	18963.16
672.507	18834.58
672.856	18749.38
673.205	18838.87
673.554	18882.71
673.904	18720.68
674.253	18842.94
674.602	18734.47
674.951	18490.4
675.3	18411.31
675.649	18690.62
675.998	18597.29
676.346	18607.69
676.695	18649.95
677.044	18386
677.393	18506.67
677.741	18532.44
678.09	18515.26
678.438	18410.86
678.787	18408.15
679.135	18460.35
679.484	18320.01
679.832	18371.76
680.181	18280.47
680.529	18300.13
680.877	18291.76
681.225	18197.53
681.573	18131.99
681.922	18078.89
682.27	18065.33
682.618	18062.39
682.966	18010.19
683.314	17937.42
683.661	17980.59
684.009	17915.5
684.357	17862.4
684.705	17788.05
685.053	17901.49
685.4	17814.49
685.748	17782.4
686.095	17716.86
686.443	17670.76
686.79	17684.1
687.138	17711.89
687.485	17820.14
687.832	17605.68
688.18	17565.46
688.527	17549.19
688.874	17483.88
689.221	17529.75
689.568	17514.84
689.915	17415.63
690.262	17401.84
690.609	17361.17
690.956	17208.86
691.303	17338.12
691.65	17219.93
691.997	17279.81
692.344	17080.95
692.69	17120.27
693.037	17272.13
693.383	17131.34
693.73	17116.43
694.077	17020.39
694.423	16971.8
694.769	17006.37
695.116	16905.81
695.462	16923.89
695.808	16923.21
696.155	16874.63
696.501	16723.22
696.847	16846.38
697.193	16750.56
697.539	16848.19
697.885	16609.55
698.231	16680.96
698.577	16670.34
698.923	16712.15
699.269	16597.57
699.614	16550.34
699.96	16479.84
700.306	16559.15
700.651	16440.06
700.997	16492.26
701.342	16351.7
701.688	16410.23
702.033	16383.11
702.379	16320.07
702.724	16354.87
703.069	16384.02
703.415	16301.31
703.76	16322.1
704.105	16309.9
704.45	16227.64
704.795	16206.17
705.14	16129.34
705.485	16167.98
705.83	16004.82
706.175	16143.35
706.52	16101.99
706.865	16010.92
707.209	16057.02
707.554	15997.14
707.899	15951.94
708.243	15972.73
708.588	15956.23
708.932	15799.63
709.277	15855.22
709.621	15873.98
709.966	15828.55
710.31	15911.04
710.654	15770.25
710.998	15782.23
711.342	15784.03
711.687	15800.98
712.031	15720.98
712.375	15646.18
712.719	15746.52
713.063	15751.72
713.407	15772.73
713.75	15702.45
714.094	15695.67
714.438	15561.67
714.782	15631.5
715.125	15595.34
715.469	15605.51
715.812	15616.35
716.156	15544.04
716.499	15608.45
716.843	15584.04
717.186	15482.35
717.53	15542.91
717.873	15520.99
718.216	15542.23
718.559	15473.53
718.902	15365.74
719.246	15425.85
719.589	15372.75
719.932	15392.86
720.275	15349.24
720.617	15322.35
720.96	15333.2
721.303	15402.12
721.646	15339.53
721.989	15346.31
722.331	15367.1
722.674	15303.37
723.016	15357.15
723.359	15370.94
723.701	15343.37
724.044	15249.81
724.386	15200.55
724.729	15285.52
725.071	15298.4
725.413	15206.87
725.755	15282.8
726.097	15146.76
726.439	15182.92
726.782	15206.87
727.124	15192.19
727.465	15170.49
727.807	15279.19
728.149	15103.83
728.491	15129.36
728.833	15185.41
729.175	15169.59
729.516	15151.06
729.858	15096.14
730.199	15128.91
730.541	15037.61
730.882	15134.11
731.224	15191.96
731.565	15126.42
731.906	15199.42
732.248	15171.85
732.589	15061.79
732.93	15183.15
733.271	15179.53
733.612	15240.32
733.953	15149.7
734.294	15184.5
734.635	15095.24
734.976	15274.22
735.317	15175.91
735.658	15164.84
735.999	15224.27
736.339	15139.98
736.68	15305.4
737.021	15239.64
737.361	15156.71
737.702	15349.92
738.042	15349.92
738.383	15231.96
738.723	15446.42
739.063	15269.25
739.404	15393.08
739.744	15354.21
740.084	15250.04
740.424	15279.41
740.764	15306.98
741.104	15378.4
741.444	15328.68
741.784	15370.71
742.124	15400.09
742.464	15418.39
742.804	15528
743.143	15452.97
743.483	15473.08
743.823	15516.92
744.162	15543.81
744.502	15640.08
744.841	15480.54
745.181	15645.28
745.52	15692.51
745.86	15778.61
746.199	15741.1
746.538	15720.76
746.877	15797.14
747.216	15832.62
747.556	15845.05
747.895	15913.3
748.234	15912.84
748.573	15896.35
748.911	15939.74
749.25	15997.14
749.589	15925.27
749.928	16009.11
750.267	15992.16
750.605	16040.98
750.944	15987.19
751.283	16096.34
751.621	16135.89
751.96	16071.48
752.298	16078.26
752.636	16198.49
752.975	16166.17
753.313	16097.7
753.651	16293.17
753.989	16217.02
754.327	16205.94
754.666	16183.57
755.004	16186.51
755.342	16380.4
755.679	16337.69
756.017	16291.14
756.355	16429.89
756.693	16377.46
757.031	16472.15
757.368	16346.28
757.706	16468.99
758.044	16341.53
758.381	16485.48
758.719	16494.52
759.056	16518.7
759.394	16572.71
759.731	16462.66
760.068	16468.31
760.405	16619.27
760.743	16585.14
761.08	16664.46
761.417	16605.26
761.754	16617.91
762.091	16724.57
762.428	16638.25
762.765	16529.55
763.102	16672.82
763.438	16624.24
763.775	16563.67
764.112	16690.9
764.449	16640.06
764.785	16642.54
765.122	16612.03
765.458	16587.4
765.795	16592.37
766.131	16623.79
766.467	16680.96
766.804	16591.92
767.14	16541.08
767.476	16668.53
767.812	16601.87
768.148	16685.48
768.485	16599.61
768.821	16541.3
769.157	16528.87
769.492	16499.27
769.828	16676.89
770.164	16476.9
770.5	16416.33
770.836	16501.98
771.171	16398.26
771.507	16495.2
771.842	16424.7
772.178	16489.55
772.513	16553.28
772.849	16490
773.184	16435.09
773.519	16484.81
773.855	16403.9
774.19	16362.78
774.525	16352.38
774.86	16333.17
775.195	16435.54
775.53	16416.33
775.865	16419.5
776.2	16263.8
776.535	16176.34
776.87	16205.94
777.205	16164.82
777.539	16109.68
777.874	16302.89
778.209	16097.47
778.543	16219.05
778.878	16124.82
779.212	16095.21
779.547	16134.53
779.881	16068.32
780.215	16053.86
780.55	16179.96
780.884	16089.11
781.218	16007.76
781.552	16091.6
781.886	15997.14
782.22	15925.5
782.554	15925.73
782.888	15901.55
783.222	15851.15
783.556	15855.22
783.889	15757.59
784.223	15766.86
784.557	15692.06
784.89	15863.13
785.224	15703.58
785.557	15698.39
785.891	15743.58
786.224	15595.79
786.558	15638.73
786.891	15555.57
787.224	15566.86
787.557	15580.65
787.891	15544.94
788.224	15570.48
788.557	15515.34
788.89	15561.22
789.223	15561.67
789.556	15525.28
789.888	15460.2
790.221	15420.65
790.554	15310.83
790.887	15299.3
791.219	15330.26
791.552	15300.88
791.884	15180.43
792.217	15287.32
792.549	15203.03
792.882	15076.03
793.214	15115.13
793.546	15221.34
793.879	14967.11
794.211	14948.58
794.543	15098.18
794.875	15012.08
795.207	15097.5
795.539	15009.14
795.871	14916.26
796.203	14904.28
796.535	14914
796.867	14918.29
797.198	14903.61
797.53	14873.55
797.862	14691.63
798.193	14817.96
798.525	14706.32
798.856	14738.41
799.188	14618.64
799.519	14627.23
799.85	14541.13
800.182	14621.8
800.513	14519.21
800.844	14481.02
801.175	14547.68
801.506	14552.43
801.837	14517.17
802.168	14514.46
802.499	14496.84
802.83	14348.82
803.161	14340.23
803.491	14400.57
803.822	14362.6
804.153	14331.87
804.483	14190.4
804.814	14245.54
805.145	14283.96
805.475	14239.22
805.805	14210.97
806.136	14173.68
806.466	14238.09
806.796	14161.7
807.126	14043.97
807.457	14090.29
807.787	14076.73
808.117	14055.49
808.447	14027.02
808.777	14004.65
809.107	13960.58
809.436	13922.84
809.766	13933.01
810.096	13844.65
810.426	13864.54
810.755	13907.7
811.085	13869.96
811.414	13829.28
811.744	13697.08
812.073	13727.37
812.403	13707.48
812.732	13675.39
813.061	13690.53
813.39	13654.6
813.719	13579.35
814.049	13544.77
814.378	13596.75
814.707	13489.63
815.036	13563.3
815.365	13510.2
815.693	13353.14
816.022	13413.02
816.351	13409.63
816.68	13346.58
817.008	13353.36
817.337	13268.85
817.665	13308.84
817.994	13289.86
818.322	13307.04
818.651	13160.6
818.979	13209.86
819.307	13220.03
819.636	13202.41
819.964	13163.76
820.292	13193.82
820.62	13171.45
820.948	13135.52
821.276	13102.52
821.604	13132.58
821.932	13089.87
822.259	13122.18
822.587	13121.96
822.915	13106.82
823.243	13133.26
823.57	13134.61
823.898	13148.17
824.225	13152.01
824.553	13142.3
824.88	13166.25
825.207	13089.42
825.535	13081.28
825.862	13143.43
826.189	13168.74
826.516	13159.47
826.843	13212.8
827.17	13138.91
827.497	13264.1
827.824	13251.67
828.151	13181.62
828.478	13196.31
828.805	13248.28
829.131	13197.66
829.458	13199.7
829.785	13131.9
830.111	13186.14
830.438	13235.4
830.764	13203.09
831.09	13293.25
831.417	13135.52
831.743	13274.04
832.069	13223.88
832.395	13182.07
832.722	13158.34
833.048	13162.63
833.374	13213.71
833.7	13111.34
834.026	13090.77
834.351	13168.74
834.677	13162.63
835.003	13168.28
835.329	13116.99
835.654	13151.11
835.98	13073.6
836.306	13051.9
836.631	13065.46
836.956	13101.17
837.282	13071.34
837.607	13039.93
837.932	13017.1
838.258	13126.7
838.583	13048.06
838.908	12920.15
839.233	12998.12
839.558	13001.06
839.883	12910.21
840.208	12897.33
840.533	12873.6
840.858	12915.63
841.182	12791.34
841.507	12859.37
841.832	12765.36
842.156	12750.44
842.481	12710.67
842.805	12698.47
843.13	12727.39
843.454	12645.36
843.778	12606.26
844.103	12540.05
844.427	12590.67
844.751	12623.89
845.075	12578.02
845.399	12557.9
845.723	12444.69
846.047	12452.6
846.371	12387.51
846.695	12373.28
847.019	12278.36
847.343	12274.75
847.666	12212.38
847.99	12178.03
848.313	12142.1
848.637	12039.5
848.96	12057.58
849.284	11978.94
849.607	11938.03
849.931	11902.33
850.254	11848.09
850.577	11744.82
850.9	11745.5
851.223	11682.45
851.546	11673.18
851.869	11595.9
852.192	11671.83
852.515	11527.42
852.838	11486.75
853.161	11485.84
853.483	11452.17
853.806	11347.77
854.129	11370.59
854.451	11244.94
854.774	11265.96
855.096	11272.29
855.419	11231.39
855.741	11174.89
856.063	11118.39
856.385	11176.47
856.708	11074.55
857.03	11007.21
857.352	11033.88
857.674	11043.82
857.996	10932.86
858.318	10902.35
858.64	10912.75
858.961	10864.62
859.283	10802.47
859.605	10734.68
859.926	10853.99
860.248	10815.13
860.57	10754.56
860.891	10805.63
861.212	10677.95
861.534	10715.69
861.855	10694.68
862.176	10658.75
862.498	10680.67
862.819	10737.84
863.14	10614.9
863.461	10574.23
863.782	10636.37
864.103	10649.03
864.424	10551.63
864.745	10542.82
865.065	10494.23
865.386	10429.37
865.707	10442.48
866.027	10433.89
866.348	10419.43
866.668	10414.91
866.989	10362.26
867.309	10273.44
867.63	10367
867.95	10322.71
868.27	10228.02
868.59	10330.39
868.91	10200.9
869.23	10198.19
869.55	10162.04
869.87	10231.19
870.19	10187.12
870.51	10185.99
870.83	10209.94
871.15	10135.37
871.469	10152.77
871.789	10220.56
872.109	10162.04
872.428	10055.82
872.748	10136.05
873.067	10052.66
873.386	10080
873.706	10093.56
874.025	10012.89
874.344	9974.24
874.663	10012.21
874.982	9969.95
875.301	9918.88
875.62	9930.4
875.939	9863.29
876.258	9882.49
876.577	9872.33
876.896	9968.37
877.214	9880.91
877.533	9872.1
877.852	9854.47
878.17	9881.36
878.489	9822.61
878.807	9855.6
879.125	9736.96
879.444	9789.62
879.762	9752.33
880.08	9750.52
880.398	9726.34
880.716	9715.27
881.034	9607.25
881.352	9647.02
881.67	9614.93
881.988	9610.41
882.306	9659
882.624	9615.83
882.941	9551.2
883.259	9510.3
883.577	9473.69
883.894	9477.31
884.212	9433.47
884.529	9469.17
884.846	9409.29
885.164	9411.55
885.481	9447.93
885.798	9390.98
886.115	9258.56
886.432	9335.16
886.75	9256.75
887.067	9322.51
887.383	9261.95
887.7	9273.24
888.017	9200.03
888.334	9242.29
888.651	9234.83
888.967	9237.54
889.284	9118.9
889.6	9163.87
889.917	9042.29
890.233	9063.53
890.55	9067.83
890.866	9091.78
891.182	8941.95
891.498	8990.31
891.815	8896.08
892.131	8968.39
892.447	8895.85
892.763	8872.58
893.079	8813.37
893.395	8793.03
893.71	8809.53
894.026	8753.26
894.342	8765.69
894.657	8656.99
894.973	8700.6
895.289	8638.91
895.604	8617.44
895.92	8570.89
896.235	8555.07
896.55	8529.31
896.865	8495.86
897.181	8500.16
897.496	8503.77
897.811	8415.19
898.126	8339.94
898.441	8389.43
898.756	8357.11
899.071	8347.85
899.386	8321.41
899.7	8225.59
900.015	8222.88
900.33	8191.01
900.644	8187.4
900.959	8173.61
901.273	8099.72
901.588	8045.48
901.902	8012.04
902.216	8071.24
902.531	7977.23
902.845	7935.88
903.159	7918.93
903.473	7902.89
903.787	7912.38
904.101	7829.44
904.415	7752.61
904.729	7781.53
905.042	7742.66
905.356	7760.06
905.67	7664.02
905.984	7664.47
906.297	7648.2
906.611	7634.87
906.924	7539.73
907.237	7549.22
907.551	7538.83
907.864	7506.51
908.177	7504.25
908.491	7417.93
908.804	7503.12
909.117	7370.92
909.43	7370.47
909.743	7363.92
910.056	7333.41
910.368	7245.5
910.681	7236.69
910.994	7217.25
911.307	7205.73
911.619	7098.16
911.932	7158.05
912.244	7063.81
912.557	7062.68
912.869	7083.02
913.181	6978.39
913.494	6963.02
913.806	6931.16
914.118	6946.07
914.43	6877.6
914.742	6895.68
915.054	6912.85
915.366	6868.56
915.678	6793.08
915.99	6750.83
916.302	6655.91
916.613	6714.22
916.925	6664.05
917.236	6652.97
917.548	6575.24
917.859	6601.68
918.171	6584.05
918.482	6546.76
918.794	6542.47
919.105	6500.44
919.416	6494.79
919.727	6422.7
920.038	6405.52
920.349	6328.46
920.66	6358.07
920.971	6396.26
921.282	6348.12
921.593	6281.46
921.903	6258.86
922.214	6242.36
922.525	6220.22
922.835	6200.11
923.146	6155.81
923.456	6163.04
923.767	6113.55
924.077	6070.84
924.387	6054.12
924.697	5968.92
925.008	6000.34
925.318	5975.25
925.628	5984.29
925.938	5933.67
926.248	5858.19
926.558	5831.08
926.867	5831.08
927.177	5777.74
927.487	5805.31
927.796	5775.26
928.106	5729.16
928.416	5703.4
928.725	5699.1
929.034	5634.02
929.344	5667.24
929.653	5622.27
929.962	5631.08
930.271	5560.12
930.581	5606.67
930.89	5566.22
931.199	5475.83
931.508	5502.04
931.817	5485.77
932.125	5477.41
932.434	5432.89
932.743	5397.41
933.051	5374.14
933.36	5310.86
933.669	5301.82
933.977	5276.06
934.286	5269.73
934.594	5268.6
934.902	5243.29
935.21	5213.46
935.519	5203.52
935.827	5197.19
936.135	5137.31
936.443	5093.02
936.751	5072.9
937.059	5074.94
937.367	5030.87
937.674	5009.18
937.982	5014.15
938.29	4956.3
938.597	4962.85
938.905	4954.04
939.213	4945.22
939.52	4865.9
939.827	4896.64
940.135	4876.07
940.442	4863.19
940.749	4780.26
941.056	4861.16
941.363	4803.98
941.67	4766.02
941.977	4709.07
942.284	4719.69
942.591	4680.37
942.898	4673.37
943.205	4635.4
943.511	4659.58
943.818	4640.6
944.125	4587.04
944.431	4529.87
944.738	4563.54
945.044	4563.76
945.35	4507.04
945.657	4481.96
945.963	4488.51
946.269	4463.2
946.575	4457.55
946.881	4437.67
947.187	4431.34
947.493	4410.77
947.799	4375.75
948.105	4375.75
948.41	4348.4
948.716	4312.7
949.022	4272.02
949.327	4239.48
949.633	4262.3
949.938	4203.77
950.244	4244.22
950.549	4228.18
950.854	4180.05
951.16	4190.89
951.465	4135.98
951.77	4086.26
952.075	4095.75
952.38	4143.21
952.685	4067.28
952.99	4055.3
953.294	3990.67
953.599	4018.47
953.904	3999.49
954.209	3963.78
954.513	3964.91
954.818	3976.21
955.122	3910.67
955.426	3931.24
955.731	3916.32
956.035	3891.24
956.339	3886.49
956.643	3886.72
956.948	3856.66
957.252	3817.8
957.556	3786.61
957.86	3803.56
958.163	3785.03
958.467	3766.27
958.771	3731.92
959.075	3726.72
959.378	3669.78
959.682	3702.54
959.985	3657.35
960.289	3630.91
960.592	3632.94
960.896	3601.3
961.199	3567.41
961.502	3572.83
961.805	3564.24
962.108	3557.91
962.411	3577.8
962.714	3526.05
963.017	3530.57
963.32	3552.04
963.623	3500.52
963.926	3493.96
964.228	3476.56
964.531	3438.6
964.833	3451.7
965.136	3451.48
965.438	3386.62
965.741	3371.03
966.043	3388.88
966.345	3347.98
966.648	3354.53
966.95	3298.71
967.252	3290.58
967.554	3310.01
967.856	3286.74
968.158	3284.7
968.46	3259.84
968.761	3263.91
969.063	3239.96
969.365	3213.52
969.666	3241.54
969.968	3172.61
970.269	3170.58
970.571	3143.69
970.872	3149.11
971.174	3136.91
971.475	3098.72
971.776	3081.09
972.077	3063.69
972.378	3006.52
972.679	3072.96
972.98	3044.93
973.281	3046.74
973.582	3027.31
973.883	3010.81
974.183	3018.27
974.484	3021.88
974.785	2988.21
975.085	2993.18
975.386	2973.98
975.686	2958.83
975.986	2900.76
976.287	2891.72
976.587	2875.22
976.887	2872.06
977.187	2888.55
977.487	2848.56
977.787	2818.95
978.087	2848.78
978.387	2814.43
978.687	2822.79
978.987	2757.71
979.286	2767.2
979.586	2748.9
979.885	2739.18
980.185	2767.2
980.484	2685.17
980.784	2775.34
981.083	2693.98
981.382	2684.94
981.682	2725.39
981.981	2694.43
982.28	2674.1
982.579	2622.35
982.878	2651.95
983.177	2666.41
983.475	2621.44
983.774	2604.95
984.073	2608.11
984.372	2573.99
984.67	2595
984.969	2561.78
985.267	2527.89
985.566	2531.95
985.864	2501.22
986.162	2508.9
986.461	2504.16
986.759	2528.56
987.057	2494.21
987.355	2468
987.653	2472.97
987.951	2443.82
988.249	2485.4
988.547	2419.19
988.844	2419.19
989.142	2425.52
989.44	2373.99
989.737	2377.61
990.035	2380.77
990.332	2367.66
990.63	2379.41
990.927	2333.77
991.224	2355.01
991.521	2342.13
991.819	2284.5
992.116	2315.91
992.413	2290.83
992.71	2265.97
993.006	2280.21
993.303	2239.53
993.6	2279.76
993.897	2218.52
994.193	2233.43
994.49	2227.33
994.787	2231.4
995.083	2215.35
995.379	2193.88
995.676	2174
995.972	2184.17
996.268	2176.93
996.565	2116.37
996.861	2111.4
997.157	2146.65
997.453	2114.56
997.749	2066.65
998.044	2082.7
998.34	2063.04
998.636	2075.92
998.932	2026.66
999.227	2036.82
999.523	2023.72
999.818	2025.75
1000.114	2018.97
1000.409	2025.3
1000.704	2004.06
1001	1997.96
1001.295	1970.16
1001.59	1984.85
1001.885	1950.5
1002.18	1934.68
1002.475	1937.39
1002.77	1920.44
1003.065	1929.03
1003.359	1925.64
1003.654	1900.78
1003.949	1885.42
1004.243	1877.28
1004.538	1887
1004.832	1845.19
1005.127	1868.02
1005.421	1842.48
1005.715	1839.32
1006.009	1820.56
1006.304	1820.79
1006.598	1787.57
1006.892	1781.69
1007.186	1779.2
1007.48	1764.06
1007.773	1785.08
1008.067	1744.18
1008.361	1732.2
1008.655	1694.46
1008.948	1679.77
1009.242	1690.85
1009.535	1689.04
1009.829	1660.79
1010.122	1669.15
1010.415	1689.94
1010.708	1657.63
1011.001	1629.38
1011.295	1630.06
1011.588	1628.02
1011.881	1605.42
1012.173	1631.41
1012.466	1592.54
1012.759	1605.65
1013.052	1581.02
1013.344	1578.98
1013.637	1584.41
1013.93	1544.63
1014.222	1562.94
1014.514	1531.75
1014.807	1496.5
1015.099	1510.06
1015.391	1520.91
1015.683	1497.86
1015.976	1498.08
1016.268	1475.94
1016.56	1498.08
1016.851	1510.74
1017.143	1446.11
1017.435	1447.01
1017.727	1420.57
1018.018	1417.41
1018.31	1438.87
1018.602	1412.66
1018.893	1393
1019.185	1417.41
1019.476	1403.85
1019.767	1384.19
1020.058	1366.56
1020.35	1358.2
1020.641	1332.89
1020.932	1328.37
1021.223	1339.22
1021.514	1357.52
1021.804	1288.37
1022.095	1318.65
1022.386	1293.12
1022.677	1311.65
1022.967	1310.29
1023.258	1270.74
1023.548	1273
1023.839	1269.39
1024.129	1239.78
1024.419	1256.05
1024.709	1225.09
1025	1211.76
1025.29	1229.16
1025.58	1215.83
1025.87	1209.95
1026.16	1194.14
1026.449	1202.27
1026.739	1172.21
1027.029	1177.41
1027.319	1163.4
1027.608	1155.49
1027.898	1145.32
1028.187	1163.85
1028.477	1139
1028.766	1129.96
1029.055	1106.45
1029.344	1122.27
1029.634	1133.57
1029.923	1106.91
1030.212	1113.23
1030.501	1104.19
1030.79	1095.15
1031.078	1050.18
1031.367	1072.78
1031.656	1056.29
1031.945	1051.77
1032.233	1044.76
1032.522	1065.78
1032.81	1040.24
1033.099	1049.05
1033.387	1025.33
1033.675	1037.98
1033.963	999.56
1034.251	1021.26
1034.54	1005.44
1034.828	1008.83
1035.116	980.13
1035.403	978.77
1035.691	966.57
1035.979	948.04
1036.267	963.41
1036.554	963.86
1036.842	947.59
1037.129	960.24
1037.417	931.54
1037.704	924.31
1037.992	900.13
1038.279	906.69
1038.566	917.76
1038.853	917.76
1039.14	917.76
