Data from blue_clamp_base_FLMS001491_00099.txt Node
Date: Wed Feb 08 15:16:49 GMT 2017
User: dcchb
Spectrometer: FLMS00149
Trigger mode: 0
Integration Time (sec): 2.000000E-2
Scans to average: 10
Electric dark correction enabled: true
Nonlinearity correction enabled: false
Boxcar width: 0
XAxis mode: Wavelengths
Number of Pixels in Spectrum: 2048
>>>>>Begin Spectral Data<<<<<
341.393	8.69
341.776	8.69
342.16	8.69
342.543	-43.29
342.927	-74.02
343.31	-90.75
343.693	-67.7
344.077	-56.62
344.46	-61.37
344.843	-63.4
345.226	-47.13
345.61	-30.86
345.993	-20.92
346.376	-13.46
346.759	28.8
347.142	32.19
347.525	54.56
347.908	55.24
348.291	63.83
348.674	92.98
349.057	124.62
349.44	131.39
349.823	147.21
350.206	151.96
350.588	194.44
350.971	219.08
351.354	209.81
351.737	224.95
352.119	251.62
352.502	262.69
352.884	274.22
353.267	280.32
353.65	309.92
354.032	299.75
354.414	324.38
354.797	322.35
355.179	324.84
355.562	322.8
355.944	321.9
356.326	333.65
356.709	342.46
357.091	333.88
357.473	340.88
357.855	348.56
358.238	367.32
358.62	357.6
359.002	357.15
359.384	350.6
359.766	333.42
360.148	351.73
360.53	343.37
360.912	338.4
361.294	346.98
361.676	340.88
362.057	336.81
362.439	308.34
362.821	342.24
363.203	319.19
363.584	325.06
363.966	337.72
364.348	329.81
364.729	323.25
365.111	334.1
365.493	320.09
365.874	343.82
366.256	329.58
366.637	324.38
367.019	329.36
367.4	336.14
367.781	330.71
368.163	311.05
368.544	314.44
368.925	328.45
369.306	336.14
369.688	328.68
370.069	335.91
370.45	309.24
370.831	321.45
371.212	326.64
371.593	313.54
371.974	311.28
372.355	328.45
372.736	311.05
373.117	319.41
373.498	326.19
373.879	324.16
374.26	330.03
374.641	351.5
375.021	322.35
375.402	348.34
375.783	356.7
376.163	360.54
376.544	337.72
376.925	347.89
377.305	350.6
377.686	341.78
378.066	326.42
378.447	339.98
378.827	353.99
379.208	346.53
379.588	363.03
379.968	368.45
380.349	348.11
380.729	344.27
381.109	355.34
381.489	352.86
381.87	356.02
382.25	369.58
382.63	371.61
383.01	384.95
383.39	366.87
383.77	381.11
384.15	372.97
384.53	381.56
384.91	371.16
385.29	368.9
385.67	389.92
386.049	367.32
386.429	389.24
386.809	389.69
387.189	376.81
387.568	379.3
387.948	395.79
388.328	395.79
388.707	415.91
389.087	396.02
389.466	416.13
389.846	415.91
390.225	422.46
390.605	433.08
390.984	403.25
391.363	419.75
391.743	415.68
392.122	431.5
392.501	438.96
392.881	436.25
393.26	451.84
393.639	450.48
394.018	441.22
394.397	432.18
394.776	465.85
395.155	472.85
395.534	441.44
395.913	476.7
396.292	492.74
396.671	467.66
397.05	487.54
397.429	511.27
397.808	498.39
398.186	492.06
398.565	506.75
398.944	485.06
399.323	505.62
399.701	520.99
400.08	525.28
400.458	523.02
400.837	530.25
401.215	525.28
401.594	544.04
401.972	530.25
402.351	574.32
402.729	528.45
403.107	567.99
403.486	581.55
403.864	568.67
404.242	573.87
404.62	575.68
404.999	586.98
405.377	613.19
405.755	574.32
406.133	616.81
406.511	628.1
406.889	629.01
407.267	635.11
407.645	633.08
408.023	653.19
408.401	658.84
408.779	630.14
409.156	666.3
409.534	674.21
409.912	698.84
410.29	701.32
410.667	708.78
411.045	702.45
411.422	720.98
411.8	716.24
412.178	732.51
412.555	734.77
412.933	761.43
413.31	744.94
413.687	735.22
414.065	770.47
414.442	780.87
414.819	786.29
415.197	786.74
415.574	831.72
415.951	807.08
416.328	816.35
416.705	806.86
417.082	834.88
417.46	861.77
417.837	850.02
418.214	878.95
418.591	856.12
418.967	868.32
419.344	893.86
419.721	872.39
420.098	909.45
420.475	916.68
420.852	909.91
421.228	929.11
421.605	940.19
421.982	932.73
422.358	949.9
422.735	979.96
423.111	963.92
423.488	996.91
423.864	987.64
424.241	995.1
424.617	991.26
424.994	1033.52
425.37	1029.22
425.746	1029.22
426.123	1053.18
426.499	1050.47
426.875	1060.41
427.251	1077.58
427.627	1147.87
428.003	1123.46
428.379	1141.54
428.756	1173.85
429.132	1168.2
429.507	1165.72
429.883	1198.49
430.259	1199.16
430.635	1193.51
431.011	1241.87
431.387	1240.07
431.763	1261.76
432.138	1268.99
432.514	1272.16
432.89	1283.68
433.265	1334.3
433.641	1347.86
434.016	1355.32
434.392	1382.66
434.767	1413.62
435.143	1395.09
435.518	1430.34
435.894	1444.58
436.269	1468.99
436.644	1471.25
437.02	1490.23
437.395	1517.57
437.77	1516.9
438.145	1547.18
438.52	1562.54
438.895	1551.7
439.271	1579.94
439.646	1630.79
440.021	1605.71
440.395	1633.73
440.77	1606.16
441.145	1670.11
441.52	1700.85
441.895	1680.05
442.27	1714.4
442.645	1701.07
443.019	1727.96
443.394	1741.3
443.769	1765.93
444.143	1745.59
444.518	1769.54
444.892	1795.76
445.267	1810.45
445.641	1806.15
446.016	1847.51
446.39	1836.66
446.764	1875.76
447.139	1855.64
447.513	1902.87
447.887	1895.42
448.262	1912.82
448.636	1891.8
449.01	1940.39
449.384	1968.86
449.758	1961.63
450.132	1987.39
450.506	2003.44
450.88	2009.99
451.254	2025.13
451.628	2058.35
452.002	2080.04
452.376	2077.11
452.75	2082.3
453.123	2144.45
453.497	2184
453.871	2178.8
454.244	2214.28
454.618	2228.51
454.992	2239.36
455.365	2247.5
455.739	2318.23
456.112	2332.69
456.486	2322.75
456.859	2380.6
457.232	2436.19
457.606	2412.46
457.979	2434.84
458.352	2456.31
458.725	2519.35
459.099	2540.82
459.472	2582.63
459.845	2577.21
460.218	2604.1
460.591	2621.72
460.964	2659.24
461.337	2700.14
461.71	2754.38
462.083	2752.12
462.456	2776.07
462.829	2791.44
463.201	2845.45
463.574	2796.86
463.947	2844.32
464.32	2947.82
464.692	2934.26
465.065	2990.08
465.438	2997.76
465.81	3039.12
466.183	3091.32
466.555	3107.81
466.928	3135.38
467.3	3169.73
467.672	3149.85
468.045	3281.59
468.417	3270.75
468.789	3295.83
469.161	3264.19
469.534	3345.55
469.906	3420.57
470.278	3462.61
470.65	3446.11
471.022	3582.15
471.394	3581.93
471.766	3649.49
472.138	3663.96
472.51	3705.31
472.882	3796.84
473.253	3793.45
473.625	3817.4
473.997	3892.65
474.369	3881.35
474.74	3984.17
475.112	4022.37
475.484	4079.99
475.855	4171.97
476.227	4167.22
476.598	4277.95
476.97	4287.67
477.341	4378.74
477.713	4453.32
478.084	4439.53
478.455	4489.25
478.827	4591.62
479.198	4683.37
479.569	4669.58
479.94	4807.43
480.311	4832.29
480.682	4929.91
481.053	4986.86
481.424	5026.41
481.795	5050.59
482.166	5094.88
482.537	5201.32
482.908	5270.24
483.279	5324.48
483.65	5403.8
484.021	5455.77
484.391	5481.08
484.762	5525.15
485.133	5572.61
485.503	5652.15
485.874	5739.38
486.244	5774.64
486.615	5861.64
486.985	5882.66
487.356	5997.68
487.726	6020.51
488.097	6084.46
488.467	6063.22
488.837	6195.87
489.207	6228.41
489.578	6291.46
489.948	6352.25
490.318	6428.18
490.688	6406.03
491.058	6487.84
491.428	6558.34
491.798	6628.85
492.168	6672.01
492.538	6715.4
492.908	6730.32
493.278	6794.04
493.648	6795.4
494.017	6869.75
494.387	6893.7
494.757	6969.86
495.126	6928.96
495.496	6982.51
495.866	7011.89
496.235	7070.2
496.605	7051.44
496.974	7088.95
497.344	7134.83
497.713	7136.41
498.082	7240.81
498.452	7226.8
498.821	7246.91
499.19	7253.02
499.559	7250.76
499.928	7288.27
500.298	7358.1
500.667	7406.91
501.036	7337.31
501.405	7413.46
501.774	7502.5
502.143	7457.98
502.512	7449.85
502.88	7482.61
503.249	7525.55
503.618	7552.89
503.987	7520.13
504.356	7610.75
504.724	7596.28
505.093	7617.07
505.462	7643.51
505.83	7633.57
506.199	7667.47
506.567	7761.25
506.936	7716.96
507.304	7820.68
507.672	7822.49
508.041	7857.07
508.409	7855.26
508.777	7943.39
509.145	7937.52
509.514	7914.02
509.882	8018.42
510.25	8014.58
510.618	8029.27
510.986	8031.75
511.354	8124.63
511.722	8109.49
512.09	8213.44
512.458	8181.58
512.826	8241.92
513.193	8294.12
513.561	8155.36
513.929	8288.69
514.297	8339.31
514.664	8353.78
515.032	8403.49
515.4	8420.89
515.767	8492.98
516.135	8465.64
516.502	8412.53
516.869	8549.03
517.237	8559.2
517.604	8485.53
517.972	8542.47
518.339	8639.87
518.706	8624.28
519.073	8634
519.44	8689.59
519.808	8770.04
520.175	8743.15
520.542	8812.75
520.909	8831.73
521.276	8850.04
521.643	8892.75
522.009	8862.24
522.376	8921.67
522.743	8989.02
523.11	9061.78
523.477	9094.1
523.843	9121.44
524.21	9168.67
524.577	9240.99
524.943	9223.13
525.31	9274.21
525.676	9352.17
526.043	9377.03
526.409	9405.95
526.776	9487.98
527.142	9400.53
527.508	9497.02
527.874	9593.07
528.241	9570.47
528.607	9610.24
528.973	9666.29
529.339	9683.91
529.705	9807.98
530.071	9809.56
530.437	9810.01
530.803	9870.35
531.169	9874.64
531.535	9884.58
531.901	9949.44
532.267	9961.87
532.632	9969.33
532.998	10071.92
533.364	10122.77
533.73	10122.54
534.095	10247.06
534.461	10233.05
534.826	10252.94
535.192	10301.97
535.557	10375.42
535.923	10322.54
536.288	10405.02
536.653	10386.27
537.019	10380.16
537.384	10414.51
537.749	10488.86
538.114	10494.06
538.479	10472.82
538.845	10578.58
539.21	10550.56
539.575	10590.78
539.94	10590.33
540.305	10639.59
540.67	10675.98
541.034	10709.2
541.399	10755.75
541.764	10794.17
542.129	10818.35
542.494	10777.89
542.858	10887.5
543.223	10857.67
543.587	10903.99
543.952	10893.15
544.316	10951
544.681	10911.22
545.045	11039.36
545.41	11049.07
545.774	11114.61
546.138	11079.81
546.503	11120.94
546.867	11122.52
547.231	11119.58
547.595	11245.23
547.959	11260.14
548.324	11244.32
548.688	11241.39
549.052	11235.74
549.416	11299.91
549.779	11396.86
550.143	11303.76
550.507	11397.09
550.871	11446.13
551.235	11436.86
551.599	11468.95
551.962	11492.23
552.326	11477.31
552.689	11553.47
553.053	11536.97
553.417	11462.62
553.78	11713.01
554.143	11689.28
554.507	11644.76
554.87	11747.13
555.234	11822.84
555.597	11732.45
555.96	11790.52
556.323	11797.98
556.686	11813.57
557.05	11862.61
557.413	11907.36
557.776	11913.68
558.139	11917.07
558.502	12049.27
558.865	12103.96
559.228	12114.58
559.59	12128.82
559.953	12086.33
560.316	12259.21
560.679	12264.86
561.041	12297.85
561.404	12378.53
561.767	12435.25
562.129	12470.51
562.492	12426.21
562.854	12447.23
563.217	12530.39
563.579	12578.98
563.941	12591.63
564.304	12625.08
564.666	12726.54
565.028	12753.66
565.39	12710.5
565.753	12902.36
566.115	12922.24
566.477	12966.31
566.839	12992.53
567.201	13038.17
567.563	13033.2
567.925	13104.16
568.287	13086.99
568.648	13085.18
569.01	13246.98
569.372	13328.34
569.734	13248.34
570.095	13403.36
570.457	13437.94
570.819	13483.13
571.18	13521.1
571.542	13551.15
571.903	13611.49
572.265	13700.08
572.626	13650.81
572.987	13621.89
573.349	13767.19
573.71	13699.85
574.071	13838.61
574.432	13823.69
574.794	13981.65
575.155	13926.06
575.516	13863.46
575.877	14035.21
576.238	14011.26
576.599	14113.4
576.96	14085.38
577.32	14043.8
577.681	14168.54
578.042	14194.3
578.403	14183.23
578.763	14194.53
579.124	14270.91
579.485	14295.32
579.845	14314.52
580.206	14349.33
580.566	14393.84
580.927	14379.16
581.287	14533.05
581.648	14411.47
582.008	14425.03
582.368	14469.55
582.728	14486.5
583.089	14556.1
583.449	14519.27
583.809	14544.35
584.169	14599.04
584.529	14545.03
584.889	14663.44
585.249	14498.47
585.609	14561.3
585.969	14647.62
586.329	14610.79
586.688	14604.91
587.048	14608.53
587.408	14554.52
587.768	14631.13
588.127	14645.59
588.487	14691.46
588.846	14716.77
589.206	14608.98
589.565	14668.41
589.925	14632.03
590.284	14660.96
590.643	14716.77
591.003	14849.65
591.362	14788.64
591.721	14795.87
592.08	14742.54
592.44	14872.25
592.799	14904.57
593.158	14825.47
593.517	14743.44
593.876	14820.73
594.235	14722.42
594.593	14777.56
594.952	14825.02
595.311	14814.17
595.67	14758.35
596.029	14911.57
596.387	14975.3
596.746	14957.45
597.104	14881.29
597.463	14851.46
597.822	14932.59
598.18	14938.24
598.538	14893.94
598.897	15023.88
599.255	14931.23
599.613	15039.93
599.972	14971.68
600.33	15169.19
600.688	14952.02
601.046	15069.99
601.404	15043.55
601.762	15093.94
602.12	15136.65
602.478	15084.45
602.836	15106.59
603.194	15095.07
603.552	15160.38
603.91	15073.6
604.268	15085.35
604.625	15160.38
604.983	15196.76
605.341	15070.66
605.698	15178.68
606.056	15266.36
606.413	15222.07
606.771	15158.8
607.128	15249.42
607.485	15169.19
607.843	15220.94
608.2	15338.45
608.557	15336.19
608.914	15262.97
609.272	15386.59
609.629	15391.11
609.986	15490.31
610.343	15347.04
610.7	15438.56
611.057	15457.09
611.414	15458
611.771	15457.09
612.127	15411.22
612.484	15505.45
612.841	15522.85
613.198	15435.63
613.554	15608.73
613.911	15548.39
614.267	15564.66
614.624	15644.66
614.98	15627.71
615.337	15668.16
615.693	15638.11
616.05	15598.11
616.406	15747.48
616.762	15674.04
617.118	15684.21
617.475	15741.15
617.831	15813.24
618.187	15756.07
618.543	15719.23
618.899	15818.89
619.255	15861.38
619.611	15845.78
619.967	15883.07
620.323	15886.46
620.678	15882.17
621.034	15855.28
621.39	15867.7
621.746	15874.48
622.101	16024.54
622.457	15908.38
622.812	15920.58
623.168	16020.69
623.523	16035.84
623.879	16021.37
624.234	15946.8
624.589	16068.83
624.945	15961.71
625.3	16057.3
625.655	16092.56
626.01	16069.96
626.365	16149.73
626.72	16130.3
627.075	16168.04
627.43	16098.43
627.785	16053.69
628.14	16163.74
628.495	16126.68
628.85	16133.91
629.205	16151.09
629.559	16183.85
629.914	16101.82
630.269	16202.38
630.623	16151.76
630.978	16241.03
631.332	16281.48
631.687	16296.85
632.041	16253.68
632.396	16255.72
632.75	16138.21
633.104	16272.67
633.459	16257.75
633.813	16214.36
634.167	16194.02
634.521	16238.32
634.875	16300.01
635.229	16237.86
635.583	16149.28
635.937	16310.63
636.291	16254.59
636.645	16291.65
636.999	16303.17
637.352	16294.36
637.706	16228.6
638.06	16250.07
638.413	16293.68
638.767	16312.66
639.121	16384.98
639.474	16255.72
639.828	16300.91
640.181	16277.86
640.534	16428.82
640.888	16339.33
641.241	16254.59
641.594	16344.08
641.947	16369.61
642.301	16331.19
642.654	16410.51
643.007	16340.23
643.36	16397.18
643.713	16373.91
644.066	16400.35
644.419	16408.03
644.771	16262.72
645.124	16137.3
645.477	16096.85
645.83	15925.56
646.182	15918.32
646.535	15994.03
646.888	16139.34
647.24	16048.72
647.593	16181.14
647.945	16147.7
648.298	16102.5
648.65	16094.36
649.002	16076.51
649.355	16162.84
649.707	16060.47
650.059	16108.15
650.411	16395.83
650.763	16389.95
651.115	16602.37
651.467	16604.18
651.819	16599.21
652.171	16692.77
652.523	16556.73
652.875	16624.97
653.227	16568.7
653.578	16676.5
653.93	16731.41
654.282	16513.11
654.633	16606.44
654.985	16687.12
655.337	16775.93
655.688	16616.61
656.039	16797.17
656.391	16707.23
656.742	16695.25
657.094	16706.55
657.445	16768.25
657.796	16764.18
658.147	16773.44
658.498	16716.27
658.849	16815.48
659.2	16680.56
659.551	16833.33
659.902	16782.26
660.253	16831.97
660.604	16780.45
660.955	16686.21
661.306	16815.25
661.656	16809.6
662.007	16852.31
662.358	16892.08
662.708	16746.55
663.059	16903.16
663.409	16716.04
663.76	16855.7
664.11	16899.77
664.461	16901.12
664.811	16875.59
665.161	16850.05
665.511	16853.89
665.862	16777.74
666.212	16892.54
666.562	16886.43
666.912	16795.14
667.262	16840.56
667.612	16881.91
667.962	16840.56
668.312	16826.55
668.662	16902.71
669.011	16829.26
669.361	16862.93
669.711	16767.57
670.06	16778.19
670.41	16608.48
670.76	16674.01
671.109	16684.86
671.459	16612.09
671.808	16623.39
672.157	16605.31
672.507	16487.12
672.856	16535.94
673.205	16500.46
673.554	16533.9
673.904	16432.44
674.253	16509.72
674.602	16518.08
674.951	16325.77
675.3	16176.17
675.649	16410.97
675.998	16319.44
676.346	16291.42
676.695	16332.55
677.044	16192.67
677.393	16347.01
677.741	16335.26
678.09	16225.89
678.438	16159.9
678.787	16139.79
679.135	16142.73
679.484	16080.81
679.832	16072.67
680.181	16038.1
680.529	16018.66
680.877	16003.52
681.225	15933.24
681.573	16017.53
681.922	15879.46
682.27	15899.12
682.618	15837.65
682.966	15807.82
683.314	15839.46
683.661	15776.63
684.009	15690.31
684.357	15651.21
684.705	15617.32
685.053	15653.7
685.4	15630.65
685.748	15546.36
686.095	15563.31
686.443	15436.98
686.79	15533.93
687.138	15409.64
687.485	15455.06
687.832	15422.97
688.18	15468.17
688.527	15374.38
688.874	15344.1
689.221	15385.91
689.568	15256.19
689.915	15224.11
690.262	15325.57
690.609	15156.31
690.956	15232.47
691.303	15167.38
691.65	15076.09
691.997	15204.22
692.344	15063.21
692.69	14987.5
693.037	15108.4
693.383	14954.96
693.73	14996.99
694.077	14985.47
694.423	14927.62
694.769	14832.48
695.116	14862.31
695.462	14882.87
695.808	14792.48
696.155	14846.71
696.501	14727.4
696.847	14799.94
697.193	14704.8
697.539	14745.47
697.885	14672.71
698.231	14610.11
698.577	14618.47
698.923	14683.33
699.269	14633.39
699.614	14542.54
699.96	14486.95
700.306	14479.04
700.651	14513.84
700.997	14340.96
701.342	14424.35
701.688	14366.5
702.033	14500.96
702.379	14411.7
702.724	14329.21
703.069	14361.08
703.415	14265.49
703.76	14269.55
704.105	14259.84
704.45	14309.33
704.795	14191.14
705.14	14151.82
705.485	14236.56
705.83	14162.89
706.175	14153.17
706.52	14136.22
706.865	14105.94
707.209	14120.63
707.554	13973.06
707.899	14158.82
708.243	14030.92
708.588	14029.33
708.932	13985.49
709.277	14074.53
709.621	13961.09
709.966	13930.81
710.31	13979.84
710.654	13837.48
710.998	13940.98
711.342	13914.08
711.687	14022.1
712.031	13792.5
712.375	13857.81
712.719	13882.45
713.063	13812.84
713.407	13900.75
713.75	13776.69
714.094	13841.77
714.438	13800.19
714.782	13856.23
715.125	13783.47
715.469	13849.9
715.812	13774.2
716.156	13738.49
716.499	13734.88
716.843	13744.37
717.186	13610.81
717.53	13754.09
717.873	13794.99
718.216	13761.54
718.559	13679.74
718.902	13655.79
719.246	13590.25
719.589	13536.01
719.932	13543.7
720.275	13616.69
720.617	13576.47
720.96	13580.08
721.303	13546.18
721.646	13602.68
721.989	13539.63
722.331	13514.55
722.674	13542.57
723.016	13570.14
723.359	13554.54
723.701	13556.8
724.044	13489.46
724.386	13494.66
724.729	13503.02
725.071	13421.67
725.413	13543.92
725.755	13496.69
726.097	13475
726.439	13367.66
726.782	13416.02
727.124	13439.97
727.465	13462.12
727.807	13428.45
728.149	13422.57
728.491	13393.19
728.833	13488.78
729.175	13415.11
729.516	13430.71
729.858	13463.93
730.199	13407.88
730.541	13439.75
730.882	13452.4
731.224	13478.61
731.565	13420.31
731.906	13406.75
732.248	13500.99
732.589	13390.71
732.93	13454.43
733.271	13367.21
733.612	13497.37
733.953	13455.34
734.294	13439.29
734.635	13451.95
734.976	13473.87
735.317	13437.94
735.658	13476.81
735.999	13500.76
736.339	13470.93
736.68	13517.94
737.021	13469.8
737.361	13569.69
737.702	13655.56
738.042	13515.45
738.383	13632.73
738.723	13662.56
739.063	13642.45
739.404	13731.94
739.744	13626.41
740.084	13625.05
740.424	13719.06
740.764	13694.43
741.104	13792.96
741.444	13773.07
741.784	13752.96
742.124	13739.85
742.464	13745.95
742.804	13780.75
743.143	13850.81
743.483	13874.08
743.823	13828.66
744.162	13857.59
744.502	14008.77
744.841	13904.82
745.181	14030.46
745.52	13971.03
745.86	14063.91
746.199	13996.57
746.538	14037.02
746.877	14050.35
747.216	14118.82
747.556	14106.85
747.895	14220.74
748.234	14181.42
748.573	14187.3
748.911	14307.52
749.25	14219.39
749.589	14258.26
749.928	14347.97
750.267	14389.78
750.605	14387.07
750.944	14410.57
751.283	14437.46
751.621	14446.05
751.96	14383.22
752.298	14537.57
752.636	14538.02
752.975	14454.86
753.313	14430.68
753.651	14519.27
753.989	14572.15
754.327	14599.26
754.666	14487.85
755.004	14737.34
755.342	14703.22
755.679	14679.94
756.017	14641.75
756.355	14734.4
756.693	14760.61
757.031	14768.3
757.368	14734.63
757.706	14769.2
758.044	14813.95
758.381	14848.97
758.719	14773.04
759.056	14858.47
759.394	14908.18
759.731	14913.15
760.068	14926.26
760.405	14921.74
760.743	14812.82
761.08	14992.25
761.417	14978.69
761.754	14992.02
762.091	14927.62
762.428	14973.26
762.765	14957.22
763.102	15057.1
763.438	15051.45
763.775	15009.2
764.112	15029.31
764.449	15045.8
764.785	15079.02
765.122	15001.96
765.458	15007.39
765.795	15039.48
766.131	14986.37
766.467	15102.53
766.804	15016.43
767.14	15028.63
767.476	15032.7
767.812	14938.69
768.148	15095.52
768.485	15022.75
768.821	15033.15
769.157	14998.12
769.492	15012.36
769.828	15017.33
770.164	14921.06
770.5	14867.5
770.836	15033.6
771.171	14954.51
771.507	14992.7
771.842	15025.24
772.178	14954.73
772.513	15055.07
772.849	14945.02
773.184	14891.46
773.519	14947.95
773.855	14928.97
774.19	14946.37
774.525	14891.46
774.86	14983.21
775.195	14947.73
775.53	14921.06
775.865	14802.65
776.2	14839.26
776.535	14740.5
776.87	14768.3
777.205	14756.55
777.539	14752.25
777.874	14793.83
778.209	14797.22
778.543	14794.06
778.878	14666.61
779.212	14743.21
779.547	14666.83
779.881	14738.92
780.215	14676.78
780.55	14798.13
780.884	14660.73
781.218	14647.85
781.552	14663.67
781.886	14651.24
782.22	14548.19
782.554	14619.15
782.888	14527.17
783.222	14509.1
783.556	14445.14
783.889	14409.21
784.223	14360.63
784.557	14399.04
784.89	14524.24
785.224	14409.21
785.557	14439.72
785.891	14412.83
786.224	14345.94
786.558	14388.42
786.891	14274.53
787.224	14234.07
787.557	14231.36
787.891	14269.1
788.224	14279.72
788.557	14308.2
788.89	14283.11
789.223	14203.79
789.556	14246.96
789.888	14110.91
790.221	14066.17
790.554	14094.64
790.887	14160.4
791.219	14094.87
791.552	14033.18
791.884	13999.05
792.217	13969
792.549	13985.72
792.882	13916.8
793.214	13907.08
793.546	13914.54
793.879	13874.99
794.211	13841.32
794.543	13853.29
794.875	13799.51
795.207	13925.83
795.539	13880.19
795.871	13815.55
796.203	13735.56
796.535	13788.44
796.867	13693.75
797.198	13684.03
797.53	13727.2
797.862	13592.28
798.193	13608.78
798.525	13563.58
798.856	13625.28
799.188	13535.79
799.519	13489.01
799.85	13502.79
800.182	13515
800.513	13518.61
800.844	13353.42
801.175	13446.52
801.506	13472.74
801.837	13530.59
802.168	13417.37
802.499	13284.04
802.83	13258.06
803.161	13266.19
803.491	13275
803.822	13304.83
804.153	13291.95
804.483	13155.23
804.814	13153.2
805.145	13224.61
805.475	13188
805.805	13109.58
806.136	13059.87
806.466	13143.71
806.796	13091.51
807.126	13024.62
807.457	12981.68
807.787	12967.44
808.117	12990.49
808.447	12940.32
808.777	12981
809.107	12947.33
809.436	12868.01
809.766	12894.22
810.096	12833.43
810.426	12857.16
810.755	12894.45
811.085	12755.92
811.414	12775.13
811.744	12704.17
812.073	12707.11
812.403	12631.86
812.732	12669.14
813.061	12694.45
813.39	12635.7
813.719	12573.55
814.049	12599.32
814.378	12539.2
814.707	12538.53
815.036	12620.33
815.365	12495.59
815.693	12360.45
816.022	12489.94
816.351	12403.39
816.68	12259.89
817.008	12399.55
817.337	12304.63
817.665	12264.41
817.994	12305.31
818.322	12259.21
818.651	12207.69
818.979	12199.33
819.307	12251.3
819.636	12214.24
819.964	12121.81
820.292	12231.87
820.62	12174.69
820.948	12080.23
821.276	12264.64
821.604	12139.89
821.932	12144.86
822.259	12203.62
822.587	12200.46
822.915	12175.82
823.243	12272.32
823.57	12125.2
823.898	12210.85
824.225	12136.95
824.553	12134.92
824.88	12203.39
825.207	12185.99
825.535	12117.75
825.862	12171.08
826.189	12171.53
826.516	12263.73
826.843	12286.33
827.17	12261.92
827.497	12226.44
827.824	12258.76
828.151	12324.97
828.478	12232.09
828.805	12404.97
829.131	12226.44
829.458	12347.57
829.785	12166.78
830.111	12280.91
830.438	12311.41
830.764	12290.85
831.09	12288.14
831.417	12254.69
831.743	12307.57
832.069	12250.17
832.395	12206.33
832.722	12286.1
833.048	12294.01
833.374	12255.37
833.7	12293.79
834.026	12269.38
834.351	12231.42
834.677	12251.53
835.003	12244.07
835.329	12156.16
835.654	12239.78
835.98	12210.85
836.306	12172.21
836.631	12195.48
836.956	12241.81
837.282	12193.68
837.607	12124.75
837.932	12109.61
838.258	12108.48
838.583	12124.53
838.908	12061.93
839.233	12105.32
839.558	12062.38
839.883	12009.27
840.208	12027.58
840.533	12011.53
840.858	12022.16
841.182	12014.7
841.507	11992.33
841.832	11952.78
842.156	11922.72
842.481	11925.21
842.805	11854.02
843.13	11776.96
843.454	11892.67
843.778	11758.66
844.103	11741.71
844.427	11757.08
844.751	11752.11
845.075	11715.5
845.399	11734.48
845.723	11618.78
846.047	11687.02
846.371	11550.3
846.695	11543.75
847.019	11446.13
847.343	11493.36
847.666	11407.26
847.99	11378.78
848.313	11381.49
848.637	11360.7
848.96	11267.6
849.284	11261.27
849.607	11160.03
849.931	11196.64
850.254	11091.33
850.577	11030.09
850.9	10955.52
851.223	10991.67
851.546	10900.83
851.869	10863.54
852.192	10922.98
852.515	10772.92
852.838	10726.82
853.161	10755.3
853.483	10665.13
853.806	10606.6
854.129	10699.7
854.451	10545.13
854.774	10565.02
855.096	10481.41
855.419	10530.9
855.741	10487.73
856.063	10419.94
856.385	10406.83
856.708	10318.7
857.03	10331.35
857.352	10289.32
857.674	10315.31
857.996	10273.73
858.318	10156.67
858.64	10233.28
858.961	10125.03
859.283	10085.48
859.605	10046.16
859.926	10083.9
860.248	10165.93
860.57	10096.1
860.891	10087.29
861.212	10000.06
861.534	9974.98
861.855	9922.78
862.176	9957.13
862.498	9908.09
862.819	9933.17
863.14	9916.45
863.461	9843.91
863.782	9837.81
864.103	9932.72
864.424	9804.36
864.745	9831.25
865.065	9778.82
865.386	9800.52
865.707	9751.71
866.027	9746.96
866.348	9719.62
866.668	9685.95
866.989	9743.8
867.309	9633.97
867.63	9669.9
867.95	9621.99
868.27	9586.06
868.59	9637.13
868.91	9681.88
869.23	9637.59
869.55	9528.66
869.87	9667.42
870.19	9580.19
870.51	9614.54
870.83	9642.56
871.15	9506.52
871.469	9486.86
871.789	9514.88
872.109	9487.31
872.428	9424.94
872.748	9512.39
873.067	9504.03
873.386	9415.67
873.706	9424.94
874.025	9372.73
874.344	9358.95
874.663	9406.41
874.982	9366.63
875.301	9365.95
875.62	9276.24
875.939	9325.96
876.258	9376.35
876.577	9289.12
876.896	9334.77
877.214	9217.71
877.533	9227.65
877.852	9267.43
878.17	9213.19
878.489	9165.96
878.807	9197.15
879.125	9175.9
879.444	9190.59
879.762	9135.23
880.08	9203.7
880.398	9054.32
880.716	9098.62
881.034	9101.33
881.352	9099.52
881.67	9045.96
881.988	9039.41
882.306	9012.74
882.624	9039.18
882.941	8973.2
883.259	8878.74
883.577	8925.06
883.894	8903.37
884.212	8920.77
884.529	8905.85
884.846	8902.24
885.164	8842.13
885.481	8778.17
885.798	8848.23
886.115	8785.86
886.432	8816.14
886.75	8723.71
887.067	8765.52
887.383	8690.49
887.7	8723.26
888.017	8690.49
888.334	8728.23
888.651	8575.24
888.967	8627.44
889.284	8523.94
889.6	8544.73
889.917	8492.08
890.233	8486.66
890.55	8480.78
890.866	8518.29
891.182	8377.05
891.498	8464.51
891.815	8440.55
892.131	8415.02
892.447	8385.42
892.763	8316.72
893.079	8366.88
893.395	8321.01
893.71	8202.37
894.026	8307
894.342	8188.58
894.657	8202.14
894.973	8142.48
895.289	8122.82
895.604	8125.53
895.92	8036.5
896.235	7973.45
896.55	8113.33
896.865	7990.4
897.181	7955.6
897.496	7984.07
897.811	7909.72
898.126	7913.56
898.441	7859.1
898.756	7866.33
899.071	7841.93
899.386	7837.86
899.7	7752.89
900.015	7693
900.33	7670.86
900.644	7566.68
900.959	7640.58
901.273	7638.09
901.588	7594.48
901.902	7506.57
902.216	7513.57
902.531	7566.91
902.845	7506.79
903.159	7502.27
903.473	7398.55
903.787	7479.45
904.101	7401.03
904.415	7359.68
904.729	7323.3
905.042	7250.3
905.356	7298.89
905.67	7227.71
905.984	7302.51
906.297	7220.02
906.611	7168.05
906.924	7179.12
907.237	7153.81
907.551	7083.08
907.864	7109.29
908.177	7016.41
908.491	7034.04
908.804	6972.12
909.117	6927.83
909.43	6910.88
909.743	6945
910.056	6862.52
910.368	6912.46
910.681	6815.74
910.994	6787.04
911.307	6751.33
911.619	6755.18
911.932	6722.18
912.244	6657.1
912.557	6611
912.869	6662.97
913.181	6567.61
913.494	6640.15
913.806	6589.53
914.118	6498.01
914.43	6512.24
914.742	6513.83
915.054	6518.57
915.366	6446.48
915.678	6454.17
915.99	6367.16
916.302	6384.11
916.613	6311.57
916.925	6289.2
917.236	6314.51
917.548	6231.57
917.859	6239.26
918.171	6189.31
918.482	6184.57
918.794	6159.03
919.105	6182.99
919.416	6142.54
919.727	6083.33
920.038	6099.15
920.349	6037
920.66	5958.81
920.971	5983.44
921.282	5982.09
921.593	5938.93
921.903	5909.55
922.214	5868.87
922.525	5830.23
922.835	5830.23
923.146	5789.55
923.456	5801.08
923.767	5705.71
924.077	5741.19
924.387	5729.89
924.697	5644.24
925.008	5635.43
925.318	5650.35
925.628	5557.47
925.938	5597.47
926.248	5541.87
926.558	5539.39
926.867	5486.96
927.177	5479.73
927.487	5462.1
927.796	5384.14
928.106	5408.32
928.416	5376.45
928.725	5405.15
929.034	5328.77
929.344	5334.65
929.653	5339.17
929.962	5278.6
930.271	5298.94
930.581	5213.52
930.89	5192.96
931.199	5185.05
931.508	5179.85
931.817	5184.37
932.125	5121.09
932.434	5126.52
932.743	5121.09
933.051	5056.46
933.36	5062.79
933.669	5035.45
933.977	4995.22
934.286	5007.2
934.594	4986.18
934.902	4906.41
935.21	4900.31
935.519	4864.15
935.827	4853.53
936.135	4837.94
936.443	4821.44
936.751	4831.84
937.059	4807.88
937.367	4739.64
937.674	4732.18
937.982	4725.62
938.29	4710.48
938.597	4740.54
938.905	4619.64
939.213	4606.31
939.52	4660.99
939.827	4604.95
940.135	4583.26
940.442	4552.75
940.749	4504.39
941.056	4551.17
941.363	4538.51
941.67	4526.99
941.977	4503.94
942.284	4448.12
942.591	4468.46
942.898	4428.23
943.205	4441.11
943.511	4404.73
943.818	4437.04
944.125	4347.78
944.431	4321.34
944.738	4341.91
945.044	4335.35
945.35	4294.68
945.657	4282.47
945.963	4287.9
946.269	4269.59
946.575	4211.06
946.881	4196.37
947.187	4202.02
947.493	4150.5
947.799	4121.35
948.105	4138.75
948.41	4064.85
948.716	4077.28
949.022	4063.04
949.327	4042.48
949.633	4067.79
949.938	4013.55
950.244	3990.73
950.549	4023.5
950.854	3972.88
951.16	3959.77
951.465	3928.58
951.77	3924.06
952.075	3886.78
952.38	3854.91
952.685	3901.69
952.99	3881.58
953.294	3874.12
953.599	3816.5
953.904	3778.98
954.209	3779.66
954.513	3760.23
954.818	3786.89
955.122	3739.66
955.426	3744.18
955.731	3705.76
956.035	3697.18
956.339	3690.62
956.643	3698.53
956.948	3629.83
957.252	3616.05
957.556	3616.05
957.86	3601.81
958.163	3574.92
958.467	3559.55
958.771	3548.93
959.075	3534.7
959.378	3529.95
959.682	3519.1
959.985	3491.08
960.289	3448.6
960.592	3477.3
960.896	3455.15
961.199	3447.24
961.502	3413.79
961.805	3399.78
962.108	3421.93
962.411	3366.79
962.714	3365.66
963.017	3363.63
963.32	3351.2
963.623	3320.01
963.926	3262.16
964.228	3273.23
964.531	3280.69
964.833	3259.45
965.136	3216.51
965.438	3246.34
965.741	3234.14
966.043	3212.22
966.345	3215.61
966.648	3209.51
966.95	3149.17
967.252	3182.39
967.554	3136.74
967.856	3128.83
968.158	3101.94
968.46	3087.93
968.761	3099
969.063	3051.09
969.365	3067.59
969.666	3052.45
969.968	3056.29
970.269	2996.4
970.571	3007.93
970.872	3012
971.174	2941.72
971.475	2969.29
971.776	2978.55
972.077	2944.88
972.378	2908.72
972.679	2899.91
972.98	2920.93
973.281	2857.88
973.582	2870.08
973.883	2868.72
974.183	2849.06
974.484	2799.35
974.785	2819.23
975.085	2826.92
975.386	2770.87
975.686	2796.86
975.986	2767.71
976.287	2753.7
976.587	2749.41
976.887	2752.57
977.187	2717.77
977.487	2728.84
977.787	2727.94
978.087	2709.18
978.387	2674.15
978.687	2692.68
978.987	2633.93
979.286	2688.16
979.586	2662.4
979.885	2590.31
980.185	2580.14
980.484	2599.8
980.784	2608.39
981.083	2615.17
981.382	2552.35
981.682	2589.18
981.981	2558.9
982.28	2549.18
982.579	2520.03
982.878	2513.71
983.177	2514.16
983.475	2496.3
983.774	2495.4
984.073	2488.17
984.372	2456.98
984.67	2463.54
984.969	2440.49
985.267	2421.5
985.566	2439.36
985.864	2410.66
986.162	2396.19
986.461	2384.22
986.759	2390.77
987.057	2365.23
987.355	2360.04
987.653	2358
987.951	2362.3
988.249	2355.74
988.547	2322.3
988.844	2298.12
989.142	2306.25
989.44	2272.81
989.737	2307.38
990.035	2268.97
990.332	2207.95
990.63	2257.67
990.927	2224.45
991.224	2219.7
991.521	2214.28
991.819	2180.83
992.116	2198.46
992.413	2164.34
992.71	2183.32
993.006	2153.94
993.303	2152.13
993.6	2154.17
993.897	2145.58
994.193	2154.17
994.49	2126.6
994.787	2113.94
995.083	2069.87
995.379	2093.38
995.676	2088.18
995.972	2061.51
996.268	2038.01
996.565	2026.71
996.861	2057.45
997.157	2021.97
997.453	2037.11
997.749	2010.22
998.044	1996.2
998.34	1961.18
998.636	2000.27
998.932	2002.31
999.227	1974.28
999.523	1982.87
999.818	1953.27
1000.114	1961.18
1000.409	1900.16
1000.704	1911.01
1001	1887.28
1001.295	1906.72
1001.59	1888.41
1001.885	1891.57
1002.18	1856.1
1002.475	1855.87
1002.77	1822.42
1003.065	1819.94
1003.359	1841.18
1003.654	1821.07
1003.949	1801.86
1004.243	1807.96
1004.538	1757.57
1004.832	1784.23
1005.127	1777
1005.421	1748.75
1005.715	1742.2
1006.009	1722.09
1006.304	1719.83
1006.598	1711.01
1006.892	1686.16
1007.186	1725.25
1007.48	1686.83
1007.773	1677.34
1008.067	1679.38
1008.361	1642.99
1008.655	1646.84
1008.948	1624.24
1009.242	1625.59
1009.535	1614.75
1009.829	1607.74
1010.122	1597.12
1010.415	1594.86
1010.708	1556.67
1011.001	1563.45
1011.295	1578.14
1011.588	1559.38
1011.881	1547.18
1012.173	1565.03
1012.466	1546.27
1012.759	1541.08
1013.052	1528.42
1013.344	1504.24
1013.637	1520.74
1013.93	1496.1
1014.222	1485.71
1014.514	1478.93
1014.807	1452.04
1015.099	1477.57
1015.391	1443
1015.683	1453.17
1015.976	1435.32
1016.268	1435.99
1016.56	1420.4
1016.851	1423.56
1017.143	1405.49
1017.435	1400.29
1017.727	1385.15
1018.018	1363.9
1018.31	1358.93
1018.602	1363.9
1018.893	1342.66
1019.185	1330.23
1019.476	1337.69
1019.767	1327.75
1020.058	1313.28
1020.35	1313.51
1020.641	1322.32
1020.932	1295.88
1021.223	1262.44
1021.514	1287.07
1021.804	1238.48
1022.095	1254.76
1022.386	1263.79
1022.677	1219.95
1022.967	1210.46
1023.258	1214.3
1023.548	1214.08
1023.839	1197.36
1024.129	1199.39
1024.419	1196.68
1024.709	1203.68
1025	1168.66
1025.29	1188.54
1025.58	1166.62
1025.87	1140.18
1026.16	1173.18
1026.449	1189.67
1026.739	1146.28
1027.029	1137.47
1027.319	1101.99
1027.608	1079.62
1027.898	1102.22
1028.187	1115.78
1028.477	1090.47
1028.766	1079.84
1029.055	1064.25
1029.344	1084.14
1029.634	1049.11
1029.923	1076.45
1030.212	1062.9
1030.501	1019.96
1030.79	1026.06
1031.078	1028.55
1031.367	1029.9
1031.656	1010.92
1031.945	1020.41
1032.233	1003.69
1032.522	999.17
1032.81	1001.88
1033.099	979.51
1033.387	976.12
1033.675	989.68
1033.963	980.41
1034.251	962.11
1034.54	966.85
1034.828	959.4
1035.116	939.28
1035.403	969.79
1035.691	939.51
1035.979	923.69
1036.267	937.7
1036.554	914.65
1036.842	904.48
1037.129	925.72
1037.417	897.02
1037.704	882.11
1037.992	890.02
1038.279	867.65
1038.566	884.37
1038.853	884.37
1039.14	884.37
