Data from blue_chair_FLMS001491_00095.txt Node
Date: Wed Feb 08 10:32:19 GMT 2017
User: dcchb
Spectrometer: FLMS00149
Trigger mode: 0
Integration Time (sec): 2.000000E-2
Scans to average: 10
Electric dark correction enabled: true
Nonlinearity correction enabled: false
Boxcar width: 0
XAxis mode: Wavelengths
Number of Pixels in Spectrum: 2048
>>>>>Begin Spectral Data<<<<<
341.393	-7.33
341.776	-7.33
342.16	-7.33
342.543	-58.85
342.927	-73.09
343.31	-66.76
343.693	-72.19
344.077	-68.12
344.46	-55.69
344.843	-50.27
345.226	-45.52
345.61	-24.73
345.993	-16.14
346.376	-0.32
346.759	16.85
347.142	19.34
347.525	35.83
347.908	63.85
348.291	71.09
348.674	79.45
349.057	113.34
349.44	110.63
349.823	130.07
350.206	157.41
350.588	168.48
350.971	190.4
351.354	193.34
351.737	199.67
352.119	220.01
352.502	245.09
352.884	251.19
353.267	229.95
353.65	262.72
354.032	257.52
354.414	263.4
354.797	307.46
355.179	270.4
355.562	294.58
355.944	304.75
356.326	291.19
356.709	285.09
357.091	306.79
357.473	310.4
357.855	304.98
358.238	314.24
358.62	309.05
359.002	313.79
359.384	314.02
359.766	315.83
360.148	310.63
360.53	313.57
360.912	312.66
361.294	302.04
361.676	291.19
362.057	293.9
362.439	289.39
362.821	302.49
363.203	289.84
363.584	312.66
363.966	288.03
364.348	295.26
364.729	281.25
365.111	293.45
365.493	286.9
365.874	297.75
366.256	291.64
366.637	299.1
367.019	286.67
367.4	294.13
367.781	286
368.163	274.47
368.544	285.77
368.925	279.89
369.306	300.23
369.688	260.46
370.069	284.19
370.45	286.9
370.831	282.61
371.212	273.57
371.593	288.48
371.974	300.01
372.355	257.3
372.736	285.77
373.117	294.13
373.498	288.93
373.879	292.77
374.26	289.61
374.641	270.4
375.021	292.55
375.402	281.02
375.783	277.86
376.163	290.29
376.544	268.14
376.925	275.15
377.305	279.22
377.686	314.7
378.066	290.29
378.447	296.84
378.827	310.4
379.208	279.44
379.588	300.01
379.968	285.54
380.349	288.26
380.729	276.73
381.109	283.96
381.489	285.32
381.87	287.58
382.25	306.79
382.63	302.94
383.01	300.68
383.39	288.26
383.77	300.68
384.15	295.49
384.53	296.62
384.91	315.83
385.29	304.3
385.67	293.68
386.049	303.85
386.429	299.1
386.809	284.41
387.189	295.94
387.568	311.53
387.948	306.11
388.328	309.27
388.707	305.43
389.087	303.17
389.466	326.22
389.846	320.8
390.225	298.88
390.605	302.72
390.984	326.45
391.363	303.85
391.743	307.46
392.122	317.41
392.501	304.53
392.881	322.15
393.26	334.81
393.639	312.66
394.018	292.32
394.397	323.06
394.776	325.32
395.155	303.62
395.534	319.44
395.913	319.44
396.292	302.04
396.671	331.64
397.05	323.96
397.429	304.53
397.808	337.07
398.186	321.47
398.565	342.94
398.944	319.21
399.323	308.59
399.701	329.61
400.08	309.5
400.458	329.61
400.837	333
401.215	337.07
401.594	337.97
401.972	344.52
402.351	328.71
402.729	330.51
403.107	357.18
403.486	347.24
403.864	342.72
404.242	357.63
404.62	357.86
404.999	351.3
405.377	354.02
405.755	349.72
406.133	352.21
406.511	360.12
406.889	345.43
407.267	369.61
407.645	364.19
408.023	360.57
408.401	358.76
408.779	351.08
409.156	386.33
409.534	365.77
409.912	370.96
410.29	376.84
410.667	364.64
411.045	369.61
411.422	392.43
411.8	375.71
412.178	387.46
412.555	384.3
412.933	391.3
413.31	385.2
413.687	383.39
414.065	399.66
414.442	393.34
414.819	376.39
415.197	404.41
415.574	389.5
415.951	391.53
416.328	410.29
416.705	399.66
417.082	410.96
417.46	433.56
417.837	419.33
418.214	403.73
418.591	397.86
418.967	399.89
419.344	407.8
419.721	408.03
420.098	402.6
420.475	397.63
420.852	430.85
421.228	408.93
421.605	413.68
421.982	418.2
422.358	427.46
422.735	436.27
423.111	437.4
423.488	424.75
423.864	458.65
424.241	455.48
424.617	447.57
424.994	468.59
425.37	433.56
425.746	458.65
426.123	450.96
426.499	443.05
426.875	453.45
427.251	459.32
427.627	458.87
428.003	470.4
428.379	470.62
428.756	480.34
429.132	483.96
429.507	479.21
429.883	494.35
430.259	509.04
430.635	489.15
431.011	491.87
431.387	502.94
431.763	479.66
432.138	494.8
432.514	523.05
432.89	524.63
433.265	525.31
433.641	525.99
434.016	538.19
434.392	536.16
434.767	560.56
435.143	536.84
435.518	536.84
435.894	568.7
436.269	554.91
436.644	579.09
437.02	583.39
437.395	575.03
437.77	610.73
438.145	591.3
438.52	604.63
438.895	594.46
439.271	601.92
439.646	595.59
440.021	636.49
440.395	608.7
440.77	615.93
441.145	616.83
441.52	630.84
441.895	638.53
442.27	637.4
442.645	631.97
443.019	647.12
443.394	651.41
443.769	663.84
444.143	647.34
444.518	679.43
444.892	685.08
445.267	675.59
445.641	686.89
446.016	700.67
446.39	678.75
446.764	687.79
447.139	701.58
447.513	686.44
447.887	714.23
448.262	691.18
448.636	686.21
449.01	702.93
449.384	706.32
449.758	735.02
450.132	739.99
450.506	737.51
450.88	747
451.254	732.31
451.628	746.77
452.002	747.9
452.376	761.91
452.75	731.86
453.123	749.03
453.497	764.17
453.871	769.6
454.244	781.8
454.618	785.64
454.992	796.94
455.365	803.72
455.739	803.72
456.112	789.48
456.486	797.39
456.859	808.02
457.232	840.33
457.606	806.21
457.979	850.27
458.352	836.26
458.725	834.46
459.099	867.22
459.472	875.58
459.845	888.47
460.218	876.04
460.591	874.91
460.964	891.4
461.337	885.75
461.71	909.03
462.083	912.42
462.456	929.14
462.829	919.65
463.201	924.62
463.574	951.74
463.947	924.85
464.32	960.78
464.692	965.98
465.065	963.04
465.438	995.13
465.81	998.29
466.183	998.74
466.555	1000.33
466.928	985.19
467.3	1010.04
467.672	1030.16
468.045	1026.77
468.417	1027.22
468.789	1057.5
469.161	1062.92
469.534	1046.65
469.906	1063.83
470.278	1080.1
470.65	1081.23
471.022	1072.42
471.394	1104.28
471.766	1112.87
472.138	1119.87
472.51	1123.26
472.882	1164.16
473.253	1144.28
473.625	1155.8
473.997	1180.44
474.369	1170.72
474.74	1174.11
475.112	1210.04
475.484	1225.41
475.855	1222.24
476.227	1268.79
476.598	1243.94
476.97	1265.86
477.341	1267.44
477.713	1305.4
478.084	1310.83
478.455	1349.7
478.827	1355.8
479.198	1365.97
479.569	1361.67
479.94	1386.31
480.311	1419.3
480.682	1395.8
481.053	1401.45
481.424	1443.25
481.795	1444.61
482.166	1460.43
482.537	1461.56
482.908	1525.74
483.279	1492.29
483.65	1480.77
484.021	1528
484.391	1529.13
484.762	1542.23
485.133	1546.08
485.503	1556.24
485.874	1584.27
486.244	1612.06
486.615	1585.62
486.985	1615.23
487.356	1666.07
487.726	1642.8
488.097	1650.93
488.467	1649.8
488.837	1672.63
489.207	1678.95
489.578	1691.38
489.948	1709.01
490.318	1693.42
490.688	1734.54
491.058	1763.02
491.428	1729.12
491.798	1771.61
492.168	1781.78
492.538	1774.77
492.908	1779.97
493.278	1801.66
493.648	1775.9
494.017	1764.15
494.387	1821.55
494.757	1820.19
495.126	1817.25
495.496	1798.27
495.866	1806.86
496.235	1820.19
496.605	1815.22
496.974	1822.9
497.344	1840.53
497.713	1817.93
498.082	1838.5
498.452	1856.35
498.821	1862.9
499.19	1846.63
499.559	1870.36
499.928	1841.89
500.298	1847.54
500.667	1855.9
501.036	1865.16
501.405	1854.99
501.774	1869.23
502.143	1864.48
502.512	1814.77
502.88	1874.88
503.249	1851.6
503.618	1857.93
503.987	1878.72
504.356	1870.59
504.724	1872.39
505.093	1890.02
505.462	1858.61
505.83	1883.02
506.199	1875.56
506.567	1863.13
506.936	1863.81
507.304	1879.85
507.672	1873.98
508.041	1889.12
508.409	1865.39
508.777	1892.05
509.145	1901.77
509.514	1872.85
509.882	1858.84
510.25	1865.61
510.618	1874.88
510.986	1855.22
511.354	1882.79
511.722	1875.11
512.09	1876.01
512.458	1862.68
512.826	1875.78
513.193	1894.77
513.561	1897.25
513.929	1876.91
514.297	1863.13
514.664	1898.38
515.032	1885.5
515.4	1882.34
515.767	1885.73
516.135	1857.25
516.502	1826.97
516.869	1841.89
517.237	1811.6
517.604	1834.43
517.972	1825.84
518.339	1836.01
518.706	1827.2
519.073	1828.78
519.44	1845.5
519.808	1831.27
520.175	1812.96
520.542	1855.67
520.909	1811.83
521.276	1829.01
521.643	1766.63
522.009	1841.66
522.376	1822
522.743	1820.42
523.11	1809.35
523.477	1811.83
523.843	1799.85
524.21	1827.65
524.577	1806.41
524.943	1781.78
525.31	1801.21
525.676	1829.01
526.043	1800.08
526.409	1777.26
526.776	1848.67
527.142	1800.08
527.508	1795.79
527.874	1807.09
528.241	1822.45
528.607	1785.16
528.973	1780.87
529.339	1765.73
529.705	1781.32
530.071	1770.02
530.437	1800.98
530.803	1816.12
531.169	1775.67
531.535	1773.41
531.901	1787.42
532.267	1766.63
532.632	1765.5
532.998	1747.88
533.364	1751.72
533.73	1747.43
534.095	1731.38
534.461	1780.87
534.826	1767.99
535.192	1754.21
535.557	1755.11
535.923	1718.5
536.288	1739.06
536.653	1716.47
537.019	1722.57
537.384	1734.54
537.749	1731.38
538.114	1700.87
538.479	1723.92
538.845	1718.95
539.21	1689.8
539.575	1695
539.94	1713.3
540.305	1694.55
540.67	1661.78
541.034	1678.5
541.399	1695.9
541.764	1660.2
542.129	1685.73
542.494	1661.78
542.858	1659.07
543.223	1628.33
543.587	1632.63
543.952	1620.2
544.316	1633.76
544.681	1594.89
545.045	1609.58
545.41	1640.76
545.774	1629.46
546.138	1619.52
546.503	1579.97
546.867	1593.53
547.231	1588.56
547.595	1579.29
547.959	1577.26
548.324	1580.88
548.688	1554.66
549.052	1566.19
549.416	1559.41
549.779	1560.99
550.143	1534.55
550.507	1534.32
550.871	1564.61
551.235	1555.34
551.599	1562.8
551.962	1549.46
552.326	1551.72
552.689	1537.49
553.053	1507.66
553.417	1500.88
553.78	1509.01
554.143	1507.43
554.507	1483.25
554.87	1519.41
555.234	1492.74
555.597	1487.77
555.96	1478.51
556.323	1507.88
556.686	1491.39
557.05	1511.73
557.413	1476.47
557.776	1480.31
558.139	1483.48
558.502	1491.84
558.865	1483.48
559.228	1482.12
559.59	1483.48
559.953	1467.89
560.316	1457.72
560.679	1458.62
561.041	1466.53
561.404	1441.67
561.767	1458.62
562.129	1456.13
562.492	1473.08
562.854	1464.5
563.217	1438.06
563.579	1459.52
563.941	1493.2
564.304	1461.56
564.666	1469.47
565.028	1487.32
565.39	1457.94
565.753	1473.76
566.115	1464.27
566.477	1499.75
566.839	1454.55
567.201	1480.77
567.563	1489.58
567.925	1503.59
568.287	1455.91
568.648	1485.29
569.01	1469.92
569.372	1495.46
569.734	1447.32
570.095	1493.87
570.457	1507.21
570.819	1491.16
571.18	1484.83
571.542	1520.09
571.903	1494.1
572.265	1539.52
572.626	1494.33
572.987	1500.65
573.349	1510.6
573.71	1530.71
574.071	1513.31
574.432	1515.34
574.794	1559.18
575.155	1519.41
575.516	1525.74
575.877	1516.7
576.238	1550.82
576.599	1549.24
576.96	1550.14
577.32	1548.79
577.681	1521.44
578.042	1549.92
578.403	1544.95
578.763	1541.33
579.124	1592.85
579.485	1580.88
579.845	1542.01
580.206	1563.48
580.566	1548.11
580.927	1579.07
581.287	1604.15
581.648	1553.76
582.008	1569.35
582.368	1575.9
582.728	1590.14
583.089	1561.44
583.449	1579.29
583.809	1567.54
584.169	1598.05
584.529	1586.07
584.889	1588.79
585.249	1580.88
585.609	1573.65
585.969	1594.44
586.329	1615.23
586.688	1581.1
587.048	1564.83
587.408	1607.09
587.768	1617.94
588.127	1607.77
588.487	1593.98
588.846	1597.37
589.206	1586.07
589.565	1596.7
589.925	1624.27
590.284	1626.98
590.643	1609.8
591.003	1610.25
591.362	1607.09
591.721	1602.8
592.08	1562.57
592.44	1585.62
592.799	1577.49
593.158	1603.7
593.517	1602.12
593.876	1596.7
594.235	1584.27
594.593	1599.86
594.952	1581.78
595.311	1585.17
595.67	1610.25
596.029	1607.32
596.387	1599.18
596.746	1576.36
597.104	1597.37
597.463	1579.29
597.822	1593.08
598.18	1586.3
598.538	1598.28
598.897	1590.14
599.255	1573.87
599.613	1606.64
599.972	1594.44
600.33	1612.97
600.688	1551.27
601.046	1581.1
601.404	1580.42
601.762	1595.79
602.12	1613.64
602.478	1605.51
602.836	1604.15
603.194	1593.31
603.552	1582.46
603.91	1602.12
604.268	1597.37
604.625	1583.36
604.983	1599.18
605.341	1603.7
605.698	1568.9
606.056	1608.9
606.413	1597.37
606.771	1598.05
607.128	1582.68
607.485	1571.84
607.843	1587.66
608.2	1583.14
608.557	1576.81
608.914	1569.13
609.272	1582.91
609.629	1574.1
609.986	1590.59
610.343	1572.74
610.7	1589.01
611.057	1597.83
611.414	1618.62
611.771	1588.56
612.127	1593.31
612.484	1612.29
612.841	1590.37
613.198	1594.21
613.554	1597.37
613.911	1607.54
614.267	1593.31
614.624	1589.46
614.98	1594.21
615.337	1605.28
615.693	1623.14
616.05	1611.84
616.406	1609.12
616.762	1628.56
617.118	1603.93
617.475	1603.7
617.831	1623.81
618.187	1623.81
618.543	1623.14
618.899	1624.94
619.255	1636.02
619.611	1647.99
619.967	1637.6
620.323	1641.21
620.678	1588.79
621.034	1590.14
621.39	1627.2
621.746	1626.75
622.101	1650.25
622.457	1632.4
622.812	1621.55
623.168	1649.58
623.523	1620.2
623.879	1639.41
624.234	1603.93
624.589	1605.51
624.945	1657.71
625.3	1641.21
625.655	1632.4
626.01	1633.08
626.365	1622.23
626.72	1599.86
627.075	1637.15
627.43	1621.78
627.785	1615.9
628.14	1667.2
628.495	1613.64
628.85	1627.2
629.205	1625.85
629.559	1636.69
629.914	1638.95
630.269	1634.66
630.623	1625.17
630.978	1637.82
631.332	1633.08
631.687	1621.1
632.041	1625.4
632.396	1604.38
632.75	1623.81
633.104	1627.43
633.459	1617.49
633.813	1602.57
634.167	1601.89
634.521	1624.49
634.875	1637.15
635.229	1591.5
635.583	1629.69
635.937	1628.33
636.291	1602.34
636.645	1650.25
636.999	1629.24
637.352	1619.52
637.706	1630.37
638.06	1645.06
638.413	1633.76
638.767	1626.53
639.121	1617.94
639.474	1628.56
639.828	1621.55
640.181	1612.06
640.534	1626.3
640.888	1605.28
641.241	1649.35
641.594	1604.15
641.947	1625.17
642.301	1592.18
642.654	1656.35
643.007	1605.51
643.36	1622.46
643.713	1603.93
644.066	1612.74
644.419	1631.5
644.771	1612.74
645.124	1610.93
645.477	1573.42
645.83	1581.55
646.182	1571.84
646.535	1592.18
646.888	1572.97
647.24	1596.7
647.593	1608.67
647.945	1601.44
648.298	1590.14
648.65	1593.76
649.002	1570.93
649.355	1627.65
649.707	1576.13
650.059	1578.62
650.411	1629.69
650.763	1596.24
651.115	1613.19
651.467	1623.14
651.819	1618.16
652.171	1624.49
652.523	1626.53
652.875	1617.71
653.227	1636.02
653.578	1633.98
653.93	1628.33
654.282	1593.08
654.633	1612.29
654.985	1624.49
655.337	1657.26
655.688	1611.38
656.039	1642.8
656.391	1674.21
656.742	1657.71
657.094	1630.82
657.445	1622.68
657.796	1650.25
658.147	1671.27
658.498	1654.55
658.849	1680.31
659.2	1629.69
659.551	1642.8
659.902	1647.09
660.253	1647.77
660.604	1638.5
660.955	1650.03
661.306	1646.86
661.656	1658.61
662.007	1657.03
662.358	1649.35
662.708	1653.19
663.059	1675.11
663.409	1638.5
663.76	1625.17
664.11	1642.8
664.461	1664.04
664.811	1670.82
665.161	1633.53
665.511	1676.69
665.862	1650.93
666.212	1675.34
666.562	1637.82
666.912	1624.49
667.262	1624.49
667.612	1645.06
667.962	1682.79
668.312	1656.35
668.662	1628.78
669.011	1655.68
669.361	1651.38
669.711	1685.73
670.06	1646.41
670.41	1660.2
670.76	1650.71
671.109	1659.29
671.459	1611.38
671.808	1646.86
672.157	1653.19
672.507	1629.91
672.856	1641.89
673.205	1622.23
673.554	1629.91
673.904	1629.24
674.253	1650.25
674.602	1626.98
674.951	1618.84
675.3	1609.12
675.649	1622.23
675.998	1609.35
676.346	1631.72
676.695	1652.97
677.044	1614.55
677.393	1623.14
677.741	1626.07
678.09	1612.97
678.438	1584.49
678.787	1595.79
679.135	1604.6
679.484	1603.47
679.832	1592.63
680.181	1600.09
680.529	1586.07
680.877	1593.98
681.225	1579.29
681.573	1601.89
681.922	1577.49
682.27	1571.84
682.618	1592.4
682.966	1577.03
683.314	1581.78
683.661	1574.77
684.009	1556.7
684.357	1546.3
684.705	1551.95
685.053	1581.1
685.4	1556.02
685.748	1555.11
686.095	1537.49
686.443	1532.74
686.79	1518.96
687.138	1520.09
687.485	1550.82
687.832	1539.07
688.18	1526.64
688.527	1519.18
688.874	1542.23
689.221	1524.61
689.568	1519.41
689.915	1524.38
690.262	1498.84
690.609	1491.16
690.956	1507.43
691.303	1476.25
691.65	1478.51
691.997	1482.35
692.344	1481.9
692.69	1484.38
693.037	1496.36
693.383	1458.62
693.73	1454.33
694.077	1449.35
694.423	1472.63
694.769	1466.98
695.116	1441.9
695.462	1467.43
695.808	1448.45
696.155	1443.7
696.501	1443.7
696.847	1417.26
697.193	1439.86
697.539	1426.76
697.885	1424.27
698.231	1431.73
698.577	1442.12
698.923	1408
699.269	1406.19
699.614	1405.06
699.96	1424.04
700.306	1426.53
700.651	1419.3
700.997	1394.21
701.342	1412.75
701.688	1419.3
702.033	1413.42
702.379	1410.71
702.724	1406.87
703.069	1394.21
703.415	1400.32
703.76	1377.27
704.105	1409.58
704.45	1401.22
704.795	1389.7
705.14	1372.07
705.485	1364.39
705.83	1356.02
706.175	1379.07
706.52	1356.93
706.865	1385.18
707.209	1383.59
707.554	1381.56
707.899	1413.42
708.243	1372.07
708.588	1361.9
708.932	1396.47
709.277	1356.02
709.621	1370.71
709.966	1383.37
710.31	1376.14
710.654	1343.59
710.998	1352.41
711.342	1354.89
711.687	1367.77
712.031	1387.66
712.375	1394.67
712.719	1381.79
713.063	1375.68
713.407	1365.29
713.75	1374.33
714.094	1368.45
714.438	1415.46
714.782	1368.23
715.125	1372.07
715.469	1358.06
715.812	1384.27
716.156	1377.94
716.499	1385.63
716.843	1388.79
717.186	1380.66
717.53	1412.52
717.873	1388.79
718.216	1412.07
718.559	1371.62
718.902	1416.59
719.246	1397.83
719.589	1401.22
719.932	1395.34
720.275	1422.46
720.617	1404.61
720.96	1414.78
721.303	1430.82
721.646	1404.84
721.989	1400.32
722.331	1405.97
722.674	1435.12
723.016	1453.2
723.359	1419.52
723.701	1431.95
724.044	1441.9
724.386	1425.63
724.729	1480.31
725.071	1442.58
725.413	1447.32
725.755	1459.3
726.097	1459.3
726.439	1457.94
726.782	1482.8
727.124	1456.13
727.465	1471.73
727.807	1468.34
728.149	1488.68
728.491	1491.61
728.833	1470.14
729.175	1490.48
729.516	1491.16
729.858	1530.03
730.199	1507.88
730.541	1544.04
730.882	1497.04
731.224	1530.48
731.565	1516.47
731.906	1501.33
732.248	1549.01
732.589	1538.39
732.93	1548.56
733.271	1589.46
733.612	1567.09
733.953	1555.57
734.294	1565.74
734.635	1582.91
734.976	1608.9
735.317	1605.51
735.658	1608.67
735.999	1619.52
736.339	1619.07
736.68	1631.72
737.021	1648.45
737.361	1662.23
737.702	1662.23
738.042	1687.31
738.383	1673.76
738.723	1708.56
739.063	1710.82
739.404	1740.87
739.744	1740.65
740.084	1730.93
740.424	1720.99
740.764	1768.89
741.104	1782.45
741.444	1752.17
741.784	1794.2
742.124	1809.35
742.464	1832.85
742.804	1869.46
743.143	1884.82
743.483	1890.47
743.823	1889.34
744.162	1895.67
744.502	1912.39
744.841	1979.06
745.181	1991.26
745.52	2026.29
745.86	1998.94
746.199	2033.29
746.538	2071.49
746.877	2086.63
747.216	2103.12
747.556	2116.46
747.895	2179.05
748.234	2200.07
748.573	2198.49
748.911	2251.37
749.25	2254.53
749.589	2311.7
749.928	2339.27
750.267	2354.64
750.605	2386.96
750.944	2415.2
751.283	2464.24
751.621	2517.12
751.96	2545.82
752.298	2540.4
752.636	2595.99
752.975	2636.44
753.313	2639.61
753.651	2749.43
753.989	2758.02
754.327	2800.51
754.666	2846.38
755.004	2889.32
755.342	2934.06
755.679	2973.83
756.017	3015.87
756.355	3095.64
756.693	3125.24
757.031	3167.28
757.368	3212.92
757.706	3334.05
758.044	3292.02
758.381	3357.33
758.719	3457.44
759.056	3462.63
759.394	3508.74
759.731	3569.52
760.068	3594.38
760.405	3628.28
760.743	3668.51
761.08	3715.96
761.417	3767.26
761.754	3830.53
762.091	3911.21
762.428	3908.5
762.765	3945.11
763.102	4014.48
763.438	4061.49
763.775	4078.44
764.112	4145.55
764.449	4163.63
764.785	4230.75
765.122	4269.39
765.458	4322.27
765.795	4350.07
766.131	4427.13
766.467	4436.39
766.804	4469.16
767.14	4476.85
767.476	4499.67
767.812	4569.27
768.148	4583.51
768.485	4636.39
768.821	4675.03
769.157	4674.58
769.492	4735.82
769.828	4715.26
770.164	4748.7
770.5	4783.96
770.836	4786.22
771.171	4825.31
771.507	4881.35
771.842	4886.78
772.178	4941.92
772.513	4922.94
772.849	5006.55
773.184	4968.58
773.519	5005.65
773.855	4964.29
774.19	5004.97
774.525	4998.87
774.86	5076.6
775.195	5072.31
775.53	5134.46
775.865	5023.95
776.2	5101.01
776.535	5069.6
776.87	5074.34
777.205	5100.11
777.539	5168.8
777.874	5123.38
778.209	5177.39
778.543	5181.69
778.878	5168.58
779.212	5162.7
779.547	5231.63
779.881	5209.03
780.215	5224.4
780.55	5258.75
780.884	5219.88
781.218	5203.83
781.552	5184.4
781.886	5251.06
782.22	5228.69
782.554	5228.01
782.888	5195.02
783.222	5174.91
783.556	5138.75
783.889	5216.04
784.223	5178.07
784.557	5228.92
784.89	5241.8
785.224	5202.02
785.557	5210.39
785.891	5207.45
786.224	5178.75
786.558	5193.89
786.891	5191.63
787.224	5182.59
787.557	5220.1
787.891	5188.69
788.224	5186.43
788.557	5203.38
788.89	5172.19
789.223	5207.22
789.556	5199.54
789.888	5181.23
790.221	5146.21
790.554	5150.73
790.887	5143.72
791.219	5197.96
791.552	5117.73
791.884	5117.51
792.217	5096.49
792.549	5071.63
792.882	5093.78
793.214	5065.3
793.546	5094.46
793.879	5062.37
794.211	5095.59
794.543	5072.76
794.875	5061.69
795.207	5067.34
795.539	5016.72
795.871	5093.78
796.203	5019.88
796.535	5008.81
796.867	5004.97
797.198	5040.9
797.53	5013.33
797.862	4973.56
798.193	5016.04
798.525	5034.35
798.856	5020.11
799.188	5017.4
799.519	4965.65
799.85	4910.28
800.182	4974.69
800.513	4958.19
800.844	4895.59
801.175	4983.72
801.506	4963.61
801.837	4889.04
802.168	4940.34
802.499	4905.99
802.83	4904.4
803.161	4875.48
803.491	4907.57
803.822	4887.91
804.153	4822.37
804.483	4856.27
804.814	4805.42
805.145	4821.47
805.475	4813.11
805.805	4829.15
806.136	4789.61
806.466	4760.23
806.796	4800
807.126	4758.87
807.457	4780.34
807.787	4765.43
808.117	4769.95
808.447	4736.73
808.777	4742.6
809.107	4779.89
809.436	4744.41
809.766	4745.09
810.096	4711.87
810.426	4682.72
810.755	4716.16
811.085	4716.61
811.414	4717.07
811.744	4705.31
812.073	4659.21
812.403	4673.45
812.732	4677.74
813.061	4682.72
813.39	4647.46
813.719	4656.73
814.049	4668.25
814.378	4622.38
814.707	4576.05
815.036	4609.05
815.365	4607.24
815.693	4576.96
816.022	4603.62
816.351	4585.32
816.68	4560.91
817.008	4515.94
817.337	4535.38
817.665	4576.96
817.994	4540.57
818.322	4580.12
818.651	4529.27
818.979	4468.26
819.307	4513
819.636	4523.62
819.964	4499.44
820.292	4552.32
820.62	4504.64
820.948	4479.33
821.276	4513.91
821.604	4531.76
821.932	4534.47
822.259	4529.73
822.587	4534.92
822.915	4550.06
823.243	4551.87
823.57	4484.75
823.898	4492.89
824.225	4481.37
824.553	4502.38
824.88	4533.12
825.207	4548.48
825.535	4567.24
825.862	4507.81
826.189	4492.21
826.516	4517.3
826.843	4557.07
827.17	4588.93
827.497	4558.65
827.824	4569.95
828.151	4565.66
828.478	4564.07
828.805	4583.96
829.131	4541.02
829.458	4555.94
829.785	4568.14
830.111	4578.31
830.438	4583.06
830.764	4579.89
831.09	4584.64
831.417	4536.05
831.743	4498.09
832.069	4520.69
832.395	4564.75
832.722	4507.81
833.048	4560.91
833.374	4578.76
833.7	4505.55
834.026	4532.44
834.351	4580.8
834.677	4549.39
835.003	4544.41
835.329	4515.04
835.654	4560.46
835.98	4551.42
836.306	4547.58
836.631	4523.85
836.956	4494.02
837.282	4527.24
837.607	4501.7
837.932	4481.37
838.258	4464.19
838.583	4478.2
838.908	4459.67
839.233	4494.7
839.558	4435.49
839.883	4427.81
840.208	4442.04
840.533	4439.33
840.858	4487.69
841.182	4439.78
841.507	4446.34
841.832	4459.67
842.156	4408.82
842.481	4431.42
842.805	4439.11
843.13	4393.46
843.454	4408.6
843.778	4360.69
844.103	4379.67
844.427	4363.4
844.751	4367.02
845.075	4374.7
845.399	4359.11
845.723	4350.75
846.047	4340.8
846.371	4279.11
846.695	4315.72
847.019	4282.27
847.343	4198.66
847.666	4207.7
847.99	4213.58
848.313	4189.85
848.637	4190.07
848.96	4168.15
849.284	4156.63
849.607	4155.95
849.931	4143.97
850.254	4117.53
850.577	4113.24
850.9	4046.35
851.223	4069.85
851.546	4066.01
851.869	4044.31
852.192	4046.12
852.515	3998.89
852.838	3982.85
853.161	3987.82
853.483	3946.69
853.806	4007.03
854.129	3964.54
854.451	3923.19
854.774	3986.91
855.096	3935.84
855.419	3955.5
855.741	3921.38
856.063	3862.85
856.385	3903.53
856.708	3837.09
857.03	3828.05
857.352	3880.48
857.674	3825.79
857.996	3783.53
858.318	3815.85
858.64	3847.48
858.961	3827.15
859.283	3787.37
859.605	3732.68
859.926	3797.54
860.248	3765.9
860.57	3775.62
860.891	3785.56
861.212	3736.75
861.534	3725.68
861.855	3729.07
862.176	3701.05
862.498	3745.34
862.819	3708.05
863.14	3663.08
863.461	3692.23
863.782	3621.95
864.103	3707.6
864.424	3693.14
864.745	3661.95
865.065	3664.44
865.386	3638.9
865.707	3686.81
866.027	3622.4
866.348	3674.15
866.668	3602.74
866.989	3642.29
867.309	3591.22
867.63	3650.65
867.95	3626.92
868.27	3583.54
868.59	3607.04
868.91	3579.24
869.23	3577.43
869.55	3578.56
869.87	3559.13
870.19	3588.73
870.51	3584.89
870.83	3556.42
871.15	3546.47
871.469	3588.28
871.789	3611.56
872.109	3506.7
872.428	3493.82
872.748	3551.22
873.067	3593.25
873.386	3541.73
873.706	3558.9
874.025	3552.12
874.344	3502.63
874.663	3504.67
874.982	3515.06
875.301	3508.74
875.62	3482.75
875.939	3466.02
876.258	3485.46
876.577	3511
876.896	3445.23
877.214	3486.14
877.533	3428.29
877.852	3438.23
878.17	3435.74
878.489	3485.91
878.807	3446.82
879.125	3419.25
879.444	3452.24
879.762	3441.62
880.08	3414.5
880.398	3429.64
880.716	3395.29
881.034	3405.24
881.352	3383.31
881.67	3375.86
881.988	3391.68
882.306	3405.01
882.624	3370.66
882.941	3358.91
883.259	3347.61
883.577	3342.64
883.894	3364.56
884.212	3343.99
884.529	3361.85
884.846	3269.87
885.164	3310.1
885.481	3273.94
885.798	3277.33
886.115	3264
886.432	3300.61
886.75	3295.18
887.067	3297.89
887.383	3252.47
887.7	3286.14
888.017	3216.09
888.334	3250.89
888.651	3216.77
888.967	3209.08
889.284	3247.05
889.6	3230.1
889.917	3236.88
890.233	3181.96
890.55	3153.94
890.866	3170.44
891.182	3174.73
891.498	3132.02
891.815	3137.9
892.131	3138.58
892.447	3108.52
892.763	3126.6
893.079	3084.34
893.395	3096.54
893.71	3102.64
894.026	3083.89
894.342	3117.56
894.657	3068.07
894.973	3058.13
895.289	3064.23
895.604	3049.31
895.92	3034.4
896.235	3002.76
896.55	3034.85
896.865	3002.76
897.181	3018.8
897.496	3000.95
897.811	3031.01
898.126	2973.16
898.441	2964.79
898.756	2959.6
899.071	2946.94
899.386	2932.93
899.7	2892.25
900.015	2926.6
900.33	2891.58
900.644	2913.95
900.959	2895.87
901.273	2903.33
901.588	2822.43
901.902	2830.79
902.216	2863.78
902.531	2848.19
902.845	2807.96
903.159	2805.93
903.473	2774.74
903.787	2795.53
904.101	2758.25
904.415	2772.03
904.729	2761.86
905.042	2715.08
905.356	2727.29
905.67	2720.96
905.984	2719.15
906.297	2721.64
906.611	2734.52
906.924	2698.81
907.237	2693.62
907.551	2710.11
907.864	2639.15
908.177	2623.33
908.491	2662.88
908.804	2651.36
909.117	2634.86
909.43	2605.26
909.743	2581.53
910.056	2580.4
910.368	2606.39
910.681	2576.56
910.994	2564.81
911.307	2532.49
911.619	2560.74
911.932	2545.82
912.244	2552.83
912.557	2534.98
912.869	2499.5
913.181	2496.11
913.494	2509.89
913.806	2496.33
914.118	2434.87
914.43	2460.63
914.742	2489.1
915.054	2448.65
915.366	2414.3
915.678	2424.47
915.99	2416.56
916.302	2398.03
916.613	2412.49
916.925	2421.08
917.236	2389.44
917.548	2386.05
917.859	2380.4
918.171	2355.09
918.482	2347.64
918.794	2331.37
919.105	2322.33
919.416	2302.89
919.727	2314.42
920.038	2314.42
920.349	2283.68
920.66	2293.85
920.971	2308.54
921.282	2249.11
921.593	2242.33
921.903	2239.39
922.214	2265.6
922.525	2203.91
922.835	2254.08
923.146	2200.75
923.456	2210.46
923.767	2193.06
924.077	2204.81
924.387	2185.15
924.697	2210.24
925.008	2188.09
925.318	2173.63
925.628	2175.21
925.938	2189.67
926.248	2151.93
926.558	2151.26
926.867	2103.8
927.177	2133.18
927.487	2111.03
927.796	2140.64
928.106	2111.48
928.416	2125.72
928.725	2085.04
929.034	2080.3
929.344	2074.2
929.653	2072.16
929.962	2087.98
930.271	2047.3
930.581	2047.53
930.89	2037.59
931.199	2029.9
931.508	1992.84
931.817	2038.94
932.125	2016.12
932.434	2004.37
932.743	1986.74
933.051	1976.57
933.36	1978.38
933.669	1997.36
933.977	1973.63
934.286	1972.96
934.594	1958.27
934.902	1931.83
935.21	1938.83
935.519	1939.96
935.827	1887.99
936.135	1896.12
936.443	1910.81
936.751	1885.73
937.059	1904.03
937.367	1893.64
937.674	1876.91
937.982	1863.81
938.29	1904.71
938.597	1897.03
938.905	1850.25
939.213	1849.8
939.52	1838.5
939.827	1826.75
940.135	1826.75
940.442	1807.31
940.749	1796.01
941.056	1832.85
941.363	1792.4
941.67	1803.24
941.977	1819.06
942.284	1760.76
942.591	1781.78
942.898	1759.85
943.205	1782.91
943.511	1751.04
943.818	1764.83
944.125	1763.24
944.431	1740.42
944.738	1711.27
945.044	1718.27
945.35	1716.47
945.657	1702.23
945.963	1691.61
946.269	1689.35
946.575	1686.86
946.881	1689.12
947.187	1691.83
947.493	1664.72
947.799	1671.72
948.105	1669.69
948.41	1659.74
948.716	1649.12
949.022	1638.05
949.327	1640.54
949.633	1600.54
949.938	1609.58
950.244	1624.94
950.549	1572.97
950.854	1593.53
951.16	1606.19
951.465	1605.28
951.77	1580.42
952.075	1579.75
952.38	1604.15
952.685	1566.19
952.99	1565.74
953.294	1563.93
953.599	1572.29
953.904	1549.69
954.209	1535.45
954.513	1528
954.818	1537.71
955.122	1553.08
955.426	1534.1
955.731	1505.62
956.035	1470.14
956.339	1513.53
956.643	1490.26
956.948	1526.19
957.252	1471.27
957.556	1499.52
957.86	1467.89
958.163	1476.92
958.467	1446.87
958.771	1457.49
959.075	1449.35
959.378	1430.37
959.682	1421.56
959.985	1426.98
960.289	1462.46
960.592	1446.64
960.896	1423.82
961.199	1433.31
961.502	1425.85
961.805	1404.84
962.108	1404.16
962.411	1431.95
962.714	1375.68
963.017	1384.27
963.32	1406.64
963.623	1373.65
963.926	1375.68
964.228	1360.32
964.531	1366.87
964.833	1371.62
965.136	1363.03
965.438	1358.74
965.741	1352.41
966.043	1325.97
966.345	1330.94
966.648	1331.84
966.95	1287.78
967.252	1314.67
967.554	1339.3
967.856	1330.04
968.158	1316.7
968.46	1319.87
968.761	1307.89
969.063	1277.16
969.365	1273.99
969.666	1301.34
969.968	1267.44
970.269	1269.47
970.571	1282.81
970.872	1251.85
971.174	1253.88
971.475	1263.37
971.776	1256.59
972.077	1278.74
972.378	1238.74
972.679	1263.82
972.98	1235.57
973.281	1238.29
973.582	1244.61
973.883	1233.09
974.183	1216.14
974.484	1237.83
974.785	1198.06
975.085	1208.68
975.386	1190.6
975.686	1189.02
975.986	1179.08
976.287	1186.76
976.587	1148.35
976.887	1183.37
977.187	1165.75
977.487	1165.52
977.787	1167.78
978.087	1153.54
978.387	1163.71
978.687	1138.18
978.987	1157.38
979.286	1143.15
979.586	1156.03
979.885	1112.87
980.185	1155.58
980.484	1118.97
980.784	1148.57
981.083	1128.23
981.382	1129.81
981.682	1115.35
981.981	1109.02
982.28	1131.85
982.579	1078.29
982.878	1084.17
983.177	1077.61
983.475	1113.09
983.774	1097.27
984.073	1079.42
984.372	1090.95
984.67	1101.12
984.969	1084.39
985.267	1066.09
985.566	1073.77
985.864	1083.71
986.162	1072.87
986.461	1038.07
986.759	1030.38
987.057	1029.7
987.355	1041.46
987.653	1035.35
987.951	1025.18
988.249	1034.9
988.547	1043.94
988.844	1026.31
989.142	1018.86
989.44	1025.18
989.737	1009.82
990.035	992.64
990.332	999.42
990.63	978.18
990.927	1014.34
991.224	991.97
991.521	975.47
991.819	963.72
992.116	986.99
992.413	981.57
992.71	971.4
993.006	970.5
993.303	964.62
993.6	977.05
993.897	967.11
994.193	953.32
994.49	940.22
994.787	945.41
995.083	943.38
995.379	927.79
995.676	929.59
995.972	959.42
996.268	929.59
996.565	930.27
996.861	921.23
997.157	904.96
997.453	913.55
997.749	921.01
998.044	901.8
998.34	904.51
998.636	918.97
998.932	909.26
999.227	936.15
999.523	898.86
999.818	896.6
1000.114	895.24
1000.409	871.74
1000.704	887.79
1001	876.71
1001.295	861.12
1001.59	866.09
1001.885	888.47
1002.18	877.39
1002.475	863.61
1002.77	866.55
1003.065	862.7
1003.359	831.97
1003.654	825.64
1003.949	822.7
1004.243	834.68
1004.538	838.98
1004.832	822.7
1005.127	834.68
1005.421	812.08
1005.715	806.89
1006.009	814.79
1006.304	800.11
1006.598	812.99
1006.892	795.13
1007.186	817.05
1007.48	799.2
1007.773	779.99
1008.067	783.38
1008.361	786.55
1008.655	775.7
1008.948	788.58
1009.242	755.59
1009.535	781.8
1009.829	776.15
1010.122	763.27
1010.415	776.38
1010.708	772.54
1011.001	766.89
1011.295	749.03
1011.588	749.03
1011.881	753.33
1012.173	739.54
1012.466	748.58
1012.759	758.75
1013.052	724.4
1013.344	741.12
1013.637	742.03
1013.93	751.07
1014.222	723.5
1014.514	734.8
1014.807	739.09
1015.099	709.04
1015.391	726.21
1015.683	687.79
1015.976	709.04
1016.268	728.92
1016.56	693.89
1016.851	709.26
1017.143	695.25
1017.435	671.75
1017.727	688.24
1018.018	692.99
1018.31	683.5
1018.602	656.83
1018.893	668.58
1019.185	651.86
1019.476	688.7
1019.767	680.11
1020.058	660.45
1020.35	664.52
1020.641	660.9
1020.932	673.1
1021.223	642.6
1021.514	642.37
1021.804	642.37
1022.095	639.43
1022.386	625.65
1022.677	654.12
1022.967	639.88
1023.258	631.75
1023.548	616.83
1023.839	629.72
1024.129	629.94
1024.419	631.52
1024.709	625.65
1025	602.37
1025.29	596.72
1025.58	603.05
1025.87	613.22
1026.16	600.11
1026.449	612.09
1026.739	605.08
1027.029	588.81
1027.319	582.26
1027.608	591.07
1027.898	580
1028.187	585.42
1028.477	573.22
1028.766	578.19
1029.055	584.07
1029.344	570.51
1029.634	577.97
1029.923	565.76
1030.212	574.35
1030.501	579.09
1030.79	553.11
1031.078	583.16
1031.367	557.85
1031.656	558.76
1031.945	567.34
1032.233	572.32
1032.522	569.38
1032.81	540.23
1033.099	563.28
1033.387	543.84
1033.675	532.99
1033.963	545.65
1034.251	542.26
1034.54	550.17
1034.828	535.48
1035.116	537.06
1035.403	534.35
1035.691	512.66
1035.979	507.91
1036.267	533.22
1036.554	523.28
1036.842	516.05
1037.129	528.02
1037.417	534.12
1037.704	516.27
1037.992	506.55
1038.279	519.44
1038.566	504.52
1038.853	504.52
1039.14	504.52
