Data from blue_clamp_base_FLMS001491_00064.txt Node
Date: Wed Feb 08 15:16:21 GMT 2017
User: dcchb
Spectrometer: FLMS00149
Trigger mode: 0
Integration Time (sec): 2.000000E-2
Scans to average: 10
Electric dark correction enabled: true
Nonlinearity correction enabled: false
Boxcar width: 0
XAxis mode: Wavelengths
Number of Pixels in Spectrum: 2048
>>>>>Begin Spectral Data<<<<<
341.393	-11.53
341.776	-11.53
342.16	-11.53
342.543	-59.21
342.927	-64.63
343.31	-58.98
343.693	-69.38
344.077	-72.09
344.46	-72.09
344.843	-57.17
345.226	-32.99
345.61	-40.22
345.993	-11.98
346.376	-8.81
346.759	6.55
347.142	10.4
347.525	37.29
347.908	65.53
348.291	85.2
348.674	102.37
349.057	116.38
349.44	131.07
349.823	144.85
350.206	157.06
350.588	188.7
350.971	212.65
351.354	214.91
351.737	237.06
352.119	245.64
352.502	253.33
352.884	268.92
353.267	272.08
353.65	260.11
354.032	278.64
354.414	291.97
354.797	296.26
355.179	293.55
355.562	314.34
355.944	303.27
356.326	309.82
356.709	344.17
357.091	316.38
357.473	309.37
357.855	353.66
358.238	322.7
358.62	332.65
359.002	328.8
359.384	340.78
359.766	310.5
360.148	329.93
360.53	320.9
360.912	320.9
361.294	326.55
361.676	333.32
362.057	303.72
362.439	316.6
362.821	301.46
363.203	315.92
363.584	303.27
363.966	305.75
364.348	310.73
364.729	297.85
365.111	301.46
365.493	298.3
365.874	321.8
366.256	306.43
366.637	324.96
367.019	307.56
367.4	318.64
367.781	310.95
368.163	317.73
368.544	306.66
368.925	279.31
369.306	308.69
369.688	298.07
370.069	298.98
370.45	291.97
370.831	275.25
371.212	281.35
371.593	294.68
371.974	300.33
372.355	296.26
372.736	303.49
373.117	298.75
373.498	283.61
373.879	310.73
374.26	301.01
374.641	305.53
375.021	313.21
375.402	290.39
375.783	315.47
376.163	310.05
376.544	324.74
376.925	317.05
377.305	324.06
377.686	296.04
378.066	326.77
378.447	312.53
378.827	329.03
379.208	319.77
379.588	335.81
379.968	322.25
380.349	323.83
380.729	317.73
381.109	329.71
381.489	330.61
381.87	337.17
382.25	324.06
382.63	351.18
383.01	336.94
383.39	344.62
383.77	326.09
384.15	320.44
384.53	344.4
384.91	342.14
385.29	339.2
385.67	334.45
386.049	341.46
386.429	349.6
386.809	346.43
387.189	366.09
387.568	343.72
387.948	351.86
388.328	357.5
388.707	339.88
389.087	357.05
389.466	363.15
389.846	370.61
390.225	374.68
390.605	345.08
390.984	375.81
391.363	348.24
391.743	374.91
392.122	378.07
392.501	354.57
392.881	361.35
393.26	401.12
393.639	389.82
394.018	369.71
394.397	399.31
394.776	375.58
395.155	396.6
395.534	410.61
395.913	394.57
396.292	414
396.671	383.27
397.05	416.94
397.429	401.57
397.808	449.48
398.186	402.25
398.565	421.68
398.944	433.43
399.323	415.13
399.701	432.76
400.08	433.89
400.458	423.49
400.837	466.88
401.215	449.25
401.594	465.07
401.972	470.5
402.351	439.54
402.729	469.59
403.107	467.11
403.486	471.17
403.864	487.67
404.242	482.25
404.62	503.72
404.999	479.31
405.377	505.07
405.755	479.76
406.133	508.24
406.511	492.42
406.889	519.99
407.267	512.75
407.645	531.74
408.023	538.97
408.401	520.21
408.779	536.71
409.156	524.96
409.534	563.6
409.912	575.8
410.29	554.11
410.667	548.91
411.045	566.76
411.422	579.19
411.8	556.37
412.178	581.68
412.555	600.89
412.933	573.09
413.31	587.33
413.687	601.34
414.065	607.89
414.442	603.37
414.819	630.04
415.197	650.83
415.574	647.67
415.951	649.93
416.328	661.68
416.705	643.37
417.082	638.18
417.46	654.9
417.837	675.24
418.214	665.97
418.591	698.51
418.967	673.65
419.344	700.55
419.721	702.58
420.098	704.39
420.475	703.71
420.852	715.46
421.228	706.87
421.605	728.79
421.982	725.4
422.358	722.24
422.735	739.64
423.111	735.57
423.488	781.9
423.864	757.49
424.241	770.6
424.617	786.42
424.994	778.96
425.37	819.87
425.746	804.95
426.123	805.63
426.499	802.01
426.875	817.83
427.251	853.99
427.627	871.16
428.003	878.62
428.379	861.45
428.756	859.19
429.132	885.17
429.507	905.51
429.883	900.54
430.259	917.04
430.635	924.27
431.011	938.28
431.387	963.82
431.763	964.95
432.138	982.35
432.514	1007.66
432.89	975.34
433.265	1018.96
433.641	1022.35
434.016	1021.44
434.392	1048.56
434.767	1065.06
435.143	1045.62
435.518	1078.84
435.894	1085.17
436.269	1103.02
436.644	1137.37
437.02	1140.08
437.395	1131.95
437.77	1160.87
438.145	1184.83
438.52	1182.57
438.895	1182.12
439.271	1188.44
439.646	1210.14
440.021	1233.87
440.395	1236.35
440.77	1225.28
441.145	1213.08
441.52	1268.22
441.895	1278.38
442.27	1286.75
442.645	1285.62
443.019	1321.32
443.394	1336.24
443.769	1327.42
444.143	1302.34
444.518	1324.26
444.892	1331.72
445.267	1362
445.641	1368.1
446.016	1385.73
446.39	1402
446.764	1391.15
447.139	1367.65
447.513	1448.55
447.887	1420.53
448.262	1419.85
448.636	1444.93
449.01	1476.8
449.384	1471.6
449.758	1493.52
450.132	1494.88
450.506	1512.28
450.88	1527.87
451.254	1528.55
451.628	1547.3
452.002	1571.71
452.376	1559.28
452.75	1614.19
453.123	1598.38
453.497	1636.57
453.871	1603.57
454.244	1682.89
454.618	1670.69
454.992	1677.7
455.365	1704.81
455.739	1722.44
456.112	1743.23
456.486	1746.17
456.859	1772.16
457.232	1839.27
457.606	1813.06
457.979	1809.9
458.352	1877.92
458.725	1864.36
459.099	1889.22
459.472	1925.15
459.845	1934.64
460.218	1940.74
460.591	1965.6
460.964	1971.93
461.337	1990
461.71	2005.37
462.083	2050.34
462.456	2042.88
462.829	2071.13
463.201	2112.03
463.574	2119.04
463.947	2122.2
464.32	2175.31
464.692	2203.11
465.065	2185.25
465.438	2247.85
465.81	2257.57
466.183	2292.14
466.555	2338.7
466.928	2333.72
467.3	2335.08
467.672	2355.42
468.045	2455.75
468.417	2434.74
468.789	2426.38
469.161	2452.14
469.534	2475.87
469.906	2549.09
470.278	2552.93
470.65	2576.66
471.022	2601.74
471.394	2643.32
471.766	2656.88
472.138	2686.48
472.51	2720.38
472.882	2782.75
473.253	2818.68
473.625	2843.09
473.997	2893.26
474.369	2900.04
474.74	2911.56
475.112	2974.61
475.484	3001.5
475.855	3075.63
476.227	3069.3
476.598	3155.85
476.97	3136.19
477.341	3215.73
477.713	3274.04
478.084	3261.16
478.455	3324.66
478.827	3373.92
479.198	3403.07
479.569	3448.95
479.94	3500.7
480.311	3552.67
480.682	3606.46
481.053	3706.34
481.424	3688.26
481.795	3705.44
482.166	3753.8
482.537	3839.9
482.908	3927.81
483.279	3897.75
483.65	3958.99
484.021	4042.83
484.391	4053.45
484.762	4069.72
485.133	4135.48
485.503	4107.46
485.874	4210.74
486.244	4258.19
486.615	4307.23
486.985	4330.73
487.356	4375.03
487.726	4397.17
488.097	4462.93
488.467	4462.26
488.837	4520.79
489.207	4567.56
489.578	4650.27
489.948	4634.45
490.318	4663.38
490.688	4702.93
491.058	4746.54
491.428	4805.98
491.798	4810.04
492.168	4881.91
492.538	4844.39
492.908	4912.41
493.278	4922.81
493.648	4928.01
494.017	5035.35
494.387	5028.79
494.757	5057.49
495.126	5088.45
495.496	5069.47
495.866	5153.76
496.235	5106.53
496.605	5148.79
496.974	5155.8
497.344	5210.94
497.713	5225.63
498.082	5272.86
498.452	5281.67
498.821	5310.37
499.19	5269.92
499.559	5310.37
499.928	5334.55
500.298	5334.77
500.667	5446.18
501.036	5438.28
501.405	5401.21
501.774	5381.1
502.143	5438.5
502.512	5399.86
502.88	5458.61
503.249	5434.66
503.618	5504.04
503.987	5531.15
504.356	5551.04
504.724	5545.84
505.093	5527.31
505.462	5553.75
505.83	5547.42
506.199	5552.4
506.567	5631.26
506.936	5620.87
507.304	5669.68
507.672	5698.16
508.041	5726.63
508.409	5696.8
508.777	5773.18
509.145	5820.64
509.514	5802.79
509.882	5797.81
510.25	5810.24
510.618	5803.69
510.986	5874.42
511.354	5905.16
511.722	5906.51
512.09	5919.17
512.458	5917.36
512.826	5976.57
513.193	5974.31
513.561	5980.41
513.929	5986.51
514.297	6038.03
514.664	6085.04
515.032	6095.43
515.4	6084.59
515.767	6079.39
516.135	6122.78
516.502	6072.61
516.869	6174.3
517.237	6149.89
517.604	6134.75
517.972	6140.18
518.339	6263.79
518.706	6235.32
519.073	6205.71
519.44	6280.06
519.808	6334.07
520.175	6278.25
520.542	6342.88
520.909	6318.93
521.276	6323.45
521.643	6433.05
522.009	6375.88
522.376	6437.8
522.743	6484.12
523.11	6471.69
523.477	6542.2
523.843	6582.65
524.21	6586.27
524.577	6638.7
524.943	6629.43
525.31	6674.63
525.676	6681.18
526.043	6736.77
526.409	6789.88
526.776	6809.54
527.142	6845.92
527.508	6793.49
527.874	6889.54
528.241	6838.01
528.607	6906.94
528.973	6938.35
529.339	6957.11
529.705	6994.39
530.071	7056.54
530.437	7033.94
530.803	7087.72
531.169	7100.38
531.535	7052.92
531.901	7044.79
532.267	7142.64
532.632	7143.54
532.998	7166.59
533.364	7192.81
533.73	7198.45
534.095	7244.33
534.461	7301.05
534.826	7356.19
535.192	7302.63
535.557	7369.75
535.923	7368.85
536.288	7294.95
536.653	7406.36
537.019	7349.41
537.384	7430.99
537.749	7425.57
538.114	7502.85
538.479	7462.85
538.845	7502.4
539.21	7458.79
539.575	7511.21
539.94	7546.02
540.305	7557.54
540.67	7537.65
541.034	7586.92
541.399	7598.44
541.764	7635.73
542.129	7594.38
542.494	7629.86
542.858	7604.77
543.223	7666.24
543.587	7637.31
543.952	7691.1
544.316	7706.01
544.681	7681.15
545.045	7726.8
545.41	7792.79
545.774	7744.66
546.138	7745.11
546.503	7791.21
546.867	7806.8
547.231	7898.32
547.595	7859.68
547.959	7836.86
548.324	7837.76
548.688	7877.98
549.052	7893.8
549.416	7873.01
549.779	7872.34
550.143	7967.02
550.507	8000.02
550.871	7943.07
551.235	7972.67
551.599	8062.84
551.962	8054.93
552.326	8086.57
552.689	8086.12
553.053	8020.13
553.417	8095.15
553.78	8196.17
554.143	8085.89
554.507	8168.15
554.87	8203.4
555.234	8186
555.597	8154.14
555.96	8157.75
556.323	8234.81
556.686	8235.94
557.05	8261.03
557.413	8260.57
557.776	8256.73
558.139	8355.03
558.502	8317.07
558.865	8264.42
559.228	8414.47
559.59	8389.38
559.953	8382.38
560.316	8448.59
560.679	8481.81
561.041	8509.61
561.404	8435.48
561.767	8574.01
562.129	8533.79
562.492	8578.98
562.854	8592.32
563.217	8607.46
563.579	8602.26
563.941	8620.79
564.304	8750.05
564.666	8777.17
565.028	8727.68
565.39	8729.71
565.753	8743.72
566.115	8740.11
566.477	8814.68
566.839	8874.79
567.201	8932.42
567.563	8844.97
567.925	8886.09
568.287	8931.97
568.648	8925.19
569.01	9007.45
569.372	9008.12
569.734	8920.9
570.095	9081.12
570.457	9083.38
570.819	9139.87
571.18	9097.16
571.542	9184.62
571.903	9171.28
572.265	9291.73
572.626	9223.26
572.987	9232.53
573.349	9260.32
573.71	9281.56
574.071	9332.86
574.432	9306.87
574.794	9403.59
575.155	9391.17
575.516	9378.28
575.877	9460.99
576.238	9487.66
576.599	9507.32
576.96	9552.97
577.32	9516.81
577.681	9621.22
578.042	9588.45
578.403	9605.4
578.763	9628.45
579.124	9656.92
579.485	9627.77
579.845	9734.66
580.206	9625.74
580.566	9662.8
580.927	9750.93
581.287	9782.12
581.648	9703.7
582.008	9737.15
582.368	9673.87
582.728	9769.69
583.089	9744.83
583.449	9776.92
583.809	9767.43
584.169	9744.15
584.529	9744.15
584.889	9853.07
585.249	9848.1
585.609	9798.61
585.969	9869.35
586.329	9835.22
586.688	9818.05
587.048	9817.82
587.408	9857.14
587.768	9824.37
588.127	9835.67
588.487	9774.43
588.846	9874.09
589.206	9848.33
589.565	9845.39
589.925	9881.55
590.284	9875.22
590.643	9833.87
591.003	9920.19
591.362	9897.59
591.721	9852.85
592.08	9910.93
592.44	9930.81
592.799	9889.68
593.158	9962.68
593.517	9990.47
593.876	9970.36
594.235	9911.38
594.593	9982.56
594.952	10013.75
595.311	9960.64
595.67	9980.75
596.029	10014.43
596.387	10007.42
596.746	10020.53
597.104	10007.42
597.463	10001.09
597.822	10084.48
598.18	10033.86
598.538	10005.39
598.897	10103.46
599.255	10046.06
599.613	10166.06
599.972	10114.31
600.33	10086.29
600.688	10026.63
601.046	10030.7
601.404	10150.69
601.762	10140.98
602.12	10143.69
602.478	10028.89
602.836	10173.29
603.194	10111.37
603.552	10159.73
603.91	10098.04
604.268	10121.09
604.625	10107.3
604.983	10192.05
605.341	10091.94
605.698	10178.49
606.056	10207.42
606.413	10212.84
606.771	10200.86
607.128	10181.43
607.485	10216.45
607.843	10255.1
608.2	10213.97
608.557	10240.86
608.914	10254.65
609.272	10261.65
609.629	10240.18
609.986	10366.28
610.343	10254.87
610.7	10263.01
611.057	10311.82
611.414	10375.09
611.771	10356.11
612.127	10361.08
612.484	10343.23
612.841	10327.41
613.198	10292.38
613.554	10355.66
613.911	10427.3
614.267	10371.48
614.624	10409.44
614.98	10403.12
615.337	10400.63
615.693	10384.36
616.05	10419.61
616.406	10511.36
616.762	10360.41
617.118	10446.5
617.475	10440.63
617.831	10510.46
618.187	10473.85
618.543	10556.78
618.899	10538.71
619.255	10506.84
619.611	10557.01
619.967	10557.01
620.323	10641.3
620.678	10586.16
621.034	10587.74
621.39	10560.4
621.746	10594.52
622.101	10748.19
622.457	10561.08
622.812	10641.3
623.168	10635.43
623.523	10645.37
623.879	10693.28
624.234	10577.35
624.589	10675.43
624.945	10696.89
625.3	10648.08
625.655	10710.23
626.01	10634.97
626.365	10716.55
626.72	10677.91
627.075	10682.2
627.43	10708.64
627.785	10638.14
628.14	10727.18
628.495	10766.95
628.85	10769.43
629.205	10689.89
629.559	10776.89
629.914	10663.67
630.269	10717.68
630.623	10758.81
630.978	10700.06
631.332	10811.24
631.687	10799.26
632.041	10751.13
632.396	10840.17
632.75	10718.81
633.104	10768.76
633.459	10649.66
633.813	10769.43
634.167	10779.6
634.521	10754.75
634.875	10856.89
635.229	10832.94
635.583	10828.19
635.937	10849.66
636.291	10824.12
636.645	10834.74
636.999	10840.17
637.352	10844.91
637.706	10837.68
638.06	10839.71
638.413	10867.96
638.767	10895.76
639.121	10860.28
639.474	10819.38
639.828	10831.81
640.181	10860.73
640.534	10915.87
640.888	10910.9
641.241	10788.19
641.594	10905.48
641.947	10904.57
642.301	10841.52
642.654	10945.02
643.007	10932.59
643.36	10980.28
643.713	10920.39
644.066	10971.69
644.419	10955.42
644.771	10957.45
645.124	10866.61
645.477	10903.44
645.83	10788.87
646.182	10760.85
646.535	10736.67
646.888	10785.93
647.24	10696.44
647.593	10747.51
647.945	10703.45
648.298	10660.74
648.65	10659.61
649.002	10683.79
649.355	10784.8
649.707	10763.56
650.059	10852.6
650.411	10997.45
650.763	10969.2
651.115	11162.19
651.467	11080.16
651.819	11157.9
652.171	11112.93
652.523	11163.55
652.875	11151.57
653.227	11102.98
653.578	11156.32
653.93	11096.66
654.282	11111.12
654.633	11176.43
654.985	11153.83
655.337	11157.67
655.688	11196.77
656.039	11223.21
656.391	11158.35
656.742	11144.34
657.094	11204
657.445	11209.65
657.796	11238.35
658.147	11155.19
658.498	11208.29
658.849	11290.1
659.2	11294.17
659.551	11180.95
659.902	11266.6
660.253	11269.08
660.604	11279.7
660.955	11249.87
661.306	11249.42
661.656	11210.78
662.007	11333.04
662.358	11264.56
662.708	11260.49
663.059	11267.05
663.409	11204.68
663.76	11322.87
664.11	11283.09
664.461	11287.39
664.811	11311.12
665.161	11244.68
665.511	11254.39
665.862	11289.65
666.212	11282.42
666.562	11287.16
666.912	11265.01
667.262	11283.09
667.612	11216.88
667.962	11321.06
668.312	11242.87
668.662	11266.14
669.011	11216.2
669.361	11196.77
669.711	11173.94
670.06	11156.54
670.41	11120.16
670.76	11120.61
671.109	11137.56
671.459	11103.44
671.808	11072.03
672.157	11142.31
672.507	10989.54
672.856	11011.24
673.205	11033.38
673.554	11033.16
673.904	11006.49
674.253	11053.04
674.602	11011.46
674.951	10878.13
675.3	10808.98
675.649	10951.58
675.998	10935.76
676.346	10993.61
676.695	11007.62
677.044	10797.91
677.393	10916.32
677.741	10835.87
678.09	10799.04
678.438	10769.89
678.787	10825.48
679.135	10811.47
679.484	10662.09
679.832	10724.46
680.181	10756.33
680.529	10689.66
680.877	10599.95
681.225	10662.54
681.573	10688.76
681.922	10564.92
682.27	10512.27
682.618	10546.62
682.966	10540.74
683.314	10545.94
683.661	10481.76
684.009	10466.84
684.357	10316.11
684.705	10385.72
685.053	10402.44
685.4	10376.22
685.748	10324.02
686.095	10309.33
686.443	10287.64
686.79	10334.42
687.138	10292.84
687.485	10310.46
687.832	10264.59
688.18	10229.34
688.527	10172.61
688.874	10194.31
689.221	10176.46
689.568	10286.96
689.915	10171.26
690.262	10153.63
690.609	10149.56
690.956	10155.44
691.303	10097.59
691.65	10072.73
691.997	10049.23
692.344	9999.06
692.69	9941.21
693.037	10021.43
693.383	9946.18
693.73	9997.48
694.077	9913.41
694.423	9920.19
694.769	9897.82
695.116	9898.72
695.462	9838.61
695.808	9843.13
696.155	9895.33
696.501	9867.54
696.847	9897.14
697.193	9827.99
697.539	9787.77
697.885	9689.46
698.231	9766.52
698.577	9723.59
698.923	9779.63
699.269	9683.81
699.614	9681.55
699.96	9631.39
700.306	9659.41
700.651	9697.6
700.997	9584.38
701.342	9636.13
701.688	9644.94
702.033	9598.17
702.379	9581.44
702.724	9549.81
703.069	9572.4
703.415	9556.81
703.76	9487.89
704.105	9557.71
704.45	9450.37
704.795	9479.98
705.14	9503.7
705.485	9482.46
705.83	9348.91
706.175	9449.24
706.52	9448.57
706.865	9429.81
707.209	9413.54
707.554	9385.52
707.899	9324.95
708.243	9379.41
708.588	9320.43
708.932	9316.59
709.277	9349.58
709.621	9305.29
709.966	9304.16
710.31	9316.14
710.654	9215.58
710.998	9261.9
711.342	9275.69
711.687	9258.29
712.031	9282.69
712.375	9206.76
712.719	9200.44
713.063	9246.31
713.407	9347.1
713.75	9202.24
714.094	9197.5
714.438	9167.22
714.782	9212.87
715.125	9223.49
715.469	9184.39
715.812	9217.16
716.156	9167.67
716.499	9145.3
716.843	9203.83
717.186	9219.87
717.53	9145.3
717.873	9169.93
718.216	9178.74
718.559	9102.36
718.902	9121.34
719.246	9115.01
719.589	9070.04
719.932	9007.9
720.275	9112.53
720.617	9087.44
720.96	9084.73
721.303	9058.29
721.646	9047.45
721.989	8996.37
722.331	9068.46
722.674	9043.15
723.016	9070.95
723.359	9060.33
723.701	9062.59
724.044	8990.27
724.386	9021.46
724.729	9058.52
725.071	9047.9
725.413	9019.42
725.755	8967.9
726.097	8982.36
726.439	8957.73
726.782	8962.93
727.124	9078.86
727.465	8986.43
727.807	8985.3
728.149	8976.71
728.491	8937.62
728.833	8976.04
729.175	8993.89
729.516	8946.88
729.858	8971.74
730.199	9004.73
730.541	9000.89
730.882	9084.96
731.224	9086.31
731.565	9002.02
731.906	9034.34
732.248	8992.76
732.589	9051.29
732.93	8983.49
733.271	9025.53
733.612	9038.86
733.953	9080.67
734.294	9022.59
734.635	9003.38
734.976	9089.25
735.317	9024.17
735.658	9062.81
735.999	9101.23
736.339	9060.78
736.68	9083.15
737.021	9056.71
737.361	9044.51
737.702	9107.11
738.042	9211.28
738.383	9129.48
738.723	9204.5
739.063	9156.14
739.404	9230.04
739.744	9211.51
740.084	9163.15
740.424	9251.96
740.764	9242.47
741.104	9258.29
741.444	9228.23
741.784	9244.73
742.124	9388
742.464	9336.7
742.804	9396.59
743.143	9290.38
743.483	9363.6
743.823	9306.87
744.162	9366.99
744.502	9440.88
744.841	9406.31
745.181	9437.49
745.52	9438.85
745.86	9456.93
746.199	9453.99
746.538	9470.94
746.877	9581.44
747.216	9596.81
747.556	9558.84
747.895	9628.9
748.234	9635.68
748.573	9597.26
748.911	9670.03
749.25	9654.44
749.589	9614.21
749.928	9666.19
750.267	9746.64
750.605	9803.13
750.944	9808.33
751.283	9778.05
751.621	9782.12
751.96	9757.94
752.298	9824.83
752.636	9858.72
752.975	9889.68
753.313	9877.71
753.651	9983.69
753.989	9923.81
754.327	9933.98
754.666	9911.15
755.004	9987.31
755.342	10097.81
755.679	10029.57
756.017	10030.47
756.355	10132.61
756.693	10117.47
757.031	10107.98
757.368	10093.52
757.706	10123.12
758.044	10131.71
758.381	10141.43
758.719	10190.24
759.056	10188.88
759.394	10183.01
759.731	10185.72
760.068	10252.61
760.405	10157.7
760.743	10170.58
761.08	10246.74
761.417	10218.26
761.754	10179.39
762.091	10214.65
762.428	10273.85
762.765	10201.54
763.102	10336.9
763.438	10289.67
763.775	10237.47
764.112	10239.5
764.449	10390.01
764.785	10368.77
765.122	10333.51
765.458	10271.59
765.795	10359.5
766.131	10352.04
766.467	10351.59
766.804	10310.24
767.14	10250.13
767.476	10389.78
767.812	10341.87
768.148	10407.18
768.485	10378.94
768.821	10331.93
769.157	10378.71
769.492	10342.33
769.828	10353.63
770.164	10337.81
770.5	10376.45
770.836	10436.34
771.171	10332.61
771.507	10383.23
771.842	10262.33
772.178	10391.82
772.513	10301.65
772.849	10322.89
773.184	10380.97
773.519	10360.86
773.855	10284.02
774.19	10298.94
774.525	10296.45
774.86	10326.73
775.195	10305.27
775.53	10326.73
775.865	10355.89
776.2	10274.53
776.535	10212.16
776.87	10359.5
777.205	10199.96
777.539	10253.52
777.874	10308.66
778.209	10241.09
778.543	10272.5
778.878	10220.3
779.212	10234.31
779.547	10250.58
779.881	10207.42
780.215	10223.91
780.55	10190.01
780.884	10172.39
781.218	10230.69
781.552	10216.45
781.886	10151.37
782.22	10181.2
782.554	10054.88
782.888	10068.89
783.222	10099.4
783.556	10072.96
783.889	10135.55
784.223	10056.68
784.557	10085.61
784.89	10069.11
785.224	10052.39
785.557	10009.68
785.891	10017.36
786.224	10098.04
786.558	10029.11
786.891	9975.56
787.224	9945.28
787.557	9950.47
787.891	9950.02
788.224	9994.09
788.557	9985.73
788.89	10006.74
789.223	9970.59
789.556	10009.45
789.888	9898.72
790.221	9916.8
790.554	9831.15
790.887	9831.15
791.219	9845.39
791.552	9830.02
791.884	9788.22
792.217	9874.99
792.549	9751.38
792.882	9751.61
793.214	9739.63
793.546	9759.74
793.879	9729.91
794.211	9674.55
794.543	9764.26
794.875	9692.85
795.207	9686.75
795.539	9738.95
795.871	9673.87
796.203	9670.03
796.535	9604.72
796.867	9598.17
797.198	9582.12
797.53	9634.55
797.862	9500.09
798.193	9595
798.525	9482.69
798.856	9609.01
799.188	9495.8
799.519	9514.1
799.85	9438.85
800.182	9493.54
800.513	9519.52
800.844	9359.98
801.175	9507.55
801.506	9473.2
801.837	9460.09
802.168	9429.81
802.499	9390.49
802.83	9352.52
803.161	9369.25
803.491	9390.49
803.822	9424.38
804.153	9344.61
804.483	9303.03
804.814	9264.39
805.145	9283.82
805.475	9296.7
805.805	9220.1
806.136	9252.64
806.466	9247.89
806.796	9229.36
807.126	9179.65
807.457	9211.96
807.787	9179.87
808.117	9090.61
808.447	9120.66
808.777	9134.9
809.107	9170.61
809.436	9136.93
809.766	9122.47
810.096	9053.32
810.426	9096.71
810.755	9093.09
811.085	9012.64
811.414	9062.59
811.744	8977.17
812.073	8975.58
812.403	8962.25
812.732	8961.57
813.061	8922.25
813.39	8913.21
813.719	8873.44
814.049	8929.26
814.378	8874.12
814.707	8907.56
815.036	8905.75
815.365	8833.21
815.693	8781.24
816.022	8824.85
816.351	8783.95
816.68	8766.78
817.008	8818.98
817.337	8761.58
817.665	8741.01
817.994	8727.91
818.322	8735.59
818.651	8701.01
818.979	8669.83
819.307	8716.61
819.636	8646.1
819.964	8581.7
820.292	8708.47
820.62	8655.37
820.948	8660.56
821.276	8713.22
821.604	8613.33
821.932	8729.04
822.259	8664.18
822.587	8662.6
822.915	8603.84
823.243	8705.76
823.57	8613.11
823.898	8647
824.225	8681.35
824.553	8659.89
824.88	8650.62
825.207	8693.78
825.535	8703.73
825.862	8724.52
826.189	8672.54
826.516	8767.23
826.843	8727.23
827.17	8764.52
827.497	8721.13
827.824	8792.76
828.151	8788.24
828.478	8706.89
828.805	8835.02
829.131	8723.16
829.458	8722.26
829.785	8694.46
830.111	8701.69
830.438	8859.88
830.764	8729.49
831.09	8781.92
831.417	8716.15
831.743	8767.91
832.069	8767.23
832.395	8798.19
832.722	8821.46
833.048	8705.53
833.374	8719.32
833.7	8736.27
834.026	8775.81
834.351	8741.24
834.677	8712.99
835.003	8732.88
835.329	8674.35
835.654	8697.85
835.98	8719.09
836.306	8743.27
836.631	8665.99
836.956	8688.13
837.282	8675.7
837.607	8689.72
837.932	8687.46
838.258	8618.3
838.583	8663.28
838.908	8586.44
839.233	8645.42
839.558	8653.11
839.883	8647.68
840.208	8537.85
840.533	8602.49
840.858	8620.11
841.182	8587.12
841.507	8555.48
841.832	8542.37
842.156	8517.74
842.481	8503.73
842.805	8461.02
843.13	8521.58
843.454	8434.81
843.778	8465.54
844.103	8408.14
844.427	8385.99
844.751	8482.71
845.075	8350.74
845.399	8392.55
845.723	8301.48
846.047	8369.72
846.371	8210.86
846.695	8300.57
847.019	8225.55
847.343	8216.73
847.666	8132.22
847.99	8167.47
848.313	8195.04
848.637	8072.56
848.96	8083.86
849.284	8033.46
849.607	8031.65
849.931	7934.25
850.254	7936.29
850.577	7837.31
850.9	7815.39
851.223	7833.47
851.546	7780.13
851.869	7754.82
852.192	7781.49
852.515	7643.87
852.838	7698.78
853.161	7680.7
853.483	7585.79
853.806	7629.18
854.129	7599.35
854.451	7578.11
854.774	7528.62
855.096	7533.14
855.419	7499.46
855.741	7445.68
856.063	7430.77
856.385	7474.38
856.708	7408.39
857.03	7371.56
857.352	7368.39
857.674	7382.86
857.996	7321.39
858.318	7305.8
858.64	7314.38
858.961	7283.88
859.283	7306.93
859.605	7238.45
859.926	7213.82
860.248	7251.33
860.57	7165.24
860.891	7200.71
861.212	7211.56
861.534	7139.25
861.855	7152.13
862.176	7178.34
862.498	7159.13
862.819	7143.09
863.14	7031.45
863.461	7154.39
863.782	7029.19
864.103	7077.33
864.424	7044.11
864.745	7039.59
865.065	6998.23
865.386	6989.42
865.707	6948.29
866.027	6998.69
866.348	7006.14
866.668	6963.43
866.989	6948.52
867.309	6933.15
867.63	6982.87
867.95	6950.33
868.27	6884.79
868.59	6948.29
868.91	6916.65
869.23	6903.1
869.55	6857.22
869.87	6946.71
870.19	6881.63
870.51	6913.04
870.83	6901.06
871.15	6842.98
871.469	6835.07
871.789	6831.46
872.109	6837.33
872.428	6783.1
872.748	6798.01
873.067	6835.53
873.386	6727.05
873.706	6752.59
874.025	6732.48
874.344	6738.58
874.663	6709.88
874.982	6681.41
875.301	6741.97
875.62	6699.26
875.939	6679.82
876.258	6706.04
876.577	6664.01
876.896	6706.04
877.214	6613.84
877.533	6646.38
877.852	6638.02
878.17	6654.51
878.489	6596.21
878.807	6627.62
879.125	6643.67
879.444	6589.66
879.762	6556.21
880.08	6562.09
880.398	6493.84
880.716	6518.02
881.034	6554.4
881.352	6535.65
881.67	6476.44
881.988	6536.78
882.306	6461.98
882.624	6482.77
882.941	6457.91
883.259	6459.72
883.577	6434.63
883.894	6395.31
884.212	6444.58
884.529	6429.66
884.846	6328.65
885.164	6346.05
885.481	6311.7
885.798	6337.91
886.115	6255.65
886.432	6324.58
886.75	6259.72
887.067	6290.68
887.383	6225.83
887.7	6265.37
888.017	6211.81
888.334	6274.41
888.651	6145.38
888.967	6184.7
889.284	6179.27
889.6	6151.7
889.917	6089.56
890.233	6145.38
890.55	6108.99
890.866	6068.77
891.182	6117.58
891.498	6026.06
891.815	6067.86
892.131	6042.33
892.447	5998.03
892.763	5965.72
893.079	5977.7
893.395	5949
893.71	5915.78
894.026	5910.13
894.342	5921.88
894.657	5867.64
894.973	5905.61
895.289	5871.26
895.604	5831.94
895.92	5820.86
896.235	5844.59
896.55	5775.67
896.865	5793.07
897.181	5739.06
897.496	5742
897.811	5705.16
898.126	5668.33
898.441	5678.27
898.756	5632.39
899.071	5674.2
899.386	5615.67
899.7	5595.33
900.015	5599.85
900.33	5599.17
900.644	5524.6
900.959	5526.41
901.273	5505.84
901.588	5457.71
901.902	5463.36
902.216	5439.86
902.531	5474.66
902.845	5396.69
903.159	5355.34
903.473	5346.98
903.787	5361.89
904.101	5313.98
904.415	5319.41
904.729	5344.72
905.042	5283.25
905.356	5243.7
905.67	5181.33
905.984	5258.62
906.297	5210.94
906.611	5193.99
906.924	5124.61
907.237	5179.75
907.551	5109.7
907.864	5120.54
908.177	5095.69
908.491	5099.07
908.804	5045.97
909.117	5034.44
909.43	5045.07
909.743	4977.27
910.056	4974.78
910.368	4965.07
910.681	4908.8
910.994	4894.56
911.307	4892.07
911.619	4856.37
911.932	4868.12
912.244	4866.99
912.557	4826.77
912.869	4820.44
913.181	4802.81
913.494	4843.26
913.806	4769.37
914.118	4712.64
914.43	4652.76
914.742	4699.99
915.054	4635.81
915.366	4627.45
915.678	4634.45
915.99	4619.31
916.302	4652.76
916.613	4582.48
916.925	4577.05
917.236	4565.3
917.548	4504.97
917.859	4525.3
918.171	4500.9
918.482	4502.03
918.794	4432.2
919.105	4481.46
919.416	4438.98
919.727	4421.35
920.038	4404.86
920.349	4361.69
920.66	4384.07
920.971	4372.99
921.282	4348.59
921.593	4316.95
921.903	4204.64
922.214	4246.67
922.525	4229.04
922.835	4261.36
923.146	4232.66
923.456	4192.43
923.767	4203.05
924.077	4150.63
924.387	4144.75
924.697	4093.23
925.008	4114.92
925.318	4137.07
925.628	4067.24
925.938	4106.11
926.248	4040.8
926.558	4053.23
926.867	4022.72
927.177	3984.98
927.487	3942.72
927.796	3952.66
928.106	3890.97
928.416	3969.39
928.725	3925.09
929.034	3893.46
929.344	3919.22
929.653	3883.97
929.962	3860.24
930.271	3808.26
930.581	3875.15
930.89	3775.49
931.199	3799
931.508	3762.16
931.817	3772.1
932.125	3765.32
932.434	3755.16
932.743	3710.41
933.051	3688.94
933.36	3694.82
933.669	3697.76
933.977	3638.55
934.286	3707.7
934.594	3651.43
934.902	3607.59
935.21	3589.06
935.519	3593.13
935.827	3549.96
936.135	3546.57
936.443	3515.84
936.751	3502.51
937.059	3525.11
937.367	3477.65
937.674	3493.47
937.982	3465.45
938.29	3470.64
938.597	3453.24
938.905	3394.94
939.213	3414.37
939.52	3399.46
939.827	3392.91
940.135	3391.32
940.442	3338.67
940.749	3378.67
941.056	3337.09
941.363	3326.69
941.67	3325.34
941.977	3345.67
942.284	3267.71
942.591	3262.97
942.898	3241.04
943.205	3239.69
943.511	3229.29
943.818	3234.49
944.125	3161.27
944.431	3187.71
944.738	3179.13
945.044	3146.36
945.35	3146.13
945.657	3130.31
945.963	3079.02
946.269	3154.27
946.575	3102.52
946.881	3109.07
947.187	3081.73
947.493	3084.89
947.799	3040.37
948.105	3028.39
948.41	3007.83
948.716	3001.5
949.022	3027.04
949.327	2970.32
949.633	2950.2
949.938	2958.57
950.244	2932.58
950.549	2967.38
950.854	2900.94
951.16	2882.18
951.465	2888.74
951.77	2891.22
952.075	2885.35
952.38	2904.78
952.685	2877.21
952.99	2847.38
953.294	2825.46
953.599	2798.34
953.904	2788.4
954.209	2785.92
954.513	2818.01
954.818	2763.32
955.122	2765.35
955.426	2731.23
955.731	2760.15
956.035	2743.43
956.339	2717.44
956.643	2714.73
956.948	2698.01
957.252	2673.38
957.556	2704.34
957.86	2645.13
958.163	2667.5
958.467	2650.1
958.771	2629.54
959.075	2625.69
959.378	2614.17
959.682	2588.86
959.985	2622.53
960.289	2563.77
960.592	2599.03
960.896	2554.28
961.199	2591.34
961.502	2588.18
961.805	2524
962.108	2513.38
962.411	2525.58
962.714	2475.64
963.017	2477.45
963.32	2455.75
963.623	2465.25
963.926	2472.93
964.228	2428.41
964.531	2428.86
964.833	2444.23
965.136	2409.88
965.438	2391.12
965.741	2401.52
966.043	2410.56
966.345	2352.48
966.648	2366.04
966.95	2342.31
967.252	2351.8
967.554	2339.37
967.856	2315.87
968.158	2308.64
968.46	2323.55
968.761	2299.37
969.063	2273.16
969.365	2297.34
969.666	2265.48
969.968	2272.71
970.269	2213.28
970.571	2206.04
970.872	2239.72
971.174	2225.7
971.475	2227.96
971.776	2182.99
972.077	2165.59
972.378	2209.43
972.679	2187.29
972.98	2175.99
973.281	2162.88
973.582	2142.32
973.883	2149.77
974.183	2150.9
974.484	2147.97
974.785	2121.3
975.085	2116.55
975.386	2074.75
975.686	2098.25
975.986	2142.77
976.287	2092.6
976.587	2046.5
976.887	2027.97
977.187	2049.44
977.487	2048.31
977.787	2037.23
978.087	2033.17
978.387	2006.5
978.687	1985.48
978.987	1980.06
979.286	1990.23
979.586	1980.96
979.885	1963.34
980.185	1992.49
980.484	1947.07
980.784	1944.13
981.083	1935.54
981.382	1932.6
981.682	1938.48
981.981	1921.31
982.28	1939.84
982.579	1881.53
982.878	1881.31
983.177	1887.63
983.475	1890.12
983.774	1892.61
984.073	1858.03
984.372	1865.49
984.67	1863.91
984.969	1848.31
985.267	1862.32
985.566	1840.63
985.864	1853.06
986.162	1818.26
986.461	1818.26
986.759	1800.63
987.057	1784.81
987.355	1763.8
987.653	1804.25
987.951	1767.19
988.249	1764.7
988.547	1764.25
988.844	1745.94
989.142	1741.88
989.44	1716.34
989.737	1714.98
990.035	1702.55
990.332	1713.85
990.63	1700.52
990.927	1708.2
991.224	1701.88
991.521	1670.24
991.819	1641.99
992.116	1668.88
992.413	1647.64
992.71	1674.76
993.006	1649.45
993.303	1630.69
993.6	1631.14
993.897	1625.04
994.193	1622.56
994.49	1603.12
994.787	1625.72
995.083	1590.69
995.379	1598.6
995.676	1574.42
995.972	1591.37
996.268	1565.83
996.565	1590.01
996.861	1526.51
997.157	1559.28
997.453	1555.89
997.749	1521.99
998.044	1529
998.34	1523.35
998.636	1534.42
998.932	1506.85
999.227	1480.87
999.523	1521.77
999.818	1479.06
1000.114	1469.11
1000.409	1495.1
1000.704	1457.59
1001	1439.51
1001.295	1439.28
1001.59	1446.97
1001.885	1461.2
1002.18	1421.21
1002.475	1413.97
1002.77	1389.57
1003.065	1420.75
1003.359	1427.08
1003.654	1394.99
1003.949	1394.54
1004.243	1369.91
1004.538	1385.27
1004.832	1390.7
1005.127	1348.89
1005.421	1354.99
1005.715	1345.95
1006.009	1346.86
1006.304	1343.92
1006.598	1356.8
1006.892	1317.03
1007.186	1328.1
1007.48	1317.25
1007.773	1287.42
1008.067	1303.24
1008.361	1285.84
1008.655	1270.48
1008.948	1265.05
1009.242	1282.45
1009.535	1247.88
1009.829	1252.85
1010.122	1242.45
1010.415	1217.14
1010.708	1239.06
1011.001	1251.27
1011.295	1223.7
1011.588	1196.13
1011.881	1201.78
1012.173	1200.42
1012.466	1189.35
1012.759	1205.17
1013.052	1202.23
1013.344	1171.04
1013.637	1195
1013.93	1156.81
1014.222	1151.38
1014.514	1135.34
1014.807	1150.48
1015.099	1128.78
1015.391	1148.22
1015.683	1125.62
1015.976	1138.05
1016.268	1097.82
1016.56	1115.68
1016.851	1080.65
1017.143	1109.35
1017.435	1108.45
1017.727	1079.07
1018.018	1077.94
1018.31	1084.94
1018.602	1067.77
1018.893	1071.16
1019.185	1069.12
1019.476	1039.97
1019.767	1052.4
1020.058	1031.16
1020.35	1047.43
1020.641	1028.45
1020.932	1041.33
1021.223	1018.73
1021.514	998.39
1021.804	986.41
1022.095	992.06
1022.386	1003.14
1022.677	986.87
1022.967	994.32
1023.258	949.13
1023.548	964.72
1023.839	980.31
1024.129	969.24
1024.419	943.93
1024.709	947.32
1025	937.83
1025.29	933.31
1025.58	935.12
1025.87	916.36
1026.16	926.3
1026.449	906.19
1026.739	915.91
1027.029	914.78
1027.319	903.25
1027.608	902.35
1027.898	915.46
1028.187	885.17
1028.477	893.54
1028.766	891.05
1029.055	856.02
1029.344	876.81
1029.634	853.08
1029.923	871.84
1030.212	859.19
1030.501	870.71
1030.79	844.72
1031.078	828.45
1031.367	825.97
1031.656	845.85
1031.945	842.01
1032.233	836.36
1032.522	835.46
1032.81	828.45
1033.099	793.65
1033.387	794.33
1033.675	787.1
1033.963	779.64
1034.251	797.49
1034.54	779.19
1034.828	780.77
1035.116	768.79
1035.403	782.58
1035.691	756.59
1035.979	761.11
1036.267	776.48
1036.554	763.82
1036.842	752.07
1037.129	744.39
1037.417	731.73
1037.704	730.38
1037.992	730.6
1038.279	738.06
1038.566	719.08
1038.853	719.08
1039.14	719.08
