Data from blue_chair_FLMS001491_00009.txt Node
Date: Wed Feb 08 10:28:56 GMT 2017
User: dcchb
Spectrometer: FLMS00149
Trigger mode: 0
Integration Time (sec): 2.000000E-2
Scans to average: 10
Electric dark correction enabled: true
Nonlinearity correction enabled: false
Boxcar width: 0
XAxis mode: Wavelengths
Number of Pixels in Spectrum: 2048
>>>>>Begin Spectral Data<<<<<
341.393	-19.05
341.776	-19.05
342.16	-19.05
342.543	-48.66
342.927	-80.29
343.31	-60.41
343.693	-67.19
344.077	-61.99
344.46	-54.31
344.843	-44.82
345.226	-46.17
345.61	-44.82
345.993	-9.11
346.376	-13.63
346.759	-13.4
347.142	31.12
347.525	54.62
347.908	56.88
348.291	68.18
348.674	93.03
349.057	112.02
349.44	118.12
349.823	129.42
350.206	153.15
350.588	180.49
350.971	202.64
351.354	195.63
351.737	211.9
352.119	221.84
352.502	244.67
352.884	265.01
353.267	262.3
353.65	254.84
354.032	264.33
354.414	286.02
354.797	295.06
355.179	300.26
355.562	285.57
355.944	300.49
356.326	295.29
356.709	306.36
357.091	298.23
357.473	332.12
357.855	312.92
358.238	307.04
358.62	304.55
359.002	298.68
359.384	320.82
359.766	313.14
360.148	323.76
360.53	310.66
360.912	301.62
361.294	315.18
361.676	297.55
362.057	313.37
362.439	296.64
362.821	279.02
363.203	286.02
363.584	308.85
363.966	287.38
364.348	297.32
364.729	289.19
365.111	312.24
365.493	285.57
365.874	305.68
366.256	291.22
366.637	298.9
367.019	280.15
367.4	278.11
367.781	279.02
368.163	286.48
368.544	288.06
368.925	267.27
369.306	283.99
369.688	287.38
370.069	286.93
370.45	280.15
370.831	277.44
371.212	269.75
371.593	293.48
371.974	286.48
372.355	278.57
372.736	276.53
373.117	283.54
373.498	260.71
373.879	272.46
374.26	274.5
374.641	303.42
375.021	278.11
375.402	284.44
375.783	277.89
376.163	297.77
376.544	271.56
376.925	281.5
377.305	300.03
377.686	281.73
378.066	289.87
378.447	298.9
378.827	292.58
379.208	279.7
379.588	277.44
379.968	309.75
380.349	296.87
380.729	312.92
381.109	294.84
381.489	310.2
381.87	297.55
382.25	296.87
382.63	288.74
383.01	292.58
383.39	292.13
383.77	311.79
384.15	287.61
384.53	276.31
384.91	298
385.29	297.32
385.67	299.58
386.049	315.63
386.429	298.45
386.809	302.97
387.189	324.89
387.568	309.3
387.948	297.55
388.328	319.92
388.707	313.59
389.087	318.79
389.466	287.83
389.846	293.93
390.225	323.99
390.605	318.34
390.984	322.86
391.363	320.37
391.743	308.4
392.122	302.29
392.501	294.16
392.881	329.41
393.26	324.67
393.639	321.95
394.018	315.63
394.397	319.02
394.776	307.04
395.155	337.77
395.534	318.79
395.913	331.22
396.292	334.38
396.671	343.88
397.05	315.18
397.429	330.32
397.808	317.66
398.186	332.8
398.565	337.77
398.944	324.67
399.323	323.54
399.701	362.41
400.08	325.8
400.458	320.6
400.837	342.52
401.215	330.54
401.594	337.77
401.972	330.54
402.351	360.37
402.729	339.58
403.107	344.78
403.486	344.78
403.864	344.1
404.242	343.65
404.62	358.56
404.999	367.15
405.377	357.21
405.755	341.16
406.133	372.8
406.511	358.34
406.889	370.77
407.267	344.1
407.645	378
408.023	360.82
408.401	350.88
408.779	378
409.156	378.22
409.534	370.77
409.912	373.25
410.29	386.13
410.667	368.28
411.045	396.76
411.422	384.78
411.8	396.08
412.178	365.57
412.555	396.08
412.933	386.59
413.31	394.04
413.687	393.14
414.065	400.14
414.442	414.61
414.819	423.65
415.197	392.91
415.574	402.86
415.951	413.25
416.328	408.05
416.705	399.92
417.082	423.42
417.46	414.16
417.837	414.38
418.214	425.91
418.591	420.94
418.967	428.62
419.344	433.36
419.721	407.15
420.098	438.56
420.475	424.33
420.852	431.1
421.228	411.67
421.605	438.79
421.982	430.88
422.358	435.17
422.735	424.55
423.111	429.52
423.488	443.76
423.864	461.84
424.241	453.7
424.617	454.38
424.994	446.7
425.37	472.46
425.746	475.17
426.123	485.34
426.499	476.08
426.875	481.27
427.251	487.37
427.627	491.44
428.003	486.47
428.379	507.49
428.756	496.64
429.132	468.17
429.507	480.59
429.883	498
430.259	507.71
430.635	502.97
431.011	501.39
431.387	520.59
431.763	528.28
432.138	519.46
432.514	533.93
432.89	518.56
433.265	528.5
433.641	544.77
434.016	552.23
434.392	541.16
434.767	533.7
435.143	561.5
435.518	589.97
435.894	591.1
436.269	570.08
436.644	570.08
437.02	594.04
437.395	592.23
437.77	591.78
438.145	624.09
438.52	597.65
438.895	646.01
439.271	655.96
439.646	630.2
440.021	654.83
440.395	652.12
440.77	624.77
441.145	639.69
441.52	656.64
441.895	652.12
442.27	671.78
442.645	646.24
443.019	681.27
443.394	660.03
443.769	684.21
444.143	677.88
444.518	679.69
444.892	703.19
445.267	683.08
445.641	721.27
446.016	713.13
446.39	714.26
446.764	699.57
447.139	714.94
447.513	739.57
447.887	732.11
448.262	728.27
448.636	730.98
449.01	746.12
449.384	741.83
449.758	775.5
450.132	771.21
450.506	775.05
450.88	761.49
451.254	758.1
451.628	752.45
452.002	794.48
452.376	754.03
452.75	804.65
453.123	803.98
453.497	802.85
453.871	810.3
454.244	827.93
454.618	804.88
454.992	818.44
455.365	810.76
455.739	845.56
456.112	832.45
456.486	833.58
456.859	841.94
457.232	869.96
457.606	865.9
457.979	869.29
458.352	864.77
458.725	863.86
459.099	893.01
459.472	906.57
459.845	883.07
460.218	892.11
460.591	897.53
460.964	911.77
461.337	908.83
461.71	925.1
462.083	944.76
462.456	942.73
462.829	957.42
463.201	954.03
463.574	962.16
463.947	961.71
464.32	975.72
464.692	972.79
465.065	956.74
465.438	980.24
465.81	1018.43
466.183	1036.51
466.555	1032.9
466.928	1009.39
467.3	1053.24
467.672	1048.26
468.045	1064.99
468.417	1035.38
468.789	1062.05
469.161	1066.34
469.534	1064.76
469.906	1096.85
470.278	1095.95
470.65	1093.23
471.022	1137.75
471.394	1098.43
471.766	1143.85
472.138	1141.37
472.51	1133.01
472.882	1130.07
473.253	1165.1
473.625	1163.74
473.997	1213
474.369	1181.59
474.74	1208.71
475.112	1200.35
475.484	1235.15
475.855	1213.46
476.227	1240.12
476.598	1265.21
476.97	1238.54
477.341	1302.49
477.713	1264.53
478.084	1312.44
478.455	1320.35
478.827	1311.99
479.198	1307.24
479.569	1342.04
479.94	1354.47
480.311	1368.03
480.682	1356.96
481.053	1396.73
481.424	1394.92
481.795	1417.75
482.166	1406.22
482.537	1423.39
482.908	1433.34
483.279	1433.56
483.65	1466.78
484.021	1489.83
484.391	1465.2
484.762	1503.84
485.133	1492.09
485.503	1475.14
485.874	1534.13
486.244	1524.18
486.615	1513.34
486.985	1520.34
487.356	1549.95
487.726	1557.85
488.097	1569.61
488.467	1563.05
488.837	1586.33
489.207	1586.1
489.578	1616.38
489.948	1618.64
490.318	1599.44
490.688	1646.44
491.058	1608.7
491.428	1639.43
491.798	1617.06
492.168	1624.29
492.538	1623.39
492.908	1655.03
493.278	1640.11
493.648	1623.84
494.017	1641.92
494.387	1674.46
494.757	1651.19
495.126	1622.26
495.496	1661.35
495.866	1667.91
496.235	1645.99
496.605	1672.65
496.974	1621.13
497.344	1650.73
497.713	1659.09
498.082	1608.25
498.452	1638.98
498.821	1641.24
499.19	1639.66
499.559	1620.9
499.928	1639.66
500.298	1641.24
500.667	1631.3
501.036	1636.95
501.405	1622.94
501.774	1642.82
502.143	1616.61
502.512	1645.08
502.88	1617.29
503.249	1605.54
503.618	1622.49
503.987	1598.98
504.356	1619.1
504.724	1603.5
505.093	1590.62
505.462	1610.96
505.83	1617.51
506.199	1619.55
506.567	1631.52
506.936	1596.95
507.304	1607.8
507.672	1568.25
508.041	1624.97
508.409	1608.7
508.777	1600.79
509.145	1566.89
509.514	1563.05
509.882	1577.06
510.25	1559.66
510.618	1576.39
510.986	1588.81
511.354	1584.29
511.722	1586.33
512.09	1585.65
512.458	1558.76
512.826	1588.14
513.193	1555.37
513.561	1545.65
513.929	1553.79
514.297	1553.33
514.664	1572.09
515.032	1530.06
515.4	1518.53
515.767	1515.37
516.135	1509.95
516.502	1513.11
516.869	1555.14
517.237	1516.5
517.604	1493.22
517.972	1498.87
518.339	1470.63
518.706	1492.55
519.073	1468.37
519.44	1461.81
519.808	1497.29
520.175	1454.35
520.542	1470.4
520.909	1474.24
521.276	1469.27
521.643	1447.57
522.009	1450.74
522.376	1481.7
522.743	1471.76
523.11	1484.41
523.477	1442.15
523.843	1439.67
524.21	1459.1
524.577	1445.77
524.943	1442.6
525.31	1440.57
525.676	1442.6
526.043	1404.41
526.409	1434.69
526.776	1468.14
527.142	1452.32
527.508	1423.85
527.874	1435.15
528.241	1454.81
528.607	1474.69
528.973	1436.28
529.339	1434.02
529.705	1429.27
530.071	1457.97
530.437	1462.72
530.803	1403.51
531.169	1457.74
531.535	1424.75
531.901	1438.08
532.267	1434.02
532.632	1436.73
532.998	1426.56
533.364	1451.19
533.73	1424.98
534.095	1422.94
534.461	1415.94
534.826	1426.11
535.192	1381.59
535.557	1423.17
535.923	1425.43
536.288	1395.82
536.653	1405.32
537.019	1417.52
537.384	1421.36
537.749	1381.36
538.114	1401.93
538.479	1384.07
538.845	1379.78
539.21	1397.18
539.575	1402.83
539.94	1390.4
540.305	1385.88
540.67	1375.03
541.034	1384.98
541.399	1373
541.764	1392.89
542.129	1391.08
542.494	1399.21
542.858	1380.91
543.223	1390.85
543.587	1360.35
543.952	1373.23
544.316	1389.95
544.681	1379.55
545.045	1356.96
545.41	1364.19
545.774	1359.44
546.138	1376.39
546.503	1363.28
546.867	1352.89
547.231	1362.83
547.595	1347.46
547.959	1336.62
548.324	1360.35
548.688	1328.03
549.052	1345.88
549.416	1342.49
549.779	1337.97
550.143	1348.37
550.507	1360.8
550.871	1351.53
551.235	1316.28
551.599	1328.26
551.962	1331.87
552.326	1342.27
552.689	1329.84
553.053	1321.48
553.417	1317.86
553.78	1314.47
554.143	1322.83
554.507	1327.8
554.87	1304.53
555.234	1335.04
555.597	1319.67
555.96	1290.29
556.323	1281.93
556.686	1330.97
557.05	1274.7
557.413	1295.04
557.776	1328.26
558.139	1306.79
558.502	1291.42
558.865	1308.37
559.228	1305.66
559.59	1282.16
559.953	1295.94
560.316	1321.25
560.679	1314.47
561.041	1298.43
561.404	1299.78
561.767	1305.21
562.129	1315.15
562.492	1318.31
562.854	1321.48
563.217	1293
563.579	1333.68
563.941	1311.31
564.304	1329.84
564.666	1341.82
565.028	1303.62
565.39	1301.59
565.753	1324.64
566.115	1327.35
566.477	1340.46
566.839	1326.45
567.201	1336.62
567.563	1328.48
567.925	1333.45
568.287	1357.41
568.648	1357.41
569.01	1301.36
569.372	1318.09
569.734	1326.67
570.095	1331.87
570.457	1336.39
570.819	1335.49
571.18	1358.99
571.542	1346.79
571.903	1391.31
572.265	1363.28
572.626	1349.05
572.987	1397.86
573.349	1365.09
573.71	1401.93
574.071	1383.17
574.432	1397.41
574.794	1390.63
575.155	1404.41
575.516	1401.7
575.877	1390.4
576.238	1395.15
576.599	1383.85
576.96	1421.36
577.32	1402.83
577.681	1420.01
578.042	1424.75
578.403	1416.16
578.763	1402.15
579.124	1419.55
579.485	1412.32
579.845	1449.61
580.206	1439.67
580.566	1480.12
580.927	1445.54
581.287	1464.3
581.648	1457.07
582.008	1443.28
582.368	1461.36
582.728	1441.25
583.089	1460.68
583.449	1466.33
583.809	1455.03
584.169	1443.28
584.529	1446.9
584.889	1469.5
585.249	1465.2
585.609	1456.61
585.969	1445.09
586.329	1496.16
586.688	1475.82
587.048	1478.08
587.408	1502.04
587.768	1484.18
588.127	1497.07
588.487	1446.22
588.846	1453.9
589.206	1460
589.565	1490.96
589.925	1485.54
590.284	1484.86
590.643	1473.34
591.003	1466.78
591.362	1493.68
591.721	1481.7
592.08	1470.85
592.44	1494.13
592.799	1494.58
593.158	1507.46
593.517	1480.79
593.876	1473.79
594.235	1475.37
594.593	1478.08
594.952	1503.17
595.311	1478.76
595.67	1494.35
596.029	1457.07
596.387	1483.51
596.746	1484.18
597.104	1486.44
597.463	1482.38
597.822	1500
598.18	1495.48
598.538	1503.62
598.897	1497.07
599.255	1467.24
599.613	1511.08
599.972	1492.77
600.33	1473.79
600.688	1484.86
601.046	1488.25
601.404	1468.59
601.762	1463.85
602.12	1469.27
602.478	1487.8
602.836	1500
603.194	1476.73
603.552	1511.3
603.91	1470.17
604.268	1492.09
604.625	1495.26
604.983	1480.12
605.341	1470.4
605.698	1453
606.056	1482.83
606.413	1494.13
606.771	1479.44
607.128	1488.48
607.485	1458.65
607.843	1483.51
608.2	1481.7
608.557	1504.52
608.914	1479.21
609.272	1477.63
609.629	1474.01
609.986	1497.29
610.343	1472.21
610.7	1509.49
611.057	1479.44
611.414	1494.58
611.771	1476.5
612.127	1471.53
612.484	1483.51
612.841	1489.61
613.198	1487.35
613.554	1496.61
613.911	1490.96
614.267	1480.79
614.624	1475.37
614.98	1510.62
615.337	1490.74
615.693	1504.97
616.05	1501.36
616.406	1482.15
616.762	1473.56
617.118	1509.04
617.475	1476.73
617.831	1508.14
618.187	1506.78
618.543	1516.95
618.899	1497.52
619.255	1507.01
619.611	1514.01
619.967	1517.86
620.323	1527.35
620.678	1510.4
621.034	1509.49
621.39	1525.31
621.746	1527.12
622.101	1508.82
622.457	1532.09
622.812	1522.83
623.168	1533
623.523	1505.65
623.879	1521.47
624.234	1518.53
624.589	1535.48
624.945	1525.31
625.3	1523.96
625.655	1509.27
626.01	1546.1
626.365	1513.11
626.72	1540.45
627.075	1513.79
627.43	1504.75
627.785	1506.78
628.14	1556.5
628.495	1528.02
628.85	1495.26
629.205	1515.6
629.559	1523.96
629.914	1526.89
630.269	1540.68
630.623	1549.04
630.978	1519.21
631.332	1527.8
631.687	1500.91
632.041	1516.73
632.396	1526.67
632.75	1545.43
633.104	1528.48
633.459	1547.46
633.813	1540.68
634.167	1537.52
634.521	1523.51
634.875	1526.44
635.229	1486.22
635.583	1520.57
635.937	1519.21
636.291	1527.8
636.645	1539.1
636.999	1515.14
637.352	1523.96
637.706	1513.11
638.06	1531.87
638.413	1523.73
638.767	1515.82
639.121	1552.2
639.474	1518.76
639.828	1502.94
640.181	1538.65
640.534	1513.79
640.888	1501.81
641.241	1490.96
641.594	1505.2
641.947	1519.89
642.301	1548.36
642.654	1552.66
643.007	1552.2
643.36	1540.91
643.713	1529.83
644.066	1558.31
644.419	1522.15
644.771	1507.69
645.124	1546.33
645.477	1497.07
645.83	1531.64
646.182	1485.77
646.535	1539.78
646.888	1513.11
647.24	1503.62
647.593	1518.31
647.945	1546.56
648.298	1508.59
648.65	1514.24
649.002	1517.86
649.355	1553.33
649.707	1524.86
650.059	1523.05
650.411	1541.58
650.763	1566.67
651.115	1557.18
651.467	1567.57
651.819	1590.62
652.171	1581.13
652.523	1581.81
652.875	1569.83
653.227	1584.75
653.578	1576.39
653.93	1561.47
654.282	1582.94
654.633	1584.52
654.985	1545.43
655.337	1597.4
655.688	1610.28
656.039	1596.72
656.391	1532.09
656.742	1606.89
657.094	1581.36
657.445	1611.86
657.796	1604.63
658.147	1627.01
658.498	1594.24
658.849	1592.88
659.2	1591.07
659.551	1610.73
659.902	1608.93
660.253	1587.46
660.604	1598.08
660.955	1631.07
661.306	1615.71
661.656	1618.19
662.007	1636.5
662.358	1635.59
662.708	1612.77
663.059	1632.88
663.409	1608.47
663.76	1618.19
664.11	1603.73
664.461	1644.41
664.811	1622.94
665.161	1629.04
665.511	1612.54
665.862	1618.42
666.212	1630.62
666.562	1618.42
666.912	1609.6
667.262	1600.57
667.612	1609.6
667.962	1625.65
668.312	1611.64
668.662	1597.63
669.011	1642.6
669.361	1630.85
669.711	1630.17
670.06	1635.14
670.41	1593.56
670.76	1610.73
671.109	1593.56
671.459	1620.68
671.808	1610.96
672.157	1624.97
672.507	1601.47
672.856	1596.27
673.205	1609.15
673.554	1607.57
673.904	1613.67
674.253	1608.93
674.602	1587.01
674.951	1591.98
675.3	1554.46
675.649	1595.14
675.998	1597.85
676.346	1593.79
676.695	1569.83
677.044	1557.63
677.393	1597.18
677.741	1584.75
678.09	1544.52
678.438	1547.91
678.787	1574.13
679.135	1588.14
679.484	1553.56
679.832	1544.07
680.181	1571.19
680.529	1552.66
680.877	1528.93
681.225	1567.12
681.573	1547.69
681.922	1559.89
682.27	1551.3
682.618	1533
682.966	1525.54
683.314	1551.98
683.661	1534.35
684.009	1534.8
684.357	1514.01
684.705	1509.49
685.053	1520.57
685.4	1493.22
685.748	1533
686.095	1508.14
686.443	1507.46
686.79	1506.1
687.138	1492.09
687.485	1464.98
687.832	1487.57
688.18	1484.64
688.527	1499.78
688.874	1495.03
689.221	1489.16
689.568	1457.74
689.915	1463.39
690.262	1467.24
690.609	1469.72
690.956	1465.43
691.303	1467.46
691.65	1457.29
691.997	1458.42
692.344	1451.19
692.69	1448.25
693.037	1420.91
693.383	1453
693.73	1424.75
694.077	1428.37
694.423	1440.12
694.769	1433.34
695.116	1443.96
695.462	1401.47
695.808	1392.66
696.155	1415.94
696.501	1400.8
696.847	1387.92
697.193	1381.59
697.539	1396.95
697.885	1419.78
698.231	1384.98
698.577	1391.76
698.923	1361.48
699.269	1370.51
699.614	1383.17
699.96	1374.81
700.306	1370.74
700.651	1383.85
700.997	1363.06
701.342	1361.25
701.688	1355.15
702.033	1382.72
702.379	1376.62
702.724	1347.92
703.069	1358.76
703.415	1341.36
703.76	1354.47
704.105	1346.56
704.45	1329.84
704.795	1350.85
705.14	1352.44
705.485	1326.22
705.83	1328.03
706.175	1323.96
706.52	1330.97
706.865	1337.3
707.209	1312.44
707.554	1334.36
707.899	1315.38
708.243	1340.23
708.588	1338.65
708.932	1342.72
709.277	1330.29
709.621	1349.27
709.966	1335.94
710.31	1336.39
710.654	1341.82
710.998	1341.36
711.342	1337.97
711.687	1344.53
712.031	1325.32
712.375	1319.67
712.719	1342.72
713.063	1340.01
713.407	1348.37
713.75	1355.83
714.094	1311.76
714.438	1358.76
714.782	1343.4
715.125	1349.27
715.469	1359.22
715.812	1353.79
716.156	1377.29
716.499	1342.04
716.843	1372.1
717.186	1346.56
717.53	1353.57
717.873	1392.66
718.216	1393.57
718.559	1368.48
718.902	1396.73
719.246	1367.13
719.589	1370.06
719.932	1359.22
720.275	1377.07
720.617	1389.05
720.96	1393.11
721.303	1404.64
721.646	1389.05
721.989	1400.12
722.331	1402.6
722.674	1443.96
723.016	1439.44
723.359	1422.26
723.701	1402.38
724.044	1420.01
724.386	1421.13
724.729	1465.65
725.071	1450.96
725.413	1441.93
725.755	1441.7
726.097	1471.08
726.439	1467.91
726.782	1451.42
727.124	1444.64
727.465	1484.18
727.807	1471.98
728.149	1457.97
728.491	1466.56
728.833	1470.63
729.175	1503.62
729.516	1521.47
729.858	1528.25
730.199	1556.72
730.541	1542.04
730.882	1550.4
731.224	1541.58
731.565	1528.02
731.906	1590.62
732.248	1571.41
732.589	1601.92
732.93	1590.4
733.271	1586.78
733.612	1604.18
733.953	1608.7
734.294	1639.89
734.635	1614.58
734.976	1643.73
735.317	1678.76
735.658	1643.5
735.999	1684.86
736.339	1687.12
736.68	1691.64
737.021	1685.08
737.361	1685.53
737.702	1719.43
738.042	1763.72
738.383	1740.45
738.723	1750.17
739.063	1782.03
739.404	1772.09
739.744	1810.05
740.084	1830.16
740.424	1850.95
740.764	1845.76
741.104	1877.39
741.444	1884.4
741.784	1902.93
742.124	1915.81
742.464	1944.51
742.804	1976.37
743.143	1961.91
743.483	1988.13
743.823	2051.17
744.162	2029.48
744.502	2061.57
744.841	2074.68
745.181	2111.74
745.52	2128.69
745.86	2175.47
746.199	2138.18
746.538	2188.57
746.877	2252.53
747.216	2285.29
747.556	2292.98
747.895	2343.6
748.234	2351.96
748.573	2394.22
748.911	2382.24
749.25	2486.42
749.589	2499.75
749.928	2533.2
750.267	2587.21
750.605	2578.84
750.944	2657.71
751.283	2668.56
751.621	2766.64
751.96	2755.79
752.298	2787.65
752.636	2845.96
752.975	2932.96
753.313	2950.81
753.651	3006.63
753.989	3063.13
754.327	3087.08
754.666	3115.55
755.004	3190.81
755.342	3210.47
755.679	3330.24
756.017	3328.2
756.355	3383.12
756.693	3449.56
757.031	3488.43
757.368	3519.84
757.706	3576.33
758.044	3639.16
758.381	3690.91
758.719	3758.93
759.056	3796.21
759.394	3871.92
759.731	3830.11
760.068	3976.1
760.405	4014.29
760.743	4038.24
761.08	4080.5
761.417	4145.36
761.754	4179.93
762.091	4280.49
762.428	4293.83
762.765	4321.62
763.102	4400.72
763.438	4435.97
763.775	4505.12
764.112	4522.75
764.449	4576.76
764.785	4640.94
765.122	4677.09
765.458	4719.58
765.795	4743.99
766.131	4829.63
766.467	4843.87
766.804	4887.71
767.14	4880.93
767.476	4949.86
767.812	4993.7
768.148	5009.29
768.485	5070.98
768.821	5105.33
769.157	5160.25
769.492	5189.17
769.828	5217.65
770.164	5227.59
770.5	5286.12
770.836	5292.67
771.171	5278.43
771.507	5353.91
771.842	5359.56
772.178	5421.93
772.513	5409.28
772.849	5474.59
773.184	5442.5
773.519	5529.95
773.855	5514.81
774.19	5517.98
774.525	5584.19
774.86	5613.57
775.195	5596.84
775.53	5614.7
775.865	5662.61
776.2	5641.81
776.535	5643.17
776.87	5700.8
777.205	5676.39
777.539	5703.73
777.874	5724.3
778.209	5747.12
778.543	5735.6
778.878	5714.13
779.212	5738.08
779.547	5742.83
779.881	5773.56
780.215	5741.02
780.55	5804.75
780.884	5844.3
781.218	5865.54
781.552	5845.2
781.886	5847.91
782.22	5876.16
782.554	5845.88
782.888	5864.86
783.222	5834.58
783.556	5805.65
783.889	5841.58
784.223	5808.36
784.557	5817.4
784.89	5847.46
785.224	5842.94
785.557	5846.78
785.891	5875.26
786.224	5837.74
786.558	5874.13
786.891	5821.7
787.224	5820.12
787.557	5878.87
787.891	5839.32
788.224	5858.53
788.557	5945.31
788.89	5895.14
789.223	5898.98
789.556	5923.62
789.888	5893.33
790.221	5854.92
790.554	5854.69
790.887	5892.2
791.219	5853.11
791.552	5795.48
791.884	5886.78
792.217	5837.06
792.549	5802.94
792.882	5823.96
793.214	5802.49
793.546	5863.5
793.879	5823.28
794.211	5806.1
794.543	5874.58
794.875	5870.28
795.207	5865.54
795.539	5793.68
795.871	5842.49
796.203	5789.83
796.535	5811.53
796.867	5832.54
797.198	5829.38
797.53	5842.26
797.862	5835.03
798.193	5801.13
798.525	5762.04
798.856	5793.22
799.188	5717.29
799.519	5732.89
799.85	5712.1
800.182	5756.61
800.513	5728.82
800.844	5708.71
801.175	5713.9
801.506	5724.52
801.837	5677.29
802.168	5713.68
802.499	5761.36
802.83	5630.06
803.161	5706.67
803.491	5684.98
803.822	5640.69
804.153	5666.67
804.483	5651.53
804.814	5592.1
805.145	5633.45
805.475	5591.42
805.805	5581.48
806.136	5594.13
806.466	5626.67
806.796	5616.73
807.126	5585.09
807.457	5542.38
807.787	5589.84
808.117	5573.79
808.447	5591.42
808.777	5582.38
809.107	5534.93
809.436	5510.52
809.766	5548.48
810.096	5512.33
810.426	5564.3
810.755	5555.04
811.085	5482.5
811.414	5565.21
811.744	5488.15
812.073	5463.06
812.403	5493.8
812.732	5455.15
813.061	5469.39
813.39	5479.11
813.719	5426.68
814.049	5483.18
814.378	5396.85
814.707	5460.8
815.036	5435.04
815.365	5409.5
815.693	5435.04
816.022	5355.04
816.351	5343.52
816.68	5341.26
817.008	5388.71
817.337	5320.47
817.665	5315.5
817.994	5324.31
818.322	5334.93
818.651	5324.99
818.979	5315.5
819.307	5312.78
819.636	5347.13
819.964	5275.72
820.292	5265.33
820.62	5282.28
820.948	5311.43
821.276	5325.67
821.604	5309.17
821.932	5307.13
822.259	5315.72
822.587	5282.95
822.915	5328.15
823.243	5310.07
823.57	5357.53
823.898	5322.5
824.225	5340.58
824.553	5329.05
824.88	5328.15
825.207	5335.61
825.535	5331.77
825.862	5372.44
826.189	5334.25
826.516	5359.34
826.843	5352.11
827.17	5342.61
827.497	5359.79
827.824	5354.14
828.151	5391.88
828.478	5382.61
828.805	5383.97
829.131	5358.66
829.458	5361.14
829.785	5304.2
830.111	5402.95
830.438	5392.1
830.764	5381.03
831.09	5367.7
831.417	5435.94
831.743	5396.85
832.069	5393.46
832.395	5365.21
832.722	5398.66
833.048	5394.59
833.374	5365.21
833.7	5424.87
834.026	5324.99
834.351	5403.4
834.677	5429.39
835.003	5379.45
835.329	5373.8
835.654	5338.77
835.98	5344.42
836.306	5317.98
836.631	5354.14
836.956	5363.18
837.282	5390.97
837.607	5317.98
837.932	5288.38
838.258	5282.95
838.583	5267.59
838.908	5301.94
839.233	5237.31
839.558	5311.2
839.883	5290.19
840.208	5251.99
840.533	5266.68
840.858	5261.71
841.182	5273.92
841.507	5237.53
841.832	5236.85
842.156	5224.88
842.481	5256.51
842.805	5208.15
843.13	5223.52
843.454	5185.56
843.778	5197.08
844.103	5201.37
844.427	5153.47
844.751	5148.72
845.075	5186.91
845.399	5109.85
845.723	5139.46
846.047	5164.54
846.371	5109.4
846.695	5111.43
847.019	5022.62
847.343	5038.67
847.666	5037.76
847.99	5000.48
848.313	4955.05
848.637	4968.16
848.96	4969.74
849.284	4955.96
849.607	4881.61
849.931	4913.47
850.254	4887.48
850.577	4814.27
850.9	4816.75
851.223	4820.14
851.546	4827.83
851.869	4786.24
852.192	4799.8
852.515	4740.37
852.838	4769.75
853.161	4761.16
853.483	4745.12
853.806	4711.67
854.129	4695.4
854.451	4688.39
854.774	4649.75
855.096	4668.28
855.419	4624.89
855.741	4643.88
856.063	4613.14
856.385	4611.79
856.708	4624.21
857.03	4544.67
857.352	4566.81
857.674	4535.4
857.996	4555.74
858.318	4515.06
858.64	4572.92
858.961	4503.09
859.283	4498.34
859.605	4476.87
859.926	4470.55
860.248	4492.69
860.57	4432.58
860.891	4499.47
861.212	4432.13
861.534	4441.62
861.855	4398.91
862.176	4365.46
862.498	4387.84
862.819	4403.43
863.14	4359.59
863.461	4393.03
863.782	4385.58
864.103	4354.39
864.424	4405.92
864.745	4328.18
865.065	4337.67
865.386	4341.74
865.707	4305.35
866.027	4317.33
866.348	4310.32
866.668	4291.12
866.989	4305.35
867.309	4257.67
867.63	4315.3
867.95	4296.77
868.27	4263.77
868.59	4265.13
868.91	4293.83
869.23	4265.81
869.55	4216.77
869.87	4303.09
870.19	4209.54
870.51	4278.46
870.83	4261.74
871.15	4207.05
871.469	4233.72
871.789	4162.98
872.109	4211.34
872.428	4219.48
872.748	4218.35
873.067	4178.35
873.386	4212.47
873.706	4170.44
874.025	4152.36
874.344	4130.67
874.663	4175.41
874.982	4136.32
875.301	4149.2
875.62	4159.37
875.939	4100.39
876.258	4125.7
876.577	4069.88
876.896	4116.66
877.214	4154.62
877.533	4084.12
877.852	4118.92
878.17	4078.69
878.489	4107.84
878.807	4065.13
879.125	4059.26
879.444	4076.43
879.762	4055.64
880.08	4044.12
880.398	4017.22
880.716	4069.43
881.034	4016.77
881.352	4003.89
881.67	4007.06
881.988	4035.76
882.306	4004.34
882.624	4009.54
882.941	4003.21
883.259	3958.24
883.577	3960.96
883.894	3913.05
884.212	3933.84
884.529	3963.44
884.846	3922.54
885.164	3883.22
885.481	3929.54
885.798	3904.91
886.115	3893.61
886.432	3862.2
886.75	3869.21
887.067	3881.64
887.383	3820.85
887.7	3860.84
888.017	3855.87
888.334	3799.83
888.651	3813.61
888.967	3831.69
889.284	3822.65
889.6	3788.53
889.917	3725.93
890.233	3748.98
890.55	3732.49
890.866	3722.54
891.182	3721.87
891.498	3735.2
891.815	3688.42
892.131	3684.35
892.447	3693.39
892.763	3662.21
893.079	3676.67
893.395	3687.06
893.71	3653.62
894.026	3695.43
894.342	3600.96
894.657	3605.03
894.973	3595.77
895.289	3602.32
895.604	3574.75
895.92	3582.89
896.235	3554.41
896.55	3542.66
896.865	3588.54
897.181	3524.81
897.496	3466.5
897.811	3508.76
898.126	3473.28
898.441	3495.43
898.756	3487.07
899.071	3487.3
899.386	3447.3
899.7	3426.73
900.015	3422.21
900.33	3415.88
900.644	3426.28
900.959	3392.16
901.273	3357.81
901.588	3363.23
901.902	3367.75
902.216	3325.49
902.531	3280.3
902.845	3300.86
903.159	3297.92
903.473	3260.86
903.787	3289.56
904.101	3243.01
904.415	3282.78
904.729	3227.64
905.042	3154.2
905.356	3228.32
905.67	3184.48
905.984	3255.44
906.297	3159.39
906.611	3175.21
906.924	3147.42
907.237	3157.13
907.551	3155.55
907.864	3105.16
908.177	3114.2
908.491	3101.09
908.804	3081.88
909.117	3063.58
909.43	3083.01
909.743	3026.74
910.056	3057.93
910.368	3039.4
910.681	3009.57
910.994	3012.51
911.307	2983.13
911.619	2989.23
911.932	2980.87
912.244	2984.03
912.557	2957.37
912.869	2957.14
913.181	2958.72
913.494	2922.11
913.806	2901.55
914.118	2908.78
914.43	2889.12
914.742	2877.37
915.054	2855
915.366	2835.34
915.678	2836.24
915.99	2801.21
916.302	2808.9
916.613	2808.44
916.925	2838.95
917.236	2807.31
917.548	2720.76
917.859	2768.9
918.171	2746.3
918.482	2728.9
918.794	2704.94
919.105	2711.27
919.416	2709.24
919.727	2715.11
920.038	2710.37
920.349	2690.93
920.66	2663.81
920.971	2642.8
921.282	2699.07
921.593	2634.21
921.903	2597.38
922.214	2635.34
922.525	2619.07
922.835	2584.72
923.146	2593.08
923.456	2612.52
923.767	2599.41
924.077	2556.47
924.387	2548.11
924.697	2532.29
925.008	2550.82
925.318	2547.21
925.628	2518.96
925.938	2534.78
926.248	2514.44
926.558	2455.23
926.867	2511.5
927.177	2475.57
927.487	2475.57
927.796	2435.8
928.106	2417.04
928.416	2435.8
928.725	2427.21
929.034	2416.59
929.344	2401.45
929.653	2434.22
929.962	2394.22
930.271	2395.12
930.581	2373.88
930.89	2373.2
931.199	2360.32
931.508	2366.65
931.817	2317.83
932.125	2339.3
932.434	2309.7
932.743	2320.09
933.051	2302.02
933.36	2277.38
933.669	2281.23
933.977	2296.37
934.286	2281.9
934.594	2231.06
934.902	2253.2
935.21	2232.64
935.519	2250.27
935.827	2207.78
936.135	2186.54
936.443	2199.42
936.751	2201.23
937.059	2220.44
937.367	2157.84
937.674	2190.38
937.982	2138.63
938.29	2163.49
938.597	2149.7
938.905	2100.44
939.213	2126.88
939.52	2112.42
939.827	2146.54
940.135	2146.54
940.442	2118.29
940.749	2119.42
941.056	2095.24
941.363	2086.2
941.67	2066.99
941.977	2053.21
942.284	2028.12
942.591	2004.17
942.898	2059.54
943.205	2066.99
943.511	2044.4
943.818	2016.15
944.125	2019.76
944.431	2041.46
944.738	1984.96
945.044	1982.93
945.35	1952.42
945.657	1963.49
945.963	1949.26
946.269	1965.3
946.575	1926.66
946.881	1918.75
947.187	1960.1
947.493	1941.12
947.799	1921.91
948.105	1898.64
948.41	1918.52
948.716	1879.65
949.022	1922.36
949.327	1893.21
949.633	1897.73
949.938	1881.01
950.244	1882.37
950.549	1838.98
950.854	1853.21
951.16	1862.71
951.465	1811.41
951.77	1818.41
952.075	1830.39
952.38	1802.59
952.685	1837.85
952.99	1807.11
953.294	1829.71
953.599	1788.58
953.904	1780.9
954.209	1789.26
954.513	1784.29
954.818	1749.49
955.122	1741.35
955.426	1765.53
955.731	1737.96
956.035	1722.37
956.339	1738.64
956.643	1736.15
956.948	1712.88
957.252	1711.97
957.556	1710.84
957.86	1708.59
958.163	1698.42
958.467	1686.21
958.771	1659.77
959.075	1692.31
959.378	1667.23
959.682	1684.18
959.985	1659.55
960.289	1629.72
960.592	1650.96
960.896	1659.77
961.199	1637.63
961.502	1621.36
961.805	1603.96
962.108	1593.79
962.411	1606.44
962.714	1577.74
963.017	1594.69
963.32	1593.11
963.623	1605.31
963.926	1555.14
964.228	1575.03
964.531	1577.97
964.833	1540.68
965.136	1552.66
965.438	1547.46
965.741	1565.76
966.043	1524.86
966.345	1527.12
966.648	1526.89
966.95	1523.05
967.252	1518.76
967.554	1520.57
967.856	1489.83
968.158	1470.4
968.46	1471.3
968.761	1484.18
969.063	1453
969.365	1469.27
969.666	1456.61
969.968	1442.38
970.269	1463.39
970.571	1466.78
970.872	1443.96
971.174	1429.72
971.475	1435.37
971.776	1411.64
972.077	1420.68
972.378	1422.94
972.679	1405.32
972.98	1391.08
973.281	1407.8
973.582	1396.05
973.883	1396.73
974.183	1390.63
974.484	1379.55
974.785	1375.26
975.085	1358.09
975.386	1358.76
975.686	1371.87
975.986	1365.54
976.287	1350.4
976.587	1334.81
976.887	1332.32
977.187	1325.77
977.487	1314.47
977.787	1355.15
978.087	1309.5
978.387	1317.63
978.687	1310.18
978.987	1308.6
979.286	1297.97
979.586	1300.46
979.885	1268.82
980.185	1246.68
980.484	1275.15
980.784	1232.89
981.083	1279.67
981.382	1236.73
981.682	1264.98
981.981	1263.17
982.28	1239.9
982.579	1240.8
982.878	1245.77
983.177	1258.2
983.475	1235.38
983.774	1204.19
984.073	1198.99
984.372	1216.39
984.67	1194.02
984.969	1222.95
985.267	1232.67
985.566	1212.55
985.864	1198.77
986.162	1208.26
986.461	1162.84
986.759	1179.33
987.057	1164.64
987.355	1172.1
987.653	1178.2
987.951	1170.07
988.249	1158.77
988.547	1165.32
988.844	1149.73
989.142	1144.53
989.44	1132.33
989.737	1131.43
990.035	1118.09
990.332	1117.19
990.63	1144.76
990.927	1111.31
991.224	1120.13
991.521	1095.49
991.819	1119
992.116	1099.56
992.413	1110.63
992.71	1107.24
993.006	1087.36
993.303	1088.26
993.6	1088.94
993.897	1095.72
994.193	1083.52
994.49	1053.46
994.787	1050.07
995.083	1055.95
995.379	1037.19
995.676	1046
995.972	1036.29
996.268	1050.52
996.565	1038.77
996.861	1009.85
997.157	1020.69
997.453	1033.12
997.749	1024.31
998.044	1002.39
998.34	974.82
998.636	1012.11
998.932	1031.54
999.227	979.79
999.523	982.5
999.818	982.73
1000.114	979.11
1000.409	975.04
1000.704	969.62
1001	966.46
1001.295	962.16
1001.59	974.82
1001.885	963.52
1002.18	952.67
1002.475	956.06
1002.77	968.27
1003.065	931.88
1003.359	942.96
1003.654	929.62
1003.949	929.85
1004.243	923.75
1004.538	902.28
1004.832	922.39
1005.127	914.71
1005.421	914.48
1005.715	881.71
1006.009	891.43
1006.304	893.47
1006.598	895.95
1006.892	872
1007.186	890.75
1007.48	908.83
1007.773	871.54
1008.067	865.22
1008.361	872.45
1008.655	852.79
1008.948	845.33
1009.242	858.44
1009.535	843.3
1009.829	850.98
1010.122	849.85
1010.415	855.73
1010.708	849.85
1011.001	845.78
1011.295	841.72
1011.588	839.23
1011.881	836.97
1012.173	812.56
1012.466	823.18
1012.759	814.15
1013.052	805.56
1013.344	836.52
1013.637	822.51
1013.93	813.69
1014.222	799.46
1014.514	774.82
1014.807	779.8
1015.099	768.5
1015.391	743.86
1015.683	769.63
1015.976	761.49
1016.268	756.29
1016.56	765.56
1016.851	759.01
1017.143	773.02
1017.435	761.94
1017.727	747.03
1018.018	768.95
1018.31	754.03
1018.602	743.64
1018.893	713.81
1019.185	736.41
1019.476	722.4
1019.767	705.67
1020.058	732.79
1020.35	698.67
1020.641	707.71
1020.932	704.77
1021.223	707.26
1021.514	679.01
1021.804	715.16
1022.095	712.45
1022.386	718.33
1022.677	699.35
1022.967	698.22
1023.258	681.72
1023.548	708.16
1023.839	674.71
1024.129	676.75
1024.419	696.41
1024.709	676.75
1025	674.04
1025.29	659.35
1025.58	644.88
1025.87	662.96
1026.16	662.51
1026.449	663.87
1026.739	647.37
1027.029	628.39
1027.319	654.38
1027.608	627.71
1027.898	650.53
1028.187	642.62
1028.477	633.81
1028.766	629.52
1029.055	631.78
1029.344	629.29
1029.634	617.31
1029.923	619.8
1030.212	613.25
1030.501	620.48
1030.79	601.95
1031.078	604.43
1031.367	613.7
1031.656	616.41
1031.945	589.52
1032.233	604.89
1032.522	596.52
1032.81	587.48
1033.099	597.65
1033.387	580.93
1033.675	607.82
1033.963	584.09
1034.251	575.73
1034.54	578.45
1034.828	570.99
1035.116	567.37
1035.403	573.47
1035.691	567.15
1035.979	595.62
1036.267	556.98
1036.554	550.2
1036.842	538.22
1037.129	569.63
1037.417	566.47
1037.704	564.43
1037.992	534.6
1038.279	541.38
1038.566	557.43
1038.853	557.43
1039.14	557.43
