Data from blue_chair_FLMS001491_00030.txt Node
Date: Wed Feb 08 10:30:05 GMT 2017
User: dcchb
Spectrometer: FLMS00149
Trigger mode: 0
Integration Time (sec): 2.000000E-2
Scans to average: 10
Electric dark correction enabled: true
Nonlinearity correction enabled: false
Boxcar width: 0
XAxis mode: Wavelengths
Number of Pixels in Spectrum: 2048
>>>>>Begin Spectral Data<<<<<
341.393	-25.99
341.776	-25.99
342.16	-25.99
342.543	-47.68
342.927	-66.21
343.31	-57.17
343.693	-60.56
344.077	-77.06
344.46	-60.34
344.843	-88.13
345.226	-40.68
345.61	-27.8
345.993	-11.98
346.376	-16.5
346.759	13.78
347.142	35.48
347.525	49.72
347.908	72.99
348.291	91.52
348.674	80
349.057	96.72
349.44	119.32
349.823	153.89
350.206	161.35
350.588	170.84
350.971	202.25
351.354	206.77
351.737	193.89
352.119	227.34
352.502	247.45
352.884	253.33
353.267	236.6
353.65	235.02
354.032	285.42
354.414	285.19
354.797	285.64
355.179	284.96
355.562	313.89
355.944	292.87
356.326	319.77
356.709	304.4
357.091	298.52
357.473	317.73
357.855	313.21
358.238	323.61
358.62	320.67
359.002	322.93
359.384	314.34
359.766	316.38
360.148	311.18
360.53	295.59
360.912	303.49
361.294	322.25
361.676	324.06
362.057	311.86
362.439	288.58
362.821	298.3
363.203	303.49
363.584	308.92
363.966	287
364.348	312.08
364.729	323.38
365.111	293.55
365.493	294.68
365.874	276.6
366.256	300.56
366.637	287.9
367.019	271.63
367.4	279.77
367.781	291.97
368.163	276.6
368.544	294
368.925	301.91
369.306	286.55
369.688	280.22
370.069	286.32
370.45	303.72
370.831	270.73
371.212	300.78
371.593	292.42
371.974	280.44
372.355	289.48
372.736	294
373.117	287.68
373.498	305.98
373.879	280.67
374.26	286.09
374.641	281.57
375.021	285.87
375.402	274.57
375.783	307.11
376.163	289.94
376.544	285.87
376.925	295.13
377.305	295.36
377.686	296.72
378.066	309.14
378.447	287.45
378.827	295.81
379.208	305.75
379.588	296.26
379.968	308.47
380.349	313.66
380.729	293.1
381.109	317.73
381.489	308.01
381.87	316.38
382.25	313.66
382.63	309.14
383.01	312.08
383.39	335.36
383.77	311.86
384.15	323.16
384.53	315.7
384.91	312.08
385.29	311.4
385.67	326.55
386.049	292.2
386.429	329.71
386.809	315.47
387.189	308.01
387.568	325.87
387.948	330.84
388.328	323.83
388.707	332.19
389.087	311.18
389.466	316.38
389.846	306.88
390.225	338.07
390.605	336.94
390.984	297.85
391.363	343.49
391.743	326.55
392.122	340.56
392.501	348.92
392.881	341.69
393.26	331.74
393.639	336.94
394.018	336.49
394.397	340.56
394.776	333.1
395.155	343.95
395.534	330.61
395.913	358.86
396.292	362.7
396.671	355.47
397.05	349.6
397.429	357.96
397.808	357.05
398.186	339.2
398.565	348.47
398.944	354.79
399.323	373.55
399.701	361.35
400.08	376.26
400.458	372.42
400.837	357.73
401.215	351.18
401.594	372.42
401.972	366.54
402.351	365.64
402.729	387.79
403.107	379.65
403.486	383.72
403.864	403.38
404.242	389.82
404.62	375.13
404.999	403.38
405.377	389.14
405.755	388.69
406.133	400.89
406.511	403.38
406.889	398.86
407.267	419.2
407.645	405.64
408.023	423.49
408.401	410.84
408.779	432.08
409.156	414.23
409.534	434.34
409.912	428.24
410.29	451.06
410.667	451.29
411.045	443.15
411.422	443.15
411.8	464.85
412.178	440.67
412.555	455.13
412.933	476.6
413.31	459.42
413.687	469.59
414.065	463.94
414.442	479.54
414.819	466.88
415.197	487.22
415.574	482.7
415.951	487.44
416.328	494.45
416.705	495.81
417.082	482.7
417.46	485.86
417.837	504.17
418.214	495.81
418.591	504.85
418.967	520.66
419.344	517.27
419.721	517.05
420.098	536.26
420.475	509.37
420.852	561.34
421.228	529.48
421.605	539.65
421.982	557.05
422.358	540.32
422.735	549.59
423.111	538.97
423.488	558.18
423.864	536.71
424.241	555.01
424.617	568.35
424.994	576.48
425.37	600.21
425.746	576.48
426.123	589.36
426.499	605.86
426.875	622.58
427.251	610.61
427.627	605.18
428.003	634.33
428.379	611.51
428.756	643.6
429.132	652.86
429.507	642.02
429.883	651.96
430.259	635.01
430.635	667.33
431.011	659.19
431.387	677.72
431.763	661.68
432.138	706.87
432.514	670.72
432.89	700.55
433.265	702.13
433.641	718.4
434.016	731.51
434.392	723.6
434.767	763.37
435.143	792.97
435.518	756.82
435.894	758.4
436.269	791.62
436.644	797.04
437.02	805.63
437.395	796.59
437.77	810.83
438.145	814.44
438.52	844.72
438.895	862.12
439.271	846.76
439.646	889.47
440.021	868.68
440.395	872.29
440.77	872.75
441.145	868.45
441.52	898.96
441.895	907.55
442.27	914.33
442.645	913.87
443.019	930.15
443.394	937.6
443.769	954.55
444.143	934.89
444.518	968.34
444.892	961.1
445.267	988
445.641	985.06
446.016	976.25
446.39	1000.2
446.764	1023.25
447.139	1007.88
447.513	1012.85
447.887	1004.95
448.262	989.8
448.636	1021.44
449.01	1059.63
449.384	1042.23
449.758	1068.67
450.132	1056.02
450.506	1066.64
450.88	1083.14
451.254	1084.94
451.628	1076.13
452.002	1112.51
452.376	1100.08
452.75	1139.63
453.123	1116.35
453.497	1136.69
453.871	1121.55
454.244	1140.31
454.618	1151.83
454.992	1201.78
455.365	1203.81
455.739	1224.6
456.112	1219.85
456.486	1215.56
456.859	1224.15
457.232	1260.76
457.606	1232.28
457.979	1273.19
458.352	1285.62
458.725	1275.67
459.099	1294.66
459.472	1334.88
459.845	1311.38
460.218	1346.18
460.591	1352.28
460.964	1351.83
461.337	1392.05
461.71	1386.4
462.083	1401.32
462.456	1400.87
462.829	1409.23
463.201	1406.52
463.574	1447.65
463.947	1463.69
464.32	1466.4
464.692	1478.61
465.065	1493.52
465.438	1504.14
465.81	1503.46
466.183	1548.43
466.555	1554.54
466.928	1545.5
467.3	1569.22
467.672	1596.57
468.045	1619.17
468.417	1618.26
468.789	1607.19
469.161	1598.15
469.534	1654.65
469.906	1689.45
470.278	1656.91
470.65	1684.02
471.022	1713.4
471.394	1754.08
471.766	1801.53
472.138	1779.39
472.51	1810.12
472.882	1820.97
473.253	1829.78
473.625	1822.32
473.997	1879.95
474.369	1871.59
474.74	1892.38
475.112	1898.03
475.484	1986.61
475.855	1959.5
476.227	1967.18
476.598	2025.71
476.97	2028.87
477.341	2050.57
477.713	2087.63
478.084	2071.58
478.455	2133.96
478.827	2098.7
479.198	2185.93
479.569	2149.32
479.94	2236.55
480.311	2223.44
480.682	2269.54
481.053	2288.08
481.424	2310
481.795	2317.91
482.166	2355.19
482.537	2356.1
482.908	2414.17
483.279	2401.97
483.65	2424.79
484.021	2477.22
484.391	2475.64
484.762	2474.51
485.133	2498.92
485.503	2510.67
485.874	2565.58
486.244	2563.1
486.615	2606.49
486.985	2621.85
487.356	2617.11
487.726	2639.7
488.097	2677.22
488.467	2671.79
488.837	2694.84
489.207	2705.69
489.578	2748.85
489.948	2751.79
490.318	2729.87
490.688	2723.32
491.058	2741.85
491.428	2793.15
491.798	2814.62
492.168	2811.68
492.538	2794.28
492.908	2827.72
493.278	2862.07
493.648	2839.7
494.017	2877.66
494.387	2869.76
494.757	2882.41
495.126	2876.31
495.496	2851.45
495.866	2894.39
496.235	2906.59
496.605	2892.35
496.974	2930.32
497.344	2909.08
497.713	2921.96
498.082	2919.02
498.452	2929.19
498.821	2947.27
499.19	2897.78
499.559	2956.08
499.928	2910.88
500.298	2917.44
500.667	2947.27
501.036	2934.39
501.405	2916.08
501.774	2912.92
502.143	2880.38
502.512	2916.31
502.88	2945.46
503.249	2916.31
503.618	2929.19
503.987	2968.51
504.356	2934.39
504.724	2907.49
505.093	2904.78
505.462	2918.34
505.83	2889.87
506.199	2888.74
506.567	2935.52
506.936	2941.62
507.304	2942.52
507.672	2933.26
508.041	2935.97
508.409	2898.91
508.777	2915.63
509.145	2913.14
509.514	2892.35
509.882	2893.26
510.25	2921.05
510.618	2902.97
510.986	2884.22
511.354	2949.53
511.722	2896.2
512.09	2902.75
512.458	2890.55
512.826	2872.92
513.193	2895.07
513.561	2875.86
513.929	2860.72
514.297	2913.37
514.664	2884.22
515.032	2849.19
515.4	2861.62
515.767	2858
516.135	2898.45
516.502	2866.82
516.869	2898.68
517.237	2849.19
517.604	2813.49
517.972	2867.72
518.339	2853.26
518.706	2815.75
519.073	2818.23
519.44	2799.25
519.808	2855.29
520.175	2851.22
520.542	2847.83
520.909	2815.75
521.276	2782.98
521.643	2838.34
522.009	2805.58
522.376	2822.98
522.743	2787.72
523.11	2832.02
523.477	2843.77
523.843	2815.07
524.21	2819.13
524.577	2832.92
524.943	2809.19
525.31	2810.1
525.676	2806.03
526.043	2785.01
526.409	2798.8
526.776	2832.24
527.142	2841.51
527.508	2815.75
527.874	2855.52
528.241	2784.33
528.607	2804.45
528.973	2834.73
529.339	2853.48
529.705	2848.06
530.071	2828.4
530.437	2851.9
530.803	2848.06
531.169	2836.99
531.535	2850.77
531.901	2884.44
532.267	2820.26
532.632	2836.76
532.998	2826.82
533.364	2888.29
533.73	2840.6
534.095	2869.98
534.461	2856.2
534.826	2875.18
535.192	2862.52
535.557	2871.34
535.923	2858.23
536.288	2862.75
536.653	2873.37
537.019	2845.35
537.384	2860.26
537.749	2891.68
538.114	2912.69
538.479	2852.81
538.845	2863.88
539.21	2871.11
539.575	2845.57
539.94	2851.9
540.305	2862.98
540.67	2862.52
541.034	2869.08
541.399	2860.94
541.764	2847.83
542.129	2865.01
542.494	2932.13
542.858	2867.27
543.223	2833.37
543.587	2837.89
543.952	2841.51
544.316	2841.06
544.681	2818
545.045	2851
545.41	2856.87
545.774	2856.42
546.138	2853.94
546.503	2838.34
546.867	2821.62
547.231	2829.53
547.595	2840.83
547.959	2845.12
548.324	2829.08
548.688	2840.6
549.052	2829.98
549.416	2818.46
549.779	2831.56
550.143	2833.6
550.507	2847.83
550.871	2847.61
551.235	2783.43
551.599	2813.49
551.962	2845.35
552.326	2802.41
552.689	2840.83
553.053	2751.79
553.417	2804.67
553.78	2814.62
554.143	2836.54
554.507	2773.94
554.87	2769.87
555.234	2808.74
555.597	2804.9
555.96	2781.62
556.323	2798.34
556.686	2802.19
557.05	2799.93
557.413	2786.37
557.776	2806.48
558.139	2833.15
558.502	2789.31
558.865	2780.49
559.228	2837.21
559.59	2856.65
559.953	2805.58
560.316	2831.34
560.679	2831.11
561.041	2826.82
561.404	2789.76
561.767	2851.22
562.129	2814.84
562.492	2838.12
562.854	2876.99
563.217	2818.46
563.579	2868.17
563.941	2886.03
564.304	2843.54
564.666	2849.42
565.028	2834.73
565.39	2867.27
565.753	2880.83
566.115	2898.45
566.477	2890.77
566.839	2907.04
567.201	2888.29
567.563	2917.66
567.925	2918.79
568.287	2928.96
568.648	2940.94
569.01	2964.67
569.372	2933.48
569.734	2925.57
570.095	2968.51
570.457	2966.02
570.819	2917.21
571.18	2962.41
571.542	2961.28
571.903	2951.56
572.265	2982.97
572.626	2998.79
572.987	2999.24
573.349	2980.26
573.71	3018.23
574.071	3053.25
574.432	3007.15
574.794	3047.38
575.155	3065.68
575.516	3056.19
575.877	3081.27
576.238	3088.05
576.599	3061.61
576.96	3109.52
577.32	3096.64
577.681	3054.16
578.042	3127.15
578.403	3097.09
578.763	3111.78
579.124	3158.79
579.485	3138.45
579.845	3115.17
580.206	3114.49
580.566	3147.26
580.927	3147.04
581.287	3185.23
581.648	3107.49
582.008	3145.23
582.368	3145.68
582.728	3236.98
583.089	3182.74
583.449	3165.11
583.809	3184.78
584.169	3158.79
584.529	3176.19
584.889	3215.28
585.249	3182.97
585.609	3227.94
585.969	3238.56
586.329	3190.2
586.688	3232.91
587.048	3197.88
587.408	3246.92
587.768	3201.72
588.127	3232.68
588.487	3219.8
588.846	3267.71
589.206	3197.66
589.565	3227.71
589.925	3256.19
590.284	3213.93
590.643	3216.64
591.003	3179.8
591.362	3272.46
591.721	3256.86
592.08	3238.11
592.44	3240.14
592.799	3210.31
593.158	3244.21
593.517	3214.38
593.876	3202.18
594.235	3230.42
594.593	3246.24
594.952	3218.22
595.311	3241.04
595.67	3274.26
596.029	3224.1
596.387	3253.47
596.746	3239.01
597.104	3255.96
597.463	3209.86
597.822	3217.54
598.18	3216.86
598.538	3251.44
598.897	3247.6
599.255	3214.38
599.613	3237.2
599.972	3239.46
600.33	3279.01
600.688	3243.08
601.046	3229.29
601.404	3258.9
601.762	3239.91
602.12	3255.96
602.478	3271.33
602.836	3264.55
603.194	3279.01
603.552	3261.61
603.91	3254.38
604.268	3297.99
604.625	3230.88
604.983	3277.65
605.341	3284.89
605.698	3289.86
606.056	3255.96
606.413	3260.25
606.771	3268.16
607.128	3255.06
607.485	3273.13
607.843	3236.3
608.2	3276.07
608.557	3242.17
608.914	3243.76
609.272	3297.09
609.629	3250.31
609.986	3301.83
610.343	3211.22
610.7	3308.84
611.057	3243.08
611.414	3263.19
611.771	3275.39
612.127	3323.08
612.484	3291.89
612.841	3299.8
613.198	3294.6
613.554	3335.05
613.911	3291.89
614.267	3335.96
614.624	3277.43
614.98	3314.04
615.337	3321.95
615.693	3300.25
616.05	3278.56
616.406	3315.17
616.762	3341.83
617.118	3308.84
617.475	3316.3
617.831	3320.14
618.187	3339.35
618.543	3322.85
618.899	3346.13
619.255	3352.45
619.611	3328.5
619.967	3352.91
620.323	3339.57
620.678	3350.65
621.034	3319.01
621.39	3353.13
621.746	3321.49
622.101	3406.92
622.457	3312.91
622.812	3352.91
623.168	3337.54
623.523	3365.34
623.879	3349.06
624.234	3321.72
624.589	3380.93
624.945	3349.74
625.3	3386.58
625.655	3393.13
626.01	3373.47
626.365	3318.33
626.72	3355.84
627.075	3404.88
627.43	3372.57
627.785	3371.44
628.14	3366.69
628.495	3351.55
628.85	3387.71
629.205	3342.06
629.559	3349.06
629.914	3334.15
630.269	3363.3
630.623	3367.6
630.978	3363.08
631.332	3387.26
631.687	3390.19
632.041	3378.67
632.396	3354.49
632.75	3357.2
633.104	3367.6
633.459	3367.37
633.813	3363.53
634.167	3374.6
634.521	3367.6
634.875	3402.4
635.229	3353.81
635.583	3373.92
635.937	3410.98
636.291	3376.63
636.645	3352.45
636.999	3370.76
637.352	3362.62
637.706	3372.57
638.06	3349.29
638.413	3361.95
638.767	3361.95
639.121	3406.24
639.474	3380.02
639.828	3337.77
640.181	3345
640.534	3343.41
640.888	3423.64
641.241	3348.61
641.594	3350.19
641.947	3376.18
642.301	3334.15
642.654	3372.79
643.007	3383.64
643.36	3403.98
643.713	3343.87
644.066	3424.09
644.419	3376.63
644.771	3331.66
645.124	3328.5
645.477	3332.79
645.83	3322.4
646.182	3320.14
646.535	3285.79
646.888	3328.5
647.24	3262.51
647.593	3296.64
647.945	3292.12
648.298	3295.05
648.65	3293.25
649.002	3326.24
649.355	3316.75
649.707	3294.15
650.059	3333.02
650.411	3380.02
650.763	3359.46
651.115	3441.72
651.467	3413.47
651.819	3418.67
652.171	3447.14
652.523	3456.86
652.875	3438.1
653.227	3473.13
653.578	3476.07
653.93	3437.65
654.282	3417.09
654.633	3401.94
654.985	3448.5
655.337	3434.26
655.688	3417.76
656.039	3455.05
656.391	3459.8
656.742	3462.51
657.094	3470.42
657.445	3460.47
657.796	3523.3
658.147	3438.78
658.498	3479.68
658.849	3502.73
659.2	3479
659.551	3467.71
659.902	3484.43
660.253	3521.94
660.604	3476.74
660.955	3457.99
661.306	3470.64
661.656	3493.02
662.007	3513.35
662.358	3510.19
662.708	3536.4
663.059	3541.83
663.409	3491.66
663.76	3560.58
664.11	3524.88
664.461	3502.05
664.811	3549.06
665.161	3548.83
665.511	3531.66
665.862	3532.34
666.212	3532.56
666.562	3543.41
666.912	3545.9
667.262	3514.03
667.612	3531.21
667.962	3510.64
668.312	3498.89
668.662	3527.59
669.011	3516.29
669.361	3528.72
669.711	3519.46
670.06	3525.33
670.41	3535.05
670.76	3490.76
671.109	3517.42
671.459	3481.49
671.808	3496.86
672.157	3462.73
672.507	3527.14
672.856	3468.61
673.205	3421.83
673.554	3530.98
673.904	3503.41
674.253	3466.8
674.602	3441.49
674.951	3416.63
675.3	3412.57
675.649	3418.89
675.998	3477.42
676.346	3479
676.695	3431.77
677.044	3414.83
677.393	3394.94
677.741	3409.4
678.09	3374.6
678.438	3416.86
678.787	3412.34
679.135	3371.66
679.484	3358.56
679.832	3367.37
680.181	3345.67
680.529	3373.02
680.877	3336.86
681.225	3329.63
681.573	3349.74
681.922	3386.13
682.27	3313.13
682.618	3329.86
682.966	3341.16
683.314	3331.66
683.661	3325.56
684.009	3269.74
684.357	3274.49
684.705	3249.63
685.053	3260.71
685.4	3260.03
685.748	3243.98
686.095	3238.78
686.443	3230.65
686.79	3201.72
687.138	3252.12
687.485	3228.84
687.832	3175.06
688.18	3175.74
688.527	3174.61
688.874	3181.84
689.221	3171.89
689.568	3153.59
689.915	3128.51
690.262	3154.04
690.609	3128.96
690.956	3121.5
691.303	3114.95
691.65	3062.29
691.997	3105
692.344	3058.22
692.69	3087.15
693.037	3060.48
693.383	3047.6
693.73	3052.12
694.077	3038.34
694.423	3038.56
694.769	3030.88
695.116	3020.71
695.462	3046.47
695.808	2999.47
696.155	3041.95
696.501	2978.23
696.847	2991.11
697.193	2946.36
697.539	2981.39
697.885	2931.9
698.231	2913.37
698.577	2930.54
698.923	2928.28
699.269	2923.31
699.614	2908.85
699.96	2865.91
700.306	2908.17
700.651	2892.13
700.997	2904.33
701.342	2880.38
701.688	2861.17
702.033	2847.16
702.379	2853.03
702.724	2826.82
703.069	2870.43
703.415	2806.25
703.76	2795.18
704.105	2825.46
704.45	2833.82
704.795	2786.82
705.14	2797.44
705.485	2778.01
705.83	2818.68
706.175	2812.13
706.52	2758.12
706.865	2784.79
707.209	2773.94
707.554	2768.51
707.899	2791.34
708.243	2776.65
708.588	2792.02
708.932	2780.04
709.277	2808.51
709.621	2749.31
709.966	2763.32
710.31	2762.64
710.654	2743.88
710.998	2807.61
711.342	2775.29
711.687	2738.46
712.031	2765.8
712.375	2719.48
712.719	2761.74
713.063	2761.51
713.407	2748.85
713.75	2767.84
714.094	2772.13
714.438	2778.91
714.782	2785.46
715.125	2787.05
715.469	2811.23
715.812	2781.17
716.156	2765.35
716.499	2796.08
716.843	2789.53
717.186	2814.39
717.53	2813.71
717.873	2790.89
718.216	2808.74
718.559	2815.97
718.902	2772.58
719.246	2790.21
719.589	2796.31
719.932	2812.13
720.275	2841.06
720.617	2851.45
720.96	2857.55
721.303	2813.49
721.646	2822.52
721.989	2809.42
722.331	2837.67
722.674	2898.23
723.016	2894.39
723.359	2891.68
723.701	2880.15
724.044	2861.39
724.386	2873.6
724.729	2917.44
725.071	2878.34
725.413	2939.81
725.755	2916.53
726.097	2894.16
726.439	2941.39
726.782	2926.7
727.124	2935.97
727.465	2939.13
727.807	2949.07
728.149	2964.67
728.491	3000.6
728.833	3009.41
729.175	2960.6
729.516	2972.13
729.858	3033.59
730.199	3063.87
730.541	3021.16
730.882	3070.2
731.224	3066.36
731.565	3076.76
731.906	3043.31
732.248	3126.25
732.589	3138.9
732.93	3093.7
733.271	3093.93
733.612	3143.19
733.953	3168.28
734.294	3193.14
734.635	3175.06
734.976	3205.57
735.317	3219.8
735.658	3272.23
735.999	3269.29
736.339	3292.12
736.68	3313.13
737.021	3288.73
737.361	3322.85
737.702	3367.6
738.042	3368.95
738.383	3365.56
738.723	3440.81
739.063	3443.75
739.404	3481.04
739.744	3471.1
740.084	3493.69
740.424	3505.9
740.764	3545.22
741.104	3553.35
741.444	3569.85
741.784	3637.87
742.124	3654.14
742.464	3690.3
742.804	3715.38
743.143	3785.89
743.483	3771.88
743.823	3801.26
744.162	3851.2
744.502	3851.42
744.841	3881.71
745.181	3975.49
745.52	3982.27
745.86	4033.79
746.199	4047.58
746.538	4145.43
746.877	4197.4
747.216	4225.2
747.556	4261.13
747.895	4336.38
748.234	4335.48
748.573	4364.41
748.911	4476.27
749.25	4519.43
749.589	4571.86
749.928	4641.69
750.267	4673.78
750.605	4725.75
750.944	4775.47
751.283	4883.71
751.621	4930.94
751.96	4967.78
752.298	5059.98
752.636	5142.24
752.975	5112.63
753.313	5243.25
753.651	5356.24
753.989	5381.33
754.327	5486.18
754.666	5505.17
755.004	5621.32
755.342	5674.88
755.679	5720.3
756.017	5820.41
756.355	5888.66
756.693	6017.24
757.031	6051.14
757.368	6118.48
757.706	6216.79
758.044	6228.08
758.381	6326.39
758.719	6413.39
759.056	6494.52
759.394	6535.87
759.731	6571.8
760.068	6694.06
760.405	6797.11
760.743	6757.34
761.08	6888.86
761.417	6943.09
761.754	7128.4
762.091	7144.67
762.428	7206.36
762.765	7215.18
763.102	7336.53
763.438	7368.85
763.775	7409.3
764.112	7403.87
764.449	7518.9
764.785	7638.67
765.122	7557.77
765.458	7657.2
765.795	7688.16
766.131	7799.79
766.467	7809.51
766.804	7858.78
767.14	7967.25
767.476	7971.32
767.812	8030.3
768.148	8082.95
768.485	8094.93
768.821	8206.11
769.157	8192.1
769.492	8310.97
769.828	8261.03
770.164	8286.11
770.5	8279.1
770.836	8311.65
771.171	8430.96
771.507	8338.09
771.842	8369.72
772.178	8484.75
772.513	8463.51
772.849	8498.53
773.184	8495.6
773.519	8544.41
773.855	8524.3
774.19	8570.62
774.525	8557.52
774.86	8610.17
775.195	8649.26
775.53	8739.88
775.865	8717.51
776.2	8678.42
776.535	8656.95
776.87	8755.25
777.205	8755.93
777.539	8766.1
777.874	8782.59
778.209	8736.27
778.543	8720.22
778.878	8696.72
779.212	8801.12
779.547	8733.56
779.881	8811.97
780.215	8768.81
780.55	8813.1
780.884	8806.32
781.218	8791.86
781.552	8771.52
781.886	8842.93
782.22	8794.57
782.554	8722.71
782.888	8789.83
783.222	8866.21
783.556	8730.62
783.889	8782.59
784.223	8717.51
784.557	8782.59
784.89	8715.7
785.224	8757.74
785.557	8794.8
785.891	8726.1
786.224	8721.35
786.558	8814.68
786.891	8756.38
787.224	8684.29
787.557	8680
787.891	8690.17
788.224	8688.13
788.557	8723.61
788.89	8753.89
789.223	8744.85
789.556	8679.77
789.888	8698.3
790.221	8667.79
790.554	8634.8
790.887	8627.57
791.219	8681.13
791.552	8725.87
791.884	8645.87
792.217	8701.92
792.549	8641.35
792.882	8644.97
793.214	8596.61
793.546	8644.29
793.879	8634.58
794.211	8468.25
794.543	8606.1
794.875	8592.54
795.207	8636.16
795.539	8530.4
795.871	8580.57
796.203	8501.25
796.535	8431.87
796.867	8464.64
797.198	8461.47
797.53	8489.72
797.862	8411.53
798.193	8414.24
798.525	8375.82
798.856	8507.8
799.188	8380.8
799.519	8392.77
799.85	8343.51
800.182	8270.74
800.513	8414.47
800.844	8287.69
801.175	8376.05
801.506	8317.75
801.837	8281.36
802.168	8291.08
802.499	8275.04
802.83	8242.95
803.161	8222.61
803.491	8263.74
803.822	8264.42
804.153	8215.38
804.483	8197.52
804.814	8189.84
805.145	8140.35
805.475	8126.79
805.805	8106.68
806.136	8177.19
806.466	8160.46
806.796	8159.79
807.126	8053.12
807.457	8075.72
807.787	8041.6
808.117	8114.14
808.447	8041.14
808.777	8113.01
809.107	8003.63
809.436	7990.98
809.766	7996.63
810.096	8034.37
810.426	7960.92
810.755	8023.07
811.085	7974.48
811.414	7975.61
811.744	7950.53
812.073	7870.3
812.403	7954.37
812.732	7876.4
813.061	7910.98
813.39	7870.08
813.719	7891.77
814.049	7893.13
814.378	7867.36
814.707	7908.94
815.036	7821.72
815.365	7783.98
815.693	7777.87
816.022	7769.51
816.351	7775.16
816.68	7715.73
817.008	7683.87
817.337	7689.06
817.665	7660.82
817.994	7695.62
818.322	7684.32
818.651	7720.93
818.979	7749.4
819.307	7657.65
819.636	7656.97
819.964	7668.27
820.292	7655.17
820.62	7644.09
820.948	7644.77
821.276	7664.43
821.604	7663.3
821.932	7659.23
822.259	7714.83
822.587	7657.65
822.915	7684.09
823.243	7696.52
823.57	7662.17
823.898	7637.31
824.225	7574.49
824.553	7650.42
824.88	7614.72
825.207	7653.81
825.535	7688.39
825.862	7654.71
826.189	7659.23
826.516	7648.84
826.843	7731.77
827.17	7716.41
827.497	7754.37
827.824	7709.18
828.151	7782.62
828.478	7731.77
828.805	7806.35
829.131	7714.83
829.458	7710.98
829.785	7676.63
830.111	7716.18
830.438	7738.55
830.764	7766.8
831.09	7730.42
831.417	7746.01
831.743	7791.21
832.069	7758.21
832.395	7728.16
832.722	7710.76
833.048	7717.76
833.374	7761.38
833.7	7696.97
834.026	7745.33
834.351	7673.92
834.677	7702.4
835.003	7769.51
835.329	7674.83
835.654	7733.81
835.98	7675.96
836.306	7625.79
836.631	7714.37
836.956	7701.72
837.282	7675.5
837.607	7737.42
837.932	7656.75
838.258	7657.2
838.583	7653.58
838.908	7609.52
839.233	7643.64
839.558	7618.33
839.883	7582.4
840.208	7595.73
840.533	7576.75
840.858	7644.54
841.182	7520.48
841.507	7553.25
841.832	7523.64
842.156	7465.11
842.481	7501.95
842.805	7493.14
843.13	7484.77
843.454	7431.67
843.778	7443.19
844.103	7361.84
844.427	7418.34
844.751	7393.93
845.075	7368.39
845.399	7343.54
845.723	7335.85
846.047	7320.49
846.371	7260.15
846.695	7275.06
847.019	7250.2
847.343	7179.7
847.666	7115.07
847.99	7177.21
848.313	7124.78
848.637	7059.48
848.96	7029.87
849.284	7040.72
849.607	7013.15
849.931	6980.16
850.254	6934.51
850.577	6921.4
850.9	6872.14
851.223	6931.57
851.546	6867.16
851.869	6757.56
852.192	6859.03
852.515	6802.08
852.838	6710.33
853.161	6744
853.483	6676.89
853.806	6698.13
854.129	6669.66
854.451	6673.5
854.774	6667.62
855.096	6693.61
855.419	6655.19
855.741	6614.29
856.063	6612.48
856.385	6574.97
856.708	6581.52
857.03	6536.1
857.352	6554.18
857.674	6476.89
857.996	6506.72
858.318	6421.07
858.64	6434.86
858.961	6399.83
859.283	6402.09
859.605	6404.58
859.926	6379.95
860.248	6363.22
860.57	6332.26
860.891	6324.13
861.212	6306.27
861.534	6280.96
861.855	6273.28
862.176	6295.2
862.498	6263.79
862.819	6278.48
863.14	6243.9
863.461	6198.26
863.782	6203.68
864.103	6214.75
864.424	6194.87
864.745	6202.32
865.065	6179.5
865.386	6154.87
865.707	6163.68
866.027	6173.4
866.348	6143.79
866.668	6147.86
866.989	6144.7
867.309	6113.06
867.63	6127.52
867.95	6063.57
868.27	6102.66
868.59	6061.76
868.91	6104.25
869.23	6047.3
869.55	5984.7
869.87	6040.07
870.19	6007.98
870.51	6014.98
870.83	5997.58
871.15	5973.63
871.469	5956
871.789	5976.57
872.109	6008.66
872.428	5934.76
872.748	5980.41
873.067	5988.54
873.386	5989.9
873.706	5927.75
874.025	5954.19
874.344	5888.88
874.663	5919.62
874.982	5893.18
875.301	5890.24
875.62	5907.64
875.939	5919.17
876.258	5914.87
876.577	5842.11
876.896	5854.08
877.214	5823.35
877.533	5836.46
877.852	5826.51
878.17	5823.8
878.489	5839.39
878.807	5817.7
879.125	5840.3
879.444	5762.79
879.762	5806.85
880.08	5718.27
880.398	5755.55
880.716	5733.18
881.034	5733.86
881.352	5667.2
881.67	5690.47
881.988	5746.06
882.306	5775.89
882.624	5707.42
882.941	5702.9
883.259	5650.02
883.577	5585.16
883.894	5633.52
884.212	5604.82
884.529	5621.1
884.846	5577.48
885.164	5579.29
885.481	5587.2
885.798	5533.41
886.115	5563.7
886.432	5490.93
886.75	5506.07
887.067	5500.19
887.383	5511.95
887.7	5415.68
888.017	5503.13
888.334	5424.94
888.651	5480.53
888.967	5418.84
889.284	5400.54
889.6	5383.81
889.917	5359.41
890.233	5394.21
890.55	5318.28
890.866	5345.85
891.182	5296.81
891.498	5316.47
891.815	5276.92
892.131	5213.42
892.447	5286.41
892.763	5270.37
893.079	5203.48
893.395	5183.37
893.71	5212.52
894.026	5155.12
894.342	5144.27
894.657	5169.36
894.973	5165.97
895.289	5128
895.604	5121.67
895.92	5086.87
896.235	5045.07
896.55	5045.97
896.865	5020.88
897.181	5050.49
897.496	5037.38
897.811	4990.38
898.126	4936.37
898.441	5007.1
898.756	4929.14
899.071	4914.22
899.386	4923.26
899.7	4897.5
900.015	4899.53
900.33	4852.98
900.644	4876.93
900.959	4850.27
901.273	4784.96
901.588	4789.48
901.902	4778.86
902.216	4751.74
902.531	4744.28
902.845	4722.36
903.159	4746.99
903.473	4636.71
903.787	4697.05
904.101	4658.63
904.415	4646.43
904.729	4607.34
905.042	4572.54
905.356	4579.99
905.67	4559.43
905.984	4615.25
906.297	4587
906.611	4528.02
906.924	4513.33
907.237	4464.52
907.551	4467.23
907.864	4415.93
908.177	4371.41
908.491	4427.45
908.804	4438.08
909.117	4386.78
909.43	4365.76
909.743	4378.42
910.056	4288.25
910.368	4346.33
910.681	4309.27
910.994	4272.43
911.307	4283.28
911.619	4205.09
911.932	4233.56
912.244	4204.86
912.557	4168.7
912.869	4175.26
913.181	4148.59
913.494	4179.33
913.806	4138.2
914.118	4194.92
914.43	4094.81
914.742	4127.35
915.054	4067.01
915.366	4051.64
915.678	4057.07
915.99	4018.2
916.302	3993.12
916.613	3969.39
916.925	3987.92
917.236	4010.52
917.548	3987.47
917.859	3980.69
918.171	3954.7
918.482	3885.55
918.794	3861.82
919.105	3853.91
919.416	3837.64
919.727	3804.87
920.038	3830.86
920.349	3783.4
920.66	3774.59
920.971	3814.59
921.282	3745.21
921.593	3736.17
921.903	3747.47
922.214	3656.4
922.525	3702.5
922.835	3668.38
923.146	3700.69
923.456	3679.23
923.767	3650.3
924.077	3663.18
924.387	3568.95
924.697	3633.58
925.008	3579.11
925.318	3603.97
925.628	3566.69
925.938	3523.3
926.248	3492.11
926.558	3503.41
926.867	3496.18
927.177	3515.16
927.487	3471.32
927.796	3459.57
928.106	3425.45
928.416	3400.81
928.725	3417.31
929.034	3384.32
929.344	3426.35
929.653	3407.14
929.962	3361.49
930.271	3391.1
930.581	3325.34
930.89	3356.07
931.199	3293.7
931.508	3325.34
931.817	3284.21
932.125	3304.32
932.434	3280.59
932.743	3231.55
933.051	3237.88
933.36	3242.17
933.669	3225.9
933.977	3230.88
934.286	3195.62
934.594	3184.78
934.902	3161.95
935.21	3159.46
935.519	3130.31
935.827	3112.01
936.135	3100.03
936.443	3085.12
936.751	3101.39
937.059	3112.46
937.367	3044.67
937.674	3071.33
937.982	3050.32
938.29	3060.94
938.597	3031.56
938.905	2960.83
939.213	3038.34
939.52	3006.47
939.827	3000.83
940.135	2956.08
940.442	2939.58
940.749	2932.8
941.056	2933.48
941.363	2879.25
941.67	2913.82
941.977	2887.38
942.284	2844.67
942.591	2868.17
942.898	2886.25
943.205	2870.66
943.511	2830.66
943.818	2831.11
944.125	2830.66
944.431	2768.74
944.738	2783.2
945.044	2738.69
945.35	2761.28
945.657	2721.96
945.963	2772.58
946.269	2721.28
946.575	2736.2
946.881	2699.82
947.187	2687.16
947.493	2692.81
947.799	2680.38
948.105	2676.99
948.41	2636.54
948.716	2667.27
949.022	2656.2
949.327	2641.96
949.633	2593.83
949.938	2625.47
950.244	2596.77
950.549	2585.92
950.854	2576.2
951.16	2573.27
951.465	2576.43
951.77	2542.31
952.075	2527.39
952.38	2546.37
952.685	2525.81
952.99	2487.17
953.294	2509.31
953.599	2495.53
953.904	2452.82
954.209	2457.11
954.513	2479.71
954.818	2413.95
955.122	2421.18
955.426	2401.07
955.731	2408.75
956.035	2420.95
956.339	2374.63
956.643	2376.66
956.948	2371.24
957.252	2325.36
957.556	2344.57
957.86	2349.99
958.163	2313.39
958.467	2321.52
958.771	2318.13
959.075	2319.04
959.378	2295.98
959.682	2291.69
959.985	2270.9
960.289	2263.67
960.592	2255.08
960.896	2271.58
961.199	2270.45
961.502	2255.53
961.805	2232.26
962.108	2213.95
962.411	2220.51
962.714	2204.69
963.017	2168.53
963.32	2196.33
963.623	2179.15
963.926	2176.44
964.228	2147.06
964.531	2151.13
964.833	2163.11
965.136	2126.27
965.438	2131.47
965.741	2117.46
966.043	2099.83
966.345	2107.97
966.648	2080.4
966.95	2108.87
967.252	2057.12
967.554	2051.92
967.856	2078.36
968.158	2029.55
968.46	2019.16
968.761	2015.54
969.063	1988.2
969.365	2040.4
969.666	1997.24
969.968	1981.42
970.269	2005.37
970.571	1984.13
970.872	1971.25
971.174	1963.11
971.475	1943
971.776	1919.27
972.077	1959.72
972.378	1954.07
972.679	1929.89
972.98	1904.81
973.281	1911.59
973.582	1920.63
973.883	1914.53
974.183	1854.64
974.484	1852.61
974.785	1883.57
975.085	1913.17
975.386	1872.72
975.686	1877.01
975.986	1879.5
976.287	1875.66
976.587	1827.97
976.887	1835.43
977.187	1832.04
977.487	1830.46
977.787	1825.04
978.087	1790.01
978.387	1791.37
978.687	1799.27
978.987	1749.11
979.286	1783.91
979.586	1785.26
979.885	1776
980.185	1753.63
980.484	1747.3
980.784	1727.64
981.083	1747.75
981.382	1723.8
981.682	1719.28
981.981	1701.2
982.28	1689.9
982.579	1682.22
982.878	1681.31
983.177	1689.45
983.475	1681.31
983.774	1680.86
984.073	1661.43
984.372	1640.41
984.67	1617.36
984.969	1652.39
985.267	1633.63
985.566	1643.35
985.864	1601.77
986.162	1627.3
986.461	1604.93
986.759	1604.7
987.057	1596.57
987.355	1571.71
987.653	1573.52
987.951	1575.78
988.249	1578.26
988.547	1538.72
988.844	1553.63
989.142	1564.03
989.44	1518.83
989.737	1542.78
990.035	1515.21
990.332	1511.15
990.63	1529.68
990.927	1524.93
991.224	1501.43
991.521	1497.14
991.819	1486.29
992.116	1507.76
992.413	1497.59
992.71	1461.88
993.006	1452.84
993.303	1470.7
993.6	1454.2
993.897	1447.19
994.193	1446.06
994.49	1414.43
994.787	1424.14
995.083	1393.18
995.379	1384.6
995.676	1393.86
995.972	1406.29
996.268	1402.67
996.565	1388.21
996.861	1385.05
997.157	1385.05
997.453	1349.12
997.749	1367.2
998.044	1355.67
998.34	1372.17
998.636	1331.26
998.932	1339.85
999.227	1302.79
999.523	1313.41
999.818	1322
1000.114	1300.98
1000.409	1295.79
1000.704	1306.18
1001	1309.12
1001.295	1271.15
1001.59	1288.33
1001.885	1270.25
1002.18	1270.25
1002.475	1253.07
1002.77	1217.82
1003.065	1252.85
1003.359	1255.33
1003.654	1211.49
1003.949	1212.17
1004.243	1217.6
1004.538	1213.75
1004.832	1248.55
1005.127	1226.63
1005.421	1225.5
1005.715	1183.7
1006.009	1180.53
1006.304	1184.15
1006.598	1172.17
1006.892	1190.25
1007.186	1182.57
1007.48	1176.24
1007.773	1168.33
1008.067	1156.58
1008.361	1159.52
1008.655	1136.47
1008.948	1123.36
1009.242	1085.85
1009.535	1124.94
1009.829	1091.72
1010.122	1098.5
1010.415	1091.72
1010.708	1096.92
1011.001	1105.28
1011.295	1122.23
1011.588	1067.32
1011.881	1074.1
1012.173	1061.22
1012.466	1075.9
1012.759	1047.2
1013.052	1065.28
1013.344	1024.61
1013.637	1042.23
1013.93	1023.02
1014.222	1060.31
1014.514	1031.84
1014.807	1046.98
1015.099	1018.28
1015.391	1031.84
1015.683	1019.86
1015.976	989.8
1016.268	999.07
1016.56	953.87
1016.851	982.57
1017.143	954.55
1017.435	988.67
1017.727	962.69
1018.018	963.14
1018.31	971.95
1018.602	952.52
1018.893	958.84
1019.185	935.12
1019.476	939.41
1019.767	912.07
1020.058	926.76
1020.35	930.6
1020.641	896.47
1020.932	916.36
1021.223	908.22
1021.514	900.99
1021.804	870.26
1022.095	875.68
1022.386	882.01
1022.677	872.75
1022.967	863.48
1023.258	861.22
1023.548	879.07
1023.839	869.81
1024.129	865.74
1024.419	863.48
1024.709	836.36
1025	834.33
1025.29	858.28
1025.58	849.24
1025.87	823.71
1026.16	829.81
1026.449	828.9
1026.739	817.61
1027.029	828
1027.319	830.03
1027.608	809.47
1027.898	809.7
1028.187	789.36
1028.477	789.81
1028.766	793.88
1029.055	790.49
1029.344	799.3
1029.634	793.43
1029.923	773.09
1030.212	782.13
1030.501	756.36
1030.79	767.89
1031.078	751.84
1031.367	761.11
1031.656	738.06
1031.945	768.79
1032.233	732.64
1032.522	741
1032.81	730.15
1033.099	722.69
1033.387	727.44
1033.675	721.79
1033.963	719.76
1034.251	736.7
1034.54	734.67
1034.828	678.4
1035.116	697.16
1035.403	720.43
1035.691	705.74
1035.979	675.91
1036.267	687.89
1036.554	689.47
1036.842	688.12
1037.129	678.85
1037.417	671.85
1037.704	682.47
1037.992	666.42
1038.279	674.78
1038.566	665.07
1038.853	665.07
1039.14	665.07
