Data from blue_chair_FLMS001491_00041.txt Node
Date: Wed Feb 08 10:30:53 GMT 2017
User: dcchb
Spectrometer: FLMS00149
Trigger mode: 0
Integration Time (sec): 2.000000E-2
Scans to average: 10
Electric dark correction enabled: true
Nonlinearity correction enabled: false
Boxcar width: 0
XAxis mode: Wavelengths
Number of Pixels in Spectrum: 2048
>>>>>Begin Spectral Data<<<<<
341.393	-16.2
341.776	-16.2
342.16	-16.2
342.543	-49.65
342.927	-67.95
343.31	-71.11
343.693	-74.96
344.077	-76.31
344.46	-65.69
344.843	-53.71
345.226	-26.14
345.61	-21.85
345.993	-12.81
346.376	-5.8
346.759	3.01
347.142	32.61
347.525	47.98
347.908	57.47
348.291	71.48
348.674	90.24
349.057	105.6
349.44	107.86
349.823	141.31
350.206	154.87
350.588	168.65
350.971	183.34
351.354	210.69
351.737	243.91
352.119	230.35
352.502	230.12
352.884	262.89
353.267	259.27
353.65	261.53
354.032	282.32
354.414	277.58
354.797	301.76
355.179	299.95
355.562	318.25
355.944	309.89
356.326	297.01
356.709	318.48
357.091	324.13
357.473	317.35
357.855	307.41
358.238	310.34
358.62	305.83
359.002	323.68
359.384	325.71
359.766	316.45
360.148	339.04
360.53	325.71
360.912	317.12
361.294	284.58
361.676	298.14
362.057	292.04
362.439	321.64
362.821	295.66
363.203	318.93
363.584	298.14
363.966	315.77
364.348	297.24
364.729	296.11
365.111	266.28
365.493	306.05
365.874	309.89
366.256	306.5
366.637	293.4
367.019	277.58
367.4	302.66
367.781	292.72
368.163	287.07
368.544	281.42
368.925	277.8
369.306	293.4
369.688	306.05
370.069	280.97
370.45	267.63
370.831	299.5
371.212	296.56
371.593	269.89
371.974	284.13
372.355	271.25
372.736	296.79
373.117	297.92
373.498	285.71
373.879	292.04
374.26	294.3
374.641	273.74
375.021	281.87
375.402	306.96
375.783	296.11
376.163	297.92
376.544	300.85
376.925	297.24
377.305	294.53
377.686	311.25
378.066	298.82
378.447	289.1
378.827	308.09
379.208	304.7
379.588	288.42
379.968	315.32
380.349	293.17
380.729	301.31
381.109	323.68
381.489	308.76
381.87	303.57
382.25	298.37
382.63	303.11
383.01	296.56
383.39	301.53
383.77	306.73
384.15	314.64
384.53	335.88
384.91	316.45
385.29	288.42
385.67	306.05
386.049	334.3
386.429	305.15
386.809	324.36
387.189	309.89
387.568	321.19
387.948	320.97
388.328	323.45
388.707	311.02
389.087	313.28
389.466	322.77
389.846	332.27
390.225	324.36
390.605	329.78
390.984	311.47
391.363	346.28
391.743	327.97
392.122	332.04
392.501	330.68
392.881	334.75
393.26	325.49
393.639	338.82
394.018	334.75
394.397	330.91
394.776	347.86
395.155	357.58
395.534	363.22
395.913	351.7
396.292	330.46
396.671	351.02
397.05	337.24
397.429	350.57
397.808	343.11
398.186	366.39
398.565	348.54
398.944	343.56
399.323	339.27
399.701	346.73
400.08	360.06
400.458	348.08
400.837	358.03
401.215	364.13
401.594	364.35
401.972	371.36
402.351	388.99
402.729	389.44
403.107	368.65
403.486	389.21
403.864	394.64
404.242	374.75
404.62	373.62
404.999	382.21
405.377	391.7
405.755	375.65
406.133	389.21
406.511	402.77
406.889	399.61
407.267	406.61
407.645	404.35
408.023	404.81
408.401	402.77
408.779	419.49
409.156	408.42
409.534	398.48
409.912	417.46
410.29	407.74
410.667	423.79
411.045	426.27
411.422	436.9
411.8	435.77
412.178	433.96
412.555	452.49
412.933	422.21
413.31	459.72
413.687	465.6
414.065	462.43
414.442	462.43
414.819	469.21
415.197	472.6
415.574	480.96
415.951	480.96
416.328	490.45
416.705	474.63
417.082	478.7
417.46	479.83
417.837	471.47
418.214	464.69
418.591	488.19
418.967	489.32
419.344	491.81
419.721	471.92
420.098	509.89
420.475	510.57
420.852	486.39
421.228	507.4
421.605	518.7
421.982	551.69
422.358	523.67
422.735	530.45
423.111	521.41
423.488	529.77
423.864	537.68
424.241	530.45
424.617	532.03
424.994	562.99
425.37	577.91
425.746	567.74
426.123	574.29
426.499	581.07
426.875	562.77
427.251	600.73
427.627	613.61
428.003	620.39
428.379	602.99
428.756	597.57
429.132	605.03
429.507	621.52
429.883	625.36
430.259	628.75
430.635	619.49
431.011	643.44
431.387	633.05
431.763	635.08
432.138	680.5
432.514	641.64
432.89	665.59
433.265	690.45
433.641	676.44
434.016	709.43
434.392	707.62
434.767	726.61
435.143	709.88
435.518	737.68
435.894	752.82
436.269	749.43
436.644	786.72
437.02	791.46
437.395	778.13
437.77	782.65
438.145	802.31
438.52	809.99
438.895	820.39
439.271	836.43
439.646	846.15
440.021	828.52
440.395	846.83
440.77	855.42
441.145	880.5
441.52	907.39
441.895	906.04
442.27	902.87
442.645	901.52
443.019	933.15
443.394	926.37
443.769	937
444.143	935.87
444.518	919.82
444.892	957.33
445.267	935.64
445.641	960.5
446.016	973.83
446.39	1005.02
446.764	972.7
447.139	991.23
447.513	1002.53
447.887	985.13
448.262	1005.47
448.636	1036.2
449.01	1024.68
449.384	1029.87
449.758	1046.6
450.132	1042.98
450.506	1054.51
450.88	1052.47
451.254	1060.61
451.628	1069.2
452.002	1076.65
452.376	1088.18
452.75	1101.51
453.123	1102.64
453.497	1134.05
453.871	1153.26
454.244	1162.07
454.618	1180.15
454.992	1151
455.365	1183.77
455.739	1214.95
456.112	1223.54
456.486	1223.54
456.859	1182.86
457.232	1240.26
457.606	1248.17
457.979	1245.91
458.352	1295.4
458.725	1298.12
459.099	1278
459.472	1292.01
459.845	1322.07
460.218	1351
460.591	1332.69
460.964	1380.37
461.337	1375.4
461.71	1418.79
462.083	1400.26
462.456	1407.49
462.829	1415.85
463.201	1452.91
463.574	1431.22
463.947	1454.27
464.32	1476.19
464.692	1485
465.065	1490.43
465.438	1509.41
465.81	1526.81
466.183	1559.8
466.555	1572.23
466.928	1605.9
467.3	1562.74
467.672	1590.54
468.045	1663.08
468.417	1624.43
468.789	1631.44
469.161	1663.08
469.534	1690.2
469.906	1727.93
470.278	1719.12
470.65	1737.2
471.022	1759.57
471.394	1768.16
471.766	1769.52
472.138	1786.01
472.51	1834.6
472.882	1861.04
473.253	1912.56
473.625	1899.68
473.997	1916.4
474.369	1919.57
474.74	1964.99
475.112	1970.87
475.484	1989.62
475.855	2077.3
476.227	2019.9
476.598	2069.17
476.97	2062.39
477.341	2103.74
477.713	2100.81
478.084	2124.76
478.455	2227.58
478.827	2221.71
479.198	2243.85
479.569	2255.83
479.94	2275.72
480.311	2340.8
480.682	2344.19
481.053	2414.47
481.424	2398.88
481.795	2429.61
482.166	2466.45
482.537	2488.59
482.908	2512.09
483.279	2555.94
483.65	2581.02
484.021	2593
484.391	2617.85
484.762	2638.42
485.133	2667.8
485.503	2653.56
485.874	2727.46
486.244	2755.93
486.615	2757.29
486.985	2784.18
487.356	2852.88
487.726	2822.6
488.097	2875.48
488.467	2897.62
488.837	2921.12
489.207	2945.76
489.578	2951.41
489.948	2965.64
490.318	2999.99
490.688	3034.57
491.058	3068.92
491.428	3062.81
491.798	3076.15
492.168	3140.55
492.538	3141.91
492.908	3141
493.278	3152.98
493.648	3183.49
494.017	3184.39
494.387	3211.96
494.757	3251.06
495.126	3227.1
495.496	3235.69
495.866	3271.85
496.235	3250.38
496.605	3264.84
496.974	3291.96
497.344	3266.43
497.713	3336.25
498.082	3314.33
498.452	3377.38
498.821	3385.97
499.19	3336.03
499.559	3370.6
499.928	3307.33
500.298	3383.48
500.667	3325.86
501.036	3360.89
501.405	3378.96
501.774	3321.34
502.143	3404.05
502.512	3363.6
502.88	3375.8
503.249	3370.38
503.618	3383.48
503.987	3430.26
504.356	3398.4
504.724	3415.12
505.093	3378.96
505.462	3388.46
505.83	3364.28
506.199	3405.18
506.567	3435.46
506.936	3413.09
507.304	3422.58
507.672	3385.52
508.041	3414.44
508.409	3451.51
508.777	3419.42
509.145	3427.78
509.514	3376.48
509.882	3463.71
510.25	3447.66
510.618	3424.39
510.986	3399.76
511.354	3416.93
511.722	3423.94
512.09	3405.18
512.458	3364.28
512.826	3403.14
513.193	3443.14
513.561	3405.86
513.929	3423.71
514.297	3437.49
514.664	3405.86
515.032	3402.24
515.4	3403.82
515.767	3388.91
516.135	3395.91
516.502	3395.91
516.869	3407.21
517.237	3376.7
517.604	3390.94
517.972	3427.1
518.339	3353.88
518.706	3364.28
519.073	3359.08
519.44	3381
519.808	3361.11
520.175	3343.94
520.542	3381.22
520.909	3355.69
521.276	3314.11
521.643	3305.07
522.009	3322.47
522.376	3341
522.743	3348.01
523.11	3320.66
523.477	3339.64
523.843	3352.3
524.21	3373.32
524.577	3355.01
524.943	3280.89
525.31	3326.54
525.676	3319.98
526.043	3324.95
526.409	3323.37
526.776	3352.07
527.142	3332.86
527.508	3302.81
527.874	3318.63
528.241	3324.28
528.607	3328.8
528.973	3308.23
529.339	3317.27
529.705	3315.24
530.071	3299.42
530.437	3268.69
530.803	3297.39
531.169	3292.87
531.535	3255.8
531.901	3251.06
532.267	3298.97
532.632	3290.61
532.998	3242.25
533.364	3253.77
533.73	3222.58
534.095	3232.98
534.461	3250.38
534.826	3245.41
535.192	3187.33
535.557	3234.34
535.923	3204.28
536.288	3163.15
536.653	3173.77
537.019	3160.89
537.384	3174.68
537.749	3144.17
538.114	3141.23
538.479	3123.6
538.845	3125.41
539.21	3082.48
539.575	3098.29
539.94	3098.75
540.305	3103.27
540.67	3070.95
541.034	3069.82
541.399	3067.33
541.764	3056.26
542.129	3041.35
542.494	3054.91
542.858	3009.26
543.223	3023.95
543.587	3029.14
543.952	2984.62
544.316	2978.07
544.681	2952.08
545.045	2920.9
545.41	2961.35
545.774	2899.43
546.138	2922.93
546.503	2894.68
546.867	2884.06
547.231	2919.54
547.595	2878.41
547.959	2851.75
548.324	2881.58
548.688	2863.72
549.052	2864.85
549.416	2835.7
549.779	2810.39
550.143	2834.12
550.507	2801.35
550.871	2813.33
551.235	2785.53
551.599	2826.44
551.962	2743.95
552.326	2722.71
552.689	2729.94
553.053	2729.26
553.417	2736.04
553.78	2775.14
554.143	2739.43
554.507	2694.69
554.87	2711.19
555.234	2724.07
555.597	2703.5
555.96	2696.95
556.323	2709.83
556.686	2677.06
557.05	2677.74
557.413	2705.99
557.776	2684.07
558.139	2684.52
558.502	2658.31
558.865	2652.66
559.228	2660.79
559.59	2649.94
559.953	2614.69
560.316	2630.74
560.679	2612.88
561.041	2639.55
561.404	2642.71
561.767	2619.44
562.129	2662.6
562.492	2669.83
562.854	2644.97
563.217	2622.15
563.579	2680.23
563.941	2642.71
564.304	2672.99
564.666	2682.49
565.028	2660.79
565.39	2645.42
565.753	2681.13
566.115	2660.57
566.477	2658.98
566.839	2692.88
567.201	2662.15
567.563	2651.3
567.925	2735.14
568.287	2673.9
568.648	2679.55
569.01	2660.57
569.372	2661.24
569.734	2702.82
570.095	2693.56
570.457	2689.49
570.819	2714.58
571.18	2663.05
571.542	2694.01
571.903	2745.99
572.265	2707.34
572.626	2734.69
572.987	2744.18
573.349	2724.74
573.71	2737.85
574.071	2752.99
574.432	2813.33
574.794	2793.44
575.155	2779.66
575.516	2751.86
575.877	2795.03
576.238	2830.5
576.599	2803.61
576.96	2790.28
577.32	2764.07
577.681	2794.12
578.042	2839.09
578.403	2810.84
578.763	2801.13
579.124	2853.33
579.485	2854.01
579.845	2827.57
580.206	2816.95
580.566	2863.05
580.927	2842.71
581.287	2871.41
581.648	2861.69
582.008	2842.48
582.368	2862.59
582.728	2868.92
583.089	2883.38
583.449	2904.18
583.809	2917.06
584.169	2897.17
584.529	2884.97
584.889	2886.77
585.249	2876.15
585.609	2919.09
585.969	2952.54
586.329	2933.33
586.688	2963.16
587.048	2996.15
587.408	2929.26
587.768	2986.66
588.127	2958.18
588.487	2961.12
588.846	2962.25
589.206	2891.75
589.565	2917.28
589.925	2946.89
590.284	2935.13
590.643	2977.39
591.003	2943.72
591.362	2990.05
591.721	2950.05
592.08	2929.26
592.44	2932.42
592.799	2907.79
593.158	2980.78
593.517	2939.2
593.876	2968.13
594.235	2960.44
594.593	2948.24
594.952	2941.91
595.311	2951.63
595.67	2928.13
596.029	2968.35
596.387	2972.2
596.746	2960.22
597.104	2961.12
597.463	2948.02
597.822	2934.46
598.18	2944.85
598.538	2948.92
598.897	2951.63
599.255	2906.21
599.613	2929.26
599.972	2916.38
600.33	2961.35
600.688	2936.49
601.046	2946.21
601.404	2924.97
601.762	2939.65
602.12	2968.81
602.478	2948.02
602.836	2932.2
603.194	2946.89
603.552	2934.23
603.91	2928.81
604.268	2929.26
604.625	2947.11
604.983	2990.05
605.341	2945.53
605.698	2905.53
606.056	2964.74
606.413	2949.37
606.771	2960.22
607.128	2980.78
607.485	2947.79
607.843	2906.89
608.2	2982.37
608.557	2940.78
608.914	2937.17
609.272	2984.4
609.629	2984.62
609.986	2949.37
610.343	2952.54
610.7	2960.9
611.057	2968.58
611.414	2942.37
611.771	2963.16
612.127	2960.67
612.484	2977.62
612.841	2987.11
613.198	2975.13
613.554	2942.14
613.911	2962.93
614.267	2965.42
614.624	2963.38
614.98	3000.22
615.337	3005.19
615.693	2988.69
616.05	2985.75
616.406	2991.63
616.762	3046.54
617.118	3008.81
617.475	3018.07
617.831	2983.72
618.187	3004.74
618.543	2954.12
618.899	3019.2
619.255	3032.31
619.611	3017.62
619.967	3030.5
620.323	3038.41
620.678	3024.4
621.034	2990.95
621.39	3000.67
621.746	3024.62
622.101	3002.48
622.457	2985.53
622.812	2963.16
623.168	2953.44
623.523	3029.82
623.879	2999.54
624.234	2993.66
624.589	3018.52
624.945	3017.62
625.3	3026.43
625.655	2998.64
626.01	3018.97
626.365	3035.02
626.72	3030.5
627.075	3025.75
627.43	3017.84
627.785	2997.28
628.14	3006.55
628.495	3025.75
628.85	2983.04
629.205	3020.56
629.559	3014.23
629.914	2970.84
630.269	2973.1
630.623	3023.04
630.978	3000.22
631.332	2980.11
631.687	3014.68
632.041	3000.9
632.396	2981.46
632.75	2974.68
633.104	2987.11
633.459	2968.81
633.813	2984.17
634.167	2933.1
634.521	2969.03
634.875	2966.09
635.229	2975.59
635.583	2951.86
635.937	2966.32
636.291	2959.54
636.645	2976.72
636.999	2938.98
637.352	2957.73
637.706	2944.4
638.06	2986.88
638.413	2941.46
638.767	2951.63
639.121	2973.55
639.474	2952.76
639.828	2960.44
640.181	2948.92
640.534	2946.89
640.888	2917.51
641.241	2950.73
641.594	2935.81
641.947	2953.21
642.301	2921.58
642.654	2968.81
643.007	2962.93
643.36	2936.26
643.713	2946.89
644.066	2927
644.419	2915.93
644.771	2951.41
645.124	2880.22
645.477	2886.32
645.83	2908.69
646.182	2846.32
646.535	2871.63
646.888	2869.6
647.24	2849.04
647.593	2884.97
647.945	2867.79
648.298	2842.71
648.65	2890.62
649.002	2859.88
649.355	2825.76
649.707	2881.12
650.059	2853.78
650.411	2906.43
650.763	2925.19
651.115	2953.21
651.467	2965.42
651.819	2944.63
652.171	2930.84
652.523	2948.47
652.875	2939.2
653.227	2904.4
653.578	2953.67
653.93	2934
654.282	2901.69
654.633	2915.25
654.985	2938.98
655.337	2934.23
655.688	2923.16
656.039	2941.69
656.391	2931.52
656.742	2946.89
657.094	2965.42
657.445	2948.47
657.796	2946.43
658.147	2909.37
658.498	2895.81
658.849	2951.18
659.2	2935.59
659.551	2906.43
659.902	2939.65
660.253	2944.63
660.604	2927.68
660.955	2944.17
661.306	2963.61
661.656	2914.8
662.007	2924.97
662.358	2962.93
662.708	2972.42
663.059	2922.25
663.409	2936.49
663.76	2955.25
664.11	2911.86
664.461	2967.22
664.811	2922.48
665.161	2963.16
665.511	2929.03
665.862	2955.7
666.212	2955.47
666.562	2976.72
666.912	2950.73
667.262	2921.12
667.612	2943.27
667.962	2919.99
668.312	2907.34
668.662	2950.28
669.011	2925.87
669.361	2938.3
669.711	2905.3
670.06	2909.37
670.41	2917.96
670.76	2938.07
671.109	2931.07
671.459	2961.12
671.808	2905.53
672.157	2917.73
672.507	2861.46
672.856	2885.87
673.205	2892.2
673.554	2894.46
673.904	2885.64
674.253	2927.9
674.602	2860.79
674.951	2844.52
675.3	2835.48
675.649	2906.89
675.998	2864.63
676.346	2868.24
676.695	2877.06
677.044	2860.56
677.393	2861.46
677.741	2834.8
678.09	2864.4
678.438	2832.09
678.787	2840
679.135	2851.97
679.484	2840.45
679.832	2842.03
680.181	2840.67
680.529	2841.13
680.877	2805.42
681.225	2803.39
681.573	2792.77
681.922	2783.95
682.27	2829.37
682.618	2767.68
682.966	2773.78
683.314	2791.64
683.661	2782.37
684.009	2752.99
684.357	2731.98
684.705	2736.5
685.053	2770.39
685.4	2754.35
685.748	2730.39
686.095	2707.12
686.443	2756.61
686.79	2725.42
687.138	2746.21
687.485	2736.27
687.832	2704.41
688.18	2684.75
688.527	2703.05
688.874	2687.91
689.221	2685.42
689.568	2655.82
689.915	2631.87
690.262	2674.8
690.609	2673.9
690.956	2617.85
691.303	2640
691.65	2592.32
691.997	2609.04
692.344	2657.18
692.69	2605.2
693.037	2616.5
693.383	2598.87
693.73	2560.68
694.077	2543.51
694.423	2548.03
694.769	2556.84
695.116	2548.03
695.462	2513.9
695.808	2521.36
696.155	2554.58
696.501	2515.26
696.847	2541.92
697.193	2508.03
697.539	2477.52
697.885	2497.18
698.231	2490.17
698.577	2484.75
698.923	2496.5
699.269	2473.68
699.614	2489.95
699.96	2444.07
700.306	2462.38
700.651	2449.72
700.997	2450.85
701.342	2430.74
701.688	2410.4
702.033	2434.81
702.379	2434.81
702.724	2416.96
703.069	2449.27
703.415	2425.32
703.76	2405.43
704.105	2401.14
704.45	2447.01
704.795	2451.76
705.14	2393.68
705.485	2405.21
705.83	2394.58
706.175	2409.72
706.52	2402.72
706.865	2366.56
707.209	2376.51
707.554	2436.39
707.899	2368.6
708.243	2407.01
708.588	2408.37
708.932	2380.35
709.277	2347.81
709.621	2393.68
709.966	2402.95
710.31	2374.7
710.654	2373.57
710.998	2389.39
711.342	2373.34
711.687	2386.45
712.031	2369.5
712.375	2364.3
712.719	2369.27
713.063	2400.01
713.407	2417.63
713.75	2386
714.094	2384.19
714.438	2394.81
714.782	2386.45
715.125	2381.93
715.469	2397.75
715.812	2387.8
716.156	2354.58
716.499	2389.39
716.843	2410.18
717.186	2428.03
717.53	2427.35
717.873	2442.94
718.216	2433.9
718.559	2400.69
718.902	2405.66
719.246	2412.21
719.589	2418.76
719.932	2459.44
720.275	2451.76
720.617	2420.8
720.96	2421.93
721.303	2472.55
721.646	2449.95
721.989	2423.06
722.331	2457.18
722.674	2463.06
723.016	2433.45
723.359	2462.6
723.701	2471.42
724.044	2458.31
724.386	2487.24
724.729	2491.3
725.071	2482.04
725.413	2481.81
725.755	2492.89
726.097	2478.88
726.439	2521.13
726.782	2529.95
727.124	2500.57
727.465	2529.5
727.807	2545.09
728.149	2530.63
728.491	2525.88
728.833	2542.6
729.175	2572.66
729.516	2554.13
729.858	2553.45
730.199	2609.04
730.541	2576.5
730.882	2633
731.224	2619.66
731.565	2614.92
731.906	2604.75
732.248	2643.84
732.589	2598.87
732.93	2639.32
733.271	2628.25
733.612	2656.05
733.953	2667.35
734.294	2673.67
734.635	2679.1
734.976	2701.47
735.317	2719.1
735.658	2702.37
735.999	2710.73
736.339	2762.03
736.68	2758.19
737.021	2753.44
737.361	2759.09
737.702	2800
738.042	2811.3
738.383	2809.71
738.723	2802.71
739.063	2869.37
739.404	2856.04
739.744	2879.54
740.084	2908.47
740.424	2923.84
740.764	2934.23
741.104	2993.44
741.444	2927.23
741.784	3016.04
742.124	3017.17
742.464	3051.74
742.804	3083.38
743.143	3138.07
743.483	3138.52
743.823	3148.69
744.162	3158.86
744.502	3213.09
744.841	3228.91
745.181	3293.09
745.52	3304.16
745.86	3348.01
746.199	3393.2
746.538	3377.16
746.877	3469.36
747.216	3490.83
747.556	3552.97
747.895	3587.09
748.234	3615.12
748.573	3661.67
748.911	3692.63
749.25	3761.1
749.589	3809.69
749.928	3883.36
750.267	3925.62
750.605	3988.21
750.944	4006.07
751.283	4098.95
751.621	4158.38
751.96	4204.48
752.298	4270.24
752.636	4357.24
752.975	4339.39
753.313	4462.33
753.651	4530.57
753.989	4572.61
754.327	4690.12
754.666	4717.46
755.004	4872.03
755.342	4865.93
755.679	4996.32
756.017	5093.27
756.355	5146.15
756.693	5229.54
757.031	5316.09
757.368	5350.21
757.706	5496.65
758.044	5555.86
758.381	5644.67
758.719	5731.45
759.056	5867.94
759.394	5939.12
759.731	5989.29
760.068	6015.96
760.405	6160.81
760.743	6262.73
761.08	6408.94
761.417	6417.3
761.754	6521.26
762.091	6613.23
762.428	6655.26
762.765	6703.85
763.102	6832.21
763.438	6841.92
763.775	6929.38
764.112	7039.21
764.449	7148.13
764.785	7213.44
765.122	7247.11
765.458	7290.27
765.795	7453.89
766.131	7512.64
766.467	7580.44
766.804	7680.32
767.14	7664.05
767.476	7751.73
767.812	7795.57
768.148	7935.46
768.485	7887.32
768.821	7960.09
769.157	8037.15
769.492	8065.62
769.828	8142.68
770.164	8225.62
770.5	8278.27
770.836	8307.42
771.171	8274.88
771.507	8330.02
771.842	8378.16
772.178	8470.36
772.513	8502.67
772.849	8518.72
773.184	8553.74
773.519	8622.67
773.855	8616.57
774.19	8614.76
774.525	8690.69
774.86	8656.34
775.195	8697.02
775.53	8746.06
775.865	8820.86
776.2	8759.84
776.535	8733.17
776.87	8802.1
777.205	8760.74
777.539	8789.67
777.874	8834.64
778.209	8888.88
778.543	8829.89
778.878	8881.19
779.212	8905.6
779.547	8886.62
779.881	8938.82
780.215	8909.44
780.55	8989.21
780.884	8897.01
781.218	8932.72
781.552	8980.85
781.886	8900.63
782.22	8907.18
782.554	8941.08
782.888	8867.63
783.222	8883.68
783.556	8908.99
783.889	8967.07
784.223	8864.02
784.557	8928.88
784.89	8963.68
785.224	8917.12
785.557	8925.94
785.891	8869.22
786.224	8934.3
786.558	8958.25
786.891	8846.39
787.224	8878.93
787.557	8877.58
787.891	8908.54
788.224	8866.73
788.557	8894.3
788.89	8955.32
789.223	8906.73
789.556	8849.56
789.888	8839.39
790.221	8881.42
790.554	8771.14
790.887	8780.18
791.219	8808.2
791.552	8758.71
791.884	8768.88
792.217	8832.83
792.549	8765.49
792.882	8736.56
793.214	8640.52
793.546	8766.62
793.879	8687.3
794.211	8614.53
794.543	8668.77
794.875	8682.33
795.207	8735.66
795.539	8692.05
795.871	8678.03
796.203	8572.5
796.535	8609.11
796.867	8590.35
797.198	8576.57
797.53	8614.76
797.862	8580.64
798.193	8585.38
798.525	8555.55
798.856	8542.22
799.188	8467.42
799.519	8428.32
799.85	8464.71
800.182	8471.71
800.513	8460.87
800.844	8369.57
801.175	8468.32
801.506	8422.9
801.837	8396.23
802.168	8340.87
802.499	8373.86
802.83	8293.64
803.161	8219.52
803.491	8289.8
803.822	8316.69
804.153	8254.09
804.483	8292.96
804.814	8277.82
805.145	8218.16
805.475	8216.35
805.805	8204.83
806.136	8224.26
806.466	8212.96
806.796	8156.69
807.126	8083.02
807.457	8094.32
807.787	8175
808.117	8119.18
808.447	8083.47
808.777	8147.43
809.107	8085.96
809.436	8083.25
809.766	8006.19
810.096	8060.2
810.426	8017.03
810.755	8063.36
811.085	8059.29
811.414	8004.38
811.744	8000.99
812.073	7978.84
812.403	8037.37
812.732	7989.47
813.061	7932.97
813.39	7905.85
813.719	7898.17
814.049	8027.88
814.378	7889.58
814.707	7871.95
815.036	7895
815.365	7810.71
815.693	7803.48
816.022	7805.29
816.351	7829.02
816.68	7744.5
817.008	7746.31
817.337	7696.37
817.665	7763.03
817.994	7764.39
818.322	7731.62
818.651	7723.48
818.979	7688.68
819.307	7741.56
819.636	7687.78
819.964	7671.73
820.292	7694.78
820.62	7667.44
820.948	7639.87
821.276	7656.59
821.604	7707.21
821.932	7710.38
822.259	7695.91
822.587	7691.17
822.915	7670.83
823.243	7699.76
823.57	7701.56
823.898	7668.12
824.225	7706.53
824.553	7712.86
824.88	7666.08
825.207	7782.24
825.535	7655.69
825.862	7712.41
826.189	7692.98
826.516	7764.61
826.843	7809.36
827.17	7752.64
827.497	7784.72
827.824	7721.22
828.151	7766.65
828.478	7749.47
828.805	7767.32
829.131	7775.46
829.458	7737.49
829.785	7746.31
830.111	7713.31
830.438	7819.53
830.764	7804.84
831.09	7723.94
831.417	7783.14
831.743	7821.56
832.069	7733.2
832.395	7762.58
832.722	7783.37
833.048	7716.93
833.374	7694.33
833.7	7731.62
834.026	7740.88
834.351	7761.45
834.677	7707.89
835.003	7733.88
835.329	7716.7
835.654	7717.61
835.98	7688.23
836.306	7772.07
836.631	7715.57
836.956	7688.91
837.282	7679.87
837.607	7659.98
837.932	7650.49
838.258	7655.46
838.583	7666.31
838.908	7626.76
839.233	7678.96
839.558	7589.02
839.883	7632.86
840.208	7600.55
840.533	7583.83
840.858	7584.05
841.182	7573.43
841.507	7640.1
841.832	7538.4
842.156	7555.58
842.481	7549.48
842.805	7576.37
843.13	7526.88
843.454	7471.51
843.778	7419.99
844.103	7469.7
844.427	7438.29
844.751	7474
845.075	7378.63
845.399	7391.29
845.723	7361.91
846.047	7394.68
846.371	7284.17
846.695	7361.91
847.019	7241.01
847.343	7187.23
847.666	7157.85
847.99	7179.77
848.313	7144.06
848.637	7085.53
848.96	7082.6
849.284	7068.36
849.607	7054.8
849.931	7029.26
850.254	6972.99
850.577	6883.51
850.9	6919.89
851.223	6907.91
851.546	6871.3
851.869	6897.97
852.192	6862.26
852.515	6814.58
852.838	6808.71
853.161	6795.37
853.483	6776.62
853.806	6736.39
854.129	6739.55
854.451	6691.42
854.774	6697.3
855.096	6681.93
855.419	6606
855.741	6629.73
856.063	6583.63
856.385	6563.97
856.708	6535.72
857.03	6497.3
857.352	6541.14
857.674	6550.18
857.996	6481.03
858.318	6429.05
858.64	6485.55
858.961	6374.59
859.283	6451.2
859.605	6422.05
859.926	6434.25
860.248	6388.38
860.57	6389.73
860.891	6349.96
861.212	6308.15
861.534	6370.52
861.855	6307.25
862.176	6314.93
862.498	6307.48
862.819	6300.02
863.14	6276.97
863.461	6240.58
863.782	6296.63
864.103	6267.25
864.424	6257.99
864.745	6285.78
865.065	6197.65
865.386	6246.91
865.707	6195.84
866.027	6201.49
866.348	6214.82
866.668	6137.31
866.989	6129.85
867.309	6125.79
867.63	6161.26
867.95	6149.06
868.27	6090.31
868.59	6149.97
868.91	6112.9
869.23	6162.85
869.55	6084.88
869.87	6075.62
870.19	6043.08
870.51	6085.56
870.83	6097.54
871.15	6015.73
871.469	6068.16
871.789	6048.05
872.109	6020.03
872.428	5995.85
872.748	6004.21
873.067	5962.4
873.386	6003.3
873.706	5947.48
874.025	5895.06
874.344	5960.37
874.663	5950.87
874.982	5890.99
875.301	5954.26
875.62	5902.97
875.939	5899.8
876.258	5914.49
876.577	5896.19
876.896	5937.54
877.214	5861.39
877.533	5865.23
877.852	5856.64
878.17	5898.22
878.489	5862.97
878.807	5891.89
879.125	5870.65
879.444	5882.63
879.762	5843.31
880.08	5839.47
880.398	5797.88
880.716	5818.67
881.034	5752.01
881.352	5794.04
881.67	5718.79
881.988	5780.94
882.306	5723.31
882.624	5668.85
882.941	5703.88
883.259	5690.09
883.577	5653.93
883.894	5660.94
884.212	5643.76
884.529	5599.02
884.846	5655.74
885.164	5593.6
885.481	5595.63
885.798	5606.02
886.115	5551.79
886.432	5524.9
886.75	5542.07
887.067	5567.16
887.383	5537.55
887.7	5520.83
888.017	5508.17
888.334	5485.12
888.651	5470.44
888.967	5518.34
889.284	5448.06
889.6	5443.09
889.917	5377.56
890.233	5402.87
890.55	5363.77
890.866	5367.39
891.182	5390.66
891.498	5311.57
891.815	5314.73
892.131	5321.74
892.447	5296.2
892.763	5255.3
893.079	5310.67
893.395	5246.03
893.71	5237.45
894.026	5194.28
894.342	5181.63
894.657	5198.8
894.973	5160.61
895.289	5173.04
895.604	5152.93
895.92	5082.42
896.235	5058.24
896.55	5080.16
896.865	5095.98
897.181	5039.26
897.496	5063.44
897.811	5012.82
898.126	5008.98
898.441	4994.74
898.756	4948.19
899.071	4975.76
899.386	4921.75
899.7	4931.47
900.015	4934.63
900.33	4838.14
900.644	4887.17
900.959	4863.22
901.273	4795.88
901.588	4792.71
901.902	4832.49
902.216	4790.68
902.531	4792.26
902.845	4771.7
903.159	4723.79
903.473	4761.75
903.787	4726.05
904.101	4684.02
904.415	4670.46
904.729	4665.48
905.042	4644.69
905.356	4591.36
905.67	4570.12
905.984	4578.48
906.297	4613.73
906.611	4530.8
906.924	4560.63
907.237	4532.15
907.551	4505.04
907.864	4524.02
908.177	4499.39
908.491	4452.16
908.804	4405.15
909.117	4408.54
909.43	4384.36
909.743	4368.77
910.056	4319.73
910.368	4321.76
910.681	4344.59
910.994	4328.32
911.307	4266.4
911.619	4305.27
911.932	4269.11
912.244	4262.78
912.557	4223.01
912.869	4176.23
913.181	4213.29
913.494	4194.54
913.806	4164.93
914.118	4158.15
914.43	4129.45
914.742	4114.09
915.054	4118.38
915.366	4052.17
915.678	4081.09
915.99	4076.12
916.302	4047.65
916.613	3978.27
916.925	3972.85
917.236	4001.77
917.548	3995.45
917.859	4029.57
918.171	3936.24
918.482	3911.61
918.794	3915.67
919.105	3879.06
919.416	3881.32
919.727	3869.35
920.038	3810.59
920.349	3832.06
920.66	3850.59
920.971	3814.89
921.282	3826.18
921.593	3796.58
921.903	3756.58
922.214	3733.98
922.525	3737.6
922.835	3705.28
923.146	3692.4
923.456	3728.33
923.767	3717.49
924.077	3667.77
924.387	3682.01
924.697	3653.76
925.008	3627.77
925.318	3687.21
925.628	3623.25
925.938	3577.38
926.248	3531.96
926.558	3546.19
926.867	3579.19
927.177	3540.09
927.487	3542.58
927.796	3485.18
928.106	3498.96
928.416	3453.54
928.725	3490.37
929.034	3470.04
929.344	3455.35
929.653	3454.44
929.962	3442.01
930.271	3385.74
930.581	3363.82
930.89	3366.76
931.199	3358.17
931.508	3358.85
931.817	3324.73
932.125	3327.44
932.434	3350.49
932.743	3308.91
933.051	3308.01
933.36	3270.49
933.669	3254.9
933.977	3252.19
934.286	3209.7
934.594	3204.73
934.902	3173.09
935.21	3178.52
935.519	3181.91
935.827	3194.79
936.135	3182.13
936.443	3124.51
936.751	3152.76
937.059	3110.72
937.367	3140.33
937.674	3102.81
937.982	3123.38
938.29	3121.12
938.597	3099.42
938.905	3073.21
939.213	3046.77
939.52	3056.04
939.827	3025.75
940.135	3019.88
940.442	2996.6
940.749	2952.31
941.056	2976.72
941.363	2935.81
941.67	2964.29
941.977	2903.72
942.284	2892.2
942.591	2920.9
942.898	2927.68
943.205	2893.33
943.511	2835.48
943.818	2872.54
944.125	2804.74
944.431	2851.97
944.738	2852.65
945.044	2815.36
945.35	2805.42
945.657	2790.73
945.963	2764.74
946.269	2760.9
946.575	2760
946.881	2753.9
947.187	2751.64
947.493	2729.94
947.799	2719.1
948.105	2712.32
948.41	2699.21
948.716	2704.63
949.022	2677.97
949.327	2670.06
949.633	2662.83
949.938	2666.67
950.244	2670.06
950.549	2621.7
950.854	2584.64
951.16	2582.15
951.465	2571.53
951.77	2566.33
952.075	2567.01
952.38	2581.02
952.685	2565.2
952.99	2563.62
953.294	2554.35
953.599	2559.78
953.904	2509.38
954.209	2523.85
954.513	2491.53
954.818	2479.78
955.122	2505.54
955.426	2454.92
955.731	2468.48
956.035	2441.14
956.339	2430.29
956.643	2472.55
956.948	2405.21
957.252	2403.4
957.556	2373.34
957.86	2392.32
958.163	2377.18
958.467	2380.57
958.771	2389.61
959.075	2353.68
959.378	2337.18
959.682	2373.34
959.985	2317.98
960.289	2339.67
960.592	2290.41
960.896	2293.34
961.199	2298.09
961.502	2295.15
961.805	2282.04
962.108	2228.03
962.411	2253.8
962.714	2259.45
963.017	2222.39
963.32	2232.1
963.623	2213.35
963.926	2172.67
964.228	2213.35
964.531	2182.61
964.833	2171.09
965.136	2197.3
965.438	2181.48
965.741	2183.29
966.043	2169.73
966.345	2153.91
966.648	2141.26
966.95	2136.96
967.252	2127.02
967.554	2105.78
967.856	2094.7
968.158	2089.51
968.46	2087.93
968.761	2056.29
969.063	2077.76
969.365	2054.03
969.666	2058.77
969.968	2021.03
970.269	2008.83
970.571	2052.67
970.872	2009.51
971.174	2026.01
971.475	1970.19
971.776	1972.9
972.077	1972.45
972.378	1961.83
972.679	1981.71
972.98	1960.92
973.281	1957.76
973.582	1966.12
973.883	1934.93
974.183	1919.57
974.484	1952.11
974.785	1890.87
975.085	1901.49
975.386	1905.33
975.686	1892.68
975.986	1900.36
976.287	1877.54
976.587	1882.06
976.887	1841.6
977.187	1872.56
977.487	1831.43
977.787	1832.11
978.087	1840.47
978.387	1836.18
978.687	1819.23
978.987	1794.37
979.286	1799.35
979.586	1805.67
979.885	1769.29
980.185	1757.31
980.484	1757.76
980.784	1753.7
981.083	1762.06
981.382	1755.5
981.682	1756.18
981.981	1766.35
982.28	1745.34
982.579	1706.69
982.878	1720.25
983.177	1705.34
983.475	1707.37
983.774	1692.91
984.073	1706.92
984.372	1687.03
984.67	1651.78
984.969	1665.11
985.267	1690.42
985.566	1678.9
985.864	1610.88
986.162	1639.12
986.461	1604.1
986.759	1651.33
987.057	1625.11
987.355	1608.16
987.653	1624.89
987.951	1596.19
988.249	1586.02
988.547	1589.18
988.844	1597.32
989.142	1557.09
989.44	1560.48
989.737	1540.82
990.035	1553.93
990.332	1525.91
990.63	1539.47
990.927	1530.2
991.224	1498.56
991.521	1506.92
991.819	1521.39
992.116	1491.33
992.413	1513.03
992.71	1502.4
993.006	1490.65
993.303	1479.35
993.6	1464.21
993.897	1488.62
994.193	1455.4
994.49	1451.56
994.787	1466.02
995.083	1439.35
995.379	1457.66
995.676	1410.43
995.972	1416.98
996.268	1431.67
996.565	1402.29
996.861	1361.84
997.157	1359.36
997.453	1377.66
997.749	1385.34
998.044	1397.32
998.34	1380.37
998.636	1361.16
998.932	1390.77
999.227	1372.46
999.523	1327.04
999.818	1329.75
1000.114	1311.22
1000.409	1290.43
1000.704	1315.52
1001	1333.59
1001.295	1301.05
1001.59	1318
1001.885	1298.57
1002.18	1311.9
1002.475	1294.95
1002.77	1295.4
1003.065	1268.51
1003.359	1281.62
1003.654	1282.97
1003.949	1261.96
1004.243	1247.27
1004.538	1248.17
1004.832	1257.66
1005.127	1225.35
1005.421	1205.91
1005.715	1209.53
1006.009	1206.82
1006.304	1235.52
1006.598	1182.86
1006.892	1210.21
1007.186	1204.11
1007.48	1193.26
1007.773	1153.94
1008.067	1181.06
1008.361	1148.97
1008.655	1181.73
1008.948	1157.78
1009.242	1139.25
1009.535	1104
1009.829	1111.91
1010.122	1115.07
1010.415	1121.4
1010.708	1116.2
1011.001	1103.09
1011.295	1087.5
1011.588	1103.77
1011.881	1096.99
1012.173	1067.16
1012.466	1066.03
1012.759	1081.62
1013.052	1094.05
1013.344	1066.71
1013.637	1053.15
1013.93	1062.42
1014.222	1068.97
1014.514	1026.71
1014.807	1054.73
1015.099	1028.74
1015.391	1023.77
1015.683	1046.82
1015.976	1032.13
1016.268	1023.32
1016.56	998.91
1016.851	1002.98
1017.143	993.49
1017.435	993.49
1017.727	991.46
1018.018	1002.53
1018.31	984.9
1018.602	959.37
1018.893	965.47
1019.185	963.89
1019.476	984.9
1019.767	958.24
1020.058	956.2
1020.35	915.53
1020.641	925.92
1020.932	952.81
1021.223	935.41
1021.514	915.07
1021.804	924.79
1022.095	930.22
1022.386	886.37
1022.677	888.86
1022.967	900.16
1023.258	882.76
1023.548	875.75
1023.839	883.89
1024.129	875.98
1024.419	863.1
1024.709	861.29
1025	846.83
1025.29	857.68
1025.58	842.08
1025.87	866.49
1026.16	826.04
1026.449	815.64
1026.739	830.78
1027.029	833.04
1027.319	824.91
1027.608	840.5
1027.898	821.52
1028.187	804.8
1028.477	819.48
1028.766	814.96
1029.055	807.28
1029.344	794.17
1029.634	793.95
1029.923	808.86
1030.212	763.21
1030.501	778.58
1030.79	785.36
1031.078	784.46
1031.367	778.81
1031.656	778.58
1031.945	731.35
1032.233	754.4
1032.522	768.64
1032.81	724.12
1033.099	727.06
1033.387	737.68
1033.675	712.82
1033.963	719.6
1034.251	707.85
1034.54	742.65
1034.828	723.22
1035.116	711.92
1035.403	701.52
1035.691	685.48
1035.979	700.17
1036.267	696.55
1036.554	685.7
1036.842	698.13
1037.129	695.87
1037.417	684.57
1037.704	680.28
1037.992	687.74
1038.279	685.7
1038.566	675.99
1038.853	675.99
1039.14	675.99
