Data from blue_surface_keyboard_FLMS001491_037.txt Node
Date: Tue Feb 07 11:13:00 GMT 2017
User: dcchb
Spectrometer: FLMS00149
Trigger mode: 0
Integration Time (sec): 2.000000E-2
Scans to average: 10
Electric dark correction enabled: true
Nonlinearity correction enabled: false
Boxcar width: 0
XAxis mode: Wavelengths
Number of Pixels in Spectrum: 2048
>>>>>Begin Spectral Data<<<<<
341.393	-13.19
341.776	-13.19
342.16	-13.19
342.543	-40.99
342.927	-61.33
343.31	-68.11
343.693	-60.65
344.077	-57.48
344.46	-65.39
344.843	-65.39
345.226	-41.44
345.61	-35.11
345.993	-3.25
346.376	-12.51
346.759	15.96
347.142	39.69
347.525	39.01
347.908	54.15
348.291	62.51
348.674	80.82
349.057	117.2
349.44	134.15
349.823	141.83
350.206	164.66
350.588	163.3
350.971	174.83
351.354	196.97
351.737	197.2
352.119	221.38
352.502	229.06
352.884	252.34
353.267	253.92
353.65	273.35
354.032	262.73
354.414	292.79
354.797	288.5
355.179	278.55
355.562	302.51
355.944	293.01
356.326	325.78
356.709	311.32
357.091	293.24
357.473	309.96
357.855	301.83
358.238	320.58
358.62	312
359.002	302.73
359.384	320.13
359.766	294.6
360.148	312.9
360.53	320.58
360.912	307.03
361.294	320.58
361.676	315.61
362.057	305.67
362.439	310.64
362.821	300.7
363.203	311.77
363.584	282.62
363.966	289.17
364.348	307.93
364.729	302.28
365.111	284.2
365.493	267.48
365.874	285.78
366.256	288.5
366.637	285.11
367.019	291.43
367.4	285.78
367.781	272.68
368.163	274.71
368.544	284.2
368.925	273.13
369.306	302.28
369.688	276.29
370.069	272.22
370.45	279
370.831	286.69
371.212	278.1
371.593	295.05
371.974	298.44
372.355	275.16
372.736	276.52
373.117	291.43
373.498	293.47
373.879	273.81
374.26	285.11
374.641	274.71
375.021	285.33
375.402	287.82
375.783	287.59
376.163	293.24
376.544	312
376.925	287.37
377.305	279
377.686	299.34
378.066	301.38
378.447	291.21
378.827	295.05
379.208	286.69
379.588	286.24
379.968	281.04
380.349	310.19
380.729	308.16
381.109	294.37
381.489	304.99
381.87	275.16
382.25	316.97
382.63	299.79
383.01	288.27
383.39	311.77
383.77	288.5
384.15	300.02
384.53	308.16
384.91	299.57
385.29	294.14
385.67	301.38
386.049	319.23
386.429	296.18
386.809	298.89
387.189	306.8
387.568	309.06
387.948	304.77
388.328	309.29
388.707	295.73
389.087	337.08
389.466	328.49
389.846	290.08
390.225	338.21
390.605	316.97
390.984	320.36
391.363	308.38
391.743	323.07
392.122	314.26
392.501	305.22
392.881	298.44
393.26	341.15
393.639	330.08
394.018	319.68
394.397	319.91
394.776	310.42
395.155	330.3
395.534	322.17
395.913	326.69
396.292	317.87
396.671	339.79
397.05	324.88
397.429	323.97
397.808	326.69
398.186	320.36
398.565	337.53
398.944	308.61
399.323	343.64
399.701	327.36
400.08	321.26
400.458	330.3
400.837	337.76
401.215	323.97
401.594	334.82
401.972	323.75
402.351	318.32
402.729	355.39
403.107	341.6
403.486	345.22
403.864	341.38
404.242	319.23
404.62	348.38
404.999	361.26
405.377	365.78
405.755	343.41
406.133	348.15
406.511	326.46
406.889	351.77
407.267	351.77
407.645	340.7
408.023	340.25
408.401	368.04
408.779	337.08
409.156	362.17
409.534	356.74
409.912	344.09
410.29	368.95
410.667	364.2
411.045	356.06
411.422	359.23
411.8	377.76
412.178	377.53
412.555	372.79
412.933	365.33
413.31	376.63
413.687	365.33
414.065	393.35
414.442	367.59
414.819	368.49
415.197	383.18
415.574	397.87
415.951	365.1
416.328	371.88
416.705	399.23
417.082	398.32
417.46	384.09
417.837	391.09
418.214	384.54
418.591	403.75
418.967	376.4
419.344	381.37
419.721	372.33
420.098	396.06
420.475	389.06
420.852	396.51
421.228	403.52
421.605	400.13
421.982	376.4
422.358	407.36
422.735	410.07
423.111	392.45
423.488	383.63
423.864	423.18
424.241	407.59
424.617	388.38
424.994	399.23
425.37	416.63
425.746	411.43
426.123	405.1
426.499	423.41
426.875	433.35
427.251	410.75
427.627	410.07
428.003	431.09
428.379	426.57
428.756	407.81
429.132	429.73
429.507	427.02
429.883	436.51
430.259	440.13
430.635	416.18
431.011	447.14
431.387	457.76
431.763	461.37
432.138	461.15
432.514	460.47
432.89	442.39
433.265	472.9
433.641	462.05
434.016	449.39
434.392	458.43
434.767	472.45
435.143	496.17
435.518	491.2
435.894	468.6
436.269	491.88
436.644	465.67
437.02	491.43
437.395	471.54
437.77	462.5
438.145	488.94
438.52	486.91
438.895	502.27
439.271	478.09
439.646	503.18
440.021	504.53
440.395	498.21
440.77	504.53
441.145	510.41
441.52	491.88
441.895	511.54
442.27	531.88
442.645	504.08
443.019	512.67
443.394	509.73
443.769	523.74
444.143	506.57
444.518	526
444.892	511.99
445.267	492.11
445.641	528.04
446.016	546.57
446.39	526
446.764	552.9
447.139	520.35
447.513	528.04
447.887	524.42
448.262	521.71
448.636	549.05
449.01	546.57
449.384	544.76
449.758	554.7
450.132	549.96
450.506	526.46
450.88	547.02
451.254	565.78
451.628	551.09
452.002	568.04
452.376	558.54
452.75	572.33
453.123	580.46
453.497	577.3
453.871	577.98
454.244	588.83
454.618	595.38
454.992	569.17
455.365	579.56
455.739	599.67
456.112	611.2
456.486	592.22
456.859	613.23
457.232	595.83
457.606	612.55
457.979	608.71
458.352	619.56
458.725	623.63
459.099	616.17
459.472	635.6
459.845	630.86
460.218	634.02
460.591	648.26
460.964	632.44
461.337	643.97
461.71	643.51
462.083	636.73
462.456	675.15
462.829	671.76
463.201	659.33
463.574	672.44
463.947	690.07
464.32	684.87
464.692	690.74
465.065	666.79
465.438	692.55
465.81	709.28
466.183	689.84
466.555	726.22
466.928	700.46
467.3	722.16
467.672	719.44
468.045	705.66
468.417	710.41
468.789	721.48
469.161	727.13
469.534	745.88
469.906	746.56
470.278	769.61
470.65	780.23
471.022	767.8
471.394	788.82
471.766	793.79
472.138	792.21
472.51	805.32
472.882	801.25
473.253	799.44
473.625	806.9
473.997	821.36
474.369	801.93
474.74	848.71
475.112	847.8
475.484	813
475.855	845.77
476.227	863.62
476.598	892.32
476.97	889.38
477.341	885.32
477.713	906.56
478.084	896.16
478.455	913.11
478.827	899.55
479.198	939.78
479.569	960.34
479.94	943.39
480.311	955.14
480.682	991.98
481.053	982.04
481.424	1011.64
481.795	993.79
482.166	992.88
482.537	1003.28
482.908	1017.29
483.279	1026.33
483.65	1027.68
484.021	1047.57
484.391	1055.03
484.762	1068.81
485.133	1067.91
485.503	1096.16
485.874	1075.14
486.244	1084.86
486.615	1106.33
486.985	1105.87
487.356	1115.37
487.726	1100.45
488.097	1153.56
488.467	1149.94
488.837	1160.34
489.207	1181.35
489.578	1167.57
489.948	1182.03
490.318	1181.13
490.688	1208.47
491.058	1177.06
491.428	1204.63
491.798	1227.68
492.168	1231.75
492.538	1231.97
492.908	1257.06
493.278	1223.16
493.648	1252.54
494.017	1262.03
494.387	1224.74
494.757	1247.34
495.126	1262.93
495.496	1258.19
495.866	1285.08
496.235	1311.52
496.605	1304.74
496.974	1314.68
497.344	1314.68
497.713	1290.05
498.082	1272.88
498.452	1307.9
498.821	1294.34
499.19	1332.54
499.559	1344.29
499.928	1309.71
500.298	1321.69
500.667	1348.58
501.036	1316.72
501.405	1347.9
501.774	1339.99
502.143	1341.57
502.512	1344.96
502.88	1334.12
503.249	1335.7
503.618	1382.25
503.987	1344.96
504.356	1362.14
504.724	1347
505.093	1357.17
505.462	1377.28
505.83	1388.35
506.199	1379.77
506.567	1348.81
506.936	1369.37
507.304	1408.47
507.672	1395.58
508.041	1406.66
508.409	1422.93
508.777	1408.24
509.145	1416.38
509.514	1417.96
509.882	1401.69
510.25	1412.53
510.618	1411.86
510.986	1450.5
511.354	1385.42
511.722	1431.74
512.09	1439.2
512.458	1444.4
512.826	1442.82
513.193	1426.54
513.561	1444.4
513.929	1456.15
514.297	1452.31
514.664	1483.49
515.032	1452.76
515.4	1464.74
515.767	1426.32
516.135	1462.02
516.502	1471.74
516.869	1466.77
517.237	1484.62
517.604	1473.55
517.972	1500.44
518.339	1467.9
518.706	1469.71
519.073	1477.62
519.44	1483.94
519.808	1490.27
520.175	1511.06
520.542	1508.12
520.909	1495.92
521.276	1507.9
521.643	1502.93
522.009	1508.12
522.376	1467.22
522.743	1511.74
523.11	1537.95
523.477	1537.5
523.843	1537.5
524.21	1512.19
524.577	1563.26
524.943	1577.27
525.31	1543.15
525.676	1545.41
526.043	1562.36
526.409	1580.21
526.776	1587.67
527.142	1558.74
527.508	1577.73
527.874	1589.48
528.241	1569.37
528.607	1603.04
528.973	1589.93
529.339	1587.9
529.705	1580.89
530.071	1597.84
530.437	1583.83
530.803	1604.39
531.169	1586.99
531.535	1603.94
531.901	1617.27
532.267	1615.01
532.632	1581.12
532.998	1621.79
533.364	1592.64
533.73	1616.14
534.095	1609.14
534.461	1624.05
534.826	1614.34
535.192	1634.45
535.557	1652.75
535.923	1632.19
536.288	1613.43
536.653	1648.01
537.019	1626.31
537.384	1668.35
537.749	1642.13
538.114	1632.87
538.479	1633.09
538.845	1616.37
539.21	1628.57
539.575	1677.61
539.94	1621.12
540.305	1651.62
540.67	1636.48
541.034	1646.2
541.399	1644.17
541.764	1632.87
542.129	1658.85
542.494	1646.43
542.858	1652.53
543.223	1645.3
543.587	1662.7
543.952	1653.21
544.316	1644.62
544.681	1656.82
545.045	1676.93
545.41	1669.02
545.774	1673.77
546.138	1679.42
546.503	1687.78
546.867	1648.46
547.231	1665.41
547.595	1678.97
547.959	1688.01
548.324	1699.08
548.688	1666.99
549.052	1686.2
549.416	1673.09
549.779	1670.61
550.143	1674.22
550.507	1693.66
550.871	1688.01
551.235	1667.89
551.599	1704.5
551.962	1686.65
552.326	1692.07
552.689	1662.47
553.053	1669.93
553.417	1691.4
553.78	1697.5
554.143	1696.14
554.507	1678.97
554.87	1667.44
555.234	1699.08
555.597	1695.69
555.96	1670.83
556.323	1710.6
556.686	1661.34
557.05	1730.72
557.413	1690.27
557.776	1722.58
558.139	1716.93
558.502	1707.44
558.865	1737.27
559.228	1728.01
559.59	1717.16
559.953	1728.91
560.316	1751.28
560.679	1725.29
561.041	1747.44
561.404	1755.35
561.767	1755.35
562.129	1764.16
562.492	1787.89
562.854	1775.69
563.217	1740.89
563.579	1750.6
563.941	1752.19
564.304	1767.55
564.666	1789.02
565.028	1788.79
565.39	1759.64
565.753	1771.17
566.115	1783.37
566.477	1813.43
566.839	1790.6
567.201	1788.79
567.563	1784.28
567.925	1783.82
568.287	1791.51
568.648	1791.28
569.01	1779.98
569.372	1800.77
569.734	1802.81
570.095	1827.44
570.457	1814.33
570.819	1817.04
571.18	1825.4
571.542	1823.6
571.903	1822.92
572.265	1823.37
572.626	1834.22
572.987	1837.38
573.349	1845.29
573.71	1855.69
574.071	1840.54
574.432	1847.78
574.794	1855.46
575.155	1895.68
575.516	1841.22
575.877	1849.13
576.238	1834.67
576.599	1878.28
576.96	1879.64
577.32	1847.1
577.681	1873.76
578.042	1852.75
578.403	1841.9
578.763	1862.47
579.124	1874.67
579.485	1855.69
579.845	1880.77
580.206	1865.63
580.566	1904.95
580.927	1878.51
581.287	1857.04
581.648	1848
582.008	1882.58
582.368	1873.31
582.728	1897.27
583.089	1882.13
583.449	1903.59
583.809	1883.93
584.169	1892.52
584.529	1908.34
584.889	1872.86
585.249	1915.35
585.609	1897.04
585.969	1877.38
586.329	1928.9
586.688	1882.58
587.048	1878.74
587.408	1882.8
587.768	1870.15
588.127	1871.73
588.487	1888.91
588.846	1906.08
589.206	1896.59
589.565	1899.75
589.925	1900.66
590.284	1895.23
590.643	1892.07
591.003	1897.04
591.362	1944.04
591.721	1879.19
592.08	1885.74
592.44	1908.11
592.799	1928.9
593.158	1921.22
593.517	1922.35
593.876	1899.3
594.235	1911.96
594.593	1906.08
594.952	1912.86
595.311	1932.75
595.67	1906.31
596.029	1964.16
596.387	1945.63
596.746	1919.41
597.104	1920.09
597.463	1935.01
597.822	1917.38
598.18	1949.02
598.538	1970.26
598.897	1932.29
599.255	1929.58
599.613	1965.97
599.972	1936.81
600.33	1979.98
600.688	1937.72
601.046	1943.82
601.404	1959.19
601.762	1960.54
602.12	1950.6
602.478	1953.08
602.836	1939.98
603.194	1973.42
603.552	1971.84
603.91	1972.29
604.268	1952.41
604.625	1957.6
604.983	1957.83
605.341	1956.93
605.698	1989.47
606.056	1989.24
606.413	1955.34
606.771	1973.87
607.128	1977.49
607.485	1970.94
607.843	2018.62
608.2	1986.76
608.557	2012.07
608.914	1989.92
609.272	2014.1
609.629	2010.26
609.986	1996.02
610.343	1981.33
610.7	2017.94
611.057	2005.29
611.414	2005.29
611.771	2025.17
612.127	1998.05
612.484	2031.5
612.841	1997.38
613.198	2010.03
613.554	2029.69
613.911	2012.52
614.267	2024.72
614.624	2045.06
614.98	2024.04
615.337	2062.69
615.693	2070.14
616.05	2037.38
616.406	2032.63
616.762	2060.43
617.118	2058.17
617.475	2054.32
617.831	2073.08
618.187	2036.92
618.543	2074.66
618.899	2051.39
619.255	2081.89
619.611	2032.63
619.967	2088.67
620.323	2074.21
620.678	2049.58
621.034	2082.12
621.39	2061.1
621.746	2060.43
622.101	2077.15
622.457	2099.97
622.812	2082.57
623.168	2091.39
623.523	2096.13
623.879	2105.62
624.234	2078.96
624.589	2080.76
624.945	2076.47
625.3	2107.66
625.655	2112.63
626.01	2113.98
626.365	2113.98
626.72	2135.23
627.075	2135.45
627.43	2135.68
627.785	2116.47
628.14	2101.78
628.495	2185.62
628.85	2129.58
629.205	2161.44
629.559	2146.98
629.914	2158.28
630.269	2138.84
630.623	2154.66
630.978	2131.38
631.332	2111.05
631.687	2186.75
632.041	2156.24
632.396	2142.01
632.75	2153.98
633.104	2155.34
633.459	2196.02
633.813	2162.34
634.167	2142.01
634.521	2187.2
634.875	2198.73
635.229	2182.23
635.583	2134.1
635.937	2182.46
636.291	2196.47
636.645	2173.19
636.999	2177.71
637.352	2208.67
637.706	2176.58
638.06	2209.8
638.413	2183.13
638.767	2200.99
639.121	2212.29
639.474	2227.43
639.828	2221.1
640.181	2218.16
640.534	2225.39
640.888	2248.67
641.241	2233.98
641.594	2250.25
641.947	2260.19
642.301	2235.34
642.654	2240.31
643.007	2250.93
643.36	2249.35
643.713	2265.39
644.066	2275.11
644.419	2274.66
644.771	2249.35
645.124	2259.52
645.477	2263.36
645.83	2255
646.182	2232.62
646.535	2224.26
646.888	2265.62
647.24	2244.6
647.593	2231.27
647.945	2284.37
648.298	2301.32
648.65	2283.47
649.002	2284.83
649.355	2327.31
649.707	2335.67
650.059	2309.69
650.411	2350.36
650.763	2375.9
651.115	2369.34
651.467	2398.5
651.819	2412.51
652.171	2455.67
652.523	2419.74
652.875	2444.6
653.227	2419.51
653.578	2459.51
653.93	2458.61
654.282	2450.92
654.633	2436.91
654.985	2470.81
655.337	2511.04
655.688	2510.13
656.039	2502.45
656.391	2533.18
656.742	2516.69
657.094	2536.35
657.445	2514.65
657.796	2532.05
658.147	2502.22
658.498	2540.19
658.849	2548.77
659.2	2613.18
659.551	2575.89
659.902	2616.12
660.253	2595.33
660.604	2661.77
660.955	2626.51
661.306	2645.5
661.656	2654.99
662.007	2667.87
662.358	2680.3
662.708	2727.3
663.059	2715.55
663.409	2698.83
663.76	2711.03
664.11	2720.52
664.461	2720.75
664.811	2784.7
665.161	2776.57
665.511	2799.16
665.862	2792.16
666.212	2845.94
666.562	2833.06
666.912	2816.56
667.262	2815.89
667.612	2851.59
667.962	2878.94
668.312	2854.76
668.662	2867.41
669.011	2906.28
669.361	2869.22
669.711	2905.6
670.06	2906.28
670.41	2905.83
670.76	2931.82
671.109	2959.16
671.459	2931.14
671.808	2976.33
672.157	2996.45
672.507	2978.59
672.856	2997.12
673.205	3026.73
673.554	3039.38
673.904	2996.45
674.253	3057.24
674.602	3062.66
674.951	3026.73
675.3	3021.08
675.649	3091.13
675.998	3100.62
676.346	3097.91
676.695	3109.44
677.044	3084.81
677.393	3142.88
677.741	3163.45
678.09	3126.84
678.438	3165.71
678.787	3180.17
679.135	3172.49
679.484	3168.19
679.832	3180.4
680.181	3201.86
680.529	3200.06
680.877	3223.56
681.225	3256.78
681.573	3273.5
681.922	3237.34
682.27	3256.33
682.618	3278.7
682.966	3261.98
683.314	3266.04
683.661	3276.21
684.009	3254.29
684.357	3285.25
684.705	3280.51
685.053	3296.1
685.4	3267.17
685.748	3297.23
686.095	3278.93
686.443	3302.2
686.79	3321.64
687.138	3355.76
687.485	3366.15
687.832	3309.88
688.18	3330.9
688.527	3357.12
688.874	3368.87
689.221	3334.97
689.568	3354.4
689.915	3341.07
690.262	3398.7
690.609	3337.23
690.956	3354.4
691.303	3383.78
691.65	3321.64
691.997	3355.31
692.344	3379.71
692.69	3354.4
693.037	3355.53
693.383	3373.16
693.73	3382.2
694.077	3324.57
694.423	3363.22
694.769	3376.78
695.116	3339.94
695.462	3349.66
695.808	3346.95
696.155	3384.01
696.501	3332.26
696.847	3345.14
697.193	3344.23
697.539	3343.1
697.885	3362.76
698.231	3343.78
698.577	3366.61
698.923	3348.3
699.269	3320.51
699.614	3315.31
699.96	3345.59
700.306	3348.98
700.651	3317.34
700.997	3279.83
701.342	3292.48
701.688	3340.39
702.033	3296.33
702.379	3310.79
702.724	3278.7
703.069	3319.38
703.415	3277.34
703.76	3289.32
704.105	3299.26
704.45	3272.82
704.795	3263.78
705.14	3274.18
705.485	3279.6
705.83	3231.24
706.175	3294.52
706.52	3271.47
706.865	3215.2
707.209	3258.13
707.554	3250.23
707.899	3254.74
708.243	3235.99
708.588	3230.11
708.932	3215.88
709.277	3258.36
709.621	3209.77
709.966	3217.46
710.31	3231.92
710.654	3199.15
710.998	3210
711.342	3181.75
711.687	3184.92
712.031	3172.49
712.375	3205.25
712.719	3227.85
713.063	3205.48
713.407	3225.37
713.75	3222.2
714.094	3225.82
714.438	3221.98
714.782	3162.77
715.125	3219.94
715.469	3210.68
715.812	3205.93
716.156	3153.28
716.499	3189.66
716.843	3197.57
717.186	3138.59
717.53	3218.81
717.873	3168.65
718.216	3170
718.559	3188.98
718.902	3138.14
719.246	3174.07
719.589	3172.49
719.932	3166.16
720.275	3164.35
720.617	3177.91
720.96	3149.21
721.303	3157.8
721.646	3204.58
721.989	3174.07
722.331	3182.66
722.674	3172.49
723.016	3144.01
723.359	3173.17
723.701	3162.77
724.044	3167.29
724.386	3175.88
724.729	3190.34
725.071	3216.1
725.413	3166.16
725.755	3197.57
726.097	3167.52
726.439	3181.75
726.782	3164.35
727.124	3195.76
727.465	3179.27
727.807	3165.48
728.149	3217.23
728.491	3187.63
728.833	3177.23
729.175	3187.85
729.516	3185.59
729.858	3181.07
730.199	3232.15
730.541	3203.45
730.882	3203.67
731.224	3222.43
731.565	3220.17
731.906	3202.77
732.248	3214.97
732.589	3200.51
732.93	3209.32
733.271	3213.62
733.612	3206.16
733.953	3217.01
734.294	3244.12
734.635	3207.06
734.976	3193.5
735.317	3230.11
735.658	3200.74
735.999	3271.69
736.339	3257.91
736.68	3241.64
737.021	3246.84
737.361	3244.12
737.702	3287.74
738.042	3280.73
738.383	3228.08
738.723	3255.87
739.063	3272.82
739.404	3261.52
739.744	3286.16
740.084	3268.08
740.424	3317.79
740.764	3326.61
741.104	3343.56
741.444	3347.4
741.784	3331.35
742.124	3315.76
742.464	3338.36
742.804	3365.02
743.143	3367.74
743.483	3379.04
743.823	3384.69
744.162	3397.79
744.502	3422.88
744.841	3386.94
745.181	3412.93
745.52	3423.33
745.86	3427.62
746.199	3463.78
746.538	3444.8
746.877	3462.2
747.216	3493.83
747.556	3501.29
747.895	3522.08
748.234	3554.17
748.573	3528.18
748.911	3561.86
749.25	3569.99
749.589	3624.68
749.928	3605.92
750.267	3620.61
750.605	3611.35
750.944	3648.41
751.283	3674.39
751.621	3688.86
751.96	3672.36
752.298	3684.11
752.636	3744.45
752.975	3779.93
753.313	3773.15
753.651	3822.64
753.989	3798.23
754.327	3837.1
754.666	3824.9
755.004	3858.12
755.342	3864.67
755.679	3918
756.017	3933.37
756.355	3933.6
756.693	3957.55
757.031	3947.38
757.368	3988.06
757.706	4050.66
758.044	4035.52
758.381	4026.7
758.719	4039.36
759.056	4056.76
759.394	4106.25
759.731	4092.91
760.068	4084.1
760.405	4158.22
760.743	4111.67
761.08	4176.75
761.417	4176.08
761.754	4142.18
762.091	4201.61
762.428	4170.2
762.765	4211.56
763.102	4230.54
763.438	4225.79
763.775	4197.32
764.112	4263.31
764.449	4268.05
764.785	4234.83
765.122	4240.93
765.458	4252.23
765.795	4270.09
766.131	4257.2
766.467	4221.5
766.804	4258.11
767.14	4238
767.476	4277.32
767.812	4280.25
768.148	4256.53
768.485	4284.77
768.821	4247.04
769.157	4327.94
769.492	4286.58
769.828	4310.99
770.164	4263.31
770.5	4266.24
770.836	4273.02
771.171	4266.92
771.507	4251.1
771.842	4221.73
772.178	4186.7
772.513	4220.82
772.849	4247.26
773.184	4245.91
773.519	4211.1
773.855	4184.44
774.19	4198.22
774.525	4154.83
774.86	4229.41
775.195	4202.97
775.53	4213.36
775.865	4122.74
776.2	4141.28
776.535	4137.89
776.87	4146.92
777.205	4080.26
777.539	4128.39
777.874	4070.99
778.209	4061.96
778.543	4067.38
778.878	4084.78
779.212	4068.51
779.547	4034.61
779.881	4084.55
780.215	4068.51
780.55	4050.2
780.884	4026.93
781.218	4028.51
781.552	3983.09
781.886	4007.49
782.22	3962.3
782.554	3953.71
782.888	3943.77
783.222	3902.41
783.556	3933.37
783.889	3925.46
784.223	3888.63
784.557	3918.68
784.89	3891.11
785.224	3827.39
785.557	3871
785.891	3898.8
786.224	3856.09
786.558	3857.44
786.891	3849.31
787.224	3817.22
787.557	3842.3
787.891	3816.31
788.224	3801.85
788.557	3808.63
788.89	3786.48
789.223	3768.18
789.556	3758.46
789.888	3722.08
790.221	3707.61
790.554	3712.81
790.887	3719.82
791.219	3701.51
791.552	3715.52
791.884	3687.05
792.217	3702.64
792.549	3665.36
792.882	3678.91
793.214	3643.89
793.546	3695.19
793.879	3641.63
794.211	3602.08
794.543	3579.26
794.875	3587.62
795.207	3559.82
795.539	3579.71
795.871	3591.69
796.203	3569.31
796.535	3555.53
796.867	3536.32
797.198	3529.31
797.53	3532.25
797.862	3493.38
798.193	3529.54
798.525	3481.41
798.856	3487.06
799.188	3465.13
799.519	3454.74
799.85	3418.81
800.182	3398.92
800.513	3449.99
800.844	3448.19
801.175	3423.1
801.506	3451.12
801.837	3406.83
802.168	3395.98
802.499	3377.91
802.83	3334.74
803.161	3357.79
803.491	3344.23
803.822	3349.88
804.153	3350.79
804.483	3326.83
804.814	3332.26
805.145	3304.01
805.475	3328.64
805.805	3315.53
806.136	3279.6
806.466	3316.89
806.796	3301.75
807.126	3268.3
807.457	3273.5
807.787	3245.93
808.117	3247.06
808.447	3214.29
808.777	3258.13
809.107	3220.17
809.436	3207.29
809.766	3221.75
810.096	3249.55
810.426	3191.24
810.755	3181.75
811.085	3204.8
811.414	3226.5
811.744	3189.89
812.073	3150.79
812.403	3148.31
812.732	3189.21
813.061	3153.5
813.39	3111.47
813.719	3100.17
814.049	3138.82
814.378	3167.97
814.707	3127.29
815.036	3123
815.365	3097.46
815.693	3051.36
816.022	3093.85
816.351	3058.37
816.68	3063.79
817.008	3050.68
817.337	3073.96
817.665	3071.47
817.994	3051.59
818.322	3073.05
818.651	3014.75
818.979	3002.55
819.307	3023.11
819.636	3047.74
819.964	2986.5
820.292	3007.52
820.62	2994.64
820.948	2996.22
821.276	3023.11
821.604	2987.18
821.932	3009.33
822.259	3003.9
822.587	3024.69
822.915	3019.27
823.243	3000.51
823.57	2994.19
823.898	2998.71
824.225	3015.88
824.553	2953.06
824.88	3000.74
825.207	2990.8
825.535	3001.64
825.862	3005.49
826.189	2972.94
826.516	3011.36
826.843	3014.3
827.17	3009.1
827.497	2980.63
827.824	3004.13
828.151	3010.01
828.478	3019.5
828.805	2986.96
829.131	2999.38
829.458	2934.53
829.785	2985.37
830.111	2932.49
830.438	3005.49
830.764	3019.95
831.09	2960.74
831.417	2944.7
831.743	3030.12
832.069	2965.26
832.395	2945.37
832.722	2996.9
833.048	3006.39
833.374	2945.83
833.7	2940.85
834.026	2977.92
834.351	2951.93
834.677	2973.17
835.003	2952.61
835.329	2944.7
835.654	2943.79
835.98	2948.76
836.306	2944.92
836.631	2945.6
836.956	2976.56
837.282	2972.27
837.607	2945.6
837.932	2893.4
838.258	2917.8
838.583	2938.14
838.908	2868.99
839.233	2899.05
839.558	2917.8
839.883	2900.63
840.208	2879.16
840.533	2877.81
840.858	2888.65
841.182	2866.96
841.507	2927.3
841.832	2877.58
842.156	2889.1
842.481	2861.53
842.805	2877.35
843.13	2855.89
843.454	2892.95
843.778	2826.28
844.103	2839.61
844.427	2852.27
844.751	2808.65
845.075	2787.86
845.399	2803.91
845.723	2789.9
846.047	2816.34
846.371	2796.68
846.695	2813.63
847.019	2758.94
847.343	2765.72
847.666	2774.98
847.99	2747.41
848.313	2717.36
848.637	2701.31
848.96	2698.6
849.284	2669.45
849.607	2722.1
849.931	2682.78
850.254	2666.51
850.577	2634.42
850.9	2642.33
851.223	2670.35
851.546	2641.43
851.869	2613.41
852.192	2624.48
852.515	2589.45
852.838	2568.44
853.161	2622.45
853.483	2571.83
853.806	2596.01
854.129	2577.25
854.451	2557.59
854.774	2562.56
855.096	2565.72
855.419	2558.27
855.741	2504.93
856.063	2518.95
856.385	2515.78
856.708	2491.83
857.03	2494.09
857.352	2520.07
857.674	2501.77
857.996	2468.55
858.318	2467.2
858.64	2497.02
858.961	2465.16
859.283	2477.59
859.605	2475.1
859.926	2440.98
860.248	2449.12
860.57	2405.95
860.891	2480.98
861.212	2419.51
861.534	2446.4
861.855	2424.94
862.176	2424.71
862.498	2415.67
862.819	2370.47
863.14	2379.51
863.461	2382.45
863.782	2352.62
864.103	2400.08
864.424	2404.37
864.745	2408.67
865.065	2374.99
865.386	2396.01
865.707	2401.66
866.027	2378.16
866.348	2363.47
866.668	2391.72
866.989	2386.75
867.309	2332.28
867.63	2350.81
867.95	2349.23
868.27	2331.61
868.59	2347.88
868.91	2341.32
869.23	2367.76
869.55	2340.42
869.87	2388.55
870.19	2336.35
870.51	2352.85
870.83	2295.9
871.15	2334.77
871.469	2313.53
871.789	2347.65
872.109	2327.99
872.428	2284.15
872.748	2312.62
873.067	2292.96
873.386	2284.83
873.706	2299.74
874.025	2273.98
874.344	2304.26
874.663	2318.5
874.982	2294.32
875.301	2296.35
875.62	2271.04
875.939	2282.79
876.258	2279.86
876.577	2268.33
876.896	2273.3
877.214	2267.43
877.533	2262
877.852	2264.49
878.17	2246.64
878.489	2235.56
878.807	2250.25
879.125	2229.24
879.444	2248.22
879.762	2233.98
880.08	2243.47
880.398	2232.17
880.716	2226.3
881.034	2230.59
881.352	2222.46
881.67	2217.26
881.988	2233.3
882.306	2218.16
882.624	2174.1
882.941	2188.33
883.259	2198.28
883.577	2213.87
883.894	2215.22
884.212	2144.04
884.529	2198.05
884.846	2178.84
885.164	2171.84
885.481	2156.24
885.798	2192.85
886.115	2154.43
886.432	2143.36
886.75	2138.84
887.067	2133.19
887.383	2153.53
887.7	2171.38
888.017	2158.95
888.334	2134.1
888.651	2113.53
888.967	2087.32
889.284	2101.55
889.6	2135.45
889.917	2090.26
890.233	2094.55
890.55	2084.15
890.866	2097.94
891.182	2112.63
891.498	2092.29
891.815	2067.66
892.131	2075.34
892.447	2071.27
892.763	2060.2
893.079	2029.69
893.395	2054.1
893.71	2069.92
894.026	2045.29
894.342	2050.03
894.657	2040.31
894.973	2020.88
895.289	1999.64
895.604	2042.57
895.92	2010.71
896.235	2007.32
896.55	1973.65
896.865	1985.4
897.181	1985.4
897.496	2003.48
897.811	1980.2
898.126	1986.53
898.441	1922.8
898.756	1939.07
899.071	1980.43
899.386	1950.6
899.7	1956.93
900.015	1973.42
900.33	1925.97
900.644	1891.84
900.959	1894.55
901.273	1893.42
901.588	1886.42
901.902	1862.69
902.216	1903.59
902.531	1888.45
902.845	1870.6
903.159	1882.13
903.473	1900.43
903.787	1881.22
904.101	1862.92
904.415	1874.44
904.729	1846.65
905.042	1831.28
905.356	1858.4
905.67	1816.14
905.984	1792.86
906.297	1864.72
906.611	1850.71
906.924	1817.27
907.237	1801.45
907.551	1840.09
907.864	1805.07
908.177	1821.11
908.491	1784.5
908.804	1774.78
909.117	1747.21
909.43	1776.14
909.743	1726.88
910.056	1737.27
910.368	1775.69
910.681	1744.95
910.994	1753.09
911.307	1725.52
911.619	1716.03
911.932	1702.24
912.244	1711.96
912.557	1716.48
912.869	1713.54
913.181	1685.97
913.494	1684.84
913.806	1678.29
914.118	1693.2
914.43	1671.28
914.742	1660.66
915.054	1683.94
915.366	1662.92
915.678	1671.51
915.99	1650.49
916.302	1657.72
916.613	1616.37
916.925	1625.86
917.236	1634
917.548	1615.01
917.859	1619.99
918.171	1611.85
918.482	1586.54
918.794	1597.61
919.105	1585.18
919.416	1572.08
919.727	1596.94
920.038	1581.79
920.349	1566.65
920.66	1581.12
920.971	1581.12
921.282	1544.96
921.593	1582.02
921.903	1559.2
922.214	1548.8
922.525	1515.58
922.835	1525.07
923.146	1548.35
923.456	1511.51
923.767	1543.83
924.077	1521.23
924.387	1490.27
924.697	1531.85
925.008	1525.52
925.318	1513.77
925.628	1503.6
925.938	1492.98
926.248	1487.56
926.558	1486.43
926.867	1450.72
927.177	1482.59
927.487	1478.07
927.796	1440.78
928.106	1452.76
928.416	1455.02
928.725	1438.97
929.034	1438.97
929.344	1426.09
929.653	1434.45
929.962	1419.76
930.271	1421.12
930.581	1434.45
930.89	1409.37
931.199	1435.13
931.508	1414.57
931.817	1384.29
932.125	1385.42
932.434	1388.35
932.743	1385.42
933.051	1370.95
933.36	1366.88
933.669	1357.17
933.977	1349.26
934.286	1386.55
934.594	1351.07
934.902	1361.01
935.21	1339.77
935.519	1336.15
935.827	1343.61
936.135	1328.02
936.443	1334.34
936.751	1321.01
937.059	1325.76
937.367	1318.98
937.674	1304.51
937.982	1306.32
938.29	1295.47
938.597	1309.26
938.905	1286.89
939.213	1297.73
939.52	1274.01
939.827	1304.97
940.135	1297.06
940.442	1253.67
940.749	1275.59
941.056	1228.36
941.363	1237.4
941.67	1242.59
941.977	1243.72
942.284	1240.33
942.591	1246.89
942.898	1250.28
943.205	1215.02
943.511	1233.1
943.818	1231.75
944.125	1242.14
944.431	1244.18
944.738	1207.79
945.044	1188.36
945.35	1183.61
945.657	1231.75
945.963	1227.23
946.269	1165.31
946.575	1175.25
946.881	1183.61
947.187	1181.13
947.493	1196.49
947.799	1166.66
948.105	1185.19
948.41	1166.66
948.716	1162.6
949.022	1162.82
949.327	1151.52
949.633	1141.58
949.938	1159.88
950.244	1151.07
950.549	1169.83
950.854	1135.03
951.16	1131.64
951.465	1153.56
951.77	1141.81
952.075	1113.33
952.38	1131.86
952.685	1141.35
952.99	1099.55
953.294	1107.46
953.599	1093.22
953.904	1083.05
954.209	1089.38
954.513	1095.93
954.818	1103.39
955.122	1099.77
955.426	1094.8
955.731	1072.43
956.035	1063.84
956.339	1057.51
956.643	1065.2
956.948	1040.11
957.252	1080.11
957.556	1105.65
957.86	1069.04
958.163	1053.22
958.467	1055.48
958.771	1031.3
959.075	1062.26
959.378	1029.27
959.682	1029.04
959.985	1025.65
960.289	1034.46
960.592	1044.86
960.896	1027.91
961.199	1015.71
961.502	1026.1
961.805	1022.49
962.108	997.4
962.411	1000.57
962.714	996.05
963.017	1015.03
963.32	1017.06
963.623	995.14
963.926	1020.68
964.228	981.13
964.531	985.88
964.833	969.38
965.136	948.36
965.438	992.43
965.741	965.99
966.043	992.66
966.345	980.45
966.648	959.21
966.95	959.89
967.252	941.59
967.554	964.64
967.856	955.82
968.158	940
968.46	925.77
968.761	952.66
969.063	940
969.365	923.28
969.666	933
969.968	925.99
970.269	932.09
970.571	916.5
970.872	930.96
971.174	929.61
971.475	935.94
971.776	915.6
972.077	937.29
972.378	924.64
972.679	912.66
972.98	887.58
973.281	925.77
973.582	888.48
973.883	893.68
974.183	880.12
974.484	861.14
974.785	878.99
975.085	893.68
975.386	868.82
975.686	879.67
975.986	882.6
976.287	859.1
976.587	882.83
976.887	873.11
977.187	885.77
977.487	892.77
977.787	858.2
978.087	878.76
978.387	864.3
978.687	844.86
978.987	856.62
979.286	830.63
979.586	817.29
979.885	827.92
980.185	848.25
980.484	831.08
980.784	834.02
981.083	830.18
981.382	817.52
981.682	836.28
981.981	828.14
982.28	837.41
982.579	821.59
982.878	841.48
983.177	822.27
983.475	809.16
983.774	778.43
984.073	796.05
984.372	798.76
984.67	814.81
984.969	803.74
985.267	789.95
985.566	774.36
985.864	818.88
986.162	782.49
986.461	790.85
986.759	774.36
987.057	794.02
987.355	771.87
987.653	799.22
987.951	773.91
988.249	755.83
988.547	779.56
988.844	763.51
989.142	781.36
989.44	771.42
989.737	742.95
990.035	751.53
990.332	750.63
990.63	749.05
990.927	747.24
991.224	773.68
991.521	757.64
991.819	718.99
992.116	729.39
992.413	720.35
992.71	755.6
993.006	736.62
993.303	747.47
993.6	741.59
993.897	726.9
994.193	709.73
994.49	716.73
994.787	710.86
995.083	736.17
995.379	726.45
995.676	699.11
995.972	717.41
996.268	710.86
996.565	710.18
996.861	707.02
997.157	705.89
997.453	723.06
997.749	708.37
998.044	693.91
998.34	708.15
998.636	678.54
998.932	692.78
999.227	688.94
999.523	681.25
999.818	681.71
1000.114	707.02
1000.409	705.43
1000.704	678.32
1001	684.87
1001.295	680.58
1001.59	659.33
1001.885	686
1002.18	649.62
1002.475	643.06
1002.77	658.88
1003.065	635.83
1003.359	675.83
1003.654	649.62
1003.949	653.91
1004.243	656.85
1004.538	654.81
1004.832	657.75
1005.127	640.58
1005.421	640.8
1005.715	640.8
1006.009	642.38
1006.304	657.53
1006.598	631.99
1006.892	641.71
1007.186	604.19
1007.48	635.6
1007.773	614.81
1008.067	614.81
1008.361	625.44
1008.655	637.19
1008.948	636.06
1009.242	631.99
1009.535	626.79
1009.829	610.07
1010.122	615.94
1010.415	598.54
1010.708	612.1
1011.001	588.83
1011.295	601.48
1011.588	598.09
1011.881	617.98
1012.173	607.81
1012.466	608.94
1012.759	590.41
1013.052	605.55
1013.344	585.66
1013.637	572.78
1013.93	596.74
1014.222	592.89
1014.514	584.76
1014.807	570.75
1015.099	574.82
1015.391	586.79
1015.683	585.66
1015.976	575.95
1016.268	559.9
1016.56	563.97
1016.851	568.94
1017.143	563.06
1017.435	577.3
1017.727	556.74
1018.018	558.32
1018.31	561.71
1018.602	559.22
1018.893	557.87
1019.185	533.46
1019.476	524.42
1019.767	560.35
1020.058	543.86
1020.35	530.07
1020.641	524.87
1020.932	544.99
1021.223	555.83
1021.514	513.12
1021.804	529.62
1022.095	521.71
1022.386	525.55
1022.677	554.48
1022.967	522.16
1023.258	530.52
1023.548	523.97
1023.839	509.73
1024.129	520.81
1024.419	507.92
1024.709	499.79
1025	515.61
1025.29	534.82
1025.58	511.54
1025.87	475.16
1026.16	498.89
1026.449	514.03
1026.739	513.35
1027.029	517.87
1027.319	480.81
1027.608	495.5
1027.898	496.4
1028.187	495.95
1028.477	498.89
1028.766	497.08
1029.055	486
1029.344	518.09
1029.634	502.27
1029.923	475.38
1030.212	481.71
1030.501	482.61
1030.79	461.82
1031.078	488.72
1031.367	502.95
1031.656	479.9
1031.945	481.03
1032.233	481.71
1032.522	491.2
1032.81	473.12
1033.099	472.22
1033.387	471.54
1033.675	475.83
1033.963	468.15
1034.251	452.33
1034.54	459.56
1034.828	458.21
1035.116	468.15
1035.403	467.93
1035.691	464.08
1035.979	449.17
1036.267	467.7
1036.554	436.97
1036.842	451.43
1037.129	454.37
1037.417	459.11
1037.704	471.09
1037.992	453.91
1038.279	445.33
1038.566	451.65
1038.853	451.65
1039.14	451.65
