Data from blue_clamp_base_FLMS001491_00006.txt Node
Date: Wed Feb 08 15:15:28 GMT 2017
User: dcchb
Spectrometer: FLMS00149
Trigger mode: 0
Integration Time (sec): 2.000000E-2
Scans to average: 10
Electric dark correction enabled: true
Nonlinearity correction enabled: false
Boxcar width: 0
XAxis mode: Wavelengths
Number of Pixels in Spectrum: 2048
>>>>>Begin Spectral Data<<<<<
341.393	-6.4
341.776	-6.4
342.16	-6.4
342.543	-48.2
342.927	-63.12
343.31	-70.13
343.693	-65.15
344.077	-62.89
344.46	-62.22
344.843	-64.7
345.226	-44.36
345.61	-21.76
345.993	-4.36
346.376	-3.23
346.759	0.61
347.142	26.14
347.525	54.62
347.908	62.3
348.291	68.18
348.674	86.03
349.057	100.94
349.44	139.59
349.823	132.36
350.206	182.98
350.588	208.51
350.971	216.87
351.354	209.19
351.737	227.49
352.119	230.88
352.502	257.55
352.884	266.59
353.267	274.05
353.65	290.77
354.032	301.39
354.414	300.03
354.797	300.71
355.179	328.06
355.562	316.76
355.944	327.38
356.326	345.23
356.709	335.51
357.091	343.88
357.473	343.42
357.855	345.46
358.238	325.34
358.62	328.06
359.002	348.39
359.384	325.12
359.766	338.68
360.148	347.26
360.53	345.01
360.912	336.87
361.294	318.57
361.676	324.89
362.057	351.56
362.439	328.28
362.821	315.4
363.203	326.93
363.584	326.93
363.966	346.36
364.348	328.73
364.729	311.56
365.111	318.57
365.493	316.76
365.874	325.12
366.256	325.12
366.637	318.79
367.019	304.33
367.4	314.5
367.781	314.95
368.163	312.24
368.544	295.97
368.925	298
369.306	324.67
369.688	305.46
370.069	297.32
370.45	318.11
370.831	300.94
371.212	317.89
371.593	312.24
371.974	301.62
372.355	332.58
372.736	302.97
373.117	323.76
373.498	325.8
373.879	302.75
374.26	305.68
374.641	295.97
375.021	306.81
375.402	326.02
375.783	311.79
376.163	336.19
376.544	334.84
376.925	337.77
377.305	313.14
377.686	328.06
378.066	327.38
378.447	332.58
378.827	331.67
379.208	315.63
379.588	325.34
379.968	321.05
380.349	325.34
380.729	318.57
381.109	319.92
381.489	334.16
381.87	344.55
382.25	337.1
382.63	338.23
383.01	319.69
383.39	340.94
383.77	341.84
384.15	313.82
384.53	362.18
384.91	370.54
385.29	346.13
385.67	364.89
386.049	341.39
386.429	350.88
386.809	379.81
387.189	356.3
387.568	364.89
387.948	352.24
388.328	366.47
388.707	365.57
389.087	361.73
389.466	383.65
389.846	371.45
390.225	380.48
390.605	389.75
390.984	368.51
391.363	379.35
391.743	389.98
392.122	395.63
392.501	390.65
392.881	401.95
393.26	421.61
393.639	408.96
394.018	410.99
394.397	417.09
394.776	419.81
395.155	409.64
395.534	426.36
395.913	430.43
396.292	435.85
396.671	429.3
397.05	436.53
397.429	428.62
397.808	415.51
398.186	433.14
398.565	438.34
398.944	419.81
399.323	467.71
399.701	443.76
400.08	445.57
400.458	460.71
400.837	475.17
401.215	473.59
401.594	481.27
401.972	469.07
402.351	464.78
402.729	483.76
403.107	475.62
403.486	505.45
403.864	498
404.242	503.87
404.62	506.36
404.999	530.08
405.377	523.31
405.755	509.97
406.133	531.89
406.511	525.57
406.889	539.12
407.267	525.11
407.645	540.03
408.023	580.48
408.401	548.84
408.779	570.31
409.156	580.71
409.534	564.66
409.912	555.4
410.29	614.15
410.667	588.39
411.045	615.96
411.422	616.41
411.8	633.36
412.178	634.94
412.555	644.88
412.933	633.36
413.31	649.18
413.687	667.71
414.065	645.11
414.442	674.04
414.819	668.61
415.197	694.15
415.574	683.53
415.951	669.06
416.328	709.06
416.705	716.75
417.082	707.93
417.46	709.52
417.837	716.97
418.214	719.68
418.591	749.06
418.967	759.23
419.344	751.77
419.721	776.63
420.098	762.85
420.475	766.24
420.852	760.81
421.228	760.36
421.605	806.24
421.982	799.91
422.358	795.16
422.735	823.64
423.111	791.1
423.488	810.3
423.864	827.25
424.241	839
424.617	840.81
424.994	863.18
425.37	878.32
425.746	831.77
426.123	839.68
426.499	931.66
426.875	888.04
427.251	907.93
427.627	932.56
428.003	916.29
428.379	953.35
428.756	937.53
429.132	948.83
429.507	977.53
429.883	982.5
430.259	974.37
430.635	998.1
431.011	1024.99
431.387	1026.8
431.763	1073.8
432.138	1078.09
432.514	1083.06
432.89	1089.62
433.265	1092.33
433.641	1119.22
434.016	1140.92
434.392	1138.66
434.767	1186.56
435.143	1172.78
435.518	1193.34
435.894	1197.86
436.269	1208.03
436.644	1242.38
437.02	1228.6
437.395	1251.65
437.77	1286.22
438.145	1310.18
438.52	1285.77
438.895	1288.94
439.271	1272.44
439.646	1326.22
440.021	1362.15
440.395	1348.14
440.77	1335.49
441.145	1387.69
441.52	1406.9
441.895	1378.65
442.27	1414.13
442.645	1418.65
443.019	1440.12
443.394	1425.88
443.769	1452.32
444.143	1481.7
444.518	1453.22
444.892	1479.21
445.267	1475.82
445.641	1503.17
446.016	1519.21
446.39	1542.94
446.764	1527.12
447.139	1551.3
447.513	1561.47
447.887	1566.44
448.262	1582.03
448.636	1602.6
449.01	1623.84
449.384	1641.02
449.758	1618.64
450.132	1685.31
450.506	1670.85
450.88	1683.27
451.254	1688.25
451.628	1694.57
452.002	1730.96
452.376	1685.53
452.75	1760.34
453.123	1749.94
453.497	1821.58
453.871	1807.79
454.244	1816.38
454.618	1850.73
454.992	1886.21
455.365	1898.86
455.739	1907
456.112	1936.83
456.486	1976.6
456.859	1969.37
457.232	2028.58
457.606	1995.81
457.979	2014.34
458.352	2056.15
458.725	2110.83
459.099	2092.76
459.472	2136.37
459.845	2163.94
460.218	2206.43
460.591	2165.07
460.964	2190.15
461.337	2233.77
461.71	2242.81
462.083	2310.6
462.456	2310.6
462.829	2304.95
463.201	2361.9
463.574	2354.22
463.947	2377.72
464.32	2467.44
464.692	2461.56
465.065	2460.66
465.438	2490.03
465.81	2515.12
466.183	2553.99
466.555	2560.09
466.928	2610.93
467.3	2570.71
467.672	2638.5
468.045	2733.42
468.417	2679.18
468.789	2716.69
469.161	2725.06
469.534	2744.72
469.906	2833.98
470.278	2826.07
470.65	2885.96
471.022	2902.9
471.394	2945.84
471.766	2942.22
472.138	2974.99
472.51	3034.88
472.882	3102.22
473.253	3140.64
473.625	3144.93
473.997	3225.61
474.369	3222.9
474.74	3247.53
475.112	3279.62
475.484	3351.48
475.855	3387.86
476.227	3447.75
476.598	3480.29
476.97	3516
477.341	3596.67
477.713	3635.31
478.084	3632.38
478.455	3720.96
478.827	3753.05
479.198	3835.31
479.569	3857.23
479.94	3904.01
480.311	3927.51
480.682	4032.59
481.053	4075.53
481.424	4148.97
481.795	4170.67
482.166	4197.11
482.537	4279.82
482.908	4344
483.279	4339.7
483.65	4391.68
484.021	4471.68
484.391	4477.33
484.762	4514.39
485.133	4573.82
485.503	4608.62
485.874	4663.99
486.244	4670.09
486.615	4744.89
486.985	4803.42
487.356	4875.96
487.726	4917.77
488.097	4937.43
488.467	4975.39
488.837	5094.71
489.207	5106.69
489.578	5149.4
489.948	5106.69
490.318	5223.52
490.688	5242.28
491.058	5322.73
491.428	5296.06
491.798	5375.16
492.168	5464.19
492.538	5447.02
492.908	5482.72
493.278	5488.82
493.648	5462.84
494.017	5563.4
494.387	5588.26
494.757	5637.3
495.126	5635.94
495.496	5656.73
495.866	5646.79
496.235	5743.96
496.605	5777.63
496.974	5727.24
497.344	5804.52
497.713	5790.74
498.082	5830.28
498.452	5845.65
498.821	5824.86
499.19	5866.22
499.559	5941.47
499.928	5927.68
500.298	5925.88
500.667	5989.6
501.036	5946.67
501.405	5999.32
501.774	5965.65
502.143	6033.22
502.512	6030.28
502.88	6071.86
503.249	6114.57
503.618	6068.47
503.987	6074.12
504.356	6100.33
504.724	6160.67
505.093	6130.16
505.462	6128.36
505.83	6199.77
506.199	6266.21
506.567	6226.88
506.936	6218.07
507.304	6298.97
507.672	6273.89
508.041	6276.83
508.409	6384.17
508.777	6339.2
509.145	6402.7
509.514	6376.71
509.882	6355.69
510.25	6428.69
510.618	6395.24
510.986	6393.21
511.354	6492.19
511.722	6519.53
512.09	6606.54
512.458	6569.25
512.826	6569.93
513.193	6577.16
513.561	6588.46
513.929	6547.1
514.297	6673.88
514.664	6662.13
515.032	6673.2
515.4	6725.18
515.767	6691.5
516.135	6703.71
516.502	6665.52
516.869	6793.88
517.237	6755.91
517.604	6777.15
517.972	6824.61
518.339	6792.97
518.706	6859.64
519.073	6848.79
519.44	6827.32
519.808	6952.74
520.175	6924.27
520.542	7001.33
520.909	6937.15
521.276	6978.05
521.643	7041.55
522.009	7037.94
522.376	7063.02
522.743	7048.11
523.11	7083.81
523.477	7145.5
523.843	7185.96
524.21	7230.93
524.577	7298.49
524.943	7252.62
525.31	7315.9
525.676	7397.93
526.043	7350.92
526.409	7381.66
526.776	7478.15
527.142	7507.53
527.508	7474.31
527.874	7514.53
528.241	7550.24
528.607	7520.86
528.973	7538.71
529.339	7628.88
529.705	7684.93
530.071	7696.22
530.437	7699.39
530.803	7711.82
531.169	7720.4
531.535	7728.99
531.901	7748.2
532.267	7768.76
532.632	7786.84
532.998	7815.32
533.364	7878.37
533.73	7847.63
534.095	7931.02
534.461	7933.73
534.826	7982.09
535.192	7956.78
535.557	8027.97
535.923	7981.19
536.288	8054.41
536.653	8055.99
537.019	8114.97
537.384	8091.69
537.749	8122.88
538.114	8114.07
538.479	8181.18
538.845	8219.83
539.21	8205.82
539.575	8185.93
539.94	8204.91
540.305	8248.98
540.67	8229.54
541.034	8238.36
541.399	8296.21
541.764	8321.52
542.129	8246.27
542.494	8320.61
542.858	8363.1
543.223	8315.87
543.587	8435.41
543.952	8379.14
544.316	8393.16
544.681	8408.97
545.045	8549.54
545.41	8524
545.774	8543.66
546.138	8474.51
546.503	8591.57
546.867	8528.07
547.231	8581.62
547.595	8589.08
547.959	8565.35
548.324	8623.43
548.688	8575.98
549.052	8676.54
549.416	8675.86
549.779	8665.01
550.143	8679.93
550.507	8761.96
550.871	8706.82
551.235	8717.21
551.599	8757.89
551.962	8761.28
552.326	8780.04
552.689	8808.74
553.053	8800.38
553.417	8833.6
553.78	8809.42
554.143	8846.48
554.507	8846.7
554.87	8929.86
555.234	8928.28
555.597	8864.33
555.96	8886.02
556.323	8941.62
556.686	8895.74
557.05	8971.67
557.413	9015.96
557.776	9025.91
558.139	9061.39
558.502	9057.32
558.865	9033.82
559.228	9167.6
559.59	9156.98
559.953	9128.73
560.316	9173.7
560.679	9102.06
561.041	9167.15
561.404	9278.78
561.767	9323.98
562.129	9246.92
562.492	9377.99
562.854	9343.86
563.217	9368.5
563.579	9347.71
563.941	9430.87
564.304	9446.01
564.666	9442.84
565.028	9481.26
565.39	9464.99
565.753	9580.92
566.115	9568.49
566.477	9563.07
566.839	9522.39
567.201	9651.43
567.563	9649.85
567.925	9744.53
568.287	9721.26
568.648	9761.48
569.01	9790.63
569.372	9856.85
569.734	9762.16
570.095	9877.18
570.457	9903.4
570.819	9897.75
571.18	9859.78
571.542	10034.24
571.903	10030.4
572.265	9958.54
572.626	10062.04
572.987	10077.86
573.349	10075.82
573.71	10165.09
574.071	10094.35
574.432	10173.9
574.794	10229.72
575.155	10203.95
575.516	10234.91
575.877	10242.37
576.238	10290.73
576.599	10296.83
576.96	10326.66
577.32	10312.65
577.681	10292.54
578.042	10381.13
578.403	10376.83
578.763	10410.73
579.124	10476.49
579.485	10477.39
579.845	10532.08
580.206	10491.86
580.566	10537.05
580.927	10493.44
581.287	10526.21
581.648	10469.94
582.008	10626.99
582.368	10582.48
582.728	10627.67
583.089	10582.25
583.449	10584.74
583.809	10660.67
584.169	10568.01
584.529	10589.26
584.889	10669.48
585.249	10667.67
585.609	10564.17
585.969	10604.85
586.329	10674.22
586.688	10716.48
587.048	10721.23
587.408	10686.65
587.768	10655.92
588.127	10706.31
588.487	10685.07
588.846	10724.62
589.206	10664.28
589.565	10706.09
589.925	10745.86
590.284	10702.47
590.643	10719.42
591.003	10741.12
591.362	10810.72
591.721	10791.74
592.08	10716.03
592.44	10851.4
592.799	10782.92
593.158	10787.89
593.517	10740.44
593.876	10727.56
594.235	10784.28
594.593	10803.04
594.952	10828.57
595.311	10735.01
595.67	10868.12
596.029	10883.03
596.387	10869.25
596.746	10914.22
597.104	10858.17
597.463	10803.26
597.822	10939.53
598.18	10859.76
598.538	10886.87
598.897	10944.73
599.255	10844.84
599.613	10979.3
599.972	10905.86
600.33	10954.44
600.688	10880.55
601.046	10905.18
601.404	10928
601.762	11004.39
602.12	11013.2
602.478	10995.35
602.836	11013.88
603.194	10968.45
603.552	10993.76
603.91	10942.01
604.268	10938.62
604.625	10951.28
604.983	11066.53
605.341	10901.11
605.698	10972.52
606.056	11011.17
606.413	11085.06
606.771	11073.08
607.128	11113.54
607.485	11030.15
607.843	11052.07
608.2	11060.43
608.557	11157.6
608.914	11103.37
609.272	11136.36
609.629	11138.85
609.986	11150.6
610.343	11140.65
610.7	11199.41
611.057	11228.33
611.414	11163.93
611.771	11189.01
612.127	11159.64
612.484	11244.61
612.841	11243.48
613.198	11284.38
613.554	11240.54
613.911	11283.25
614.267	11266.75
614.624	11262.01
614.98	11349.24
615.337	11381.33
615.693	11358.73
616.05	11334.77
616.406	11434.88
616.762	11338.84
617.118	11401.89
617.475	11398.05
617.831	11420.65
618.187	11460.87
618.543	11438.5
618.899	11503.13
619.255	11484.83
619.611	11479.18
619.967	11537.03
620.323	11489.8
620.678	11486.63
621.034	11512.17
621.39	11542
621.746	11527.54
622.101	11659.96
622.457	11527.76
622.812	11612.51
623.168	11576.57
623.523	11631.49
623.879	11573.64
624.234	11564.82
624.589	11590.81
624.945	11660.64
625.3	11623.13
625.655	11642.79
626.01	11643.01
626.365	11591.49
626.72	11643.01
627.075	11645.95
627.43	11648.21
627.785	11711.49
628.14	11707.87
628.495	11715.33
628.85	11736.34
629.205	11693.63
629.559	11736.12
629.914	11716.91
630.269	11738.38
630.623	11719.17
630.978	11764.59
631.332	11825.16
631.687	11828.54
632.041	11822.67
632.396	11828.54
632.75	11808.88
633.104	11872.84
633.459	11773.86
633.813	11833.52
634.167	11828.54
634.521	11843.23
634.875	11906.96
635.229	11923.23
635.583	11798.04
635.937	11894.53
636.291	11915.55
636.645	11890.46
636.999	11836.91
637.352	11984.92
637.706	11855.21
638.06	11883.23
638.413	11901.99
638.767	11802.1
639.121	11905.83
639.474	11853.4
639.828	11909.67
640.181	11977.47
640.534	11876.68
640.888	11925.72
641.241	11937.02
641.594	11917.81
641.947	11943.34
642.301	11923.68
642.654	11997.35
643.007	12016.34
643.36	12065.37
643.713	12015.43
644.066	12120.06
644.419	12044.36
644.771	11996
645.124	11930.92
645.477	11933.85
645.83	11821.09
646.182	11842.78
646.535	11760.52
646.888	11828.54
647.24	11840.97
647.593	11796
647.945	11847.75
648.298	11773.18
648.65	11759.17
649.002	11876.68
649.355	11895.89
649.707	11935.66
650.059	11958.49
650.411	12109.67
650.763	12161.42
651.115	12314.63
651.467	12223.11
651.819	12249.55
652.171	12310.11
652.523	12313.96
652.875	12308.76
653.227	12221.08
653.578	12368.19
653.93	12299.04
654.282	12341.3
654.633	12287.52
654.985	12355.99
655.337	12363.45
655.688	12445.25
656.039	12422.43
656.391	12363.9
656.742	12450
657.094	12395.54
657.445	12484.12
657.796	12451.81
658.147	12437.34
658.498	12413.16
658.849	12438.25
659.2	12491.13
659.551	12458.58
659.902	12434.63
660.253	12471.24
660.604	12596.43
660.955	12445.48
661.306	12498.36
661.656	12485.93
662.007	12478.02
662.358	12525.25
662.708	12498.36
663.059	12622.2
663.409	12506.95
663.76	12563.89
664.11	12541.75
664.461	12576.32
664.811	12508.08
665.161	12534.97
665.511	12574.74
665.862	12477.79
666.212	12554.4
666.562	12548.98
666.912	12525.93
667.262	12499.94
667.612	12516.44
667.962	12548.07
668.312	12450.45
668.662	12582.42
669.011	12379.94
669.361	12532.93
669.711	12462.65
670.06	12422.65
670.41	12387.85
670.76	12358.7
671.109	12377.46
671.459	12402.54
671.808	12261.98
672.157	12400.51
672.507	12282.54
672.856	12202.77
673.205	12322.32
673.554	12301.75
673.904	12312.6
674.253	12276.44
674.602	12235.99
674.951	12108.99
675.3	12002.55
675.649	12228.08
675.998	12087.75
676.346	12173.85
676.695	12108.76
677.044	12068.76
677.393	12034.19
677.741	12065.15
678.09	11995.77
678.438	12005.26
678.787	12041.87
679.135	12009.56
679.484	11870.58
679.832	11910.8
680.181	11837.81
680.529	11866.96
680.877	11847.53
681.225	11791.26
681.573	11854.31
681.922	11800.75
682.27	11768.21
682.618	11721.2
682.966	11652.28
683.314	11711.71
683.661	11703.8
684.009	11627.42
684.357	11570.02
684.705	11581.77
685.053	11515.33
685.4	11511.94
685.748	11520.08
686.095	11513.98
686.443	11497.03
686.79	11431.04
687.138	11481.89
687.485	11510.81
687.832	11359.4
688.18	11441.66
688.527	11400.53
688.874	11359.86
689.221	11279.41
689.568	11338.84
689.915	11270.37
690.262	11292.74
690.609	11304.04
690.956	11247.32
691.303	11191.95
691.65	11199.86
691.997	11204.15
692.344	11107.21
692.69	11188.56
693.037	11192.86
693.383	11071.73
693.73	11129.81
694.077	11032.18
694.423	11042.58
694.769	11047.1
695.116	11030.15
695.462	10969.58
695.808	10984.73
696.155	11041.22
696.501	10960.32
696.847	10972.52
697.193	10895.46
697.539	10893.43
697.885	10922.58
698.231	10833.32
698.577	10890.26
698.923	10816.14
699.269	10785.63
699.614	10763.94
699.96	10725.07
700.306	10739.76
700.651	10754.22
700.997	10642.36
701.342	10712.19
701.688	10645.07
702.033	10656.82
702.379	10647.56
702.724	10692.98
703.069	10704.73
703.415	10607.33
703.76	10602.14
704.105	10614.34
704.45	10628.58
704.795	10530.73
705.14	10474.91
705.485	10492.31
705.83	10493.66
706.175	10518.75
706.52	10518.97
706.865	10513.1
707.209	10555.58
707.554	10442.59
707.899	10514.46
708.243	10487.34
708.588	10448.24
708.932	10294.57
709.277	10427.68
709.621	10388.58
709.966	10302.71
710.31	10367.34
710.654	10313.1
710.998	10327.57
711.342	10355.14
711.687	10354.69
712.031	10317.17
712.375	10375.48
712.719	10309.71
713.063	10323.27
713.407	10393.1
713.75	10294.12
714.094	10342.03
714.438	10355.14
714.782	10268.59
715.125	10273.78
715.469	10333.89
715.812	10195.59
716.156	10242.37
716.499	10282.6
716.843	10328.47
717.186	10173.45
717.53	10262.94
717.873	10245.08
718.216	10222.26
718.559	10214.58
718.902	10141.81
719.246	10207.34
719.589	10223.62
719.932	10161.7
720.275	10258.19
720.617	10184.52
720.96	10196.95
721.303	10169.61
721.646	10116.73
721.989	10110.17
722.331	10172.77
722.674	10185.65
723.016	10187.01
723.359	10170.51
723.701	10162.83
724.044	10191.75
724.386	10125.99
724.729	10129.38
725.071	10136.61
725.413	10142.49
725.755	10195.14
726.097	10108.36
726.439	10051.64
726.782	10126.44
727.124	10121.47
727.465	10129.61
727.807	10104.07
728.149	10029.5
728.491	10109.27
728.833	10158.98
729.175	10111.98
729.516	10099.78
729.858	10116.95
730.199	10150.17
730.541	10098.87
730.882	10129.61
731.224	10160.57
731.565	10100
731.906	10160.11
732.248	10222.26
732.589	10114.69
732.93	10127.57
733.271	10198.08
733.612	10161.92
733.953	10241.69
734.294	10194.69
734.635	10172.09
734.976	10253.22
735.317	10180.9
735.658	10249.15
735.999	10280.11
736.339	10340
736.68	10379.77
737.021	10332.54
737.361	10243.5
737.702	10311.52
738.042	10359.66
738.383	10353.78
738.723	10347.45
739.063	10372.09
739.404	10386.55
739.744	10419.09
740.084	10415.02
740.424	10423.84
740.764	10440.78
741.104	10458.41
741.444	10505.87
741.784	10518.07
742.124	10504.06
742.464	10556.49
742.804	10578.63
743.143	10544.74
743.483	10513.1
743.823	10586.09
744.162	10564.85
744.502	10644.4
744.841	10666.32
745.181	10761.45
745.52	10696.37
745.86	10734.79
746.199	10769.36
746.538	10759.87
746.877	10866.08
747.216	10814.11
747.556	10812.98
747.895	10912.18
748.234	10856.82
748.573	10841.9
748.911	10953.77
749.25	10968.45
749.589	10995.57
749.928	11038.06
750.267	11133.42
750.605	11087.32
750.944	11117.6
751.283	11123.7
751.621	11149.92
751.96	11193.76
752.298	11199.18
752.636	11185.4
752.975	11229.69
753.313	11236.7
753.651	11377.26
753.989	11305.85
754.327	11341.1
754.666	11314.21
755.004	11424.71
755.342	11391.04
755.679	11435.56
756.017	11478.72
756.355	11513.98
756.693	11498.61
757.031	11503.13
757.368	11509.68
757.706	11527.99
758.044	11609.79
758.381	11613.41
758.719	11607.76
759.056	11658.83
759.394	11618.15
759.731	11580.42
760.068	11616.35
760.405	11709.45
760.743	11589
761.08	11699.96
761.417	11685.05
761.754	11756.23
762.091	11714.42
762.428	11793.29
762.765	11726.63
763.102	11846.85
763.438	11788.09
763.775	11761.65
764.112	11906.51
764.449	11876.45
764.785	11887.07
765.122	11831.26
765.458	11829.45
765.795	11878.04
766.131	11851.37
766.467	11867.19
766.804	11827.42
767.14	11896.11
767.476	11859.73
767.812	11936.56
768.148	11886.85
768.485	11875.55
768.821	11846.17
769.157	11916.68
769.492	11887.3
769.828	11907.86
770.164	11837.81
770.5	11841.2
770.836	11949.9
771.171	11935.89
771.507	11911.25
771.842	11876.23
772.178	11861.76
772.513	11896.57
772.849	11903.57
773.184	11919.84
773.519	11916.9
773.855	11869.45
774.19	11876.91
774.525	11934.3
774.86	11896.11
775.195	11953.51
775.53	11933.17
775.865	11967.75
776.2	11877.81
776.535	11813.63
776.87	11785.16
777.205	11789.45
777.539	11719.4
777.874	11826.29
778.209	11719.62
778.543	11794.65
778.878	11715.55
779.212	11855.66
779.547	11728.21
779.881	11894.31
780.215	11765.95
780.55	11817.92
780.884	11842.56
781.218	11658.38
781.552	11747.64
781.886	11686.4
782.22	11740.41
782.554	11709
782.888	11622.67
783.222	11583.35
783.556	11604.14
783.889	11664.26
784.223	11570.02
784.557	11564.82
784.89	11666.06
785.224	11603.92
785.557	11573.86
785.891	11521.89
786.224	11567.31
786.558	11534.32
786.891	11506.75
787.224	11509.23
787.557	11539.96
787.891	11445.5
788.224	11464.03
788.557	11495.9
788.89	11490.7
789.223	11539.96
789.556	11411.15
789.888	11415.67
790.221	11401.89
790.554	11340.65
790.887	11342.23
791.219	11363.02
791.552	11301.78
791.884	11328.22
792.217	11364.83
792.549	11266.3
792.882	11245.06
793.214	11315.11
793.546	11332.29
793.879	11166.19
794.211	11099.3
794.543	11252.51
794.875	11173.87
795.207	11308.56
795.539	11168.22
795.871	11266.98
796.203	11072.86
796.535	11117.15
796.867	11101.56
797.198	11127.09
797.53	11111.05
797.862	11105.4
798.193	11093.42
798.525	11019.07
798.856	11025.85
799.188	10989.7
799.519	10949.47
799.85	10896.82
800.182	10925.52
800.513	10921.9
800.844	10922.35
801.175	10897.27
801.506	10948.79
801.837	10912.64
802.168	10939.53
802.499	10929.13
802.83	10876.93
803.161	10770.04
803.491	10832.19
803.822	10867.21
804.153	10775.01
804.483	10775.92
804.814	10755.35
805.145	10751.74
805.475	10768.01
805.805	10713.77
806.136	10707.22
806.466	10739.99
806.796	10694.11
807.126	10625.19
807.457	10651.17
807.787	10639.42
808.117	10643.27
808.447	10572.76
808.777	10577.73
809.107	10531.18
809.436	10557.84
809.766	10548.35
810.096	10572.08
810.426	10518.3
810.755	10541.12
811.085	10502.25
811.414	10548.58
811.744	10425.42
812.073	10446.21
812.403	10393.78
812.732	10377.96
813.061	10404.4
813.39	10419.99
813.719	10320.79
814.049	10379.32
814.378	10308.81
814.707	10307.91
815.036	10284.63
815.365	10276.95
815.693	10161.92
816.022	10235.14
816.351	10200.57
816.68	10180.23
817.008	10209.15
817.337	10162.37
817.665	10102.26
817.994	10138.65
818.322	10122.15
818.651	10110.17
818.979	10091.19
819.307	10143.17
819.636	10087.8
819.964	9994.47
820.292	10013.23
820.62	10094.35
820.948	10040.8
821.276	10152.43
821.604	10042.38
821.932	10048.48
822.259	10122.6
822.587	10050.29
822.915	10054.58
823.243	10138.42
823.57	10123.73
823.898	10105.88
824.225	10075.6
824.553	10023.17
824.88	10072.88
825.207	10102.04
825.535	10047.35
825.862	10159.66
826.189	10084.41
826.516	10179.55
826.843	10153.79
827.17	10230.85
827.497	10231.07
827.824	10143.39
828.151	10187.23
828.478	10142.26
828.805	10234.01
829.131	10083.96
829.458	10102.04
829.785	10155.14
830.111	10094.13
830.438	10138.65
830.764	10181.81
831.09	10182.71
831.417	10137.29
831.743	10152.43
832.069	10134.58
832.395	10081.02
832.722	10185.42
833.048	10176.16
833.374	10213.67
833.7	10072.43
834.026	10085.31
834.351	10113.79
834.677	10108.82
835.003	10193.33
835.329	10173.67
835.654	10130.74
835.98	10046.67
836.306	10149.27
836.631	10118.31
836.956	10157.4
837.282	10113.11
837.607	10069.95
837.932	9997.18
838.258	10048.7
838.583	10070.85
838.908	9962.38
839.233	10066.11
839.558	10003.28
839.883	9986.33
840.208	10001.25
840.533	9963.51
840.858	9968.71
841.182	9948.82
841.507	9932.55
841.832	9825.66
842.156	9797.86
842.481	9868.6
842.805	9931.87
843.13	9913.79
843.454	9821.82
843.778	9811.2
844.103	9777.53
844.427	9767.13
844.751	9819.56
845.075	9755.61
845.399	9705.89
845.723	9726.45
846.047	9704.76
846.371	9615.5
846.695	9663.86
847.019	9566.46
847.343	9524.65
847.666	9491.43
847.99	9426.35
848.313	9456.63
848.637	9367.37
848.96	9350.64
849.284	9337.31
849.607	9286.01
849.931	9302.51
850.254	9146.36
850.577	9115.62
850.9	9123.98
851.223	9091.22
851.546	9093.7
851.869	9025.23
852.192	9078.56
852.515	8931.67
852.838	8957.21
853.161	8911.33
853.483	8895.74
853.806	8872.01
854.129	8846.48
854.451	8817.55
854.774	8778
855.096	8796.31
855.419	8686.71
855.741	8747.72
856.063	8675.86
856.385	8671.57
856.708	8598.35
857.03	8556.54
857.352	8542.08
857.674	8517.45
857.996	8550.89
858.318	8517.45
858.64	8526.26
858.961	8502.3
859.283	8482.19
859.605	8393.38
859.926	8477.45
860.248	8411.23
860.57	8441.29
860.891	8463.44
861.212	8335.53
861.534	8313.61
861.855	8252.14
862.176	8279.71
862.498	8318.81
862.819	8299.6
863.14	8306.15
863.461	8226.15
863.782	8221.63
864.103	8203.33
864.424	8228.87
864.745	8171.69
865.065	8141.18
865.386	8173.27
865.707	8116.33
866.027	8128.08
866.348	8142.77
866.668	8152.26
866.989	8119.26
867.309	8069.1
867.63	8076.78
867.95	8035.65
868.27	7999.72
868.59	8063.9
868.91	8004.69
869.23	8020.96
869.55	7949.1
869.87	7943.9
870.19	7997.46
870.51	7957.91
870.83	7949.55
871.15	7961.3
871.469	7934.41
871.789	7970.79
872.109	7956.33
872.428	7883.79
872.748	7931.92
873.067	7878.82
873.386	7845.15
873.706	7897.57
874.025	7827.97
874.344	7839.5
874.663	7807.86
874.982	7906.84
875.301	7815.32
875.62	7799.5
875.939	7762.44
876.258	7764.47
876.577	7792.94
876.896	7724.92
877.214	7778.93
877.533	7746.62
877.852	7767.41
878.17	7676.34
878.489	7710.69
878.807	7747.75
879.125	7699.39
879.444	7612.61
879.762	7653.74
880.08	7666.62
880.398	7611.48
880.716	7639.28
881.034	7553.18
881.352	7582.55
881.67	7575.78
881.988	7521.09
882.306	7513.4
882.624	7553.63
882.941	7492.16
883.259	7470.02
883.577	7446.06
883.894	7487.42
884.212	7462.11
884.529	7439.73
884.846	7401.54
885.164	7389.79
885.481	7419.4
885.798	7432.95
886.115	7336.01
886.432	7350.47
886.75	7361.77
887.067	7290.59
887.383	7263.92
887.7	7248.78
888.017	7193.19
888.334	7265.95
888.651	7302.34
888.967	7211.72
889.284	7197.71
889.6	7201.32
889.917	7099.18
890.233	7152.96
890.55	7053.08
890.866	7107.99
891.182	7060.53
891.498	6995.68
891.815	7038.61
892.131	6945.06
892.447	6996.58
892.763	6971.5
893.079	6937.37
893.395	6905.96
893.71	6888.34
894.026	6867.55
894.342	6884.27
894.657	6831.61
894.973	6830.03
895.289	6858.05
895.604	6823.25
895.92	6744.38
896.235	6722.69
896.55	6637.04
896.865	6701.45
897.181	6653.09
897.496	6661.68
897.811	6636.59
898.126	6613.99
898.441	6622.35
898.756	6566.54
899.071	6541.68
899.386	6594.33
899.7	6512.3
900.015	6463.71
900.33	6395.69
900.644	6367.9
900.959	6396.6
901.273	6388.69
901.588	6360.89
901.902	6380.55
902.216	6301.01
902.531	6361.34
902.845	6288.58
903.159	6316.15
903.473	6218.3
903.787	6206.55
904.101	6162.71
904.415	6143.5
904.729	6126.32
905.042	6133.1
905.356	6083.16
905.67	6077.28
905.984	6107.11
906.297	6077.74
906.611	6021.69
906.924	5987.12
907.237	6015.14
907.551	5982.14
907.864	5956.38
908.177	5932.88
908.491	5957.74
908.804	5856.95
909.117	5852.66
909.43	5816.05
909.743	5772.88
910.056	5800.45
910.368	5755.71
910.681	5718.65
910.994	5713.68
911.307	5724.07
911.619	5668.93
911.932	5673.9
912.244	5637.3
912.557	5635.49
912.869	5585.32
913.181	5586.45
913.494	5596.84
913.806	5535.15
914.118	5489.5
914.43	5504.42
914.742	5459.45
915.054	5425.1
915.366	5385.32
915.678	5371.31
915.99	5378.32
916.302	5353.01
916.613	5332.9
916.925	5345.78
917.236	5295.61
917.548	5256.51
917.859	5281.82
918.171	5200.47
918.482	5211.32
918.794	5188.27
919.105	5202.73
919.416	5133.58
919.727	5122.28
920.038	5119.34
920.349	5046.58
920.66	5068.5
920.971	5046.12
921.282	5026.24
921.593	4962.51
921.903	4946.24
922.214	4948.05
922.525	4919.35
922.835	4926.81
923.146	4913.7
923.456	4886.35
923.767	4861.04
924.077	4843.42
924.387	4800.93
924.697	4781.72
925.008	4781.72
925.318	4779.69
925.628	4734.49
925.938	4737.66
926.248	4645.46
926.558	4599.36
926.867	4622.18
927.177	4593.71
927.487	4597.1
927.796	4569.98
928.106	4551.9
928.416	4550.32
928.725	4536.99
929.034	4506.7
929.344	4525.01
929.653	4475.97
929.962	4445.69
930.271	4409.08
930.581	4447.27
930.89	4411.56
931.199	4404.11
931.508	4363.2
931.817	4379.93
932.125	4382.41
932.434	4348.29
932.743	4273.72
933.051	4310.1
933.36	4270.33
933.669	4228.52
933.977	4246.6
934.286	4231
934.594	4207.73
934.902	4168.86
935.21	4124.57
935.519	4135.19
935.827	4149.65
936.135	4141.97
936.443	4099.93
936.751	4060.61
937.059	4106.49
937.367	4059.48
937.674	4075.75
937.982	4054.29
938.29	4044.79
938.597	4028.52
938.905	4019.48
939.213	3986.94
939.52	3914.63
939.827	3938.58
940.135	3912.59
940.442	3934.97
940.749	3848.87
941.056	3876.66
941.363	3832.82
941.67	3891.13
941.977	3783.78
942.284	3805.93
942.591	3743.11
942.898	3773.39
943.205	3740.17
943.511	3747.85
943.818	3729.55
944.125	3678.93
944.431	3703.79
944.738	3653.17
945.044	3656.33
945.35	3684.35
945.657	3631.7
945.963	3616.78
946.269	3608.65
946.575	3614.98
946.881	3554.64
947.187	3592.38
947.493	3556.45
947.799	3515.77
948.105	3519.16
948.41	3490.91
948.716	3537.46
949.022	3480.52
949.327	3445.26
949.633	3412.04
949.938	3432.61
950.244	3435.32
950.549	3441.42
950.854	3398.26
951.16	3369.33
951.465	3339.73
951.77	3348.32
952.075	3358.71
952.38	3314.64
952.685	3295.21
952.99	3280.3
953.294	3324.81
953.599	3251.82
953.904	3248.88
954.209	3237.81
954.513	3211.37
954.818	3207.3
955.122	3221.31
955.426	3165.72
955.731	3179.51
956.035	3158.94
956.339	3169.11
956.643	3153.52
956.948	3097.93
957.252	3115.55
957.556	3090.24
957.86	3103.8
958.163	3069.91
958.467	3022.67
958.771	3038.04
959.075	3004.14
959.378	3009.57
959.682	3031.71
959.985	3013.64
960.289	2984.03
960.592	2934.54
960.896	2934.09
961.199	2934.09
961.502	2867.42
961.805	2912.4
962.108	2880.53
962.411	2887.99
962.714	2866.97
963.017	2876.69
963.32	2855.45
963.623	2855.22
963.926	2845.96
964.228	2824.94
964.531	2807.31
964.833	2763.47
965.136	2777.26
965.438	2772.74
965.741	2791.72
966.043	2759.4
966.345	2720.08
966.648	2761.66
966.95	2730.71
967.252	2709.69
967.554	2702.46
967.856	2690.93
968.158	2654.77
968.46	2661.78
968.761	2688.67
969.063	2605.96
969.365	2622.69
969.666	2611.39
969.968	2603.93
970.269	2574.55
970.571	2600.31
970.872	2571.61
971.174	2541.56
971.475	2533.2
971.776	2530.94
972.077	2539.98
972.378	2540.43
972.679	2537.72
972.98	2503.82
973.281	2500.2
973.582	2484.84
973.883	2476.02
974.183	2460.66
974.484	2440.32
974.785	2412.97
975.085	2416.81
975.386	2421.33
975.686	2396.48
975.986	2417.94
976.287	2405.52
976.587	2359.19
976.887	2347.44
977.187	2343.82
977.487	2373.2
977.787	2348.57
978.087	2330.26
978.387	2312.41
978.687	2336.59
978.987	2254.11
979.286	2297.5
979.586	2279.87
979.885	2242.36
980.185	2264.95
980.484	2254.33
980.784	2252.53
981.083	2222.24
981.382	2239.87
981.682	2232.87
981.981	2226.09
982.28	2193.77
982.579	2180.66
982.878	2156.93
983.177	2182.02
983.475	2171.85
983.774	2179.31
984.073	2150.16
984.372	2125.52
984.67	2097.73
984.969	2125.98
985.267	2129.59
985.566	2116.03
985.864	2090.95
986.162	2072.19
986.461	2077.84
986.759	2057.05
987.057	2070.84
987.355	2048.69
987.653	2027.45
987.951	2041.23
988.249	1999.42
988.547	2012.08
988.844	2014.11
989.142	2020.22
989.44	1968.47
989.737	1982.48
990.035	1979.54
990.332	1962.82
990.63	1935.7
990.927	1958.3
991.224	1958.75
991.521	1943.83
991.819	1914.23
992.116	1914.91
992.413	1863.38
992.71	1899.31
993.006	1888.24
993.303	1908.81
993.6	1876.72
993.897	1885.98
994.193	1853.89
994.49	1830.84
994.787	1839.66
995.083	1852.76
995.379	1801.24
995.676	1833.78
995.972	1829.03
996.268	1780.9
996.565	1819.32
996.861	1769.83
997.157	1785.19
997.453	1750.17
997.749	1742.48
998.044	1749.26
998.34	1720.56
998.636	1730.28
998.932	1742.03
999.227	1707.23
999.523	1698.64
999.818	1686.21
1000.114	1676.04
1000.409	1661.58
1000.704	1650.96
1001	1664.97
1001.295	1688.92
1001.59	1674.01
1001.885	1666.78
1002.18	1624.07
1002.475	1611.19
1002.77	1596.5
1003.065	1626.78
1003.359	1588.81
1003.654	1567.35
1003.949	1596.5
1004.243	1541.58
1004.538	1553.33
1004.832	1562.37
1005.127	1537.29
1005.421	1517.86
1005.715	1518.53
1006.009	1526.89
1006.304	1491.87
1006.598	1490.74
1006.892	1488.93
1007.186	1488.93
1007.48	1501.36
1007.773	1457.52
1008.067	1460.91
1008.361	1453.68
1008.655	1447.57
1008.948	1431.53
1009.242	1443.96
1009.535	1440.57
1009.829	1447.57
1010.122	1383.4
1010.415	1407.58
1010.708	1380.23
1011.001	1409.38
1011.295	1382.04
1011.588	1382.49
1011.881	1365.77
1012.173	1346.56
1012.466	1322.15
1012.759	1357.18
1013.052	1333.68
1013.344	1328.93
1013.637	1354.92
1013.93	1330.52
1014.222	1324.64
1014.514	1295.94
1014.807	1283.06
1015.099	1279.67
1015.391	1276.96
1015.683	1256.85
1015.976	1293.45
1016.268	1265.43
1016.56	1250.74
1016.851	1286
1017.143	1261.14
1017.435	1227.02
1017.727	1208.49
1018.018	1228.15
1018.31	1224.76
1018.602	1194.02
1018.893	1181.37
1019.185	1182.5
1019.476	1204.42
1019.767	1164.87
1020.058	1161.25
1020.35	1193.8
1020.641	1148.37
1020.932	1123.97
1021.223	1146.34
1021.514	1152.44
1021.804	1098.43
1022.095	1144.53
1022.386	1129.84
1022.677	1106.79
1022.967	1083.74
1023.258	1115.38
1023.548	1062.05
1023.839	1066.12
1024.129	1091.88
1024.419	1056.4
1024.709	1054.14
1025	1058.66
1025.29	1041.71
1025.58	1035.83
1025.87	1044.2
1026.16	1022.73
1026.449	1017.08
1026.739	1007.36
1027.029	987.47
1027.319	996.51
1027.608	1021.6
1027.898	980.02
1028.187	989.28
1028.477	990.41
1028.766	990.41
1029.055	956.29
1029.344	977.53
1029.634	970.98
1029.923	929.85
1030.212	960.13
1030.501	968.27
1030.79	938.21
1031.078	933.69
1031.367	912.45
1031.656	907.93
1031.945	935.95
1032.233	933.46
1032.522	903.18
1032.81	903.86
1033.099	926.01
1033.387	871.54
1033.675	877.65
1033.963	868.16
1034.251	894.82
1034.54	899.11
1034.828	862.05
1035.116	855.27
1035.403	846.23
1035.691	854.6
1035.979	858.44
1036.267	837.42
1036.554	830.64
1036.842	838.55
1037.129	834.26
1037.417	831.55
1037.704	787.25
1037.992	808.27
1038.279	802.85
1038.566	786.8
1038.853	786.8
1039.14	786.8
