Data from blue_clamp_base_FLMS001491_00058.txt Node
Date: Wed Feb 08 15:16:13 GMT 2017
User: dcchb
Spectrometer: FLMS00149
Trigger mode: 0
Integration Time (sec): 2.000000E-2
Scans to average: 10
Electric dark correction enabled: true
Nonlinearity correction enabled: false
Boxcar width: 0
XAxis mode: Wavelengths
Number of Pixels in Spectrum: 2048
>>>>>Begin Spectral Data<<<<<
341.393	-14.82
341.776	-14.82
342.16	-14.82
342.543	-64.53
342.927	-73.8
343.31	-76.96
343.693	-62.72
344.077	-48.94
344.46	-41.71
344.843	-67.02
345.226	-50.52
345.61	-43.52
345.993	-27.02
346.376	0.1
346.759	-1.26
347.142	37.84
347.525	51.4
347.908	43.49
348.291	94.33
348.674	95.46
349.057	97.05
349.44	114.22
349.823	158.29
350.206	156.7
350.588	182.24
350.971	202.58
351.354	207.33
351.737	240.77
352.119	242.35
352.502	259.08
352.884	293.88
353.267	275.57
353.65	263.82
354.032	290.26
354.414	297.72
354.797	287.1
355.179	317.15
355.562	308.57
355.944	334.33
356.326	312.41
356.709	312.41
357.091	340.65
357.473	319.86
357.855	334.1
358.238	332.29
358.62	325.51
359.002	328
359.384	343.59
359.766	326.42
360.148	311.28
360.53	340.43
360.912	333.42
361.294	334.33
361.676	312.18
362.057	329.81
362.439	308.79
362.821	311.96
363.203	346.98
363.584	306.76
363.966	298.4
364.348	309.02
364.729	303.14
365.111	311.73
365.493	322.35
365.874	326.64
366.256	305.63
366.637	308.57
367.019	312.63
367.4	305.4
367.781	311.96
368.163	302.92
368.544	300.2
368.925	302.46
369.306	316.7
369.688	317.38
370.069	313.54
370.45	305.63
370.831	316.7
371.212	316.25
371.593	302.92
371.974	298.17
372.355	311.96
372.736	299.75
373.117	305.18
373.498	279.19
373.879	280.54
374.26	319.19
374.641	322.12
375.021	318.51
375.402	315.12
375.783	313.99
376.163	316.25
376.544	332.07
376.925	341.11
377.305	338.17
377.686	341.56
378.066	327.77
378.447	317.6
378.827	303.14
379.208	305.85
379.588	320.99
379.968	333.2
380.349	314.67
380.729	329.36
381.109	320.99
381.489	320.77
381.87	342.46
382.25	334.78
382.63	338.17
383.01	343.14
383.39	325.51
383.77	332.29
384.15	321.45
384.53	338.62
384.91	350.15
385.29	348.56
385.67	338.85
386.049	349.92
386.429	337.49
386.809	367.77
387.189	360.77
387.568	358.28
387.948	343.82
388.328	346.98
388.707	354.67
389.087	376.81
389.466	368
389.846	365.51
390.225	369.81
390.605	386.3
390.984	371.84
391.363	401.67
391.743	384.04
392.122	392.4
392.501	378.39
392.881	400.54
393.26	384.5
393.639	417.72
394.018	392.63
394.397	408
394.776	399.41
395.155	415.91
395.534	405.06
395.913	428.11
396.292	421.78
396.671	437.83
397.05	427.66
397.429	427.66
397.808	437.83
398.186	415
398.565	450.03
398.944	454.1
399.323	467.88
399.701	462.69
400.08	442.57
400.458	463.14
400.837	466.3
401.215	482.12
401.594	463.14
401.972	477.37
402.351	487.09
402.729	504.94
403.107	485.28
403.486	512.85
403.864	517.83
404.242	542.68
404.62	526.19
404.999	523.7
405.377	523.93
405.755	515.34
406.133	544.72
406.511	533.87
406.889	534.1
407.267	558.73
407.645	551.04
408.023	583.59
408.401	559.41
408.779	577.48
409.156	605.28
409.534	588.33
409.912	604.83
410.29	606.86
410.667	612.96
411.045	630.36
411.422	634.43
411.8	650.48
412.178	655.67
412.555	625.62
412.933	661.55
413.31	653.19
413.687	698.16
414.065	673.98
414.442	692.74
414.819	689.8
415.197	720.76
415.574	716.92
415.951	734.09
416.328	755.11
416.705	772.28
417.082	746.07
417.46	751.72
417.837	729.12
418.214	752.4
418.591	774.09
418.967	760.98
419.344	793.07
419.721	781.55
420.098	798.72
420.475	812.28
420.852	798.04
421.228	815.67
421.605	827.87
421.982	855.44
422.358	867.19
422.735	861.77
423.111	881.66
423.488	882.56
423.864	876.23
424.241	896.35
424.617	912.62
424.994	903.8
425.37	932.73
425.746	944.48
426.123	962.11
426.499	928.89
426.875	967.53
427.251	992.84
427.627	999.39
428.003	1005.04
428.379	1019.06
428.756	1014.08
429.132	1021.31
429.507	1060.18
429.883	1070.58
430.259	1089.79
430.635	1090.69
431.011	1097.02
431.387	1134.98
431.763	1155.77
432.138	1132.72
432.514	1168.66
432.89	1163.23
433.265	1202.78
433.641	1197.58
434.016	1223.8
434.392	1230.35
434.767	1256.34
435.143	1234.87
435.518	1287.3
435.894	1310.35
436.269	1324.36
436.644	1329.78
437.02	1327.3
437.395	1333.85
437.77	1404.81
438.145	1403.9
438.52	1407.75
438.895	1440.29
439.271	1426.73
439.646	1458.59
440.021	1481.64
440.395	1490.23
440.77	1437.12
441.145	1494.97
441.52	1543.56
441.895	1522.77
442.27	1558.48
442.645	1540.85
443.019	1565.26
443.394	1597.57
443.769	1595.09
444.143	1592.15
444.518	1611.36
444.892	1608.64
445.267	1645.03
445.641	1687.74
446.016	1667.4
446.39	1665.37
446.764	1704.23
447.139	1721.86
447.513	1734.97
447.887	1729.09
448.262	1754.85
448.636	1748.08
449.01	1774.74
449.384	1792.37
449.758	1785.36
450.132	1833.95
450.506	1819.94
450.88	1835.08
451.254	1862.2
451.628	1881.86
452.002	1907.39
452.376	1911.69
452.75	1969.54
453.123	1964.34
453.497	1995.53
453.871	1979.71
454.244	2013.15
454.618	2058.35
454.992	2095.19
455.365	2079.37
455.739	2148.74
456.112	2154.17
456.486	2174.5
456.859	2187.61
457.232	2235.07
457.606	2206.14
457.979	2242.53
458.352	2273.03
458.725	2299.7
459.099	2321.85
459.472	2372.69
459.845	2370.66
460.218	2400.04
460.591	2397.55
460.964	2442.97
461.337	2493.14
461.71	2541.27
462.083	2531.78
462.456	2576.3
462.829	2574.95
463.201	2600.93
463.574	2615.85
463.947	2653.14
464.32	2705.79
464.692	2734.26
465.065	2726.35
465.438	2776.52
465.81	2799.57
466.183	2801.61
466.555	2856.97
466.928	2918.44
467.3	2900.59
467.672	2950.76
468.045	3012
468.417	3020.58
468.789	3064.43
469.161	3061.26
469.534	3107.81
469.906	3146.68
470.278	3215.16
470.65	3219
471.022	3261.26
471.394	3319.33
471.766	3333.57
472.138	3408.37
472.51	3405.21
472.882	3494.24
473.253	3516.39
473.625	3574.02
473.997	3625.54
474.369	3622.83
474.74	3689.95
475.112	3715.71
475.484	3801.58
475.855	3854.69
476.227	3850.85
476.598	3921.13
476.97	3992.54
477.341	4055.59
477.713	4079.09
478.084	4113.44
478.455	4189.14
478.827	4237.28
479.198	4323.83
479.569	4309.36
479.94	4391.62
480.311	4401.57
480.682	4523.37
481.053	4619.86
481.424	4666.64
481.795	4672.74
482.166	4768.11
482.537	4784.38
482.908	4897.82
483.279	4918.16
483.65	4994.09
484.021	5065.5
484.391	5060.76
484.762	5109.8
485.133	5162.45
485.503	5219.4
485.874	5260.75
486.244	5331.26
486.615	5386.85
486.985	5515.89
487.356	5475.44
487.726	5491.03
488.097	5666.16
488.467	5604.02
488.837	5719.04
489.207	5758.59
489.578	5799.49
489.948	5839.27
490.318	5883.33
490.688	5867.74
491.058	5947.97
491.428	6000.85
491.798	6066.83
492.168	6137.34
492.538	6144.34
492.908	6192.03
493.278	6243.78
493.648	6213.27
494.017	6253.49
494.387	6308.41
494.757	6363.1
495.126	6382.98
495.496	6365.13
495.866	6402.42
496.235	6484.67
496.605	6497.33
496.974	6465.69
497.344	6546.59
497.713	6512.7
498.082	6599.7
498.452	6625.01
498.821	6614.61
499.19	6606.25
499.559	6637.21
499.928	6635.18
500.298	6717.66
500.667	6728.28
501.036	6732.13
501.405	6817.77
501.774	6771.67
502.143	6787.72
502.512	6792.24
502.88	6867.04
503.249	6868.84
503.618	6868.84
503.987	6862.74
504.356	6896.19
504.724	6868.84
505.093	6919.69
505.462	6935.06
505.83	6969.41
506.199	7005.79
506.567	7027.03
506.936	7037.88
507.304	7067.26
507.672	7109.52
508.041	7127.37
508.409	7183.41
508.777	7148.61
509.145	7185.67
509.514	7219.12
509.882	7147.93
510.25	7224.77
510.618	7272.45
510.986	7231.1
511.354	7283.75
511.722	7267.48
512.09	7361.49
512.458	7355.16
512.826	7359.91
513.193	7403.75
513.561	7356.74
513.929	7438.77
514.297	7489.85
514.664	7463.18
515.032	7458.66
515.4	7527.13
515.767	7500.24
516.135	7532.1
516.502	7448.94
516.869	7561.71
517.237	7595.83
517.604	7584.08
517.972	7573.01
518.339	7722.61
518.706	7610.29
519.073	7644.64
519.44	7679.67
519.808	7729.61
520.175	7707.69
520.542	7793.79
520.909	7785.88
521.276	7792.21
521.643	7837.41
522.009	7861.36
522.376	7927.8
522.743	7884.41
523.11	8041.92
523.477	8033.11
523.843	8103.39
524.21	8119.43
524.577	8084.86
524.943	8088.47
525.31	8128.25
525.676	8200.11
526.043	8179.32
526.409	8211.63
526.776	8311.29
527.142	8328.69
527.508	8329.37
527.874	8342.93
528.241	8368.47
528.607	8418.63
528.973	8429.48
529.339	8447.79
529.705	8556.94
530.071	8579.31
530.437	8567.11
530.803	8626.31
531.169	8607.1
531.535	8577.95
531.901	8611.17
532.267	8703.82
532.632	8771.17
532.998	8721.23
533.364	8760.32
533.73	8712.19
534.095	8847.32
534.461	8809.58
534.826	8911.95
535.192	8864.72
535.557	8954.21
535.923	8927.32
536.288	8941.33
536.653	9011.16
537.019	8974.1
537.384	8997.6
537.749	9025.85
538.114	9044.15
538.479	9094.1
538.845	9158.5
539.21	9108.33
539.575	9147.43
539.94	9162.57
540.305	9204.38
540.67	9191.04
541.034	9215
541.399	9192.17
541.764	9234.88
542.129	9261.32
542.494	9238.27
542.858	9319.18
543.223	9286.86
543.587	9363.02
543.952	9279.4
544.316	9364.6
544.681	9330.48
545.045	9384.94
545.41	9462.22
545.774	9406.63
546.138	9349.91
546.503	9445.95
546.867	9446.86
547.231	9493.18
547.595	9466.06
547.959	9437.59
548.324	9480.3
548.688	9558.04
549.052	9473.3
549.416	9529.79
549.779	9538.38
550.143	9560.75
550.507	9614.31
550.871	9614.08
551.235	9572.95
551.599	9624.7
551.962	9640.98
552.326	9666.74
552.689	9673.52
553.053	9690.01
553.417	9639.62
553.78	9864.92
554.143	9701.76
554.507	9783.34
554.87	9805.04
555.234	9848.88
555.597	9737.47
555.96	9743.35
556.323	9913.28
556.686	9802.55
557.05	9810.01
557.413	9911.48
557.776	9833.29
558.139	9959.39
558.502	9936.56
558.865	9922.78
559.228	9972.72
559.59	10003
559.953	9938.59
560.316	10010.91
560.679	9991.7
561.041	10088.2
561.404	10037.35
561.767	10156.44
562.129	10120.96
562.492	10134.52
562.854	10114.86
563.217	10116.22
563.579	10151.47
563.941	10213.84
564.304	10231.47
564.666	10291.81
565.028	10304.69
565.39	10292.71
565.753	10367.74
566.115	10374.29
566.477	10395.08
566.839	10434.63
567.201	10484.57
567.563	10492.93
567.925	10631.23
568.287	10539.26
568.648	10605.47
569.01	10685.02
569.372	10805.01
569.734	10647.73
570.095	10787.84
570.457	10732.92
570.819	10817.44
571.18	10843.88
571.542	10788.29
571.903	10846.37
572.265	10826.48
572.626	10911.68
572.987	10951.22
573.349	10952.81
573.71	11012.69
574.071	11037.1
574.432	11012.01
574.794	11036.19
575.155	11042.52
575.516	11031
575.877	11147.38
576.238	11190.31
576.599	11106.7
576.96	11273.47
577.32	11273.47
577.681	11263.76
578.042	11233.48
578.403	11291.33
578.763	11313.47
579.124	11347.6
579.485	11395.73
579.845	11455.16
580.206	11425.11
580.566	11371.55
580.927	11453.81
581.287	11449.52
581.648	11493.36
582.008	11438.44
582.368	11415.84
582.728	11457.88
583.089	11499.01
583.449	11509.85
583.809	11498.55
584.169	11499.46
584.529	11428.72
584.889	11558.67
585.249	11517.54
585.609	11533.58
585.969	11632.56
586.329	11514.15
586.688	11599.34
587.048	11588.27
587.408	11562.73
587.768	11539.91
588.127	11615.39
588.487	11605.9
588.846	11648.15
589.206	11625.1
589.565	11616.74
589.925	11659
590.284	11614.48
590.643	11656.52
591.003	11631.43
591.362	11743.07
591.721	11707.36
592.08	11668.49
592.44	11696.29
592.799	11709.17
593.158	11667.59
593.517	11730.41
593.876	11822.39
594.235	11676.4
594.593	11738.77
594.952	11837.08
595.311	11716.63
595.67	11778.09
596.029	11917.98
596.387	11867.13
596.746	11901.93
597.104	11852.22
597.463	11719.56
597.822	11843.86
598.18	11845.89
598.538	11841.14
598.897	11873.23
599.255	11760.02
599.613	11917.75
599.972	11870.52
600.33	11851.31
600.688	11861.93
601.046	11879.11
601.404	11952.1
601.762	11992.78
602.12	11909.62
602.478	11966.11
602.836	11977.86
603.194	11870.07
603.552	11966.79
603.91	11837.98
604.268	11934.25
604.625	11953.23
604.983	11929.95
605.341	11884.76
605.698	11976.06
606.056	11993.91
606.413	11929.28
606.771	12035.94
607.128	12028.26
607.485	11965.21
607.843	11927.47
608.2	12076.62
608.557	12083.62
608.914	11993.46
609.272	12030.07
609.629	12054.25
609.986	12179.44
610.343	12079.33
610.7	12135.82
611.057	12147.35
611.414	12115.71
611.771	12156.84
612.127	12257.4
612.484	12178.31
612.841	12234.13
613.198	12247.23
613.554	12178.99
613.911	12202.49
614.267	12284.3
614.624	12235.94
614.98	12327.46
615.337	12304.63
615.693	12314.35
616.05	12300.34
616.406	12417.4
616.762	12334.24
617.118	12374.01
617.475	12389.83
617.831	12357.97
618.187	12436.38
618.543	12423.95
618.899	12618.98
619.255	12441.13
619.611	12531.52
619.967	12541.01
620.323	12475.03
620.678	12493.33
621.034	12460.11
621.39	12456.95
621.746	12512.76
622.101	12664.62
622.457	12551.18
622.812	12549.15
623.168	12613.1
623.523	12651.29
623.879	12640.22
624.234	12561.8
624.589	12623.5
624.945	12692.65
625.3	12669.6
625.655	12657.17
626.01	12701.23
626.365	12799.08
626.72	12700.1
627.075	12722.25
627.43	12769.48
627.785	12661.23
628.14	12729.26
628.495	12733.1
628.85	12786.2
629.205	12720.67
629.559	12784.4
629.914	12776.49
630.269	12741.23
630.623	12754.79
630.978	12811.06
631.332	12828.91
631.687	12893.55
632.041	12844.28
632.396	12809.93
632.75	12840.89
633.104	12910.72
633.459	12871.85
633.813	12802.02
634.167	12818.97
634.521	12903.71
634.875	12906.65
635.229	12948.68
635.583	12886.54
635.937	12879.53
636.291	12892.19
636.645	12897.16
636.999	12893.32
637.352	12908.91
637.706	12913.43
638.06	12987.55
638.413	13033.2
638.767	13012.86
639.121	13117.49
639.474	12928.57
639.828	12944.17
640.181	13055.12
640.534	13024.16
640.888	13075.01
641.241	13015.35
641.594	13096.7
641.947	13129.7
642.301	13104.16
642.654	13118.17
643.007	13060.55
643.36	13087.66
643.713	13122.01
644.066	13198.4
644.419	13091.51
644.771	13152.52
645.124	13084.5
645.477	13134.22
645.83	13057.61
646.182	12961.11
646.535	12955.69
646.888	12917.95
647.24	12876.37
647.593	12888.8
647.945	12882.92
648.298	12856.94
648.65	12859.2
649.002	12879.76
649.355	13014.67
649.707	13018.51
650.059	13044.95
650.411	13279.98
650.763	13313.2
651.115	13462.57
651.467	13413.76
651.819	13427.99
652.171	13483.36
652.523	13484.72
652.875	13424.83
653.227	13384.83
653.578	13485.85
653.93	13493.53
654.282	13423.47
654.633	13434.32
654.985	13479.29
655.337	13473.19
655.688	13576.47
656.039	13648.1
656.391	13513.19
656.742	13626.41
657.094	13587.99
657.445	13686.29
657.796	13577.82
658.147	13552.28
658.498	13677.93
658.849	13640.42
659.2	13597.03
659.551	13658.04
659.902	13719.96
660.253	13652.62
660.604	13702.79
660.955	13658.95
661.306	13724.26
661.656	13672.51
662.007	13662.34
662.358	13625.5
662.708	13894.2
663.059	13820.75
663.409	13604.94
663.76	13734.65
664.11	13637.93
664.461	13726.07
664.811	13807.19
665.161	13719.96
665.511	13693.07
665.862	13774.2
666.212	13800.64
666.562	13698.5
666.912	13794.99
667.262	13744.82
667.612	13721.77
667.962	13782.79
668.312	13712.28
668.662	13762.45
669.011	13694.88
669.361	13712.73
669.711	13644.71
670.06	13562.91
670.41	13637.93
670.76	13745.5
671.109	13580.53
671.459	13608.78
671.808	13594.54
672.157	13522.91
672.507	13439.97
672.856	13479.29
673.205	13472.29
673.554	13473.64
673.904	13461.67
674.253	13447.88
674.602	13356.13
674.951	13230.71
675.3	13112.3
675.649	13301.9
675.998	13333.08
676.346	13325.4
676.695	13242.91
677.044	13162.69
677.393	13198.17
677.741	13183.03
678.09	13116.36
678.438	13132.41
678.787	13138.28
679.135	13201.79
679.484	13018.51
679.832	13107.78
680.181	12983.03
680.529	13026.65
680.877	12960.66
681.225	12915.24
681.573	12990.49
681.922	12876.6
682.27	12860.33
682.618	12832.76
682.966	12812.19
683.314	12791.17
683.661	12750.72
684.009	12738.52
684.357	12673.89
684.705	12654.68
685.053	12714.11
685.4	12637.73
685.748	12618.75
686.095	12528.81
686.443	12589.15
686.79	12489.71
687.138	12488.81
687.485	12432.09
687.832	12468.92
688.18	12554.8
688.527	12399.09
688.874	12444.97
689.221	12361.81
689.568	12347.34
689.915	12389.6
690.262	12292.66
690.609	12331.3
690.956	12328.36
691.303	12246.78
691.65	12212.21
691.997	12136.05
692.344	12081.36
692.69	12132.66
693.037	12217.18
693.383	12063.28
693.73	12117.29
694.077	12092.21
694.423	12031.65
694.769	12047.92
695.116	12018.54
695.462	11949.62
695.808	12026.45
696.155	11983.06
696.501	11994.81
696.847	11936.51
697.193	11903.74
697.539	11885.66
697.885	11882.72
698.231	11825.1
698.577	11847.24
698.923	11847.24
699.269	11825.55
699.614	11778.55
699.96	11800.92
700.306	11738.55
700.651	11749.62
700.997	11764.31
701.342	11712.33
701.688	11679.57
702.033	11695.61
702.379	11653.35
702.724	11715.5
703.069	11716.63
703.415	11595.05
703.76	11593.69
704.105	11638.21
704.45	11557.31
704.795	11616.29
705.14	11508.72
705.485	11518.44
705.83	11512.56
706.175	11548.27
706.52	11551.66
706.865	11462.4
707.209	11460.59
707.554	11480.7
707.899	11525.45
708.243	11453.36
708.588	11458.33
708.932	11454.71
709.277	11378.33
709.621	11415.39
709.966	11350.53
710.31	11330.2
710.654	11341.95
710.998	11353.02
711.342	11382.17
711.687	11315.73
712.031	11338.78
712.375	11310.99
712.719	11415.17
713.063	11367.94
713.407	11331.1
713.75	11379.46
714.094	11318.9
714.438	11281.61
714.782	11360.25
715.125	11284.77
715.469	11319.35
715.812	11281.61
716.156	11225.79
716.499	11279.58
716.843	11252.68
717.186	11251.78
717.53	11379.46
717.873	11323.87
718.216	11318.9
718.559	11215.4
718.902	11199.35
719.246	11215.17
719.589	11159.35
719.932	11175.17
720.275	11166.81
720.617	11114.61
720.96	11148.96
721.303	11141.5
721.646	11166.13
721.989	11092.01
722.331	11166.13
722.674	11189.64
723.016	11174.72
723.359	11195.28
723.701	11234.83
724.044	11178.56
724.386	11074.16
724.729	11163.87
725.071	11139.69
725.413	11178.34
725.755	11114.61
726.097	11099.02
726.439	11091.56
726.782	11147.6
727.124	11182.18
727.465	11114.16
727.807	11095.85
728.149	11132.91
728.491	11149.18
728.833	11144.66
729.175	11139.69
729.516	11167.71
729.858	11139.92
730.199	11119.35
730.541	11160.03
730.882	11174.27
731.224	11180.82
731.565	11183.31
731.906	11246.81
732.248	11224.66
732.589	11251.78
732.93	11201.84
733.271	11278.45
733.612	11270.76
733.953	11240.48
734.294	11290.2
734.635	11230.54
734.976	11278.45
735.317	11188.28
735.658	11315.96
735.999	11330.2
736.339	11312.8
736.68	11383.3
737.021	11379.69
737.361	11336.07
737.702	11377.88
738.042	11358.9
738.383	11399.12
738.723	11420.82
739.063	11394.38
739.404	11468.95
739.744	11413.13
740.084	11522.28
740.424	11529.51
740.764	11519.34
741.104	11520.25
741.444	11506.91
741.784	11624.65
742.124	11698.32
742.464	11589.4
742.804	11685.89
743.143	11731.32
743.483	11699
743.823	11663.3
744.162	11664.88
744.502	11741.49
744.841	11821.93
745.181	11851.09
745.52	11788.72
745.86	11832.33
746.199	11875.49
746.538	11877.07
746.877	11980.57
747.216	12032.32
747.556	12060.8
747.895	12150.74
748.234	12070.29
748.573	12150.97
748.911	12167.91
749.25	12242.04
749.589	12298.53
749.928	12383.73
750.267	12376.95
750.605	12315.71
750.944	12367.46
751.283	12378.53
751.621	12487
751.96	12383.05
752.298	12454.91
752.636	12529.03
752.975	12573.55
753.313	12524.06
753.651	12653.78
753.989	12615.13
754.327	12688.13
754.666	12634.79
755.004	12709.14
755.342	12705.98
755.679	12802.93
756.017	12779.65
756.355	12831.85
756.693	12885.18
757.031	12946.88
757.368	12913.43
757.706	12922.92
758.044	13007.67
758.381	13038.85
758.719	13039.08
759.056	13040.66
759.394	12979.42
759.731	13098.06
760.068	13098.51
760.405	13080.21
760.743	13096.7
761.08	13155.01
761.417	13157.72
761.754	13182.13
762.091	13292.86
762.428	13199.75
762.765	13254.67
763.102	13361.56
763.438	13268.9
763.775	13283.14
764.112	13380.09
764.449	13422.12
764.785	13335.12
765.122	13273.2
765.458	13299.41
765.795	13390.71
766.131	13409.01
766.467	13410.37
766.804	13381.67
767.14	13397.94
767.476	13446.98
767.812	13409.92
768.148	13417.6
768.485	13427.54
768.821	13388.9
769.157	13463.7
769.492	13409.46
769.828	13498.5
770.164	13382.57
770.5	13412.18
770.836	13526.97
771.171	13434.77
771.507	13444.27
771.842	13361.1
772.178	13477.26
772.513	13482.46
772.849	13518.61
773.184	13486.75
773.519	13456.24
773.855	13486.52
774.19	13444.72
774.525	13451.27
774.86	13564.49
775.195	13436.36
775.53	13460.76
775.865	13469.58
776.2	13397.94
776.535	13338.96
776.87	13384.61
777.205	13301.67
777.539	13354.1
777.874	13443.81
778.209	13303.25
778.543	13353.65
778.878	13201.56
779.212	13305.51
779.547	13307.32
779.881	13399.29
780.215	13268.22
780.55	13390.03
780.884	13357.04
781.218	13295.57
781.552	13295.57
781.886	13249.02
782.22	13304.38
782.554	13349.58
782.888	13150.49
783.222	13215.57
783.556	13153.65
783.889	13139.41
784.223	13207.44
784.557	13133.31
784.89	13139.41
785.224	13067.33
785.557	13112.3
785.891	13155.01
786.224	13194.78
786.558	13043.37
786.891	13048.57
787.224	13027.33
787.557	13053.09
787.891	13068.23
788.224	13020.55
788.557	13045.86
788.89	12949.36
789.223	12997.27
789.556	12936.03
789.888	13010.15
790.221	12916.82
790.554	12922.02
790.887	12956.37
791.219	12903.04
791.552	12816.94
791.884	12897.84
792.217	12970.15
792.549	12877.5
792.882	12835.69
793.214	12802.25
793.546	12797.05
793.879	12734.91
794.211	12808.58
794.543	12852.42
794.875	12756.6
795.207	12818.97
795.539	12745.07
795.871	12750.05
796.203	12771.29
796.535	12748.46
796.867	12714.34
797.198	12676.6
797.53	12632.99
797.862	12548.02
798.193	12633.44
798.525	12559.54
798.856	12559.09
799.188	12514.8
799.519	12469.15
799.85	12469.38
800.182	12526.55
800.513	12447.46
800.844	12407.46
801.175	12487
801.506	12496.49
801.837	12396.38
802.168	12435.03
802.499	12459.43
802.83	12360.23
803.161	12362.94
803.491	12298.31
803.822	12413.56
804.153	12262.38
804.483	12226.9
804.814	12147.35
805.145	12194.13
805.475	12169.04
805.805	12145.99
806.136	12260.34
806.466	12195.26
806.796	12188.7
807.126	12043.85
807.457	12038.65
807.787	12048.6
808.117	12029.61
808.447	12136.05
808.777	12091.31
809.107	12004.53
809.436	11961.37
809.766	12011.99
810.096	11969.95
810.426	11958.88
810.755	11870.3
811.085	11942.84
811.414	11920.92
811.744	11754.82
812.073	11826.23
812.403	11786.91
812.732	11767.02
813.061	11800.47
813.39	11707.59
813.719	11668.94
814.049	11792.56
814.378	11725.89
814.707	11715.27
815.036	11660.81
815.365	11658.78
815.693	11543.98
816.022	11562.51
816.351	11581.04
816.68	11553.02
817.008	11557.99
817.337	11494.71
817.665	11460.81
817.994	11550.3
818.322	11449.29
818.651	11404.54
818.979	11346.92
819.307	11395.51
819.636	11416.52
819.964	11354.38
820.292	11438.44
820.62	11377.2
820.948	11377.88
821.276	11455.39
821.604	11370.87
821.932	11341.5
822.259	11459.91
822.587	11393.47
822.915	11438.44
823.243	11355.51
823.57	11393.25
823.898	11430.76
824.225	11385.11
824.553	11498.1
824.88	11497.2
825.207	11525.22
825.535	11457.2
825.862	11470.31
826.189	11481.38
826.516	11500.81
826.843	11579.68
827.17	11557.54
827.497	11637.31
827.824	11569.96
828.151	11574.48
828.478	11552.11
828.805	11569.96
829.131	11595.5
829.458	11525.22
829.785	11424.88
830.111	11486.58
830.438	11581.26
830.764	11515.5
831.09	11573.13
831.417	11520.02
831.743	11572.22
832.069	11583.98
832.395	11562.28
832.722	11578.78
833.048	11535.39
833.374	11596.18
833.7	11481.6
834.026	11480.47
834.351	11534.94
834.677	11509.85
835.003	11610.42
835.329	11484.77
835.654	11520.47
835.98	11478.22
836.306	11456.29
836.631	11427.82
836.956	11524.32
837.282	11503.07
837.607	11377.88
837.932	11401.16
838.258	11426.92
838.583	11368.16
838.908	11334.72
839.233	11318.22
839.558	11370.42
839.883	11305.34
840.208	11299.46
840.533	11327.71
840.858	11320.03
841.182	11310.31
841.507	11213.14
841.832	11228.5
842.156	11194.15
842.481	11105.8
842.805	11142.18
843.13	11143.99
843.454	11162.74
843.778	11087.72
844.103	11022.63
844.427	11027.38
844.751	11105.12
845.075	11032.35
845.399	10991.22
845.723	10930.21
846.047	10905.57
846.371	10927.5
846.695	10959.81
847.019	10799.36
847.343	10805.92
847.666	10723.66
847.99	10802.3
848.313	10663.77
848.637	10638.24
848.96	10588.07
849.284	10535.87
849.607	10552.82
849.931	10485.25
850.254	10375.87
850.577	10377.68
850.9	10326.83
851.223	10323.22
851.546	10216.1
851.869	10176.33
852.192	10264.91
852.515	10151.24
852.838	10063.56
853.161	10082.32
853.483	10099.27
853.806	10038.93
854.129	10038.7
854.451	9990.34
854.774	9894.3
855.096	9860.4
855.419	9934.07
855.741	9781.54
856.063	9789.67
856.385	9792.38
856.708	9728.2
857.03	9744.25
857.352	9731.82
857.674	9631.71
857.996	9638.94
858.318	9595.1
858.64	9567.98
858.961	9561.88
859.283	9530.24
859.605	9486.18
859.926	9506.52
860.248	9539.28
860.57	9428.1
860.891	9446.4
861.212	9419.29
861.534	9368.89
861.855	9373.41
862.176	9454.09
862.498	9420.19
862.819	9374.99
863.14	9337.93
863.461	9354.66
863.782	9331.83
864.103	9272.4
864.424	9285.28
864.745	9280.08
865.065	9202.57
865.386	9174.32
865.707	9165.96
866.027	9213.19
866.348	9155.34
866.668	9214.77
866.989	9149.46
867.309	9128.45
867.63	9196.92
867.95	9133.87
868.27	9087.54
868.59	9079.63
868.91	9036.47
869.23	9008.22
869.55	9069.01
869.87	9045.06
870.19	9054.32
870.51	9062.46
870.83	8982.24
871.15	8932.75
871.469	8977.72
871.789	8993.53
872.109	8956.93
872.428	8870.6
872.748	8921.67
873.067	8951.05
873.386	8961.22
873.706	8874.89
874.025	8828.34
874.344	8856.59
874.663	8911.28
874.982	8777.04
875.301	8865.63
875.62	8783.37
875.939	8791.05
876.258	8762.13
876.577	8777.04
876.896	8732.52
877.214	8739.3
877.533	8763.94
877.852	8695.92
878.17	8752.86
878.489	8701.11
878.807	8708.57
879.125	8711.96
879.444	8609.14
879.762	8692.75
880.08	8647.1
880.398	8593.09
880.716	8570.95
881.034	8551.51
881.352	8567.78
881.67	8512.19
881.988	8529.37
882.306	8535.02
882.624	8414.34
882.941	8474.45
883.259	8435.58
883.577	8418.86
883.894	8440.33
884.212	8382.93
884.529	8375.92
884.846	8354.23
885.164	8402.59
885.481	8328.02
885.798	8336.6
886.115	8249.6
886.432	8261.35
886.75	8212.76
887.067	8224.74
887.383	8245.08
887.7	8284.85
888.017	8214.35
888.334	8113.78
888.651	8128.25
888.967	8163.05
889.284	8121.69
889.6	8070.17
889.917	8014.58
890.233	8002.6
890.55	8008.48
890.866	8002.37
891.182	7997.4
891.498	7938.42
891.815	7897.52
892.131	7944.07
892.447	7862.49
892.763	7862.94
893.079	7793.57
893.395	7781.82
893.71	7788.82
894.026	7717.86
894.342	7725.09
894.657	7690.07
894.973	7683.96
895.289	7699.11
895.604	7713.57
895.92	7602.38
896.235	7624.08
896.55	7563.06
896.865	7550.41
897.181	7510.64
897.496	7499.79
897.811	7432.22
898.126	7470.86
898.441	7402.39
898.756	7392.9
899.071	7354.48
899.386	7352.67
899.7	7276.07
900.015	7298.89
900.33	7236.74
900.644	7233.81
900.959	7310.87
901.273	7263.41
901.588	7161.72
901.902	7105.9
902.216	7107.93
902.531	7078.33
902.845	7030.65
903.159	6984.32
903.473	6972.57
903.787	6998.33
904.101	6941.39
904.415	6943.19
904.729	6849.41
905.042	6868.62
905.356	6904.55
905.67	6860.48
905.984	6849.41
906.297	6804.44
906.611	6749.07
906.924	6734.39
907.237	6708.85
907.551	6731
907.864	6660.94
908.177	6690.54
908.491	6634.27
908.804	6582.3
909.117	6558.57
909.43	6509.53
909.743	6524.9
910.056	6483.32
910.368	6458.69
910.681	6410.55
910.994	6428.4
911.307	6415.75
911.619	6319.25
911.932	6340.72
912.244	6278.13
912.557	6335.07
912.869	6266.37
913.181	6214.4
913.494	6208.52
913.806	6146.15
914.118	6154.74
914.43	6116.55
914.742	6106.83
915.054	6047.62
915.366	6079.94
915.678	6054.63
915.99	6039.71
916.302	5967.85
916.613	5972.82
916.925	5939.6
917.236	5930.11
917.548	5872.03
917.859	5824.35
918.171	5827.29
918.482	5793.84
918.794	5792.04
919.105	5786.39
919.416	5784.81
919.727	5718.14
920.038	5755.43
920.349	5653.28
920.66	5620.74
920.971	5652.83
921.282	5570.35
921.593	5543.46
921.903	5583.23
922.214	5573.74
922.525	5529.67
922.835	5502.1
923.146	5449.45
923.456	5452.61
923.767	5439.73
924.077	5458.26
924.387	5394.31
924.697	5382.1
925.008	5366.51
925.318	5271.37
925.628	5319.96
925.938	5320.41
926.248	5234.76
926.558	5200.19
926.867	5216.46
927.177	5227.53
927.487	5154.09
927.796	5097.82
928.106	5159.96
928.416	5068.89
928.725	5129.46
929.034	5076.8
929.344	5065.95
929.653	5027.54
929.962	5019.63
930.271	5005.84
930.581	4966.75
930.89	4939.4
931.199	4858.28
931.508	4897.37
931.817	4881.78
932.125	4846.53
932.434	4836.36
932.743	4830.71
933.051	4786.41
933.36	4770.14
933.669	4766.08
933.977	4753.87
934.286	4709.13
934.594	4712.07
934.902	4677.26
935.21	4627.55
935.519	4658.96
935.827	4617.38
936.135	4579.19
936.443	4503.26
936.751	4548
937.059	4574.89
937.367	4506.87
937.674	4452.19
937.982	4463.48
938.29	4454.9
938.597	4443.15
938.905	4420.32
939.213	4435.69
939.52	4378.74
939.827	4396.82
940.135	4346.43
940.442	4332.19
940.749	4307.78
941.056	4322.25
941.363	4302.58
941.67	4206.77
941.977	4237.5
942.284	4190.95
942.591	4227.56
942.898	4209.71
943.205	4211.29
943.511	4181.46
943.818	4166.99
944.125	4123.83
944.431	4106.21
944.738	4106.43
945.044	4088.58
945.35	4041.12
945.657	4057.62
945.963	4011.07
946.269	4026.43
946.575	4018.52
946.881	3933.33
947.187	3944.4
947.493	3958.86
947.799	3918.41
948.105	3881.8
948.41	3872.31
948.716	3875.03
949.022	3829.15
949.327	3842.71
949.633	3796.84
949.938	3792.99
950.244	3794.8
950.549	3807.68
950.854	3768.36
951.16	3786.44
951.465	3720.23
951.77	3717.97
952.075	3712.09
952.38	3689.95
952.685	3694.24
952.99	3636.84
953.294	3637.74
953.599	3604.98
953.904	3578.54
954.209	3582.83
954.513	3574.69
954.818	3557.29
955.122	3534.24
955.426	3496.96
955.731	3511.64
956.035	3500.8
956.339	3517.75
956.643	3478.43
956.948	3424.19
957.252	3442.27
957.556	3440.23
957.86	3400.01
958.163	3409.95
958.467	3362.04
958.771	3411.31
959.075	3308.49
959.378	3316.4
959.682	3322.27
959.985	3318.66
960.289	3292.89
960.592	3245.66
960.896	3262.16
961.199	3285.44
961.502	3251.99
961.805	3248.6
962.108	3180.58
962.411	3209.51
962.714	3154.82
963.017	3188.72
963.32	3171.31
963.623	3126.12
963.926	3141.71
964.228	3136.97
964.531	3087.25
964.833	3089.96
965.136	3076.63
965.438	3076.63
965.741	3051.54
966.043	3047.7
966.345	3036.86
966.648	2995.95
966.95	3052.22
967.252	3012.68
967.554	2963.64
967.856	3002.28
968.158	2918.44
968.46	2936.52
968.761	2906.24
969.063	2911.21
969.365	2915.5
969.666	2887.71
969.968	2892.9
970.269	2845.45
970.571	2814.94
970.872	2847.93
971.174	2872.34
971.475	2827.37
971.776	2822.4
972.077	2766.81
972.378	2802.74
972.679	2758.9
972.98	2768.39
973.281	2755.73
973.582	2749.86
973.883	2714.83
974.183	2696.3
974.484	2690.42
974.785	2685
975.085	2687.03
975.386	2697.66
975.686	2640.03
975.986	2642.06
976.287	2655.4
976.587	2628.5
976.887	2626.92
977.187	2612.01
977.487	2572.01
977.787	2566.13
978.087	2593.25
978.387	2539.02
978.687	2548.96
978.987	2535.85
979.286	2520.03
979.586	2508.73
979.885	2503.99
980.185	2490.43
980.484	2478.9
980.784	2464.44
981.083	2469.41
981.382	2464.67
981.682	2451.33
981.981	2469.64
982.28	2427.38
982.579	2385.8
982.878	2373.6
983.177	2408.4
983.475	2369.08
983.774	2369.3
984.073	2375.18
984.372	2321.17
984.67	2358.23
984.969	2315.97
985.267	2321.39
985.566	2304.22
985.864	2295.63
986.162	2299.7
986.461	2288.63
986.759	2261.51
987.057	2245.46
987.355	2261.06
987.653	2255.63
987.951	2234.84
988.249	2245.92
988.547	2187.84
988.844	2243.88
989.142	2188.97
989.44	2169.31
989.737	2157.78
990.035	2200.27
990.332	2148.06
990.63	2160.27
990.927	2123.88
991.224	2143.55
991.521	2107.61
991.819	2110.55
992.116	2115.98
992.413	2091.8
992.71	2068.75
993.006	2062.64
993.303	2045.02
993.6	2059.71
993.897	2089.08
994.193	2039.82
994.49	2019.25
994.787	2026.94
995.083	1981.97
995.379	2011.8
995.676	1991.01
995.972	1978.8
996.268	1961.4
996.565	1969.31
996.861	1934.96
997.157	1974.06
997.453	1917.79
997.749	1912.82
998.044	1881.86
998.34	1896.77
998.636	1892.48
998.932	1871.69
999.227	1861.52
999.523	1875.76
999.818	1840.73
1000.114	1856.32
1000.409	1842.08
1000.704	1830.33
1001	1827.62
1001.295	1784.68
1001.59	1833.72
1001.885	1805.93
1002.18	1779.71
1002.475	1777.23
1002.77	1781.97
1003.065	1740.62
1003.359	1743.78
1003.654	1713.05
1003.949	1713.05
1004.243	1744.69
1004.538	1686.83
1004.832	1718.25
1005.127	1682.77
1005.421	1678.47
1005.715	1689.09
1006.009	1634.86
1006.304	1636.44
1006.598	1626.5
1006.892	1615.65
1007.186	1651.13
1007.48	1625.14
1007.773	1602.77
1008.067	1595.76
1008.361	1573.84
1008.655	1614.07
1008.948	1560.28
1009.242	1544.01
1009.535	1584.46
1009.829	1552.15
1010.122	1502.66
1010.415	1521.87
1010.708	1530.91
1011.001	1506.05
1011.295	1499.49
1011.588	1505.6
1011.881	1488.2
1012.173	1486.39
1012.466	1447.29
1012.759	1485.26
1013.052	1466.05
1013.344	1451.13
1013.637	1448.87
1013.93	1423.79
1014.222	1439.84
1014.514	1407.75
1014.807	1395.09
1015.099	1396.67
1015.391	1385.15
1015.683	1380.85
1015.976	1382.89
1016.268	1373.62
1016.56	1348.99
1016.851	1364.81
1017.143	1335.21
1017.435	1345.83
1017.727	1335.43
1018.018	1315.32
1018.31	1261.31
1018.602	1308.09
1018.893	1311.7
1019.185	1266.28
1019.476	1290.91
1019.767	1282.1
1020.058	1276.68
1020.35	1255.89
1020.641	1237.58
1020.932	1242.1
1021.223	1242.78
1021.514	1243.23
1021.804	1202.33
1022.095	1225.6
1022.386	1212.04
1022.677	1189.9
1022.967	1198.94
1023.258	1183.8
1023.548	1170.69
1023.839	1177.47
1024.129	1149.9
1024.419	1129.11
1024.709	1118.26
1025	1139.73
1025.29	1144.48
1025.58	1133.63
1025.87	1144.02
1026.16	1107.64
1026.449	1116
1026.739	1108.09
1027.029	1085.49
1027.319	1079.17
1027.608	1086.17
1027.898	1072.84
1028.187	1075.78
1028.477	1042.78
1028.766	1074.42
1029.055	1019.06
1029.344	1027.87
1029.634	1014.08
1029.923	1047.98
1030.212	1008.66
1030.501	1023.8
1030.79	1007.53
1031.078	1012.05
1031.367	1022.22
1031.656	1009.34
1031.945	976.8
1032.233	970.24
1032.522	970.24
1032.81	979.06
1033.099	970.24
1033.387	970.02
1033.675	947.64
1033.963	936.8
1034.251	943.8
1034.54	930.47
1034.828	928.89
1035.116	899.28
1035.403	923.69
1035.691	928.44
1035.979	901.09
1036.267	933.86
1036.554	896.12
1036.842	872.62
1037.129	865.84
1037.417	875.33
1037.704	861.32
1037.992	868.78
1038.279	839.85
1038.566	828.55
1038.853	828.55
1039.14	828.55
