Data from blue_shiny_book_FLMS001491_00063.txt Node
Date: Wed Feb 08 15:27:21 GMT 2017
User: dcchb
Spectrometer: FLMS00149
Trigger mode: 0
Integration Time (sec): 2.000000E-2
Scans to average: 10
Electric dark correction enabled: true
Nonlinearity correction enabled: false
Boxcar width: 0
XAxis mode: Wavelengths
Number of Pixels in Spectrum: 2048
>>>>>Begin Spectral Data<<<<<
341.393	-23.76
341.776	-23.76
342.16	-23.76
342.543	-57.88
342.927	-68.73
343.31	-59.69
343.693	-58.33
344.077	-75.28
344.46	-39.35
344.843	-29.86
345.226	-34.15
345.61	-35.51
345.993	-31.21
346.376	11.72
346.759	-4.32
347.142	12.17
347.525	31.16
347.908	49.91
348.291	57.15
348.674	98.73
349.057	106.86
349.44	138.95
349.823	142.11
350.206	165.62
350.588	193.19
350.971	191.15
351.354	244.71
351.737	253.75
352.119	270.93
352.502	288.78
352.884	279.51
353.267	290.36
353.65	280.87
354.032	301.43
354.414	307.08
354.797	299.17
355.179	338.72
355.562	327.42
355.944	339.62
356.326	352.73
356.709	337.59
357.091	335.33
357.473	354.54
357.855	348.66
358.238	335.56
358.62	364.03
359.002	344.14
359.384	368.78
359.766	341.88
360.148	356.35
360.53	322.22
360.912	350.7
361.294	345.5
361.676	343.69
362.057	327.65
362.439	357.02
362.821	335.1
363.203	344.37
363.584	357.02
363.966	341.43
364.348	326.74
364.729	357.7
365.111	350.7
365.493	319.96
365.874	317.93
366.256	331.71
366.637	349.79
367.019	326.97
367.4	340.53
367.781	308.66
368.163	327.42
368.544	332.39
368.925	326.97
369.306	333.97
369.688	340.98
370.069	340.3
370.45	326.06
370.831	350.7
371.212	346.4
371.593	356.35
371.974	354.09
372.355	327.87
372.736	342.34
373.117	353.41
373.498	358.38
373.879	340.08
374.26	363.58
374.641	354.09
375.021	356.8
375.402	354.09
375.783	352.5
376.163	373.07
376.544	371.71
376.925	358.61
377.305	355.67
377.686	379.17
378.066	361.77
378.447	365.61
378.827	364.71
379.208	382.79
379.588	368.32
379.968	374.88
380.349	372.84
380.729	417.36
381.109	379.85
381.489	396.35
381.87	401.32
382.25	403.35
382.63	408.55
383.01	408.55
383.39	401.54
383.77	397.02
384.15	407.64
384.53	415.1
384.91	427.76
385.29	417.59
385.67	446.97
386.049	446.06
386.429	412.84
386.809	428.21
387.189	410.13
387.568	429.34
387.948	446.74
388.328	439.28
388.707	469.79
389.087	459.62
389.466	457.13
389.846	455.78
390.225	469.11
390.605	470.24
390.984	472.95
391.363	480.19
391.743	503.69
392.122	512.05
392.501	509.11
392.881	517.7
393.26	503.69
393.639	541.2
394.018	537.81
394.397	542.33
394.776	524.25
395.155	532.39
395.534	536.91
395.913	530.13
396.292	565.15
396.671	584.82
397.05	574.42
397.429	555.44
397.808	577.58
398.186	570.58
398.565	563.8
398.944	600.41
399.323	599.5
399.701	606.51
400.08	609
400.458	644.93
400.837	623.91
401.215	634.76
401.594	628.66
401.972	659.16
402.351	641.31
402.729	632.27
403.107	653.51
403.486	686.73
403.864	653.74
404.242	672.72
404.62	661.65
404.999	708.43
405.377	702.55
405.755	713.17
406.133	719.73
406.511	731.7
406.889	758.82
407.267	738.94
407.645	730.12
408.023	760.63
408.401	794.75
408.779	808.54
409.156	813.06
409.534	806.96
409.912	837.69
410.29	832.72
410.667	846.05
411.045	879.27
411.422	892.15
411.8	897.12
412.178	854.64
412.555	932.38
412.933	928.76
413.31	952.04
413.687	936.67
414.065	983.67
414.442	988.19
414.819	995.2
415.197	986.39
415.574	1021.87
415.951	1014.18
416.328	1052.37
416.705	1049.44
417.082	1092.37
417.46	1076.33
417.837	1100.28
418.214	1113.16
418.591	1137.57
418.967	1116.78
419.344	1119.72
419.721	1150.68
420.098	1163.56
420.475	1190
420.852	1197.45
421.228	1199.71
421.605	1227.51
421.982	1228.41
422.358	1252.82
422.735	1264.8
423.111	1260.05
423.488	1310.9
423.864	1278.13
424.241	1307.73
424.617	1339.37
424.994	1346.15
425.37	1373.72
425.746	1387.73
426.123	1420.95
426.499	1440.16
426.875	1441.29
427.251	1484.23
427.627	1507.28
428.003	1531.91
428.379	1551.57
428.756	1566.03
429.132	1571.46
429.507	1620.04
429.883	1646.26
430.259	1647.39
430.635	1685.8
431.011	1699.36
431.387	1723.54
431.763	1748.63
432.138	1777.1
432.514	1781.62
432.89	1814.39
433.265	1846.25
433.641	1897.1
434.016	1914.27
434.392	1928.96
434.767	1983.42
435.143	2021.61
435.518	1999.69
435.894	2069.97
436.269	2056.41
436.644	2113.59
437.02	2100.48
437.395	2107.03
437.77	2124.66
438.145	2191.55
438.52	2181.84
438.895	2240.82
439.271	2231.33
439.646	2308.16
440.021	2357.65
440.395	2351.77
440.77	2366.92
441.145	2381.83
441.52	2432.22
441.895	2473.13
442.27	2450.3
442.645	2448.04
443.019	2478.78
443.394	2536.85
443.769	2560.81
444.143	2524.65
444.518	2597.64
444.892	2602.16
445.267	2635.83
445.641	2684.42
446.016	2691.43
446.39	2697.75
446.764	2719.45
447.139	2718.32
447.513	2761.71
447.887	2737.07
448.262	2806.68
448.636	2788.6
449.01	2843.51
449.384	2878.99
449.758	2886
450.132	2972.32
450.506	2964.87
450.88	3006.67
451.254	3026.78
451.628	3087.35
452.002	3095.48
452.376	3131.19
452.75	3143.39
453.123	3201.7
453.497	3205.99
453.871	3243.05
454.244	3316.04
454.618	3341.13
454.992	3447.56
455.365	3415.93
455.739	3519.43
456.112	3545.42
456.486	3629.71
456.859	3667.22
457.232	3748.12
457.606	3727.11
457.979	3749.03
458.352	3825.63
458.725	3873.99
459.099	3953.54
459.472	3984.05
459.845	4010.94
460.218	4063.59
460.591	4107.66
460.964	4130.26
461.337	4277.15
461.71	4333.42
462.083	4436.01
462.456	4466.07
462.829	4415.45
463.201	4593.75
463.574	4532.06
463.947	4607.31
464.32	4702.67
464.692	4746.74
465.065	4778.38
465.438	4926.85
465.81	4929.56
466.183	4981.76
466.555	5095.43
466.928	5184.69
467.3	5151.93
467.672	5333.62
468.045	5380.4
468.417	5465.14
468.789	5490
469.161	5552.59
469.534	5617.45
469.906	5739.93
470.278	5758.01
470.65	5844.11
471.022	5972.24
471.394	6084.11
471.766	6123.43
472.138	6271.45
472.51	6445.23
472.882	6454.27
473.253	6515.96
473.625	6686.58
473.997	6832.33
474.369	6841.6
474.74	7008.38
475.112	7064.19
475.484	7185.77
475.855	7288.14
476.227	7374.02
476.598	7495.14
476.97	7635.7
477.341	7784.4
477.713	7889.26
478.084	8008.57
478.455	8243.82
478.827	8265.07
479.198	8658.5
479.569	8659.63
479.94	8837.03
480.311	8982.11
480.682	9096.91
481.053	9256
481.424	9473.39
481.795	9517.24
482.166	9689.21
482.537	9863.22
482.908	10098.92
483.279	10165.35
483.65	10370.77
484.021	10662.97
484.391	10768.5
484.762	10823.19
485.133	10948.16
485.503	11076.06
485.874	11382.05
486.244	11518.54
486.615	11716.27
486.985	11853.67
487.356	12059.99
487.726	12167.11
488.097	12432.19
488.467	12437.84
488.837	12850.26
489.207	12972.51
489.578	13080.08
489.948	13281.2
490.318	13475.32
490.688	13534.08
491.058	13768.88
491.428	14024.01
491.798	14187.4
492.168	14394.4
492.538	14555.07
492.908	14607.72
493.278	14827.38
493.648	14894.04
494.017	15114.6
494.387	15273.47
494.757	15413.35
495.126	15576.51
495.496	15749.39
495.866	15889.72
496.235	16020.57
496.605	16249.71
496.974	16282.93
497.344	16547.33
497.713	16605.86
498.082	16726.76
498.452	16956.81
498.821	16986.64
499.19	17080.43
499.559	17336.24
499.928	17374.43
500.298	17567.19
500.667	17642.67
501.036	17751.14
501.405	17827.53
501.774	17999.27
502.143	18146.84
502.512	18357.68
502.88	18499.6
503.249	18581.86
503.618	18636.54
503.987	18731.46
504.356	18991.56
504.724	19046.48
505.093	19185.68
505.462	19245.57
505.83	19333.93
506.199	19469.97
506.567	19787.7
506.936	19787.02
507.304	20107.01
507.672	20190.63
508.041	20292.09
508.409	20474.69
508.777	20669.48
509.145	20822.48
509.514	20877.84
509.882	21032.41
510.25	20967.1
510.618	21275.12
510.986	21265.18
511.354	21498.62
511.722	21664.71
512.09	21818.38
512.458	21835.78
512.826	22058.83
513.193	22199.39
513.561	22316.9
513.929	22506.27
514.297	22804.57
514.664	22838.69
515.032	23074.17
515.4	23282.98
515.767	23428.51
516.135	23531.56
516.502	23514.38
516.869	23913.02
517.237	23919.34
517.604	23932.22
517.972	24118.43
518.339	24364.75
518.706	24355.72
519.073	24543.28
519.44	24813.1
519.808	25050.39
520.175	25025.08
520.542	25335.12
520.909	25569.69
521.276	25646.53
521.643	25959.52
522.009	26162.22
522.376	26212.84
522.743	26453.51
523.11	26722.88
523.477	27026.15
523.843	27053.05
524.21	27398.35
524.577	27668.17
524.943	27661.39
525.31	27865.23
525.676	27977.09
526.043	28246.46
526.409	28373.01
526.776	28588.82
527.142	28768.71
527.508	28889.38
527.874	29408.24
528.241	29448.91
528.607	29595.8
528.973	29978.17
529.339	29979.07
529.705	30337.25
530.071	30575.66
530.437	30675.55
530.803	30792.16
531.169	30969.55
531.535	30966.39
531.901	31127.74
532.267	31263.78
532.632	31374.06
532.998	31383.33
533.364	31697.9
533.73	31734.73
534.095	31943.99
534.461	32110.77
534.826	32305.56
535.192	32486.35
535.557	32768.38
535.923	32800.69
536.288	33077.29
536.653	33247.23
537.019	33131.53
537.384	33424.4
537.749	33613.55
538.114	33536.49
538.479	33521.58
538.845	33727.9
539.21	33654.23
539.575	33871.17
539.94	33943.94
540.305	34117.27
540.67	34013.77
541.034	34101.67
541.399	34306.41
541.764	34376.69
542.129	34373.31
542.494	34608.78
542.858	34741.43
543.223	35015.77
543.587	35295.09
543.952	35269.1
544.316	35428.19
544.681	35475.65
545.045	35580.73
545.41	35844.68
545.774	35816.43
546.138	35800.84
546.503	35823.89
546.867	35787.73
547.231	36157.67
547.595	36051.91
547.959	36072.47
548.324	36281.5
548.688	36053.26
549.052	36250.54
549.416	36294.61
549.779	36438.11
550.143	36499.58
550.507	36821.83
550.871	36890.08
551.235	36860.02
551.599	37334.58
551.962	37438.54
552.326	37689.38
552.689	37840.33
553.053	37707.91
553.417	37650.06
553.78	38165.52
554.143	37803.95
554.507	38034
554.87	38073.09
555.234	38316.25
555.597	38102.02
555.96	38198.52
556.323	38372.97
556.686	38311.05
557.05	38605.28
557.413	38743.13
557.776	38707.2
558.139	39095.21
558.502	39013.64
558.865	39265.61
559.228	39597.57
559.59	39719.15
559.953	39855.65
560.316	40164.57
560.679	40349.42
561.041	40546.48
561.404	40678.45
561.767	40801.61
562.129	40744.66
562.492	40953.47
562.854	41067.37
563.217	40951.66
563.579	41055.16
563.941	41219.23
564.304	41162.28
564.666	41395.04
565.028	41472.1
565.39	41451.31
565.753	41680.68
566.115	41853.11
566.477	42036.38
566.839	42125.42
567.201	42522.24
567.563	42622.81
567.925	42980.54
568.287	43076.35
568.648	43178.5
569.01	43631.37
569.372	43734.19
569.734	43555.89
570.095	43865.94
570.457	44001.98
570.819	44004.46
571.18	43866.16
571.542	44246.72
571.903	44154.52
572.265	44128.3
572.626	44252.59
572.987	44214.85
573.349	44222.54
573.71	44254.85
574.071	44467.28
574.432	44628.4
574.794	44789.08
575.155	44713.82
575.516	44651.91
575.877	44969.41
576.238	45169.18
576.599	45482.17
576.96	45427.7
577.32	45658.88
577.681	45867.47
578.042	46035.15
578.403	46045.77
578.763	46215.25
579.124	46161.92
579.485	46325.99
579.845	46394.46
580.206	46256.61
580.566	46234.46
580.927	46208.02
581.287	46235.14
581.648	46100.23
582.008	46278.98
582.368	46130.06
582.728	46069.95
583.089	46138.87
583.449	46074.01
583.809	46220.9
584.169	46368.92
584.529	46283.27
584.889	46575.24
585.249	46474.23
585.609	46477.85
585.969	46899.3
586.329	46854.11
586.688	46906.76
587.048	47067.21
587.408	46899.3
587.768	47059.53
588.127	47182.46
588.487	46923.48
588.846	47172.97
589.206	46885.97
589.565	46845.07
589.925	46935.01
590.284	46726.43
590.643	46621.8
591.003	46750.61
591.362	46814.79
591.721	46662.02
592.08	46659.76
592.44	46731.17
592.799	46704.05
593.158	46686.43
593.517	46717.39
593.876	46880.32
594.235	46777.5
594.593	47011.84
594.952	47065.85
595.311	47089.58
595.67	47231.05
596.029	47526.63
596.387	47619.96
596.746	47640.53
597.104	47529.8
597.463	47517.82
597.822	47736.57
598.18	47618.83
598.538	47462
598.897	47787.87
599.255	47334.32
599.613	47851.14
599.972	47546.97
600.33	47431.72
600.688	47287.54
601.046	47353.53
601.404	47362.79
601.762	47151.95
602.12	47463.58
602.478	47423.36
602.836	47482.11
603.194	47380.87
603.552	47514.43
603.91	47500.19
604.268	47747.42
604.625	47629.68
604.983	47762.11
605.341	47661.77
605.698	47972.5
606.056	48092.94
606.413	48121.19
606.771	48253.17
607.128	48388.76
607.485	48206.39
607.843	48443.22
608.2	48654.96
608.557	48526.83
608.914	48393.05
609.272	48466.04
609.629	48458.58
609.986	48486.38
610.343	48342.43
610.7	48426.27
611.057	48244.35
611.414	48318.25
611.771	48399.38
612.127	48370.9
612.484	48349.21
612.841	48494.52
613.198	48362.99
613.554	48451.13
613.911	48785.81
614.267	48697.9
614.624	48862.64
614.98	49001.62
615.337	49174.72
615.693	49215.4
616.05	49090.43
616.406	49325.91
616.762	49255.4
617.118	49334.49
617.475	49496.75
617.831	49462.63
618.187	49572.45
618.543	49571.1
618.899	49704.43
619.255	49596.41
619.611	49612.23
619.967	49416.3
620.323	49423.3
620.678	49279.58
621.034	49242.97
621.39	49158.45
621.746	49149.41
622.101	49421.72
622.457	49128.62
622.812	49200.03
623.168	49324.1
623.523	49161.16
623.879	49416.98
624.234	49123.2
624.589	49520.48
624.945	49585.33
625.3	49529.74
625.655	49479.35
626.01	49601.83
626.365	49641.15
626.72	49686.57
627.075	49775.61
627.43	49930.18
627.785	49846.8
628.14	49913.91
628.495	49994.82
628.85	49784.43
629.205	49698.78
629.559	49837.53
629.914	49578.78
630.269	49483.64
630.623	49456.52
630.978	49282.52
631.332	49497.2
631.687	49450.65
632.041	49172.46
632.396	49317.77
632.75	48946.03
633.104	49006.14
633.459	48726.6
633.813	48775.64
634.167	48878.23
634.521	48828.07
634.875	48765.24
635.229	48760.72
635.583	48532.93
635.937	48751.46
636.291	48798.91
636.645	48847.73
636.999	48691.35
637.352	48922.3
637.706	48739.71
638.06	49006.82
638.413	48956.65
638.767	48916.65
639.121	48771.8
639.474	48668.3
639.828	48710.56
640.181	48764.57
640.534	48664
640.888	48431.92
641.241	48348.76
641.594	48319.83
641.947	48365.03
642.301	48183.56
642.654	48136.79
643.007	48108.76
643.36	48065.37
643.713	47714.42
644.066	47848.66
644.419	47776.79
644.771	47619.74
645.124	47423.58
645.477	47497.25
645.83	47238.28
646.182	46974.78
646.535	46441.69
646.888	46338.41
647.24	46144.07
647.593	46283.27
647.945	46164.86
648.298	46150.62
648.65	46092.77
649.002	46028.37
649.355	46361.24
649.707	46403.05
650.059	46827.67
650.411	47379.29
650.763	47474.2
651.115	47757.36
651.467	47519.63
651.819	47575.67
652.171	47438.27
652.523	47297.71
652.875	47190.6
653.227	47120.54
653.578	47359.4
653.93	47210.71
654.282	47002.13
654.633	46799.87
654.985	46728.91
655.337	46578.18
655.688	46590.61
656.039	46827.22
656.391	46300.68
656.742	46564.4
657.094	46413.44
657.445	46534.79
657.796	46597.62
658.147	46564.62
658.498	46469.94
658.849	46615.02
659.2	46459.77
659.551	46492.31
659.902	46792.19
660.253	46826.54
660.604	46869.93
660.955	46621.8
661.306	46958.29
661.656	46682.59
662.007	46830.6
662.358	47000.09
662.708	46856.82
663.059	46901.11
663.409	46537.73
663.76	46847.55
664.11	46662.93
664.461	46609.14
664.811	46606.2
665.161	46481.69
665.511	46363.5
665.862	46406.89
666.212	46592.19
666.562	46362.59
666.912	46297.29
667.262	46259.55
667.612	46258.87
667.962	46179.1
668.312	45973.45
668.662	46124.18
669.011	46149.27
669.361	45974.81
669.711	45944.75
670.06	45747.02
670.41	45886.22
670.76	45873.34
671.109	45961.48
671.459	45809.39
671.808	45767.58
672.157	46044.64
672.507	45887.8
672.856	45863.4
673.205	46024.98
673.554	46103.39
673.904	45996.05
674.253	46321.69
674.602	46088.7
674.951	45567.81
675.3	45213.25
675.649	46039.89
675.998	45967.8
676.346	45722.84
676.695	45829.05
677.044	45652.33
677.393	45617.98
677.741	45584.08
678.09	45288.95
678.438	45166.02
678.787	45101.16
679.135	45100.93
679.484	44705.91
679.832	44984.33
680.181	44569.65
680.529	44828.4
680.877	44411.46
681.225	44479.03
681.573	44541.17
681.922	44357.68
682.27	44234.29
682.618	44258.7
682.966	44048.08
683.314	44201.07
683.661	44117.91
684.009	43857.8
684.357	44073.39
684.705	43928.08
685.053	44041.53
685.4	43943
685.748	43900.96
686.095	43873.39
686.443	43728.99
686.79	43868.87
687.138	43955.65
687.485	44073.39
687.832	43809.44
688.18	43879.27
688.527	43613.29
688.874	43466.85
689.221	43332.17
689.568	43207.2
689.915	43197.03
690.262	43080.19
690.609	43020.08
690.956	42759.53
691.303	42639.3
691.65	42375.13
691.997	42340.1
692.344	41854.01
692.69	41899.89
693.037	41844.3
693.383	41454.02
693.73	41553.46
694.077	41257.64
694.423	41150.3
694.769	40989.4
695.116	40963.19
695.462	40811.1
695.808	40697.88
696.155	40743.08
696.501	40430.32
696.847	40552.13
697.193	40285.47
697.539	40494.5
697.885	40248.86
698.231	40134.28
698.577	40257.67
698.923	40285.01
699.269	40153.72
699.614	40010.45
699.96	40063.55
700.306	39994.85
700.651	39872.6
700.997	39805.7
701.342	39666.27
701.688	39669.66
702.033	39438.26
702.379	39406.17
702.724	39349.9
703.069	39494.07
703.415	38903.58
703.76	38928.44
704.105	38814.77
704.45	38657.49
704.795	38377.72
705.14	38098.63
705.485	38055.24
705.83	37799.2
706.175	37823.84
706.52	37657.06
706.865	37418.42
707.209	37276.96
707.554	37120.58
707.899	37078.32
708.243	36901.83
708.588	36825.67
708.932	36704.32
709.277	36679.46
709.621	36654.6
709.966	36502.97
710.31	36606.92
710.654	36351.56
710.998	36479.69
711.342	36595.62
711.687	36508.62
712.031	36189.75
712.375	36289.19
712.719	36379.58
713.063	36389.52
713.407	36550.65
713.75	36426.81
714.094	36456.64
714.438	36182.98
714.782	36456.19
715.125	36169.64
715.469	36379.58
715.812	36104.11
716.156	35937.11
716.499	36018.91
716.843	35898.01
717.186	35620.73
717.53	35625.25
717.873	35507.29
718.216	35350.91
718.559	35198.59
718.902	34949.34
719.246	35152.04
719.589	35051.71
719.932	34938.94
720.275	34625.5
720.617	34554.32
720.96	34487.65
721.303	34542.34
721.646	34399.07
721.989	34166.31
722.331	34302.12
722.674	34206.76
723.016	34066.65
723.359	34069.36
723.701	34075.46
724.044	33866.43
724.386	33901.68
724.729	33956.82
725.071	33957.27
725.413	34101.22
725.755	34044.5
726.097	34071.62
726.439	33917.72
726.782	33889.48
727.124	34132.18
727.465	33909.36
727.807	34122.24
728.149	33930.83
728.491	33895.13
728.833	34103.26
729.175	34045.63
729.516	34075.69
729.858	33896.03
730.199	34098.51
730.541	33977.38
730.882	33845.18
731.224	34045.18
731.565	33911.62
731.906	33788.24
732.248	33760.44
732.589	33547.79
732.93	33391.64
733.271	33433.89
733.612	33441.13
733.953	33340.79
734.294	33237.29
734.635	33113.45
734.976	33115.03
735.317	32836.4
735.658	32897.19
735.999	32847.92
736.339	32816.96
736.68	32977.41
737.021	32988.48
737.361	32701.48
737.702	32749.17
738.042	32623.29
738.383	32676.17
738.723	32773.57
739.063	32586.23
739.404	32805.66
739.744	32746.91
740.084	32658.77
740.424	32911.2
740.764	32836.17
741.104	32925.43
741.444	32960.91
741.784	32731.54
742.124	33045.2
742.464	32976.73
742.804	32986
743.143	33075.71
743.483	33216.5
743.823	33002.27
744.162	33242.94
744.502	33225.99
744.841	33064.87
745.181	33338.53
745.52	33067.35
745.86	33216.5
746.199	33260.79
746.538	33172.21
746.877	33315.71
747.216	33292.88
747.556	33214.01
747.895	33075.71
748.234	32799.11
748.573	32934.92
748.911	32719.79
749.25	32865.1
749.589	32643.86
749.928	32731.99
750.267	32680.02
750.605	32714.14
750.944	32584.43
751.283	32703.97
751.621	32773.57
751.96	32631.66
752.298	32612.9
752.636	32670.75
752.975	32543.07
753.313	32418.55
753.651	32632.11
753.989	32416.07
754.327	32377.88
754.666	32273.25
755.004	32332.23
755.342	32460.81
755.679	32463.75
756.017	32435.28
756.355	32600.7
756.693	32696.29
757.031	32623.52
757.368	32582.84
757.706	32705.55
758.044	32578.55
758.381	32612
758.719	32655.61
759.056	32682.5
759.394	32708.26
759.731	32686.57
760.068	32777.41
760.405	32650.19
760.743	32622.16
761.08	32765.66
761.417	32685.44
761.754	32750.07
762.091	32595.05
762.428	32463.3
762.765	32449.29
763.102	32549.62
763.438	32431.89
763.775	32281.16
764.112	32375.17
764.449	32341.72
764.785	32025.8
765.122	31850.43
765.458	31855.86
765.795	31713.49
766.131	31788.06
766.467	31596.2
766.804	31428.98
767.14	31395.76
767.476	31441.18
767.812	31178.36
768.148	31495.19
768.485	31185.82
768.821	31028.53
769.157	30835.55
769.492	30748.54
769.828	30827.18
770.164	30579.51
770.5	30595.78
770.836	30529.79
771.171	30473.97
771.507	30304.94
771.842	30391.94
772.178	30273.75
772.513	30402.11
772.849	30252.51
773.184	30030.14
773.519	30109.24
773.855	30065.17
774.19	30057.94
774.525	29912.63
774.86	29889.13
775.195	29783.14
775.53	29822.24
775.865	29641
776.2	29585.63
776.535	29361.01
776.87	29498.41
777.205	29300.9
777.539	29081.69
777.874	29125.31
778.209	29054.8
778.543	28946.1
778.878	28763.51
779.212	28746.56
779.547	28718.99
779.881	28766.9
780.215	28507.7
780.55	28430.18
780.884	28275.16
781.218	28254.14
781.552	28168.72
781.886	27977.77
782.22	27590.66
782.554	27644.22
782.888	27392.47
783.222	27306.6
783.556	27147.96
783.889	27149.99
784.223	26979.15
784.557	26930.56
784.89	26961.75
785.224	26607.63
785.557	26592.27
785.891	26535.09
786.224	26336.91
786.558	26381.88
786.891	26180.53
787.224	26002.45
787.557	26016.01
787.891	25837.26
788.224	25919.97
788.557	25913.64
788.89	25715
789.223	25826.41
789.556	25595.46
789.888	25653.08
790.221	25521.33
790.554	25404.95
790.887	25441.34
791.219	25378.29
791.552	25323.6
791.884	25143.04
792.217	25162.25
792.549	25088.8
792.882	24874.35
793.214	24880
793.546	25065.75
793.879	24899.66
794.211	24647.91
794.543	24752.54
794.875	24665.54
795.207	24630.74
795.539	24537.63
795.871	24480.23
796.203	24163.86
796.535	24272.1
796.867	24121.15
797.198	23995.5
797.53	24034.37
797.862	23859.23
798.193	23793.24
798.525	23692.46
798.856	23683.64
799.188	23450.43
799.519	23372.24
799.85	23146.03
800.182	23122.53
800.513	23208.4
800.844	22967.28
801.175	23175.63
801.506	22980.16
801.837	22797.79
802.168	22742.2
802.499	22708.75
802.83	22724.35
803.161	22592.15
803.491	22507.18
803.822	22508.31
804.153	22302.66
804.483	22122.33
804.814	22059.28
805.145	22097.47
805.475	22073.52
805.805	21923.46
806.136	21998.04
806.466	22008.43
806.796	21892.73
807.126	21641.44
807.457	21591.72
807.787	21705.62
808.117	21676.69
808.447	21468.79
808.777	21669.23
809.107	21487.99
809.436	21399.41
809.766	21416.81
810.096	21443.02
810.426	21361.44
810.755	21389.92
811.085	21322.12
811.414	21245.51
811.744	21206.65
812.073	21036.71
812.403	21026.54
812.732	20956.48
813.061	20965.75
813.39	20895.92
813.719	20932.53
814.049	20937.05
814.378	20856.15
814.707	20711.07
815.036	20784.74
815.365	20592.65
815.693	20386.1
816.022	20487.12
816.351	20416.16
816.68	20257.52
817.008	20290.51
817.337	20118.31
817.665	20069.27
817.994	20062.27
818.322	20065.43
818.651	19883.74
818.979	19809.62
819.307	19985.43
819.636	19837.64
819.964	19674.03
820.292	19731.2
820.62	19672
820.948	19811.2
821.276	19699.34
821.604	19570.76
821.932	19613.24
822.259	19727.59
822.587	19611.89
822.915	19402.63
823.243	19521.27
823.57	19472.45
823.898	19571.43
824.225	19399.91
824.553	19393.13
824.88	19519.91
825.207	19505.67
825.535	19459.57
825.862	19547.48
826.189	19476.75
826.516	19592.9
826.843	19579.34
827.17	19506.13
827.497	19561.49
827.824	19457.99
828.151	19655.95
828.478	19603.52
828.805	19607.82
829.131	19563.53
829.458	19527.14
829.785	19483.98
830.111	19477.2
830.438	19697.53
830.764	19627.03
831.09	19545.22
831.417	19547.03
831.743	19660.47
832.069	19591.55
832.395	19563.53
832.722	19672.9
833.048	19557.2
833.374	19663.41
833.7	19489.4
834.026	19560.59
834.351	19618.21
834.677	19648.27
835.003	19519.91
835.329	19552.45
835.654	19490.31
835.98	19382.06
836.306	19421.38
836.631	19265.68
836.956	19311.78
837.282	19263.87
837.607	19193.37
837.932	19134.84
838.258	19005.57
838.583	18890.1
838.908	18805.58
839.233	18912.92
839.558	18898.01
839.883	18794.51
840.208	18661.85
840.533	18729.2
840.858	18752.7
841.182	18694.62
841.507	18759.48
841.832	18455.98
842.156	18545.25
842.481	18395.42
842.805	18420.28
843.13	18384.8
843.454	18207.63
843.778	18215.31
844.103	18224.13
844.427	18152.26
844.751	18125.37
845.075	18110.23
845.399	18037.46
845.723	17974.41
846.047	17939.84
846.371	17749.34
846.695	17825.49
847.019	17751.82
847.343	17625.72
847.666	17634.76
847.99	17538.04
848.313	17579.17
848.637	17504.37
848.96	17432.28
849.284	17413.75
849.607	17260.08
849.931	17288.33
850.254	17096.7
850.577	17074.78
850.9	16916.59
851.223	17005.63
851.546	16856.93
851.869	16822.81
852.192	16837.27
852.515	16671.4
852.838	16661
853.161	16572.87
853.483	16571.74
853.806	16535.58
854.129	16548.92
854.451	16431.18
854.774	16397.05
855.096	16377.17
855.419	16188.7
855.741	16157.29
856.063	16059.89
856.385	16030.06
856.708	16051.53
857.03	15916.39
857.352	15828.26
857.674	15719.56
857.996	15738.77
858.318	15671.42
858.64	15662.16
858.961	15703.51
859.283	15558.43
859.605	15445.44
859.926	15452.9
860.248	15389.62
860.57	15303.07
860.891	15368.16
861.212	15213.36
861.534	15305.56
861.855	15174.71
862.176	15168.16
862.498	15083.87
862.819	15133.13
863.14	15034.83
863.461	14922.74
863.782	14862.18
864.103	14891.33
864.424	14792.35
864.745	14910.31
865.065	14810.2
865.386	14792.58
865.707	14782.18
866.027	14708.51
866.348	14756.87
866.668	14693.37
866.989	14673.48
867.309	14647.72
867.63	14622.19
867.95	14623.32
868.27	14507.84
868.59	14596.2
868.91	14667.83
869.23	14479.37
869.55	14494.51
869.87	14560.27
870.19	14482.98
870.51	14494.96
870.83	14535.63
871.15	14433.94
871.469	14460.61
871.789	14563.2
872.109	14556.43
872.428	14386.94
872.748	14363.44
873.067	14413.83
873.386	14454.51
873.706	14408.63
874.025	14372.93
874.344	14346.71
874.663	14334.51
874.982	14315.3
875.301	14273.95
875.62	14209.77
875.939	14175.87
876.258	14167.06
876.577	14203.67
876.896	14152.14
877.214	14038.7
877.533	14087.51
877.852	14006.38
878.17	14056.1
878.489	14040.51
878.807	13951.47
879.125	13833.96
879.444	14048.64
879.762	13908.53
880.08	13863.56
880.398	13753.73
880.716	13715.09
881.034	13672.83
881.352	13678.26
881.67	13616.56
881.988	13603.23
882.306	13515.32
882.624	13508.09
882.941	13389.45
883.259	13435.55
883.577	13372.73
883.894	13340.64
884.212	13299.74
884.529	13265.84
884.846	13273.3
885.164	13256.12
885.481	13128.44
885.798	13223.58
886.115	13046.86
886.432	13099.51
886.75	13015.45
887.067	12987.2
887.383	12961.89
887.7	12975.22
888.017	12903.81
888.334	12998.27
888.651	12786.75
888.967	12886.19
889.284	12818.62
889.6	12793.53
889.917	12718.06
890.233	12850.71
890.55	12723.25
890.866	12760.54
891.182	12769.81
891.498	12630.6
891.815	12677.38
892.131	12662.69
892.447	12599.19
892.763	12543.14
893.079	12542.24
893.395	12415.69
893.71	12519.42
894.026	12421.57
894.342	12363.94
894.657	12383.6
894.973	12358.52
895.289	12355.81
895.604	12299.08
895.92	12196.04
896.235	12148.35
896.55	12229.93
896.865	12138.64
897.181	12064.51
897.496	12061.12
897.811	11957.4
898.126	11941.58
898.441	11893.22
898.756	11889.15
899.071	11814.12
899.386	11788.59
899.7	11641.47
900.015	11696.39
900.33	11620.23
900.644	11575.26
900.959	11511.31
901.273	11604.19
901.588	11472.21
901.902	11348.37
902.216	11357.19
902.531	11300.69
902.845	11213.24
903.159	11185.44
903.473	11075.61
903.787	11156.97
904.101	11017.08
904.415	10943.86
904.729	10922.4
905.042	10833.36
905.356	10787.03
905.67	10705.45
905.984	10766.02
906.297	10651.9
906.611	10594.27
906.924	10575.96
907.237	10478.34
907.551	10525.8
907.864	10399.7
908.177	10411.45
908.491	10380.49
908.804	10312.92
909.117	10241.96
909.43	10222.08
909.743	10142.76
910.056	10138.69
910.368	10174.85
910.681	10071.12
910.994	10063.89
911.307	9981.63
911.619	9952.93
911.932	9990.22
912.244	9892.37
912.557	9871.12
912.869	9806.04
913.181	9846.72
913.494	9782.09
913.806	9743.44
914.118	9633.84
914.43	9672.49
914.742	9714.29
915.054	9643.33
915.366	9604.69
915.678	9571.02
915.99	9535.77
916.302	9484.02
916.613	9477.69
916.925	9468.2
917.236	9394.08
917.548	9346.17
917.859	9370.12
918.171	9413.51
918.482	9323.57
918.794	9313.85
919.105	9333.96
919.416	9218.94
919.727	9194.76
920.038	9160.18
920.349	9098.26
920.66	9083.12
920.971	9012.84
921.282	8986.4
921.593	9000.41
921.903	8797.71
922.214	8871.38
922.525	8848.78
922.835	8794.54
923.146	8732.62
923.456	8659.63
923.767	8646.98
924.077	8688.78
924.387	8585.28
924.697	8656.69
925.008	8540.09
925.318	8498.05
925.628	8432.29
925.938	8400.88
926.248	8315.69
926.558	8300.77
926.867	8190.49
927.177	8143.71
927.487	8108.01
927.796	7976.94
928.106	8122.24
928.416	7978.75
928.725	7944.4
929.034	7811.29
929.344	7832.99
929.653	7793.44
929.962	7719.32
930.271	7713.22
930.581	7677.06
930.89	7678.19
931.199	7626.89
931.508	7621.47
931.817	7553.9
932.125	7555.25
932.434	7422.6
932.743	7398.87
933.051	7399.55
933.36	7364.52
933.669	7288.37
933.977	7285.2
934.286	7283.4
934.594	7299.67
934.902	7200.69
935.21	7176.51
935.519	7171.99
935.827	7230.29
936.135	7165.43
936.443	7077.98
936.751	7119.78
937.059	7118.65
937.367	7078.66
937.674	7111.42
937.982	7025.1
938.29	7008.83
938.597	6975.83
938.905	6878.43
939.213	6873.24
939.52	6943.29
939.827	6916.4
940.135	6848.61
940.442	6859.45
940.749	6797.76
941.056	6798.89
941.363	6721.38
941.67	6810.87
941.977	6652.45
942.284	6660.59
942.591	6684.09
942.898	6668.27
943.205	6623.75
943.511	6559.8
943.818	6505.11
944.125	6498.78
944.431	6476.64
944.738	6509.41
945.044	6447.26
945.35	6423.53
945.657	6424.66
945.963	6395.96
946.269	6351.22
946.575	6384.66
946.881	6283.65
947.187	6307.6
947.493	6246.14
947.799	6198.45
948.105	6214.95
948.41	6116.2
948.716	6150.54
949.022	6066.7
949.327	6068.96
949.633	5982.41
949.938	6013.37
950.244	5959.82
950.549	5917.33
950.854	5850.21
951.16	5833.26
951.465	5803.66
951.77	5772.7
952.075	5730.44
952.38	5712.82
952.685	5716.43
952.99	5619.03
953.294	5669.43
953.599	5584.91
953.904	5537.45
954.209	5482.77
954.513	5523.89
954.818	5465.36
955.122	5460.62
955.426	5448.64
955.731	5385.37
956.035	5379.27
956.339	5360.51
956.643	5393.5
956.948	5330.91
957.252	5286.84
957.556	5298.14
957.86	5233.96
958.163	5264.92
958.467	5219.27
958.771	5189.89
959.075	5141.76
959.378	5166.39
959.682	5104.47
959.985	5094.3
960.289	5106.96
960.592	5066.96
960.896	5007.07
961.199	5024.7
961.502	5034.87
961.805	4957.36
962.108	4948.54
962.411	4915.32
962.714	4900.86
963.017	4907.64
963.32	4935.21
963.623	4858.83
963.926	4887.3
964.228	4849.34
964.531	4861.31
964.833	4793.97
965.136	4753.75
965.438	4788.09
965.741	4756.91
966.043	4793.74
966.345	4755.78
966.648	4730.92
966.95	4702.22
967.252	4703.35
967.554	4659.51
967.856	4651.37
968.158	4598.95
968.46	4629.68
968.761	4599.62
969.063	4598.27
969.365	4544.26
969.666	4543.58
969.968	4503.13
970.269	4481.44
970.571	4478.27
970.872	4467.88
971.174	4445.5
971.475	4444.15
971.776	4430.59
972.077	4428.1
972.378	4394.66
972.679	4326.19
972.98	4370.93
973.281	4288.67
973.582	4237.15
973.883	4239.63
974.183	4228.79
974.484	4210.03
974.785	4181.33
975.085	4159.64
975.386	4153.53
975.686	4098.4
975.986	4097.27
976.287	4067.89
976.587	4031.96
976.887	4046.65
977.187	4034.67
977.487	4000.09
977.787	3908.57
978.087	3906.31
978.387	3929.81
978.687	3952.86
978.987	3917.61
979.286	3918.74
979.586	3829.02
979.885	3822.7
980.185	3786.31
980.484	3736.82
980.784	3761.23
981.083	3749.7
981.382	3734.34
981.682	3732.53
981.981	3687.78
982.28	3678.07
982.579	3628.12
982.878	3678.07
983.177	3659.31
983.475	3590.16
983.774	3660.44
984.073	3571.4
984.372	3542.93
984.67	3539.54
984.969	3557.84
985.267	3519.2
985.566	3508.81
985.864	3522.14
986.162	3507.9
986.461	3489.82
986.759	3442.82
987.057	3404.4
987.355	3469.94
987.653	3416.61
987.951	3381.13
988.249	3407.34
988.547	3368.24
988.844	3410.5
989.142	3366.89
989.44	3315.14
989.737	3320.56
990.035	3290.05
990.332	3302.26
990.63	3283.95
990.927	3291.18
991.224	3255.48
991.521	3255.71
991.819	3222.03
992.116	3229.04
992.413	3253.45
992.71	3140.91
993.006	3180.23
993.303	3194.01
993.6	3180.23
993.897	3168.02
994.193	3138.65
994.49	3119.44
994.787	3126.67
995.083	3093.9
995.379	3113.79
995.676	3042.15
995.972	3012.77
996.268	3075.82
996.565	3052.32
996.861	3019.1
997.157	3000.34
997.453	2994.7
997.749	2993.34
998.044	2953.11
998.34	2952.44
998.636	2911.99
998.932	2908.14
999.227	2902.49
999.523	2875.6
999.818	2826.11
1000.114	2829.95
1000.409	2770.75
1000.704	2770.07
1001	2774.59
1001.295	2742.95
1001.59	2727.81
1001.885	2740.69
1002.18	2719.22
1002.475	2686.45
1002.77	2677.64
1003.065	2654.37
1003.359	2629.73
1003.654	2604.42
1003.949	2612.78
1004.243	2594.93
1004.538	2544.99
1004.832	2517.87
1005.127	2529.85
1005.421	2523.75
1005.715	2511.54
1006.009	2490.75
1006.304	2518.78
1006.598	2430.19
1006.892	2457.53
1007.186	2429.51
1007.48	2375.5
1007.773	2366.46
1008.067	2314.49
1008.361	2355.39
1008.655	2341.61
1008.948	2354.26
1009.242	2316.75
1009.535	2283.3
1009.829	2294.15
1010.122	2271.78
1010.415	2233.81
1010.708	2235.17
1011.001	2206.02
1011.295	2256.41
1011.588	2218.9
1011.881	2170.54
1012.173	2207.6
1012.466	2169.41
1012.759	2191.78
1013.052	2208.95
1013.344	2177.09
1013.637	2159.91
1013.93	2093.7
1014.222	2097.54
1014.514	2114.27
1014.807	2076.3
1015.099	2121.27
1015.391	2071.56
1015.683	2078.56
1015.976	2058
1016.268	2015.06
1016.56	2028.39
1016.851	2027.94
1017.143	2011.22
1017.435	2000.82
1017.727	1978.9
1018.018	1987.04
1018.31	1962.41
1018.602	1959.92
1018.893	1975.06
1019.185	1954.95
1019.476	1909.75
1019.767	1963.08
1020.058	1909.98
1020.35	1895.29
1020.641	1884.44
1020.932	1875.85
1021.223	1841.28
1021.514	1860.26
1021.804	1832.69
1022.095	1821.17
1022.386	1798.57
1022.677	1801.73
1022.967	1774.61
1023.258	1795.18
1023.548	1765.8
1023.839	1753.82
1024.129	1743.65
1024.419	1740.94
1024.709	1686.93
1025	1734.39
1025.29	1684.45
1025.58	1669.98
1025.87	1704.11
1026.16	1669.53
1026.449	1642.87
1026.739	1614.17
1027.029	1626.37
1027.319	1599.03
1027.608	1592.7
1027.898	1587.27
1028.187	1585.92
1028.477	1596.31
1028.766	1566.48
1029.055	1508.63
1029.344	1534.62
1029.634	1492.36
1029.923	1517.22
1030.212	1482.64
1030.501	1493.49
1030.79	1463.66
1031.078	1483.1
1031.367	1456.2
1031.656	1455.07
1031.945	1432.25
1032.233	1435.19
1032.522	1427.5
1032.81	1405.81
1033.099	1404
1033.387	1386.15
1033.675	1405.81
1033.963	1362.65
1034.251	1351.35
1034.54	1333.95
1034.828	1329.43
1035.116	1302.76
1035.403	1309.09
1035.691	1324.23
1035.979	1306.38
1036.267	1270.67
1036.554	1281.52
1036.842	1251.92
1037.129	1271.8
1037.417	1240.84
1037.704	1237.45
1037.992	1251.69
1038.279	1224.8
1038.566	1213.05
1038.853	1213.05
1039.14	1213.05
