Data from blue_clamp_base_FLMS001491_00066.txt Node
Date: Wed Feb 08 15:16:22 GMT 2017
User: dcchb
Spectrometer: FLMS00149
Trigger mode: 0
Integration Time (sec): 2.000000E-2
Scans to average: 10
Electric dark correction enabled: true
Nonlinearity correction enabled: false
Boxcar width: 0
XAxis mode: Wavelengths
Number of Pixels in Spectrum: 2048
>>>>>Begin Spectral Data<<<<<
341.393	-30.44
341.776	-30.44
342.16	-30.44
342.543	-71.79
342.927	-69.31
343.31	-73.6
343.693	-68.63
344.077	-57.33
344.46	-56.88
344.843	-36.31
345.226	-47.16
345.61	-27.27
345.993	-11.23
346.376	-19.36
346.759	14.08
347.142	31.03
347.525	29.67
347.908	51.82
348.291	84.81
348.674	86.17
349.057	100.18
349.44	119.39
349.823	134.76
350.206	162.55
350.588	184.92
350.971	205.04
351.354	224.02
351.737	242.55
352.119	240.06
352.502	250.69
352.884	258.14
353.267	269.22
353.65	276.9
354.032	285.94
354.414	293.62
354.797	307.18
355.179	318.93
355.562	326.16
355.944	327.97
356.326	318.93
356.709	345.82
357.091	322.77
357.473	331.81
357.855	328.88
358.238	307.18
358.62	336.78
359.002	318.71
359.384	321.19
359.766	316.45
360.148	337.91
360.53	332.04
360.912	341.3
361.294	337.46
361.676	315.77
362.057	328.2
362.439	324.81
362.821	309.22
363.203	332.72
363.584	306.96
363.966	308.76
364.348	315.99
364.729	307.86
365.111	318.93
365.493	315.32
365.874	308.09
366.256	311.25
366.637	312.15
367.019	290.23
367.4	316.67
367.781	302.89
368.163	304.24
368.544	314.41
368.925	326.39
369.306	290.68
369.688	278.48
370.069	305.6
370.45	303.34
370.831	292.94
371.212	302.21
371.593	304.24
371.974	300.85
372.355	316.9
372.736	306.96
373.117	330.46
373.498	302.21
373.879	323
374.26	304.47
374.641	283.45
375.021	296.11
375.402	311.25
375.783	307.41
376.163	306.28
376.544	330.46
376.925	315.54
377.305	308.31
377.686	330.91
378.066	294.53
378.447	310.57
378.827	301.98
379.208	320.51
379.588	311.25
379.968	312.83
380.349	350.12
380.729	304.47
381.109	334.53
381.489	341.98
381.87	332.04
382.25	319.84
382.63	333.4
383.01	322.1
383.39	341.53
383.77	339.04
384.15	330.91
384.53	351.02
384.91	353.73
385.29	327.75
385.67	353.28
386.049	341.76
386.429	349.67
386.809	374.75
387.189	344.02
387.568	355.99
387.948	351.02
388.328	361.19
388.707	354.64
389.087	368.87
389.466	380.17
389.846	379.72
390.225	378.37
390.605	363.68
390.984	351.7
391.363	349.89
391.743	369.78
392.122	369.55
392.501	374.98
392.881	359.84
393.26	376.78
393.639	385.6
394.018	372.04
394.397	392.15
394.776	378.59
395.155	415.2
395.534	397.35
395.913	411.81
396.292	408.42
396.671	426.27
397.05	409.1
397.429	424.69
397.808	424.47
398.186	415.2
398.565	431.25
398.944	433.28
399.323	436.22
399.701	416.33
400.08	423.79
400.458	434.64
400.837	468.98
401.215	459.27
401.594	443.9
401.972	444.58
402.351	452.94
402.729	444.35
403.107	457.23
403.486	468.98
403.864	487.06
404.242	471.24
404.62	484.58
404.999	497.23
405.377	476.44
405.755	491.36
406.133	479.61
406.511	501.53
406.889	502.88
407.267	517.35
407.645	512.83
408.023	516.22
408.401	507.18
408.779	540.4
409.156	549.43
409.534	535.88
409.912	550.34
410.29	555.99
410.667	529.77
411.045	573.61
411.422	584.01
411.8	581.52
412.178	567.51
412.555	600.28
412.933	614.52
413.31	612.71
413.687	610.45
414.065	604.8
414.442	641.41
414.819	620.85
415.197	614.07
415.574	621.3
415.951	645.03
416.328	652.48
416.705	672.82
417.082	659.04
417.46	674.63
417.837	654.74
418.214	682.09
418.591	676.44
418.967	669.21
419.344	686.83
419.721	704.68
420.098	713.05
420.475	718.92
420.852	736.77
421.228	724.57
421.605	727.74
421.982	727.51
422.358	741.52
422.735	776.32
423.111	744.01
423.488	776.32
423.864	767.28
424.241	786.72
424.617	796.89
424.994	760.73
425.37	788.75
425.746	815.87
426.123	799.6
426.499	814.51
426.875	847.96
427.251	833.95
427.627	862.65
428.003	859.48
428.379	874.17
428.756	875.08
429.132	886.83
429.507	913.72
429.883	920.5
430.259	922.31
430.635	930.89
431.011	946.71
431.387	942.19
431.763	951.01
432.138	962.76
432.514	981.51
432.89	972.93
433.265	1012.25
433.641	1033.94
434.016	1038.24
434.392	1049.99
434.767	1059.93
435.143	1063.09
435.518	1060.38
435.894	1115.3
436.269	1099.93
436.644	1149.87
437.02	1136.99
437.395	1138.35
437.77	1169.98
438.145	1148.29
438.52	1175.86
438.895	1191
439.271	1158.91
439.646	1203.2
440.021	1251.34
440.395	1224.22
440.77	1231.68
441.145	1245.01
441.52	1287.95
441.895	1259.7
442.27	1268.51
442.645	1260.38
443.019	1311.9
443.394	1301.73
443.769	1300.83
444.143	1302.41
444.518	1338.57
444.892	1327.04
445.267	1332.46
445.641	1371.79
446.016	1358.9
446.39	1401.16
446.764	1414.27
447.139	1407.72
447.513	1442.97
447.887	1417.21
448.262	1428.51
448.636	1463.76
449.01	1487.49
449.384	1498.34
449.758	1471.22
450.132	1514.16
450.506	1513.25
450.88	1514.16
451.254	1508.51
451.628	1497.66
452.002	1555.96
452.376	1574.72
452.75	1575.85
453.123	1617.2
453.497	1616.53
453.871	1598.9
454.244	1666.24
454.618	1662.4
454.992	1703.98
455.365	1675.96
455.739	1707.82
456.112	1739.46
456.486	1763.64
456.859	1783.07
457.232	1794.15
457.606	1778.78
457.979	1817.2
458.352	1861.72
458.725	1892
459.099	1870.76
459.472	1934.26
459.845	1940.58
460.218	1963.18
460.591	1976.74
460.964	1970.19
461.337	1968.15
461.71	2035.05
462.083	2041.15
462.456	2065.33
462.829	2067.13
463.201	2099.22
463.574	2125.89
463.947	2105.1
464.32	2162.05
464.692	2189.84
465.065	2204.98
465.438	2227.81
465.81	2251.08
466.183	2278.2
466.555	2328.37
466.928	2346.45
467.3	2316.62
467.672	2373.12
468.045	2460.8
468.417	2419.22
468.789	2442.49
469.161	2477.52
469.534	2474.58
469.906	2542.83
470.278	2579.89
470.65	2556.39
471.022	2616.05
471.394	2661.02
471.766	2669.38
472.138	2683.39
472.51	2748.47
472.882	2756.83
473.253	2805.87
473.625	2855.36
473.997	2891.52
474.369	2891.29
474.74	2894.23
475.112	3007.9
475.484	2987.56
475.855	3056.26
476.227	3072.08
476.598	3170.61
476.97	3136.49
477.341	3214.45
477.713	3261.68
478.084	3259.65
478.455	3329.47
478.827	3378.96
479.198	3454.9
479.569	3465.52
479.94	3519.07
480.311	3520.88
480.682	3588
481.053	3696.92
481.424	3684.49
481.795	3761.1
482.166	3769.46
482.537	3800.2
482.908	3914.54
483.279	3893.53
483.65	3947.54
484.021	4025.05
484.391	4076.8
484.762	4088.55
485.133	4091.49
485.503	4176.68
485.874	4227.08
486.244	4226.17
486.615	4284.48
486.985	4316.12
487.356	4381.42
487.726	4374.19
488.097	4487.64
488.467	4490.8
488.837	4522.44
489.207	4580.97
489.578	4615.54
489.948	4644.92
490.318	4668.65
490.688	4675.2
491.058	4697.12
491.428	4789.32
491.798	4831.58
492.168	4877.46
492.538	4868.87
492.908	4924.23
493.278	4952.26
493.648	4933.73
494.017	4997.68
494.387	5020.05
494.757	5077.68
495.126	5090.56
495.496	5084.46
495.866	5123.78
496.235	5140.05
496.605	5185.92
496.974	5194.06
497.344	5216.88
497.713	5206.26
498.082	5242.42
498.452	5314.73
498.821	5321.06
499.19	5313.15
499.559	5364.9
499.928	5291.23
500.298	5408.74
500.667	5371.68
501.036	5396.54
501.405	5387.27
501.774	5389.08
502.143	5469.98
502.512	5472.92
502.88	5469.98
503.249	5451
503.618	5479.02
503.987	5574.61
504.356	5488.51
504.724	5544.56
505.093	5512.92
505.462	5562.41
505.83	5563.77
506.199	5588.17
506.567	5602.86
506.936	5616.65
507.304	5647.15
507.672	5676.31
508.041	5746.81
508.409	5701.84
508.777	5781.16
509.145	5783.87
509.514	5754.27
509.882	5747.49
510.25	5823.87
510.618	5820.26
510.986	5844.44
511.354	5901.38
511.722	5897.99
512.09	5918.79
512.458	5904.55
512.826	5976.41
513.193	5945.9
513.561	5956.3
513.929	6001.49
514.297	6013.7
514.664	6094.6
515.032	6064.09
515.4	6058.89
515.767	6107.25
516.135	6096.63
516.502	6084.43
516.869	6135.95
517.237	6121.04
517.604	6143.64
517.972	6178.67
518.339	6221.15
518.706	6240.36
519.073	6211.66
519.44	6219.34
519.808	6289.62
520.175	6260.02
520.542	6361.49
520.909	6294.82
521.276	6377.3
521.643	6389.73
522.009	6386.57
522.376	6415.72
522.743	6398.09
523.11	6509.96
523.477	6551.31
523.843	6549.05
524.21	6618.2
524.577	6641.93
524.943	6598.54
525.31	6672.44
525.676	6735.71
526.043	6707.92
526.409	6735.03
526.776	6780.46
527.142	6796.73
527.508	6777.29
527.874	6853.68
528.241	6860.91
528.607	6889.16
528.973	6877.86
529.339	6905.43
529.705	7014.8
530.071	6976.16
530.437	7001.02
530.803	7065.42
531.169	7082.82
531.535	7077.4
531.901	7032.65
532.267	7114.69
532.632	7158.07
532.998	7158.07
533.364	7124.86
533.73	7188.81
534.095	7263.16
534.461	7230.39
534.826	7288.92
535.192	7317.17
535.557	7302.25
535.923	7286.21
536.288	7336.83
536.653	7402.14
537.019	7371.4
537.384	7369.14
537.749	7403.27
538.114	7420.67
538.479	7431.51
538.845	7462.47
539.21	7454.34
539.575	7493.66
539.94	7572.07
540.305	7562.58
540.67	7516.48
541.034	7537.27
541.399	7600.55
541.764	7606.2
542.129	7590.15
542.494	7651.62
542.858	7617.72
543.223	7616.37
543.587	7677.61
543.952	7636.48
544.316	7665.18
544.681	7796.02
545.045	7727.1
545.41	7761.9
545.774	7759.19
546.138	7810.94
546.503	7810.49
546.867	7810.03
547.231	7925.51
547.595	7833.76
547.959	7851.84
548.324	7859.07
548.688	7919.18
549.052	7919.41
549.416	7924.83
549.779	7916.92
550.143	7940.2
550.507	7910.82
550.871	7960.31
551.235	7999.86
551.599	8036.24
551.962	7935.46
552.326	8061.33
552.689	8095.22
553.053	8074.21
553.417	8024.27
553.78	8105.85
554.143	8038.5
554.507	8123.47
554.87	8167.77
555.234	8234.2
555.597	8151.49
555.96	8225.17
556.323	8210.48
556.686	8269.68
557.05	8243.7
557.413	8240.98
557.776	8274.2
558.139	8278.72
558.502	8327.99
558.865	8307.2
559.228	8412.96
559.59	8400.98
559.953	8373.64
560.316	8462.67
560.679	8446.63
561.041	8459.96
561.404	8534.99
561.767	8485.05
562.129	8433.3
562.492	8559.62
562.854	8582.44
563.217	8532.73
563.579	8646.17
563.941	8624.93
564.304	8632.39
564.666	8689.79
565.028	8615.44
565.39	8692.5
565.753	8767.3
566.115	8763.91
566.477	8889.55
566.839	8864.92
567.201	8888.42
567.563	8880.06
567.925	8888.42
568.287	8918.71
568.648	8976.11
569.01	8995.09
569.372	8965.26
569.734	9005.48
570.095	9116.67
570.457	9050.45
570.819	9094.75
571.18	9115.31
571.542	9144.01
571.903	9137.91
572.265	9186.95
572.626	9221.3
572.987	9247.74
573.349	9302.88
573.71	9283.67
574.071	9306.72
574.432	9312.37
574.794	9399.6
575.155	9467.17
575.516	9376.1
575.877	9461.97
576.238	9514.85
576.599	9521.85
576.96	9505.81
577.32	9529.76
577.681	9536.09
578.042	9595.75
578.403	9585.58
578.763	9615.86
579.124	9630.1
579.485	9661.74
579.845	9717.1
580.206	9685.01
580.566	9611.12
580.927	9679.82
581.287	9696.76
581.648	9695.18
582.008	9748.74
582.368	9751.23
582.728	9706.26
583.089	9724.56
583.449	9767.95
583.809	9739.48
584.169	9784.45
584.529	9754.62
584.889	9865.57
585.249	9755.75
585.609	9801.17
585.969	9816.31
586.329	9783.09
586.688	9769.53
587.048	9810.43
587.408	9858.57
587.768	9845.69
588.127	9803.88
588.487	9800.04
588.846	9859.92
589.206	9735.41
589.565	9791.45
589.925	9870.32
590.284	9904.67
590.643	9895.18
591.003	9918.23
591.362	9942.41
591.721	9873.94
592.08	9858.12
592.44	9939.47
592.799	9929.3
593.158	9914.16
593.517	9840.26
593.876	9914.84
594.235	9946.7
594.593	9934.72
594.952	9966.36
595.311	9944.22
595.67	9972.92
596.029	10033.03
596.387	10015.85
596.746	10066.02
597.104	9999.13
597.463	9981.73
597.822	10071.22
598.18	9997.32
598.538	9966.59
598.897	10080.26
599.255	9967.49
599.613	10171.1
599.972	9981.28
600.33	10017.21
600.688	10069.18
601.046	10088.39
601.404	10107.6
601.762	10021.05
602.12	10109.18
602.478	10151.67
602.836	10137.21
603.194	10017.21
603.552	10127.94
603.91	10124.78
604.268	10095.85
604.625	10092.91
604.983	10141.27
605.341	10138.34
605.698	10160.03
606.056	10190.99
606.413	10235.06
606.771	10214.49
607.128	10159.35
607.485	10118
607.843	10112.35
608.2	10242.97
608.557	10320.03
608.914	10181.95
609.272	10225.34
609.629	10287.03
609.986	10273.7
610.343	10213.81
610.7	10306.24
611.057	10277.99
611.414	10221.95
611.771	10263.53
612.127	10332
612.484	10268.05
612.841	10379.68
613.198	10323.41
613.554	10301.95
613.911	10354.15
614.267	10348.27
614.624	10360.7
614.98	10357.31
615.337	10417.42
615.693	10398.89
616.05	10423.3
616.406	10459.46
616.762	10412.45
617.118	10435.5
617.475	10420.59
617.831	10502.39
618.187	10544.65
618.543	10441.15
618.899	10582.62
619.255	10503.75
619.611	10583.07
619.967	10568.15
620.323	10544.88
620.678	10587.36
621.034	10565.67
621.39	10592.79
621.746	10554.6
622.101	10657.42
622.457	10499.23
622.812	10576.52
623.168	10607.7
623.523	10677.08
623.879	10652.9
624.234	10609.06
624.589	10692.67
624.945	10661.94
625.3	10622.62
625.655	10612.67
626.01	10635.95
626.365	10733.57
626.72	10746.23
627.075	10790.07
627.43	10715.72
627.785	10660.13
628.14	10724.31
628.495	10716.4
628.85	10775.15
629.205	10690.86
629.559	10701.94
629.914	10721.6
630.269	10742.84
630.623	10713.24
630.978	10774.93
631.332	10798.2
631.687	10752.78
632.041	10782.61
632.396	10772.89
632.75	10767.25
633.104	10822.38
633.459	10716.17
633.813	10726.79
634.167	10752.56
634.521	10759.79
634.875	10813.8
635.229	10753.91
635.583	10736.29
635.937	10739.9
636.291	10852.44
636.645	10767.02
636.999	10886.56
637.352	10863.97
637.706	10824.87
638.06	10868.49
638.413	10884.3
638.767	10823.74
639.121	10896.73
639.474	10829.39
639.828	10848.6
640.181	10870.29
640.534	10932.21
640.888	10890.63
641.241	10813.57
641.594	10916.62
641.947	10996.62
642.301	10895.83
642.654	10941.03
643.007	10940.8
643.36	10969.73
643.713	10945.55
644.066	10975.15
644.419	10901.48
644.771	10936.96
645.124	10812.22
645.477	10846.34
645.83	10769.5
646.182	10755.49
646.535	10744.42
646.888	10780.13
647.24	10681.15
647.593	10615.38
647.945	10718.66
648.298	10688.83
648.65	10650.64
649.002	10632.33
649.355	10834.36
649.707	10690.64
650.059	10774.93
650.411	10971.08
650.763	10990.29
651.115	11105.09
651.467	10979.22
651.819	11087.69
652.171	11111.19
652.523	11123.39
652.875	11101.02
653.227	11131.53
653.578	11016.5
653.93	11131.76
654.282	11096.05
654.633	11094.69
654.985	11147.12
655.337	11134.47
655.688	11149.16
656.039	11229.61
656.391	11160.46
656.742	11174.92
657.094	11184.41
657.445	11290.85
657.796	11245.65
658.147	11179.21
658.498	11188.93
658.849	11185.99
659.2	11269.83
659.551	11214.01
659.902	11318.87
660.253	11208.82
660.604	11299.89
660.955	11249.04
661.306	11299.89
661.656	11234.58
662.007	11207.23
662.358	11243.62
662.708	11302.82
663.059	11230.96
663.409	11237.97
663.76	11268.25
664.11	11284.07
664.461	11318.64
664.811	11291.07
665.161	11277.29
665.511	11258.31
665.862	11316.61
666.212	11287.23
666.562	11294.24
666.912	11251.53
667.262	11231.19
667.612	11254.01
667.962	11266.67
668.312	11257.63
668.662	11271.86
669.011	11270.96
669.361	11254.69
669.711	11210.4
670.06	11214.01
670.41	11172.66
670.76	11195.93
671.109	11170.17
671.459	11180.12
671.808	11061.7
672.157	11040.46
672.507	11033.68
672.856	11036.16
673.205	11047.69
673.554	11074.81
673.904	11000.91
674.253	11091.53
674.602	10990.52
674.951	10886.56
675.3	10779.45
675.649	10955.49
675.998	10902.16
676.346	10949.61
676.695	10967.69
677.044	10847.92
677.393	10873.46
677.741	10863.06
678.09	10866
678.438	10798.43
678.787	10731.54
679.135	10791.88
679.484	10681.37
679.832	10751.43
680.181	10664.2
680.529	10665.33
680.877	10589.62
681.225	10586.91
681.573	10594.59
681.922	10598.66
682.27	10541.94
682.618	10577.42
682.966	10458.33
683.314	10504.43
683.661	10510.3
684.009	10462.39
684.357	10479.8
684.705	10433.24
685.053	10412.23
685.4	10432.56
685.748	10378.1
686.095	10345.11
686.443	10305.34
686.79	10218.56
687.138	10343.3
687.485	10246.58
687.832	10224.66
688.18	10213.81
688.527	10199.12
688.874	10225.79
689.221	10162.29
689.568	10120.03
689.915	10100.37
690.262	10204.1
690.609	10168.62
690.956	10117.77
691.303	9992.8
691.65	10042.29
691.997	10058.79
692.344	9985.57
692.69	9981.28
693.037	10021.28
693.383	9896.76
693.73	9945.35
694.077	9875.29
694.423	9896.76
694.769	9822.19
695.116	9858.79
695.462	9870.77
695.808	9813.82
696.155	9877.33
696.501	9844.56
696.847	9880.94
697.193	9712.36
697.539	9862.18
697.885	9698.12
698.231	9727.05
698.577	9695.41
698.923	9737.44
699.269	9656.54
699.614	9659.25
699.96	9595.3
700.306	9663.09
700.651	9666.26
700.997	9613.6
701.342	9664.22
701.688	9592.13
702.033	9603.43
702.379	9604.11
702.724	9534.96
703.069	9581.51
703.415	9474.85
703.76	9500.84
704.105	9517.56
704.45	9544.45
704.795	9419.48
705.14	9406.38
705.485	9473.95
705.83	9399.37
706.175	9389.65
706.52	9348.98
706.865	9417.68
707.209	9416.77
707.554	9369.09
707.899	9330.67
708.243	9370.45
708.588	9364.12
708.932	9341.52
709.277	9295.19
709.621	9283.22
709.966	9270.34
710.31	9295.42
710.654	9232.6
710.998	9229.66
711.342	9261.97
711.687	9199.15
712.031	9210.22
712.375	9208.42
712.719	9267.17
713.063	9206.61
713.407	9227.62
713.75	9237.34
714.094	9188.3
714.438	9157.12
714.782	9098.14
715.125	9168.42
715.469	9213.16
715.812	9114.63
716.156	9097.68
716.499	9121.64
716.843	9193.28
717.186	9101.3
717.53	9173.39
717.873	9099.27
718.216	9154.63
718.559	9121.64
718.902	9090.91
719.246	9090
719.589	9065.14
719.932	9048.65
720.275	9137.68
720.617	9114.86
720.96	9012.49
721.303	9056.56
721.646	9073.05
721.989	9012.71
722.331	9108.53
722.674	9048.42
723.016	9062.43
723.359	9017.01
723.701	8976.33
724.044	9012.94
724.386	8989.21
724.729	9026.73
725.071	8996.67
725.413	9070.57
725.755	9046.61
726.097	8975.43
726.439	9001.19
726.782	8939.5
727.124	9022.66
727.465	8971.81
727.807	8942.89
728.149	8961.64
728.491	9024.92
728.833	8951.02
729.175	8955.99
729.516	8935.2
729.858	9014.97
730.199	8982.21
730.541	8977.01
730.882	9014.3
731.224	9055.43
731.565	8953.73
731.906	9007.97
732.248	9003.45
732.589	9018.14
732.93	9024.01
733.271	9012.71
733.612	8990.57
733.953	9115.09
734.294	9074.63
734.635	9011.59
734.976	9109.44
735.317	9081.64
735.658	9074.18
735.999	9079.38
736.339	9076.89
736.68	9089.32
737.021	9054.07
737.361	9051.81
737.702	9184.46
738.042	9136.78
738.383	9128.19
738.723	9167.74
739.063	9210.45
739.404	9217.91
739.744	9253.16
740.084	9219.04
740.424	9208.64
740.764	9198.25
741.104	9304.68
741.444	9240.28
741.784	9238.7
742.124	9289.09
742.464	9326.15
742.804	9321.63
743.143	9318.92
743.483	9341.07
743.823	9308.98
744.162	9365.47
744.502	9357.56
744.841	9432.82
745.181	9477.11
745.52	9400.05
745.86	9454.29
746.199	9492.7
746.538	9528.41
746.877	9521.85
747.216	9564.56
747.556	9574.06
747.895	9598.69
748.234	9596.43
748.573	9581.06
748.911	9700.61
749.25	9697.67
749.589	9637.56
749.928	9675.75
750.267	9719.82
750.605	9714.17
750.944	9848.4
751.283	9766.59
751.621	9848.85
751.96	9828.74
752.298	9887.27
752.636	9823.99
752.975	9800.04
753.313	9821.06
753.651	9933.14
753.989	9911.67
754.327	9952.58
754.666	9987.6
755.004	9972.69
755.342	9958.23
755.679	10001.39
756.017	10004.55
756.355	10164.1
756.693	10059.47
757.031	10164.78
757.368	10067.15
757.706	10058.11
758.044	10124.32
758.381	10149.86
758.719	10124.78
759.056	10175.17
759.394	10179.01
759.731	10178.33
760.068	10151.22
760.405	10177.66
760.743	10240.93
761.08	10190.76
761.417	10258.33
761.754	10213.14
762.091	10194.38
762.428	10255.62
762.765	10277.54
763.102	10315.96
763.438	10239.12
763.775	10226.92
764.112	10290.65
764.449	10337.65
764.785	10337.65
765.122	10270.08
765.458	10316.41
765.795	10335.17
766.131	10348.05
766.467	10379.68
766.804	10253.13
767.14	10300.14
767.476	10374.04
767.812	10346.47
768.148	10315.05
768.485	10329.97
768.821	10297.88
769.157	10414.03
769.492	10340.14
769.828	10351.89
770.164	10332.68
770.5	10320.25
770.836	10320.03
771.171	10249.74
771.507	10393.47
771.842	10292.68
772.178	10322.06
772.513	10381.94
772.849	10375.39
773.184	10351.21
773.519	10297.88
773.855	10288.16
774.19	10372.45
774.525	10288.61
774.86	10342.62
775.195	10269.86
775.53	10285
775.865	10297.88
776.2	10234.15
776.535	10233.93
776.87	10277.54
777.205	10236.41
777.539	10168.84
777.874	10295.85
778.209	10230.99
778.543	10263.53
778.878	10188.28
779.212	10249.52
779.547	10129.97
779.881	10272.12
780.215	10194.15
780.55	10277.54
780.884	10192.8
781.218	10205.45
781.552	10209.07
781.886	10193.93
782.22	10111.22
782.554	10183.31
782.888	10132.23
783.222	10048.17
783.556	10073.48
783.889	10046.81
784.223	10043.65
784.557	10053.14
784.89	10082.52
785.224	10071.9
785.557	10039.58
785.891	9974.27
786.224	10002.07
786.558	10037.77
786.891	9972.92
787.224	10005.46
787.557	9929.53
787.891	9941.28
788.224	9966.14
788.557	9954.16
788.89	9977.89
789.223	9972.46
789.556	9907.83
789.888	9925.23
790.221	9879.36
790.554	9851.34
790.887	9824.45
791.219	9823.09
791.552	9703.32
791.884	9829.42
792.217	9800.94
792.549	9751.9
792.882	9795.07
793.214	9727.95
793.546	9781.28
793.879	9685.69
794.211	9688.86
794.543	9745.58
794.875	9772.24
795.207	9706.48
795.539	9717.33
795.871	9710.32
796.203	9603.43
796.535	9616.09
796.867	9576.09
797.198	9685.92
797.53	9592.59
797.862	9520.72
798.193	9618.35
798.525	9478.47
798.856	9527.73
799.188	9495.41
799.519	9495.87
799.85	9468.97
800.182	9391.01
800.513	9517.33
800.844	9358.92
801.175	9496.32
801.506	9449.54
801.837	9444.79
802.168	9405.7
802.499	9413.16
802.83	9418.35
803.161	9457.9
803.491	9318.24
803.822	9305.14
804.153	9361.63
804.483	9305.36
804.814	9266.72
805.145	9321.63
805.475	9258.36
805.805	9265.59
806.136	9267.85
806.466	9207.51
806.796	9200.51
807.126	9201.18
807.457	9211.58
807.787	9121.86
808.117	9154.86
808.447	9085.48
808.777	9141.53
809.107	9092.26
809.436	9113.73
809.766	9151.69
810.096	9104.69
810.426	9063.56
810.755	8994.64
811.085	9050
811.414	9074.18
811.744	8994.41
812.073	8970.68
812.403	9051.36
812.732	8906.5
813.061	8915.32
813.39	8937.69
813.719	8904.47
814.049	8911.47
814.378	8922.55
814.707	8864.92
815.036	8925.03
815.365	8836.67
815.693	8742.44
816.022	8855.21
816.351	8772.5
816.68	8778.37
817.008	8784.25
817.337	8762.55
817.665	8729.78
817.994	8769.33
818.322	8695.89
818.651	8743.57
818.979	8667.64
819.307	8757.58
819.636	8677.13
819.964	8647.3
820.292	8683.01
820.62	8673.06
820.948	8676.68
821.276	8719.16
821.604	8663.57
821.932	8772.04
822.259	8610.47
822.587	8626.28
822.915	8610.01
823.243	8625.15
823.57	8637.58
823.898	8633.29
824.225	8646.62
824.553	8694.98
824.88	8701.99
825.207	8672.38
825.535	8739.05
825.862	8708.32
826.189	8719.39
826.516	8748.54
826.843	8771.37
827.17	8656.11
827.497	8790.8
827.824	8720.75
828.151	8738.37
828.478	8760.97
828.805	8782.21
829.131	8726.62
829.458	8783.34
829.785	8719.16
830.111	8696.11
830.438	8795.55
830.764	8764.59
831.09	8753.06
831.417	8695.21
831.743	8738.37
832.069	8775.43
832.395	8721.65
832.722	8819.95
833.048	8716.23
833.374	8764.59
833.7	8718.03
834.026	8724.14
834.351	8763.68
834.677	8752.61
835.003	8760.97
835.329	8726.62
835.654	8718.94
835.98	8668.32
836.306	8742.44
836.631	8658.15
836.956	8709.22
837.282	8728.2
837.607	8661.99
837.932	8662.67
838.258	8633.97
838.583	8635.78
838.908	8611.82
839.233	8591.26
839.558	8607.98
839.883	8567.3
840.208	8591.03
840.533	8555.33
840.858	8510.36
841.182	8584.03
841.507	8566.17
841.832	8473.29
842.156	8460.19
842.481	8505.16
842.805	8523.46
843.13	8444.59
843.454	8421.54
843.778	8430.81
844.103	8388.32
844.427	8364.37
844.751	8354.88
845.075	8377.25
845.399	8296.58
845.723	8335.22
846.047	8328.21
846.371	8310.13
846.695	8300.19
847.019	8181.78
847.343	8131.16
847.666	8101.78
847.99	8121.89
848.313	8062.91
848.637	8042.35
848.96	8058.16
849.284	8045.06
849.607	8000.31
849.931	7962.35
850.254	7917.38
850.577	7858.4
850.9	7827.21
851.223	7793.99
851.546	7798.06
851.869	7705.63
852.192	7821.56
852.515	7725.52
852.838	7708.12
853.161	7721.68
853.483	7622.92
853.806	7656.14
854.129	7584.5
854.451	7602.58
854.774	7557.39
855.096	7538.63
855.419	7483.26
855.741	7449.59
856.063	7466.54
856.385	7409.82
856.708	7355.81
857.03	7387.45
857.352	7375.47
857.674	7341.8
857.996	7324.62
858.318	7256.83
858.64	7328.01
858.961	7284.85
859.283	7271.29
859.605	7261.12
859.926	7252.54
860.248	7216.6
860.57	7238.3
860.891	7214.34
861.212	7174.8
861.534	7197.62
861.855	7146.78
862.176	7155.36
862.498	7120.34
862.819	7179.32
863.14	7072.65
863.461	7084.86
863.782	7050.96
864.103	7100.45
864.424	7094.57
864.745	7033.56
865.065	6958.98
865.386	6989.04
865.707	6967.35
866.027	6996.95
866.348	6966.22
866.668	6991.07
866.989	6973.67
867.309	6947.23
867.63	6895.93
867.95	6929.38
868.27	6866.1
868.59	6948.59
868.91	6901.36
869.23	6842.38
869.55	6895.71
869.87	6875.82
870.19	6855.94
870.51	6874.24
870.83	6877.18
871.15	6768.03
871.469	6795.6
871.789	6816.84
872.109	6806.22
872.428	6815.03
872.748	6796.95
873.067	6767.35
873.386	6773.45
873.706	6746.33
874.025	6709.27
874.344	6755.15
874.663	6764.86
874.982	6707.24
875.301	6716.5
875.62	6691.19
875.939	6672.89
876.258	6674.92
876.577	6641.25
876.896	6673.57
877.214	6623.17
877.533	6592.67
877.852	6633.12
878.17	6605.77
878.489	6646.22
878.807	6642.38
879.125	6632.44
879.444	6577.07
879.762	6555.83
880.08	6551.76
880.398	6588.82
880.716	6527.81
881.034	6577.75
881.352	6512.67
881.67	6506.11
881.988	6497.75
882.306	6457.53
882.624	6497.53
882.941	6463.63
883.259	6441.48
883.577	6466.12
883.894	6406.46
884.212	6408.72
884.529	6387.02
884.846	6390.64
885.164	6367.13
885.481	6284.43
885.798	6342.73
886.115	6271.54
886.432	6269.74
886.75	6297.98
887.067	6232.45
887.383	6226.8
887.7	6245.33
888.017	6197.2
888.334	6217.08
888.651	6179.34
888.967	6182.51
889.284	6193.35
889.6	6117.42
889.917	6117.65
890.233	6127.14
890.55	6105.45
890.866	6131.66
891.182	6063.41
891.498	6109.74
891.815	6041.95
892.131	6093.92
892.447	6034.26
892.763	5985
893.079	6002.4
893.395	5932.8
893.71	5976.41
894.026	5952.68
894.342	5939.35
894.657	5889.41
894.973	5872.46
895.289	5838.79
895.604	5834.95
895.92	5818.9
896.235	5773.7
896.55	5778.45
896.865	5781.39
897.181	5717.66
897.496	5719.92
897.811	5718.34
898.126	5719.69
898.441	5680.15
898.756	5674.72
899.071	5643.54
899.386	5639.7
899.7	5619.36
900.015	5596.08
900.33	5567.16
900.644	5485.58
900.959	5529.87
901.273	5538.23
901.588	5507.04
901.902	5410.32
902.216	5429.76
902.531	5443.77
902.845	5380.49
903.159	5380.72
903.473	5385.24
903.787	5355.86
904.101	5276.77
904.415	5347.05
904.729	5297.33
905.042	5246.26
905.356	5253.72
905.67	5292.36
905.984	5221.85
906.297	5201.97
906.611	5184.34
906.924	5161.97
907.237	5164
907.551	5086.49
907.864	5119.26
908.177	5070.22
908.491	5079.03
908.804	5042.88
909.117	5028.19
909.43	5011.92
909.743	4946.83
910.056	4976.89
910.368	4911.81
910.681	4961.52
910.994	4904.35
911.307	4906.83
911.619	4844.46
911.932	4846.72
912.244	4859.38
912.557	4813.96
912.869	4830.23
913.181	4783.45
913.494	4822.99
913.806	4792.04
914.118	4754.3
914.43	4704.81
914.742	4710.68
915.054	4670
915.366	4651.47
915.678	4645.82
915.99	4610.12
916.302	4600.85
916.613	4552.95
916.925	4588.2
917.236	4563.34
917.548	4468.88
917.859	4538.93
918.171	4530.12
918.482	4465.94
918.794	4479.73
919.105	4435.66
919.416	4457.58
919.727	4395.66
920.038	4367.41
920.349	4369.22
920.66	4327.41
920.971	4359.05
921.282	4325.61
921.593	4290.58
921.903	4289.45
922.214	4269.79
922.525	4280.41
922.835	4254.65
923.146	4192.95
923.456	4211.26
923.767	4188.21
924.077	4194.31
924.387	4154.99
924.697	4147.31
925.008	4105.95
925.318	4111.83
925.628	4131.94
925.938	4068.21
926.248	4055.78
926.558	4030.25
926.867	3999.06
927.177	3978.95
927.487	3982.34
927.796	3983.47
928.106	3923.81
928.416	3973.53
928.725	3931.72
929.034	3914.32
929.344	3847.43
929.653	3884.26
929.962	3824.15
930.271	3838.16
930.581	3824.15
930.89	3786.19
931.199	3730.37
931.508	3766.53
931.817	3794.1
932.125	3761.1
932.434	3732.85
932.743	3724.49
933.051	3697.15
933.36	3683.14
933.669	3640.2
933.977	3655.12
934.286	3639.3
934.594	3612.86
934.902	3628.9
935.21	3574.44
935.519	3551.39
935.827	3557.49
936.135	3540.32
936.443	3496.93
936.751	3524.72
937.059	3531.05
937.367	3515.46
937.674	3523.14
937.982	3475.01
938.29	3454.67
938.597	3465.52
938.905	3438.62
939.213	3431.17
939.52	3378.51
939.827	3412.18
940.135	3378.51
940.442	3351.17
940.749	3363.15
941.056	3355.01
941.363	3320.89
941.67	3318.4
941.977	3307.78
942.284	3300.32
942.591	3288.12
942.898	3220.55
943.205	3254
943.511	3235.01
943.818	3227.78
944.125	3196.82
944.431	3152.3
944.738	3182.36
945.044	3151.85
945.35	3182.59
945.657	3108.92
945.963	3129.48
946.269	3147.78
946.575	3103.94
946.881	3080.89
947.187	3059.2
947.493	3027.11
947.799	3075.24
948.105	3063.49
948.41	3020.56
948.716	3037.96
949.022	3018.52
949.327	3007.45
949.633	2939.2
949.938	2970.16
950.244	2951.63
950.549	2938.3
950.854	2919.99
951.16	2920.67
951.465	2875.7
951.77	2876.15
952.075	2861.01
952.38	2870.73
952.685	2864.4
952.99	2819.88
953.294	2832.99
953.599	2767.23
953.904	2787.79
954.209	2788.25
954.513	2797.06
954.818	2787.12
955.122	2758.19
955.426	2747.34
955.731	2746.89
956.035	2740.79
956.339	2708.93
956.643	2737.17
956.948	2682.71
957.252	2701.47
957.556	2673.45
957.86	2664.63
958.163	2632.09
958.467	2640
958.771	2642.26
959.075	2630.06
959.378	2623.28
959.682	2632.32
959.985	2585.99
960.289	2579.89
960.592	2560
960.896	2563.62
961.199	2554.13
961.502	2579.66
961.805	2516.39
962.108	2516.61
962.411	2536.95
962.714	2478.42
963.017	2505.32
963.32	2454.02
963.623	2483.85
963.926	2491.08
964.228	2422.61
964.531	2455.15
964.833	2413.34
965.136	2393.68
965.438	2389.39
965.741	2423.28
966.043	2383.28
966.345	2419.89
966.648	2359.56
966.95	2337.18
967.252	2366.56
967.554	2327.02
967.856	2332.21
968.158	2291.76
968.46	2272.78
968.761	2291.54
969.063	2294.02
969.365	2288.37
969.666	2282.04
969.968	2220.35
970.269	2244.98
970.571	2267.36
970.872	2225.32
971.174	2233.01
971.475	2215.61
971.776	2189.84
972.077	2164.76
972.378	2225.55
972.679	2152.78
972.98	2179.22
973.281	2160.92
973.582	2160.01
973.883	2172.67
974.183	2102.61
974.484	2138.32
974.785	2127.25
975.085	2134.7
975.386	2108.49
975.686	2077.76
975.986	2111.88
976.287	2084.99
976.587	2069.62
976.887	2050.19
977.187	2054.03
977.487	2035.72
977.787	2035.95
978.087	2061.26
978.387	2009.28
978.687	2026.68
978.987	1992.33
979.286	1993.24
979.586	1972.9
979.885	1970.64
980.185	1961.15
980.484	1958.66
980.784	1936.74
981.083	1986.46
981.382	1936.52
981.682	1946.69
981.981	1950.75
982.28	1933.35
982.579	1903.07
982.878	1903.3
983.177	1894.71
983.475	1890.87
983.774	1862.85
984.073	1877.54
984.372	1837.54
984.67	1857.2
984.969	1845.67
985.267	1873.24
985.566	1842.51
985.864	1809.97
986.162	1826.46
986.461	1814.71
986.759	1799.8
987.057	1789.63
987.355	1811.55
987.653	1778.1
987.951	1794.37
988.249	1775.84
988.547	1762.28
988.844	1747.37
989.142	1756.18
989.44	1742.85
989.737	1732.68
990.035	1745.56
990.332	1719.12
990.63	1711.66
990.927	1694.49
991.224	1691.1
991.521	1705.11
991.819	1680.03
992.116	1705.56
992.413	1632.57
992.71	1649.52
993.006	1626.47
993.303	1645.9
993.6	1651.33
993.897	1614.04
994.193	1625.79
994.49	1624.66
994.787	1585.11
995.083	1593.25
995.379	1577.43
995.676	1569.97
995.972	1576.07
996.268	1568.62
996.565	1549.18
996.861	1545.57
997.157	1549.63
997.453	1545.79
997.749	1520.48
998.044	1531.56
998.34	1506.92
998.636	1503.31
998.932	1494.49
999.227	1519.8
999.523	1482.52
999.818	1471.44
1000.114	1450.43
1000.409	1482.74
1000.704	1445.23
1001	1440.94
1001.295	1440.48
1001.59	1432.35
1001.885	1453.82
1002.18	1418.56
1002.475	1443.2
1002.77	1416.76
1003.065	1443.65
1003.359	1398.68
1003.654	1408.4
1003.949	1351.67
1004.243	1376.53
1004.538	1376.76
1004.832	1350.09
1005.127	1373.59
1005.421	1351
1005.715	1334.5
1006.009	1330.21
1006.304	1337.44
1006.598	1329.53
1006.892	1325.46
1007.186	1312.58
1007.48	1331.11
1007.773	1290.21
1008.067	1301.96
1008.361	1292.47
1008.655	1272.13
1008.948	1285.91
1009.242	1253.82
1009.535	1246.82
1009.829	1261.73
1010.122	1242.75
1010.415	1243.2
1010.708	1242.52
1011.001	1228.06
1011.295	1223.77
1011.588	1212.47
1011.881	1214.05
1012.173	1190.32
1012.466	1185.58
1012.759	1168.4
1013.052	1206.37
1013.344	1168.18
1013.637	1172.47
1013.93	1183.54
1014.222	1153.94
1014.514	1164.11
1014.807	1152.81
1015.099	1132.7
1015.391	1150.1
1015.683	1139.25
1015.976	1133.6
1016.268	1117.56
1016.56	1118.91
1016.851	1115.97
1017.143	1103.54
1017.435	1082.3
1017.727	1100.15
1018.018	1088.63
1018.31	1070.32
1018.602	1053.15
1018.893	1066.94
1019.185	1080.27
1019.476	1046.6
1019.767	1068.74
1020.058	1023.77
1020.35	1042.08
1020.641	1061.51
1020.932	1001.4
1021.223	1014.28
1021.514	1010.67
1021.804	1012.93
1022.095	976.77
1022.386	982.64
1022.677	958.69
1022.967	975.41
1023.258	969.99
1023.548	982.64
1023.839	952.81
1024.129	980.38
1024.419	934.28
1024.709	944
1025	926.15
1025.29	919.82
1025.58	957.79
1025.87	920.5
1026.16	895.87
1026.449	913.94
1026.739	925.24
1027.029	897.67
1027.319	913.27
1027.608	880.27
1027.898	885.7
1028.187	901.06
1028.477	872.36
1028.766	883.21
1029.055	849.31
1029.344	875.08
1029.634	866.94
1029.923	836.21
1030.212	850.67
1030.501	835.75
1030.79	819.48
1031.078	857.68
1031.367	831.24
1031.656	821.29
1031.945	815.64
1032.233	824.23
1032.522	805.02
1032.81	813.16
1033.099	785.81
1033.387	805.47
1033.675	793.5
1033.963	773.61
1034.251	798.02
1034.54	781.07
1034.828	785.81
1035.116	782.65
1035.403	775.87
1035.691	760.28
1035.979	758.92
1036.267	757.11
1036.554	773.84
1036.842	741.29
1037.129	719.15
1037.417	755.53
1037.704	756.21
1037.992	721.41
1038.279	753.95
1038.566	732.03
1038.853	732.03
1039.14	732.03
