Data from blue_shiny_book_FLMS001491_00028.txt Node
Date: Wed Feb 08 15:26:45 GMT 2017
User: dcchb
Spectrometer: FLMS00149
Trigger mode: 0
Integration Time (sec): 2.000000E-2
Scans to average: 10
Electric dark correction enabled: true
Nonlinearity correction enabled: false
Boxcar width: 0
XAxis mode: Wavelengths
Number of Pixels in Spectrum: 2048
>>>>>Begin Spectral Data<<<<<
341.393	-17.97
341.776	-17.97
342.16	-17.97
342.543	-74.01
342.927	-67.46
343.31	-83.73
343.693	-65.42
344.077	-63.84
344.46	-75.37
344.843	-48.02
345.226	-44.63
345.61	-13.22
345.993	-17.06
346.376	-4.41
346.759	11.86
347.142	28.59
347.525	39.66
347.908	53.67
348.291	76.95
348.674	88.25
349.057	116.72
349.44	118.75
349.823	123.95
350.206	153.1
350.588	206.66
350.971	220.9
351.354	222.71
351.737	233.78
352.119	265.64
352.502	275.59
352.884	270.39
353.267	289.82
353.65	299.77
354.032	330.05
354.414	301.12
354.797	330.73
355.179	311.97
355.562	333.44
355.944	346.32
356.326	329.6
356.709	347.45
357.091	352.65
357.473	349.93
357.855	347.22
358.238	359.2
358.62	329.14
359.002	347.67
359.384	368.46
359.766	361.46
360.148	349.71
360.53	363.27
360.912	357.84
361.294	332.08
361.676	342.25
362.057	333.66
362.439	347
362.821	352.87
363.203	340.44
363.584	344.28
363.966	345.87
364.348	363.04
364.729	361.91
365.111	342.02
365.493	341.12
365.874	325.3
366.256	333.21
366.637	318.75
367.019	328.47
367.4	327.56
367.781	337.28
368.163	339.99
368.544	321.01
368.925	334.57
369.306	350.61
369.688	349.26
370.069	337.28
370.45	367.11
370.831	350.16
371.212	346.32
371.593	344.28
371.974	336.6
372.355	342.25
372.736	354.68
373.117	369.59
373.498	346.32
373.879	368.46
374.26	339.31
374.641	367.11
375.021	356.71
375.402	353.32
375.783	353.1
376.163	372.31
376.544	363.95
376.925	366.21
377.305	365.08
377.686	374.34
378.066	375.7
378.447	384.06
378.827	390.16
379.208	362.36
379.588	386.77
379.968	395.13
380.349	395.81
380.729	407.56
381.109	403.94
381.489	406.2
381.87	398.07
382.25	401.91
382.63	419.31
383.01	429.25
383.39	405.3
383.77	424.73
384.15	416.15
384.53	436.26
384.91	443.94
385.29	445.98
385.67	434.68
386.049	425.19
386.429	456.82
386.809	447.78
387.189	454.56
387.568	461.12
387.948	480.33
388.328	462.25
388.707	475.35
389.087	463.15
389.466	480.1
389.846	474.45
390.225	498.4
390.605	490.5
390.984	476.71
391.363	479.42
391.743	494.11
392.122	489.82
392.501	509.25
392.881	517.61
393.26	506.77
393.639	535.92
394.018	540.66
394.397	536.14
394.776	543.15
395.155	528.69
395.534	545.86
395.913	539.76
396.292	559.87
396.671	560.32
397.05	599.87
397.429	589.7
397.808	597.16
398.186	589.25
398.565	616.37
398.944	601.45
399.323	608.68
399.701	610.04
400.08	609.59
400.458	618.63
400.837	627.67
401.215	648.46
401.594	655.46
401.972	655.69
402.351	677.38
402.729	656.14
403.107	685.97
403.486	702.92
403.864	692.07
404.242	707.44
404.62	710.83
404.999	736.14
405.377	729.81
405.755	756.48
406.133	718.29
406.511	734.56
406.889	743.82
407.267	760.77
407.645	778.62
408.023	791.28
408.401	800.77
408.779	830.6
409.156	821.56
409.534	828.34
409.912	835.35
410.29	858.62
410.667	871.28
411.045	881.9
411.422	909.69
411.8	932.52
412.178	927.09
412.555	932.97
412.933	960.99
413.31	965.06
413.687	1000.31
414.065	986.08
414.442	992.63
414.819	1020.65
415.197	1000.54
415.574	1048.45
415.951	1035.57
416.328	1080.08
416.705	1058.62
417.082	1090.48
417.46	1134.32
417.837	1138.84
418.214	1130.03
418.591	1122.12
418.967	1154.21
419.344	1132.51
419.721	1197.6
420.098	1188.78
420.475	1217.03
420.852	1214.54
421.228	1238.72
421.605	1245.5
421.982	1255
422.358	1289.12
422.735	1311.49
423.111	1317.37
423.488	1314.65
423.864	1317.14
424.241	1358.04
424.617	1360.76
424.994	1391.71
425.37	1366.4
425.746	1413.64
426.123	1450.92
426.499	1457.25
426.875	1498.6
427.251	1494.09
427.627	1519.17
428.003	1528.89
428.379	1570.24
428.756	1578.15
429.132	1599.17
429.507	1640.3
429.883	1667.64
430.259	1681.42
430.635	1705.83
431.011	1721.88
431.387	1761.2
431.763	1802.1
432.138	1793.06
432.514	1759.84
432.89	1844.81
433.265	1872.83
433.641	1917.8
434.016	1931.59
434.392	1951.47
434.767	1974.52
435.143	1993.05
435.518	2036.67
435.894	2056.33
436.269	2095.2
436.644	2114.41
437.02	2132.94
437.395	2167.29
437.77	2204.12
438.145	2189.21
438.52	2224.46
438.895	2223.56
439.271	2271.47
439.646	2330.45
440.021	2372.71
440.395	2392.82
440.77	2370.45
441.145	2407.28
441.52	2471.91
441.895	2492.25
442.27	2520.95
442.645	2476.21
443.019	2512.14
443.394	2549.88
443.769	2548.75
444.143	2556.66
444.518	2636.2
444.892	2590.1
445.267	2659.93
445.641	2671.68
446.016	2729.53
446.39	2726.82
446.764	2767.95
447.139	2751.91
447.513	2838.68
447.887	2772.92
448.262	2821.96
448.636	2817.67
449.01	2851.11
449.384	2877.78
449.758	2949.41
450.132	2958.23
450.506	2998
450.88	3012.92
451.254	3031.67
451.628	3074.16
452.002	3128.62
452.376	3175.62
452.75	3199.35
453.123	3217.2
453.497	3252.91
453.871	3280.93
454.244	3356.41
454.618	3342.17
454.992	3392.79
455.365	3434.6
455.739	3552.56
456.112	3561.83
456.486	3590.75
456.859	3690.41
457.232	3709.17
457.606	3729.28
457.979	3763.18
458.352	3866
458.725	3905.32
459.099	3940.35
459.472	3963.4
459.845	4039.78
460.218	4123.62
460.591	4197.52
460.964	4177.86
461.337	4247.91
461.71	4345.99
462.083	4423.5
462.456	4466.66
462.829	4476.83
463.201	4557.73
463.574	4561.57
463.947	4614.68
464.32	4744.17
464.692	4752.08
465.065	4817.84
465.438	4834.11
465.81	4971.28
466.183	5042.01
466.555	5126.98
466.928	5130.37
467.3	5197.04
467.672	5285.85
468.045	5423.7
468.417	5476.58
468.789	5501.21
469.161	5568.33
469.534	5670.7
469.906	5806.97
470.278	5776.23
470.65	5910.24
471.022	5974.19
471.394	6065.26
471.766	6149.33
472.138	6258.25
472.51	6436.1
472.882	6536.44
473.253	6584.35
473.625	6683.55
473.997	6839.93
474.369	6904.56
474.74	6935.75
475.112	7098.01
475.484	7243.54
475.855	7317.89
476.227	7321.73
476.598	7530.31
476.97	7624.77
477.341	7732.11
477.713	7994.03
478.084	8022.5
478.455	8288.48
478.827	8429.04
479.198	8632.43
479.569	8619.55
479.94	8914
480.311	8983.83
480.682	9233.32
481.053	9389.7
481.424	9437.15
481.795	9567.32
482.166	9755.34
482.537	9913.52
482.908	10080.98
483.279	10215.66
483.65	10423.12
484.021	10661.98
484.391	10748.08
484.762	10859.04
485.133	10950.11
485.503	11172.93
485.874	11445.46
486.244	11557.1
486.615	11698.11
486.985	11940.59
487.356	12115.05
487.726	12153.01
488.097	12481.37
488.467	12626.67
488.837	12793.67
489.207	12921.36
489.578	13189.14
489.948	13328.35
490.318	13534.9
490.688	13598.17
491.058	13809.02
491.428	14041.33
491.798	14224.37
492.168	14417.81
492.538	14484.48
492.908	14740.52
493.278	14887.41
493.648	14945.93
494.017	15131.47
494.387	15308.41
494.757	15411.46
495.126	15605.13
495.496	15709.98
495.866	15838.79
496.235	16103.64
496.605	16258.44
496.974	16391.55
497.344	16460.25
497.713	16577.76
498.082	16651.65
498.452	16884.19
498.821	17028.59
499.19	17022.04
499.559	17250.28
499.928	17464.06
500.298	17445.3
500.667	17626.32
501.036	17678.52
501.405	17871.96
501.774	18003.93
502.143	18169.35
502.512	18285.28
502.88	18516.46
503.249	18542.68
503.618	18655.44
503.987	18760.3
504.356	18847.75
504.724	19051.82
505.093	19079.61
505.462	19122.1
505.83	19340.17
506.199	19530.45
506.567	19737.67
506.936	19688.63
507.304	19909.65
507.672	20109.19
508.041	20172.24
508.409	20447.03
508.777	20577.43
509.145	20764.76
509.514	20826.91
509.882	20988.04
510.25	21144.64
510.618	21332.89
510.986	21400
511.354	21511.19
511.722	21781.46
512.09	21915.92
512.458	21961.34
512.826	22076.59
513.193	22151.85
513.561	22297.15
513.929	22467.09
514.297	22674.32
514.664	22734.66
515.032	22826.41
515.4	23193.4
515.767	23359.72
516.135	23472.26
516.502	23476.33
516.869	23993.38
517.237	24092.81
517.604	24107.05
517.972	24355.18
518.339	24428.4
518.706	24434.72
519.073	24587.04
519.44	24710.2
519.808	24967.14
520.175	25013.24
520.542	25388.6
520.909	25534.13
521.276	25596.05
521.643	25977.96
522.009	26087.34
522.376	26268.57
522.743	26538.85
523.11	26747.21
523.477	27051.15
523.843	27191.04
524.21	27511.48
524.577	27703.11
524.943	27921.86
525.31	27843.67
525.676	28224
526.043	28257.9
526.409	28472.58
526.776	28734.05
527.142	28731.33
527.508	29069.18
527.874	29084.32
528.241	29361.83
528.607	29569.28
528.973	29906.67
529.339	29912.55
529.705	30259.88
530.071	30532.87
530.437	30848.79
530.803	30969.47
531.169	31211.72
531.535	31246.75
531.901	31317.03
532.267	31434.99
532.632	31789.56
532.998	31845.83
533.364	31970.12
533.73	31987.52
534.095	32259.6
534.461	32264.58
534.826	32422.76
535.192	32551.57
535.557	32766.03
535.923	32702.3
536.288	32937.33
536.653	33079.47
537.019	33197.43
537.384	33342.06
537.749	33682.62
538.114	33849.17
538.479	33994.25
538.845	34206.45
539.21	34064.98
539.575	34274.47
539.94	34344.29
540.305	34584.74
540.67	34507
541.034	34629.48
541.399	34775.47
541.764	34717.17
542.129	34897.73
542.494	34848.46
542.858	35018.63
543.223	35016.82
543.587	35295.91
543.952	35177.04
544.316	35352.4
544.681	35445.96
545.045	35774.09
545.41	35925.95
545.774	36062.44
546.138	36101.99
546.503	36247.97
546.867	36340.17
547.231	36753.5
547.595	36685.02
547.959	36890.67
548.324	36844.12
548.688	37044.11
549.052	37052.92
549.416	36970.67
549.779	36995.98
550.143	37025.13
550.507	37161.17
550.871	37400.94
551.235	37267.83
551.599	37406.36
551.962	37514.15
552.326	37761.83
552.689	37889.51
553.053	37929.29
553.417	38138.55
553.78	38630.28
554.143	38393.23
554.507	38928.35
554.87	38907.56
555.234	39308.91
555.597	39175.35
555.96	39260.32
556.323	39521.79
556.686	39390.26
557.05	39736.24
557.413	39711.84
557.776	39653.31
558.139	39847.65
558.502	39849.01
558.865	39828.44
559.228	40140.3
559.59	40074.54
559.953	40157.25
560.316	40441.76
560.679	40597.24
561.041	40870.9
561.404	40996.1
561.767	41472.69
562.129	41390.21
562.492	41840.82
562.854	41911.78
563.217	41973.92
563.579	42275.16
563.941	42392.22
564.304	42660.01
564.666	42802.6
565.028	42653.23
565.39	42870.85
565.753	43017.51
566.115	43133.44
566.477	43236.49
566.839	43227.45
567.201	43369.82
567.563	43276.04
567.925	43491.4
568.287	43337.96
568.648	43561
569.01	43886.64
569.372	44215.9
569.734	44021.78
570.095	44407.76
570.457	44768.43
570.819	44756.9
571.18	44970.68
571.542	45195.08
571.903	45166.16
572.265	45553.94
572.626	45598.69
572.987	45705.13
573.349	45871
573.71	46128.62
574.071	46111.44
574.432	46068.73
574.794	46214.94
575.155	46147.83
575.516	45942.41
575.877	46017.21
576.238	46118.22
576.599	46188.73
576.96	45993.03
577.32	46165.23
577.681	46336.52
578.042	46460.13
578.403	46567.93
578.763	46689.96
579.124	46675.5
579.485	46983.06
579.845	47093.11
580.206	47189.83
580.566	47388.02
580.927	47282.94
581.287	47522.93
581.648	47467.79
582.008	47709.82
582.368	47691.51
582.728	47588.69
583.089	47766.09
583.449	47602.03
583.809	47471.86
584.169	47601.57
584.529	47554.34
584.889	47666.66
585.249	47280.45
585.609	47115.48
585.969	47327.68
586.329	47208.14
586.688	47230.74
587.048	47274.35
587.408	47268.93
587.768	47360.45
588.127	47431.41
588.487	47471.18
588.846	47774.9
589.206	47628.47
589.565	47786.43
589.925	48096.93
590.284	47742.81
590.643	48031.84
591.003	48083.37
591.362	48238.62
591.721	47981.68
592.08	48154.55
592.44	48225.29
592.799	48146.87
593.158	47951.85
593.517	48073.65
593.876	47993.65
594.235	47766.31
594.593	47882.47
594.952	47925.86
595.311	47674.79
595.67	47699.88
596.029	47966.31
596.387	47767.44
596.746	48001.34
597.104	47723.83
597.463	47809.48
597.822	48143.03
598.18	48113.88
598.538	48082.69
598.897	48369.69
599.255	47989.59
599.613	48583.02
599.972	48546.63
600.33	48617.14
600.688	48562.9
601.046	48718.38
601.404	48825.5
601.762	48782.79
602.12	48908.66
602.478	48800.86
602.836	48850.13
603.194	48562
603.552	48698.72
603.91	48403.81
604.268	48608.78
604.625	48320.88
604.983	48369.91
605.341	48054.67
605.698	48382.57
606.056	48467.77
606.413	48500.08
606.771	48538.5
607.128	48692.39
607.485	48347.09
607.843	48616.69
608.2	48918.6
608.557	48949.33
608.914	48832.5
609.272	49186.39
609.629	49183.45
609.986	49434.07
610.343	49386.39
610.7	49580.5
611.057	49472.94
611.414	49614.4
611.771	49660.28
612.127	49827.05
612.484	49678.58
612.841	49869.31
613.198	49800.61
613.554	49672.93
613.911	49801.74
614.267	49660.73
614.624	49535.31
614.98	49629.77
615.337	49742.08
615.693	49627.06
616.05	49606.94
616.406	49801.29
616.762	49744.34
617.118	49607.4
617.475	49542.54
617.831	49685.36
618.187	49856.43
618.543	49736.21
618.899	50069.08
619.255	50080.15
619.611	50085.58
619.967	50326.47
620.323	50390.88
620.678	50260.49
621.034	50363.53
621.39	50371.22
621.746	50318.79
622.101	50795.61
622.457	50431.78
622.812	50539.35
623.168	50646.24
623.523	50520.59
623.879	50655.05
624.234	50305
624.589	50367.6
624.945	50358.79
625.3	50379.81
625.655	50101.85
626.01	50215.06
626.365	50092.36
626.72	50086.25
627.075	49998.57
627.43	50094.39
627.785	49989.76
628.14	49955.41
628.495	50081.73
628.85	50064.56
629.205	49937.33
629.559	50127.38
629.914	50101.62
630.269	50193.82
630.623	50204.67
630.978	50166.48
631.332	50395.62
631.687	50470.88
632.041	50437.88
632.396	50363.99
632.75	50267.72
633.104	50343.2
633.459	50253.93
633.813	50130.55
634.167	50092.58
634.521	49985.24
634.875	50082.64
635.229	49880.84
635.583	49773.72
635.937	49738.47
636.291	49663.67
636.645	49566.27
636.999	49378.93
637.352	49542.09
637.706	49141.19
638.06	49348.87
638.413	49261.87
638.767	49007.64
639.121	48983.23
639.474	48815.33
639.828	48797.02
640.181	48948.66
640.534	48927.64
640.888	48900.97
641.241	48790.69
641.594	48949.79
641.947	49138.71
642.301	49122.44
642.654	49156.11
643.007	49173.96
643.36	49205.37
643.713	49116.56
644.066	49316.78
644.419	49201.76
644.771	49160.4
645.124	49002.44
645.477	48932.16
645.83	48742.33
646.182	48315.45
646.535	47930.6
646.888	47786.2
647.24	47297.63
647.593	47480.67
647.945	47269.83
648.298	46928.14
648.65	46886.79
649.002	46763.63
649.355	46814.93
649.707	47006.56
650.059	47197.29
650.411	47701.01
650.763	47778.97
651.115	48080.2
651.467	47968.12
651.819	47944.84
652.171	47892.87
652.523	47813.32
652.875	47879.53
653.227	47809.93
653.578	48192.52
653.93	48177.15
654.282	48051.96
654.633	47775.13
654.985	48013.99
655.337	48172.86
655.688	48179.64
656.039	48293.53
656.391	47796.14
656.742	47990.04
657.094	47962.69
657.445	47991.85
657.796	48022.35
658.147	47896.71
658.498	47877.5
658.849	47895.8
659.2	47769.93
659.551	47663.27
659.902	47766.99
660.253	47554.57
660.604	47683.83
660.955	47384.63
661.306	47395.7
661.656	47316.38
662.007	47229.15
662.358	47130.17
662.708	47157.52
663.059	47077.75
663.409	46922.95
663.76	47231.41
664.11	47168.14
664.461	47217.4
664.811	47070.29
665.161	47232.54
665.511	47254.01
665.862	47395.25
666.212	47521.35
666.562	47522.25
666.912	47540.56
667.262	47535.81
667.612	47627.56
667.962	47724.96
668.312	47682.48
668.662	47807.44
669.011	47691.51
669.361	47683.15
669.711	47564.29
670.06	47489.49
670.41	47346.21
670.76	47285.42
671.109	47391.86
671.459	47179.44
671.808	47235.26
672.157	47164.97
672.507	46949.84
672.856	46964.3
673.205	46812.22
673.554	46891.31
673.904	46616.06
674.253	46956.62
674.602	46626.68
674.951	45980.15
675.3	45906.93
675.649	46423.53
675.998	46330.65
676.346	46288.39
676.695	46438.89
677.044	46096.08
677.393	46376.97
677.741	46482.73
678.09	46470.3
678.438	46427.59
678.787	46389.63
679.135	46439.8
679.484	46288.84
679.832	46509.85
680.181	46423.07
680.529	46362.74
680.877	46476.18
681.225	46405.67
681.573	46584.65
681.922	46275.96
682.27	46173.36
682.618	46311.44
682.966	46209.97
683.314	46083.42
683.661	45928.4
684.009	45702.19
684.357	45533.15
684.705	45414.74
685.053	45429.65
685.4	45346.49
685.748	45085.26
686.095	44927.07
686.443	44650.01
686.79	44699.95
687.138	44630.13
687.485	44520.3
687.832	44361.21
688.18	44435.1
688.527	44080.31
688.874	43991.72
689.221	43996.02
689.568	43912.4
689.915	43865.85
690.262	43866.08
690.609	43704.95
690.956	43538.18
691.303	43676.7
691.65	43550.61
691.997	43619.31
692.344	43473.32
692.69	43391.74
693.037	43409.82
693.383	43286.88
693.73	43532.3
694.077	43306.32
694.423	43283.49
694.769	43072.65
695.116	42985.42
695.462	42845.54
695.808	42743.85
696.155	42872.21
696.501	42425.66
696.847	42451.88
697.193	42161.26
697.539	42295.95
697.885	41862.52
698.231	41662.52
698.577	41644.44
698.923	41427.5
699.269	41334.17
699.614	41025.93
699.96	40811.47
700.306	40855.08
700.651	40521.08
700.997	40306.4
701.342	40161.09
701.688	40077.93
702.033	39956.12
702.379	40098.27
702.724	39917.93
703.069	40079.74
703.415	39666.87
703.76	39675.91
704.105	39762.46
704.45	39594.78
704.795	39408.12
705.14	39282.92
705.485	39219.65
705.83	39221.68
706.175	39266.88
706.52	39340.1
706.865	39222.58
707.209	39373.54
707.554	39186.65
707.899	39283.83
708.243	38942.59
708.588	39076.15
708.932	38774.69
709.277	38756.61
709.621	38880.67
709.966	38545.77
710.31	38512.77
710.654	38116.62
710.998	38325.43
711.342	38240.92
711.687	38147.13
712.031	37903.3
712.375	37605.9
712.719	37611.1
713.063	37376.98
713.407	37548.05
713.75	37227.61
714.094	37158.91
714.438	36894.74
714.782	36983.32
715.125	36660.39
715.469	36802.31
715.812	36561.41
716.156	36219.73
716.499	36347.63
716.843	36323.23
717.186	36016.34
717.53	36216.11
717.873	36232.38
718.216	36158.26
718.559	36137.92
718.902	35917.36
719.246	36120.29
719.589	36191.03
719.932	36182.89
720.275	36148.99
720.617	36045.27
720.96	35883.69
721.303	36133.85
721.646	36147.41
721.989	35997.81
722.331	36146.96
722.674	36104.25
723.016	36089.11
723.359	35954.42
723.701	36094.31
724.044	35838.49
724.386	35667.65
724.729	35883.24
725.071	35735.9
725.413	35748.1
725.755	35679.85
726.097	35415.45
726.439	35196.25
726.782	35088.68
727.124	35166.65
727.465	34939.76
727.807	34852.08
728.149	34675.81
728.491	34484.86
728.833	34600.79
729.175	34546.32
729.516	34390.62
729.858	34517.4
730.199	34382.49
730.541	34349.27
730.882	34279.66
731.224	34398.98
731.565	34089.61
731.906	34186.78
732.248	34111.98
732.589	34065.43
732.93	33985.43
733.271	34160.8
733.612	34209.16
733.953	34403.05
734.294	34083.96
734.635	34193.11
734.976	34358.08
735.317	34198.54
735.658	34224.52
735.999	34366.67
736.339	34525.08
736.68	34420.45
737.021	34555.59
737.361	34368.02
737.702	34530.28
738.042	34531.18
738.383	34422.03
738.723	34411.41
739.063	34373.9
739.404	34485.08
739.744	34488.02
740.084	34156.5
740.424	34296.16
740.764	34234.47
741.104	34362.37
741.444	33990.41
741.784	33884.19
742.124	33949.05
742.464	33822.5
742.804	33756.06
743.143	33724.88
743.483	33673.13
743.823	33478.55
744.162	33606.46
744.502	33520.81
744.841	33302.74
745.181	33616.18
745.52	33523.53
745.86	33482.17
746.199	33341.38
746.538	33482.4
746.877	33553.13
747.216	33536.41
747.556	33421.38
747.895	33419.12
748.234	33361.72
748.573	33464.54
748.911	33356.52
749.25	33556.52
749.589	33325.79
749.928	33644.88
750.267	33728.04
750.605	33645.56
750.944	33672.45
751.283	33672.22
751.621	33852.56
751.96	33715.61
752.298	33919
752.636	33906.11
752.975	33881.93
753.313	33822.27
753.651	34147.69
753.989	33933.46
754.327	33876.51
754.666	33742.95
755.004	33893.23
755.342	33916.96
755.679	33944.08
756.017	33669.74
756.355	33818.88
756.693	33783.41
757.031	33745.44
757.368	33617.99
757.706	33523.75
758.044	33481.27
758.381	33645.1
758.719	33388.16
759.056	33316.07
759.394	33155.4
759.731	33076.98
760.068	33055.97
760.405	32954.05
760.743	32827.5
761.08	32970.55
761.417	32733.94
761.754	32780.04
762.091	32834.96
762.428	32644.45
762.765	32580.5
763.102	32774.17
763.438	32525.36
763.775	32491.69
764.112	32522.2
764.449	32492.37
764.785	32507.28
765.122	32352.71
765.458	32286.27
765.795	32435.19
766.131	32450.11
766.467	32359.49
766.804	32341.41
767.14	32208.08
767.476	32404.68
767.812	32339.15
768.148	32398.58
768.485	32303.67
768.821	32055.99
769.157	31956.56
769.492	31926.73
769.828	32061.42
770.164	31779.16
770.5	31610.58
770.836	31673.4
771.171	31489.91
771.507	31443.35
771.842	31451.26
772.178	31289.23
772.513	31170.14
772.849	31180.54
773.184	30932.18
773.519	30853.54
773.855	30803.6
774.19	30704.84
774.525	30557.05
774.86	30690.15
775.195	30471.85
775.53	30378.98
775.865	30193.22
776.2	30068.47
776.535	29802.49
776.87	29810.18
777.205	29585.1
777.539	29555.95
777.874	29438.89
778.209	29023.53
778.543	29023.3
778.878	28924.78
779.212	28875.29
779.547	28825.34
779.881	28870.31
780.215	28646.82
780.55	28811.33
780.884	28561.17
781.218	28541.06
781.552	28554.62
781.886	28353.49
782.22	28171.8
782.554	28060.84
782.888	27952.15
783.222	27862.88
783.556	27955.08
783.889	27965.03
784.223	27936.55
784.557	27755.32
784.89	27767.52
785.224	27485.04
785.557	27471.93
785.891	27482.78
786.224	27347.64
786.558	27416.12
786.891	27130.47
787.224	27083.69
787.557	27019.52
787.891	27023.81
788.224	26921.67
788.557	26843.93
788.89	26814.55
789.223	26675.12
789.556	26508.12
789.888	26454.11
790.221	26400.55
790.554	26164.85
790.887	26089.6
791.219	26086.21
791.552	26050.28
791.884	25821.13
792.217	25544.98
792.549	25619.55
792.882	25434.7
793.214	25330.29
793.546	25298.66
793.879	25203.52
794.211	24953.13
794.543	25021.15
794.875	24903.41
795.207	24827.26
795.539	24690.54
795.871	24703.64
796.203	24418.23
796.535	24368.29
796.867	24179.14
797.198	24281.51
797.53	24274.28
797.862	24075.86
798.193	24181.62
798.525	24060.5
798.856	24180.72
799.188	23769.66
799.519	23700.73
799.85	23598.81
800.182	23684.69
800.513	23694.18
800.844	23554.97
801.175	23702.99
801.506	23536.22
801.837	23441.53
802.168	23449.21
802.499	23434.53
802.83	23240.18
803.161	23307.75
803.491	23240.41
803.822	23170.35
804.153	23123.12
804.483	23000.64
804.814	22886.06
805.145	23092.84
805.475	22912.73
805.805	22848.55
806.136	22807.87
806.466	22798.61
806.796	22713.41
807.126	22771.49
807.457	22609.01
807.787	22621.89
808.117	22501.44
808.447	22432.97
808.777	22377.83
809.107	22177.38
809.436	22106.65
809.766	22084.73
810.096	22103.49
810.426	21821.23
810.755	21865.75
811.085	21748.69
811.414	21779.43
811.744	21461.7
812.073	21533.78
812.403	21435.26
812.732	21267.35
813.061	21154.59
813.39	21180.57
813.719	21088.82
814.049	21206.11
814.378	21032.78
814.707	20866.01
815.036	20951.43
815.365	20844.31
815.693	20556.41
816.022	20652.45
816.351	20620.36
816.68	20396.64
817.008	20612.9
817.337	20386.92
817.665	20419.01
817.994	20410.42
818.322	20445.9
818.651	20275.74
818.979	20224.89
819.307	20314.16
819.636	20204.78
819.964	20119.58
820.292	20318.9
820.62	20282.07
820.948	20246.59
821.276	20408.39
821.604	20217.66
821.932	20322.97
822.259	20357.54
822.587	20234.38
822.915	20233.93
823.243	20386.02
823.57	20358
823.898	20328.17
824.225	20201.16
824.553	20238.68
824.88	20477.31
825.207	20400.25
825.535	20330.43
825.862	20364.1
826.189	20358.9
826.516	20420.37
826.843	20536.3
827.17	20437.77
827.497	20402.74
827.824	20248.39
828.151	20347.83
828.478	20317.09
828.805	20358.9
829.131	20195.97
829.458	20144.22
829.785	20087.49
830.111	20100.6
830.438	20186.93
830.764	20127.95
831.09	20110.77
831.417	19794.17
831.743	19996.65
832.069	20021.06
832.395	19847.73
832.722	19859.7
833.048	19915.52
833.374	19842.3
833.7	19677.56
834.026	19692.48
834.351	19734.28
834.677	19625.13
835.003	19769.76
835.329	19628.3
835.654	19694.51
835.98	19544.91
836.306	19620.16
836.631	19618.58
836.956	19494.74
837.282	19609.31
837.607	19368.64
837.932	19424.69
838.258	19468.98
838.583	19450.22
838.908	19388.08
839.233	19442.77
839.558	19365.48
839.883	19388.3
840.208	19266.05
840.533	19245.03
840.858	19368.42
841.182	19425.59
841.507	19408.19
841.832	19231.02
842.156	19212.94
842.481	19195.09
842.805	19299.94
843.13	19139.95
843.454	19129.78
843.778	19008.2
844.103	19057.47
844.427	18935.89
844.751	18991.93
845.075	18878.49
845.399	18874.64
845.723	18842.1
846.047	18902.44
846.371	18759.17
846.695	18642.33
847.019	18592.17
847.343	18487.54
847.666	18293.87
847.99	18234.89
848.313	18173.42
848.637	18134.1
848.96	17989.47
849.284	17931.84
849.607	17798.06
849.931	17724.84
850.254	17540.44
850.577	17510.61
850.9	17353.78
851.223	17342.93
851.546	17240.56
851.869	17201.24
852.192	17262.26
852.515	16993.11
852.838	16912.21
853.161	16852.33
853.483	16727.36
853.806	16594.25
854.129	16620.69
854.451	16497.53
854.774	16518.77
855.096	16481.49
855.419	16372.34
855.741	16294.37
856.063	16386.8
856.385	16268.16
856.708	16265
857.03	16085.57
857.352	16178.9
857.674	16064.55
857.996	16003.99
858.318	15925.34
858.64	16032.69
858.961	15908.85
859.283	15906.14
859.605	15848.74
859.926	15937.77
860.248	15887.38
860.57	15731.9
860.891	15771
861.212	15796.31
861.534	15817.1
861.855	15778.91
862.176	15691.68
862.498	15719.7
862.819	15725.8
863.14	15699.14
863.461	15608.29
863.782	15655.52
864.103	15612.36
864.424	15564.9
864.745	15740.26
865.065	15658.46
865.386	15406.94
865.707	15588.86
866.027	15517.9
866.348	15433.83
866.668	15420.95
866.989	15376.66
867.309	15291.91
867.63	15298.24
867.95	15277.68
868.27	15175.76
868.59	15231.8
868.91	15180.28
869.23	15133.73
869.55	15038.36
869.87	15083.56
870.19	15009.89
870.51	15051.92
870.83	14933.05
871.15	14882.21
871.469	14799.05
871.789	14801.53
872.109	14796.79
872.428	14685.38
872.748	14625.04
873.067	14568.54
873.386	14629.33
873.706	14539.84
874.025	14443.12
874.344	14441.54
874.663	14444.48
874.982	14308.66
875.301	14336.23
875.62	14347.98
875.939	14258.72
876.258	14318.61
876.577	14249.91
876.896	14244.48
877.214	14184.37
877.533	14165.84
877.852	14231.83
878.17	14194.09
878.489	14252.39
878.807	14174.43
879.125	14131.04
879.444	14176.46
879.762	14180.53
880.08	14116.58
880.398	14032.96
880.716	14113.19
881.034	14022.34
881.352	14011.95
881.67	14030.25
881.988	13968.56
882.306	13934.44
882.624	13955.9
882.941	13919.75
883.259	13970.59
883.577	13901.44
883.894	13887.66
884.212	13861.22
884.529	13935.79
884.846	13842.69
885.164	13829.35
885.481	13852.86
885.798	13804.72
886.115	13770.15
886.432	13759.98
886.75	13638.17
887.067	13706.19
887.383	13664.39
887.7	13653.77
888.017	13543.26
888.334	13591.17
888.651	13480.89
888.967	13488.8
889.284	13447.89
889.6	13435.69
889.917	13264.62
890.233	13312.98
890.55	13257.17
890.866	13228.47
891.182	13186.43
891.498	13162.48
891.815	13115.25
892.131	13011.3
892.447	13016.72
892.763	12894.46
893.079	12790.96
893.395	12755.48
893.71	12680.46
894.026	12638.88
894.342	12667.8
894.657	12528.15
894.973	12524.08
895.289	12471.88
895.604	12416.06
895.92	12287.25
896.235	12201.6
896.55	12254.03
896.865	12202.96
897.181	12096.97
897.496	12069.17
897.811	11995.05
898.126	12004.54
898.441	11964.09
898.756	11903.08
899.071	11910.76
899.386	12003.41
899.7	11812.23
900.015	11734.95
900.33	11727.04
900.644	11766.13
900.959	11752.57
901.273	11664.21
901.588	11632.12
901.902	11513.26
902.216	11610.2
902.531	11584.22
902.845	11567.49
903.159	11449.53
903.473	11495.86
903.787	11310.55
904.101	11357.1
904.415	11337.89
904.729	11327.95
905.042	11201.63
905.356	11195.3
905.67	11220.61
905.984	11204.34
906.297	11219.03
906.611	11111.46
906.924	11115.07
907.237	11055.64
907.551	11021.07
907.864	10989.43
908.177	10872.37
908.491	11007.28
908.804	10882.09
909.117	10723.45
909.43	10847.06
909.743	10697.46
910.056	10715.76
910.368	10590.57
910.681	10652.04
910.994	10539.95
911.307	10528.65
911.619	10501.08
911.932	10486.39
912.244	10393.06
912.557	10386.73
912.869	10256.79
913.181	10135.89
913.494	10227.19
913.806	10116.46
914.118	10091.15
914.43	9966.63
914.742	10012.28
915.054	9906.75
915.366	9905.39
915.678	9833.98
915.99	9808.67
916.302	9693.42
916.613	9666.3
916.925	9687.32
917.236	9557.38
917.548	9532.52
917.859	9507.89
918.171	9408.91
918.482	9350.6
918.794	9324.16
919.105	9288.68
919.416	9231.73
919.727	9176.14
920.038	9182.02
920.349	9011.63
920.66	9127.56
920.971	9068.58
921.282	9048.46
921.593	9023.6
921.903	8906.77
922.214	8942.7
922.525	8856.83
922.835	8861.12
923.146	8725.99
923.456	8736.83
923.767	8695.93
924.077	8711.07
924.387	8658.64
924.697	8623.39
925.008	8697.74
925.318	8588.81
925.628	8574.35
925.938	8523.5
926.248	8458.87
926.558	8435.6
926.867	8429.04
927.177	8429.04
927.487	8427.01
927.796	8325.54
928.106	8289.16
928.416	8208.03
928.725	8298.43
929.034	8235.15
929.344	8222.95
929.653	8169.62
929.962	8101.59
930.271	8053.69
930.581	8080.8
930.89	8075.15
931.199	7999.22
931.508	7966.01
931.817	7967.81
932.125	7963.29
932.434	7980.02
932.743	7850.3
933.051	7853.92
933.36	7851.88
933.669	7755.16
933.977	7697.31
934.286	7755.62
934.594	7718.55
934.902	7603.53
935.21	7586.35
935.519	7606.47
935.827	7540.71
936.135	7491.67
936.443	7524.21
936.751	7393.36
937.059	7434.95
937.367	7407.83
937.674	7376.64
937.982	7236.53
938.29	7211.9
938.597	7248.74
938.905	7119.93
939.213	7126.03
939.52	7056.88
939.827	7096.2
940.135	6999.7
940.442	6965.81
940.749	6980.27
941.056	6947.5
941.363	6832.25
941.67	6825.7
941.977	6762.42
942.284	6707.96
942.591	6743.66
942.898	6659.37
943.205	6655.08
943.511	6571.01
943.818	6599.26
944.125	6549.55
944.431	6534.4
944.738	6513.61
945.044	6454.18
945.35	6406.95
945.657	6380.74
945.963	6314.3
946.269	6306.39
946.575	6319.95
946.881	6241.3
947.187	6292.83
947.493	6205.15
947.799	6230.01
948.105	6203.79
948.41	6183.23
948.716	6178.03
949.022	6120.86
949.327	6140.97
949.633	6007.41
949.938	6025.04
950.244	6095.09
950.549	5997.92
950.854	5998.15
951.16	5961.31
951.465	5950.24
951.77	5902.1
952.075	5905.72
952.38	5874.99
952.685	5873.4
952.99	5856.23
953.294	5824.59
953.599	5885.61
953.904	5792.28
954.209	5709.57
954.513	5792.73
954.818	5736.23
955.122	5689.91
955.426	5740.75
955.731	5679.51
956.035	5663.69
956.339	5596.8
956.643	5650.81
956.948	5607.2
957.252	5552.28
957.556	5504.15
957.86	5568.55
958.163	5526.3
958.467	5484.71
958.771	5469.57
959.075	5435
959.378	5412.85
959.682	5397.03
959.985	5367.66
960.289	5320.43
960.592	5310.26
960.896	5294.44
961.199	5289.92
961.502	5255.34
961.805	5232.07
962.108	5121.56
962.411	5147.55
962.714	5119.75
963.017	5106.42
963.32	5155.23
963.623	5039.75
963.926	5066.19
964.228	4931.51
964.531	4956.37
964.833	4946.88
965.136	4933.99
965.438	4905.07
965.741	4857.61
966.043	4874.79
966.345	4805.86
966.648	4797.5
966.95	4736.26
967.252	4781.68
967.554	4691.74
967.856	4706.43
968.158	4609.71
968.46	4616.71
968.761	4597.51
969.063	4558.19
969.365	4557.73
969.666	4586.66
969.968	4482.93
970.269	4474.8
970.571	4498.3
970.872	4470.73
971.174	4468.24
971.475	4439.09
971.776	4413.56
972.077	4423.5
972.378	4398.64
972.679	4388.47
972.98	4323.16
973.281	4328.81
973.582	4279.77
973.883	4328.13
974.183	4256.95
974.484	4251.07
974.785	4174.01
975.085	4181.02
975.386	4234.8
975.686	4185.09
975.986	4165.88
976.287	4135.37
976.587	4094.92
976.887	4138.31
977.187	4121.13
977.487	4116.84
977.787	4061.02
978.087	4057.18
978.387	4039.78
978.687	4070.74
978.987	4043.4
979.286	4002.27
979.586	4001.59
979.885	3981.48
980.185	3947.13
980.484	3938.77
980.784	3931.54
981.083	3952.55
981.382	3933.34
981.682	3930.63
981.981	3880.46
982.28	3906.9
982.579	3859.9
982.878	3845.66
983.177	3802.95
983.475	3830.29
983.774	3774.48
984.073	3745.55
984.372	3767.92
984.67	3730.64
984.969	3738.32
985.267	3719.79
985.566	3689.51
985.864	3686.57
986.162	3649.06
986.461	3663.07
986.759	3649.06
987.057	3600.24
987.355	3598.21
987.653	3575.84
987.951	3585.78
988.249	3522.96
988.547	3525.44
988.844	3491.55
989.142	3464.43
989.44	3459.23
989.737	3400.48
990.035	3430.08
990.332	3398.44
990.63	3431.21
990.927	3377.43
991.224	3353.92
991.521	3344.88
991.819	3291.78
992.116	3285.22
992.413	3247.03
992.71	3252
993.006	3266.92
993.303	3206.13
993.6	3221.5
993.897	3155.74
994.193	3128.39
994.49	3123.87
994.787	3121.84
995.083	3119.13
995.379	3109.18
995.676	3039.58
995.972	3033.25
996.268	3031.45
996.565	3023.54
996.861	2990.32
997.157	3023.99
997.453	2994.38
997.749	2970.43
998.044	2951.22
998.34	2897.21
998.636	2901.51
998.932	2894.05
999.227	2871.68
999.523	2820.83
999.818	2889.53
1000.114	2840.72
1000.409	2805.69
1000.704	2820.15
1001	2799.81
1001.295	2777.67
1001.59	2755.29
1001.885	2787.38
1002.18	2776.76
1002.475	2691.79
1002.77	2726.14
1003.065	2692.47
1003.359	2713.04
1003.654	2663.09
1003.949	2673.49
1004.243	2661.06
1004.538	2647.5
1004.832	2630.33
1005.127	2615.19
1005.421	2621.96
1005.715	2600.72
1006.009	2566.37
1006.304	2540.84
1006.598	2501.29
1006.892	2503.55
1007.186	2507.62
1007.48	2500.39
1007.773	2494.74
1008.067	2512.59
1008.361	2441.63
1008.655	2425.59
1008.948	2411.8
1009.242	2427.62
1009.535	2434.4
1009.829	2355.98
1010.122	2377.45
1010.415	2340.62
1010.708	2338.81
1011.001	2358.47
1011.295	2346.27
1011.588	2305.14
1011.881	2278.02
1012.173	2277.12
1012.466	2285.93
1012.759	2274.86
1013.052	2270.56
1013.344	2249.32
1013.637	2225.14
1013.93	2219.49
1014.222	2208.42
1014.514	2180.62
1014.807	2186.95
1015.099	2149.89
1015.391	2171.13
1015.683	2121.41
1015.976	2132.49
1016.268	2103.56
1016.56	2070.79
1016.851	2073.28
1017.143	2093.84
1017.435	2046.84
1017.727	2037.57
1018.018	2021.3
1018.31	2039.16
1018.602	1988.99
1018.893	1976.56
1019.185	1967.29
1019.476	1973.85
1019.767	1916.67
1020.058	1913.51
1020.35	1883.68
1020.641	1897.46
1020.932	1840.06
1021.223	1884.13
1021.514	1856.34
1021.804	1843.91
1022.095	1835.77
1022.386	1829.67
1022.677	1814.3
1022.967	1812.27
1023.258	1791.03
1023.548	1736.11
1023.839	1746.28
1024.129	1749.45
1024.419	1723.91
1024.709	1730.91
1025	1687.75
1025.29	1704.7
1025.58	1710.12
1025.87	1672.84
1026.16	1660.63
1026.449	1662.67
1026.739	1646.17
1027.029	1636.68
1027.319	1636.23
1027.608	1634.65
1027.898	1626.06
1028.187	1614.08
1028.477	1586.29
1028.766	1614.31
1029.055	1563.01
1029.344	1529.79
1029.634	1540.41
1029.923	1513.52
1030.212	1510.81
1030.501	1495.44
1030.79	1494.54
1031.078	1480.53
1031.367	1464.93
1031.656	1473.07
1031.945	1456.12
1032.233	1435.78
1032.522	1456.35
1032.81	1439.4
1033.099	1443.92
1033.387	1414.09
1033.675	1402.56
1033.963	1388.1
1034.251	1407.08
1034.54	1382
1034.828	1375.67
1035.116	1368.44
1035.403	1331.83
1035.691	1330.47
1035.979	1330.7
1036.267	1348.33
1036.554	1319.17
1036.842	1289.57
1037.129	1314.2
1037.417	1311.49
1037.704	1263.36
1037.992	1260.19
1038.279	1261.32
1038.566	1264.71
1038.853	1264.71
1039.14	1264.71
