Data from blue_clamp_base_FLMS001491_00062.txt Node
Date: Wed Feb 08 15:16:21 GMT 2017
User: dcchb
Spectrometer: FLMS00149
Trigger mode: 0
Integration Time (sec): 2.000000E-2
Scans to average: 10
Electric dark correction enabled: true
Nonlinearity correction enabled: false
Boxcar width: 0
XAxis mode: Wavelengths
Number of Pixels in Spectrum: 2048
>>>>>Begin Spectral Data<<<<<
341.393	-11.75
341.776	-11.75
342.16	-11.75
342.543	-59.21
342.927	-72.99
343.31	-75.03
343.693	-66.66
344.077	-85.87
344.46	-52.43
344.843	-39.1
345.226	-57.17
345.61	-19.89
345.993	-8.81
346.376	-9.27
346.759	21.92
347.142	35.71
347.525	38.19
347.908	64.18
348.291	72.77
348.674	77.06
349.057	104.4
349.44	122.71
349.823	135.36
350.206	168.13
350.588	166.1
350.971	190.73
351.354	230.95
351.737	226.43
352.119	245.64
352.502	254.23
352.884	260.78
353.267	285.64
353.65	282.25
354.032	271.63
354.414	292.42
354.797	299.65
355.179	308.01
355.562	313.89
355.944	310.05
356.326	341.91
356.709	313.66
357.091	346.66
357.473	325.42
357.855	335.58
358.238	338.07
358.62	318.18
359.002	337.62
359.384	346.43
359.766	350.73
360.148	322.93
360.53	328.8
360.912	332.87
361.294	324.51
361.676	313.89
362.057	329.03
362.439	328.13
362.821	307.34
363.203	318.41
363.584	311.18
363.966	327
364.348	311.4
364.729	312.76
365.111	333.78
365.493	317.28
365.874	303.49
366.256	305.3
366.637	309.14
367.019	293.78
367.4	308.01
367.781	297.62
368.163	297.85
368.544	275.92
368.925	272.54
369.306	314.79
369.688	304.85
370.069	298.75
370.45	304.85
370.831	283.83
371.212	298.98
371.593	315.25
371.974	300.33
372.355	298.52
372.736	294.91
373.117	296.26
373.498	316.83
373.879	305.98
374.26	302.59
374.641	296.04
375.021	319.09
375.402	298.98
375.783	299.2
376.163	303.95
376.544	322.25
376.925	310.05
377.305	328.35
377.686	311.18
378.066	315.47
378.447	315.92
378.827	311.4
379.208	316.6
379.588	304.85
379.968	335.36
380.349	303.04
380.729	324.51
381.109	332.65
381.489	327.67
381.87	339.2
382.25	336.49
382.63	339.88
383.01	321.35
383.39	347.11
383.77	322.25
384.15	334.91
384.53	325.64
384.91	350.05
385.29	327.67
385.67	356.15
386.049	353.66
386.429	362.02
386.809	344.62
387.189	351.86
387.568	357.28
387.948	347.34
388.328	362.48
388.707	347.11
389.087	355.47
389.466	352.99
389.846	347.79
390.225	364.06
390.605	366.32
390.984	355.24
391.363	364.06
391.743	367.67
392.122	361.57
392.501	379.65
392.881	389.82
393.26	395.24
393.639	383.27
394.018	374.45
394.397	374.23
394.776	399.99
395.155	399.31
395.534	380.55
395.913	400.22
396.292	397.28
396.671	416.03
397.05	404.74
397.429	421.23
397.808	438.86
398.186	424.62
398.565	442.47
398.944	416.03
399.323	427.33
399.701	435.69
400.08	433.89
400.458	423.04
400.837	460.78
401.215	429.37
401.594	444.51
401.972	456.03
402.351	461.46
402.729	460.78
403.107	449.25
403.486	460.1
403.864	448.35
404.242	491.51
404.62	491.06
404.999	489.7
405.377	476.37
405.755	504.85
406.133	483.38
406.511	486.77
406.889	512.53
407.267	509.59
407.645	532.42
408.023	523.38
408.401	527.67
408.779	549.36
409.156	569.25
409.534	541
409.912	534.45
410.29	563.83
410.667	560.89
411.045	604.28
411.422	567.22
411.8	582.13
412.178	599.53
412.555	582.81
412.933	600.44
413.31	602.7
413.687	597.27
414.065	615.8
414.442	611.51
414.819	613.77
415.197	638.63
415.574	653.09
415.951	637.72
416.328	658.06
416.705	644.05
417.082	643.82
417.46	668.68
417.837	669.13
418.214	675.24
418.591	658.51
418.967	676.59
419.344	700.32
419.721	684.05
420.098	693.32
420.475	710.72
420.852	740.09
421.228	731.51
421.605	723.14
421.982	712.3
422.358	731.73
422.735	742.35
423.111	734.22
423.488	751.39
423.864	771.51
424.241	795.91
424.617	790.49
424.994	789.58
425.37	798.4
425.746	809.7
426.123	792.97
426.499	812.86
426.875	832.75
427.251	831.39
427.627	839.98
428.003	855.8
428.379	862.8
428.756	898.51
429.132	885.85
429.507	877.04
429.883	909.58
430.259	912.29
430.635	939.41
431.011	922.69
431.387	965.62
431.763	957.04
432.138	980.09
432.514	982.35
432.89	1009.46
433.265	1007.43
433.641	1049.69
434.016	1038.39
434.392	1038.39
434.767	1047.66
435.143	1055.34
435.518	1066.19
435.894	1097.82
436.269	1108.22
436.644	1138.28
437.02	1125.62
437.395	1135.11
437.77	1159.52
438.145	1169.01
438.52	1198.84
438.895	1186.86
439.271	1210.82
439.646	1221.21
440.021	1244.26
440.395	1218.5
440.77	1234.77
441.145	1260.98
441.52	1278.84
441.895	1262.79
442.27	1288.1
442.645	1294.66
443.019	1309.57
443.394	1316.8
443.769	1333.07
444.143	1322.9
444.518	1338.72
444.892	1366.97
445.267	1349.8
445.641	1362.9
446.016	1363.13
446.39	1363.58
446.764	1402.9
447.139	1433.41
447.513	1432.96
447.887	1443.35
448.262	1431.83
448.636	1438.61
449.01	1451.71
449.384	1461.2
449.758	1507.08
450.132	1515.44
450.506	1523.12
450.88	1529.9
451.254	1510.69
451.628	1534.65
452.002	1547.53
452.376	1551.82
452.75	1620.52
453.123	1627.53
453.497	1622.78
453.871	1631.37
454.244	1639.96
454.618	1677.02
454.992	1678.37
455.365	1705.94
455.739	1752.95
456.112	1755.66
456.486	1794.53
456.859	1763.8
457.232	1820.29
457.606	1787.98
457.979	1818.94
458.352	1842.21
458.725	1853.06
459.099	1892.15
459.472	1909.78
459.845	1940.06
460.218	1992.26
460.591	1941.19
460.964	1963.79
461.337	1987.29
461.71	2071.81
462.083	2062.32
462.456	2061.19
462.829	2094.86
463.201	2101.19
463.574	2109.78
463.947	2159.49
464.32	2176.67
464.692	2201.07
465.065	2197.91
465.438	2248.98
465.81	2274.97
466.183	2285.14
466.555	2334.63
466.928	2365.59
467.3	2300.5
467.672	2367.62
468.045	2419.6
468.417	2442.65
468.789	2441.29
469.161	2470.22
469.534	2494.85
469.906	2569.88
470.278	2570.33
470.65	2610.33
471.022	2631.8
471.394	2654.39
471.766	2685.35
472.138	2728.52
472.51	2715.86
472.882	2806.25
473.253	2816.65
473.625	2841.51
473.997	2904.1
474.369	2879.92
474.74	2939.36
475.112	2972.35
475.484	3002.41
475.855	3049.86
476.227	3077.21
476.598	3140.48
476.97	3202.18
477.341	3241.5
477.713	3257.54
478.084	3263.87
478.455	3371.44
478.827	3363.75
479.198	3467.48
479.569	3420.02
479.94	3526.69
480.311	3572.79
480.682	3575.05
481.053	3649.85
481.424	3680.81
481.795	3749.96
482.166	3772.33
482.537	3812.33
482.908	3876.73
483.279	3917.19
483.65	3988.14
484.021	4043.96
484.391	4032.44
484.762	4077.86
485.133	4083.06
485.503	4142.49
485.874	4174.35
486.244	4255.93
486.615	4278.53
486.985	4310.85
487.356	4375.7
487.726	4363.95
488.097	4477.85
488.467	4457.28
488.837	4508.36
489.207	4618.86
489.578	4665.19
489.948	4662.02
490.318	4634
490.688	4715.81
491.058	4752.19
491.428	4742.7
491.798	4812.08
492.168	4882.13
492.538	4900.21
492.908	4974.56
493.278	4965.07
493.648	4972.3
494.017	5028.34
494.387	5017.95
494.757	5073.76
495.126	5106.76
495.496	5085.52
495.866	5119.87
496.235	5162.12
496.605	5149.02
496.974	5214.55
497.344	5196.7
497.713	5257.71
498.082	5291.16
498.452	5287.77
498.821	5284.38
499.19	5302.69
499.559	5330.26
499.928	5337.71
500.298	5382.23
500.667	5445.51
501.036	5382.23
501.405	5388.11
501.774	5380.42
502.143	5410.48
502.512	5405.96
502.88	5481.21
503.249	5511.04
503.618	5485.73
503.987	5487.77
504.356	5499.29
504.724	5552.17
505.093	5541.78
505.462	5528.22
505.83	5559.85
506.199	5620.42
506.567	5654.77
506.936	5665.39
507.304	5704.48
507.672	5708.78
508.041	5758.94
508.409	5743.58
508.777	5778.83
509.145	5812.5
509.514	5771.15
509.882	5777.02
510.25	5829.68
510.618	5825.16
510.986	5811.37
511.354	5826.06
511.722	5910.13
512.09	5915.1
512.458	5891.82
512.826	5929.34
513.193	6004.14
513.561	5967.3
513.929	6044.13
514.297	6055.43
514.664	6028.77
515.032	6042.55
515.4	6056.79
515.767	6052.5
516.135	6155.77
516.502	6071.48
516.869	6190.57
517.237	6179.95
517.604	6182.44
517.972	6190.57
518.339	6206.39
518.706	6244.58
519.073	6225.37
519.44	6239.38
519.808	6308.08
520.175	6234.19
520.542	6307.86
520.909	6387.4
521.276	6365.03
521.643	6403.45
522.009	6437.34
522.376	6381.98
522.743	6474.86
523.11	6485.93
523.477	6539.94
523.843	6576.32
524.21	6580.84
524.577	6666.27
524.943	6588.98
525.31	6653.61
525.676	6703.33
526.043	6724.34
526.409	6766.6
526.776	6743.55
527.142	6832.81
527.508	6813.38
527.874	6874.17
528.241	6855.64
528.607	6902.64
528.973	6965.01
529.339	6908.07
529.705	6968.18
530.071	7009.31
530.437	7027.84
530.803	7080.49
531.169	7125.46
531.535	7035.52
531.901	7082.53
532.267	7118
532.632	7137.21
532.998	7147.38
533.364	7258.57
533.73	7202.52
534.095	7280.03
534.461	7244.56
534.826	7339.92
535.192	7321.84
535.557	7338.34
535.923	7349.41
536.288	7376.76
536.653	7359.58
537.019	7408.62
537.384	7415.85
537.749	7421.73
538.114	7493.14
538.479	7379.24
538.845	7495.62
539.21	7477.77
539.575	7518.45
539.94	7520.93
540.305	7603.19
540.67	7570.42
541.034	7543.08
541.399	7593.02
541.764	7615.39
542.129	7596.86
542.494	7630.08
542.858	7628.27
543.223	7656.97
543.587	7676.41
543.952	7662.62
544.316	7700.81
544.681	7651.78
545.045	7780.13
545.41	7759.12
545.774	7828.27
546.138	7782.39
546.503	7811.77
546.867	7748.72
547.231	7873.69
547.595	7848.38
547.959	7897.65
548.324	7904.65
548.688	7921.6
549.052	7955.05
549.416	7958.43
549.779	7930.41
550.143	7995.72
550.507	7984.87
550.871	8018.55
551.235	7979.45
551.599	8062.39
551.962	8059.9
552.326	8040.47
552.689	8088.6
553.053	8076.17
553.417	8047.25
553.78	8154.14
554.143	8120.01
554.507	8121.59
554.87	8115.04
555.234	8152.55
555.597	8226.68
555.96	8235.04
556.323	8220.12
556.686	8240.69
557.05	8286.34
557.413	8377.63
557.776	8305.54
558.139	8319.78
558.502	8353
558.865	8374.02
559.228	8341.48
559.59	8409.04
559.953	8375.15
560.316	8468.48
560.679	8438.2
561.041	8457.63
561.404	8493.79
561.767	8539.44
562.129	8444.98
562.492	8591.19
562.854	8602.49
563.217	8558.42
563.579	8595.71
563.941	8682.48
564.304	8654.91
564.666	8697.17
565.028	8723.16
565.39	8742.14
565.753	8729.94
566.115	8832.31
566.477	8832.08
566.839	8868.69
567.201	8931.29
567.563	8910.95
567.925	8919.77
568.287	8914.57
568.648	8994.34
569.01	8987.56
569.372	8967
569.734	9060.55
570.095	9071.4
570.457	9011.06
570.819	9193.66
571.18	9147.78
571.542	9180.78
571.903	9167.67
572.265	9229.36
572.626	9280.89
572.987	9283.82
573.349	9327.21
573.71	9274.56
574.071	9380.32
574.432	9404.5
574.794	9437.49
575.155	9436.14
575.516	9379.41
575.877	9410.83
576.238	9475.46
576.599	9468.45
576.96	9486.3
577.32	9493.54
577.681	9556.13
578.042	9572.4
578.403	9535.79
578.763	9641.55
579.124	9622.8
579.485	9648.79
579.845	9721.1
580.206	9708.45
580.566	9663.25
580.927	9697.82
581.287	9745.51
581.648	9772.4
582.008	9769.01
582.368	9698.28
582.728	9770.82
583.089	9792.51
583.449	9752.74
583.809	9748.44
584.169	9769.23
584.529	9739.4
584.889	9795
585.249	9795.45
585.609	9782.79
585.969	9832.74
586.329	9849.46
586.688	9841.55
587.048	9790.7
587.408	9829.8
587.768	9872.73
588.127	9840.87
588.487	9875.45
588.846	9924.03
589.206	9873.64
589.565	9813.75
589.925	9890.59
590.284	9830.93
590.643	9903.24
591.003	9994.77
591.362	9927.2
591.721	9845.39
592.08	9948.89
592.44	10006.74
592.799	10023.24
593.158	9895.78
593.517	9977.59
593.876	9940.3
594.235	9914.54
594.593	10033.63
594.952	9920.64
595.311	9960.64
595.67	9940.53
596.029	10026.85
596.387	10045.84
596.746	10056.91
597.104	10041.54
597.463	10090.36
597.822	10037.25
598.18	9984.6
598.538	10038.15
598.897	10051.49
599.255	9951.83
599.613	10071.6
599.972	10053.75
600.33	10027.76
600.688	10087.64
601.046	10099.4
601.404	10124.25
601.762	10056.91
602.12	10198.83
602.478	10104.59
602.836	10173.52
603.194	10060.3
603.552	10121.77
603.91	10098.27
604.268	10125.16
604.625	10112.5
604.983	10103.92
605.341	10122.45
605.698	10178.49
606.056	10193.18
606.413	10228.66
606.771	10211.93
607.128	10195.21
607.485	10247.41
607.843	10208.55
608.2	10220.75
608.557	10264.81
608.914	10211.71
609.272	10261.2
609.629	10282.67
609.986	10260.52
610.343	10231.37
610.7	10305.27
611.057	10352.95
611.414	10369.44
611.771	10265.27
612.127	10417.58
612.484	10364.7
612.841	10343.46
613.198	10306.17
613.554	10396.56
613.911	10407.18
614.267	10343.68
614.624	10388.43
614.98	10419.84
615.337	10424.81
615.693	10442.44
616.05	10431.14
616.406	10436.56
616.762	10465.26
617.118	10459.16
617.475	10437.92
617.831	10416.45
618.187	10479.72
618.543	10503.23
618.899	10526.5
619.255	10558.14
619.611	10554.07
619.967	10599.5
620.323	10570.8
620.678	10567.86
621.034	10557.69
621.39	10539.61
621.746	10532.15
622.101	10684.01
622.457	10586.84
622.812	10621.64
623.168	10681.98
623.523	10659.83
623.879	10717.01
624.234	10614.86
624.589	10686.05
624.945	10711.13
625.3	10627.07
625.655	10656.44
626.01	10702.77
626.365	10691.47
626.72	10727.63
627.075	10683.79
627.43	10772.37
627.785	10736.67
628.14	10709.77
628.495	10817.12
628.85	10792.71
629.205	10678.59
629.559	10778.47
629.914	10772.37
630.269	10671.58
630.623	10732.37
630.978	10721.3
631.332	10803.11
631.687	10795.2
632.041	10774.18
632.396	10800.62
632.75	10746.38
633.104	10820.05
633.459	10793.16
633.813	10775.54
634.167	10750.68
634.521	10776.89
634.875	10864.35
635.229	10861.18
635.583	10731.47
635.937	10783.22
636.291	10833.16
636.645	10845.82
636.999	10836.33
637.352	10915.19
637.706	10848.53
638.06	10898.02
638.413	10848.08
638.767	10823.22
639.121	10913.61
639.474	10819.15
639.828	10895.08
640.181	10864.12
640.534	10880.62
640.888	10890.79
641.241	10806.27
641.594	10915.19
641.947	10940.96
642.301	10983.67
642.654	11013.27
643.007	10963.55
643.36	10949.99
643.713	10898.02
644.066	10990.9
644.419	10955.64
644.771	10860.96
645.124	10792.26
645.477	10798.36
645.83	10845.14
646.182	10736.67
646.535	10729.66
646.888	10711.81
647.24	10750.45
647.593	10701.19
647.945	10716.33
648.298	10654.18
648.65	10723.56
649.002	10756.33
649.355	10752.03
649.707	10792.94
650.059	10835.65
650.411	10972.37
650.763	11004
651.115	11172.36
651.467	11129.65
651.819	11109.09
652.171	11105.92
652.523	11054.17
652.875	11076.54
653.227	11009.88
653.578	11155.86
653.93	11114.28
654.282	11108.86
654.633	11145.92
654.985	11172.36
655.337	11178.46
655.688	11172.59
656.039	11236.31
656.391	11186.82
656.742	11215.75
657.094	11160.61
657.445	11234.73
657.796	11108.18
658.147	11255.07
658.498	11163.55
658.849	11239.93
659.2	11322.64
659.551	11256.88
659.902	11313.6
660.253	11302.75
660.604	11244
660.955	11288.97
661.306	11268.4
661.656	11284
662.007	11264.34
662.358	11289.65
662.708	11250.1
663.059	11277.44
663.409	11213.72
663.76	11354.5
664.11	11284.9
664.461	11241.51
664.811	11267.27
665.161	11318.12
665.511	11238.57
665.862	11329.42
666.212	11338.23
666.562	11333.71
666.912	11291.23
667.262	11246.94
667.612	11289.65
667.962	11326.71
668.312	11328.74
668.662	11351.34
669.011	11236.77
669.361	11175.53
669.711	11206.26
670.06	11192.47
670.41	11202.87
670.76	11127.39
671.109	11162.64
671.459	11166.26
671.808	11084.68
672.157	11105.47
672.507	11071.8
672.856	11050.78
673.205	11032.25
673.554	11082.87
673.904	11080.61
674.253	11086.04
674.602	11006.49
674.951	10873.39
675.3	10798.13
675.649	10907.06
675.998	10900.96
676.346	10959.03
676.695	10998.58
677.044	10811.92
677.393	10885.59
677.741	10895.98
678.09	10833.84
678.438	10866.38
678.787	10780.73
679.135	10771.24
679.484	10665.71
679.832	10690.57
680.181	10681.3
680.529	10699.38
680.877	10679.95
681.225	10667.97
681.573	10658.7
681.922	10612.15
682.27	10543.9
682.618	10689.66
682.966	10515.43
683.314	10573.28
683.661	10531.25
684.009	10483.34
684.357	10437.47
684.705	10372.16
685.053	10402.21
685.4	10391.59
685.748	10409.44
686.095	10352.95
686.443	10289
686.79	10293.29
687.138	10290.35
687.485	10333.51
687.832	10264.14
688.18	10294.19
688.527	10255.78
688.874	10231.37
689.221	10223.46
689.568	10199.96
689.915	10124.25
690.262	10200.64
690.609	10115.89
690.956	10072.5
691.303	10055.1
691.65	10031.37
691.997	10064.59
692.344	9980.75
692.69	9965.16
693.037	10057.81
693.383	9929.91
693.73	10022.34
694.077	9907.54
694.423	9875.9
694.769	9911.38
695.116	9858.5
695.462	9905.05
695.808	9844.03
696.155	9829.8
696.501	9841.78
696.847	9869.35
697.193	9786.18
697.539	9795.45
697.885	9751.83
698.231	9795.45
698.577	9776.69
698.923	9747.99
699.269	9653.53
699.614	9637.94
699.96	9654.66
700.306	9698.95
700.651	9630.48
700.997	9575.57
701.342	9659.18
701.688	9603.59
702.033	9572.86
702.379	9588.67
702.724	9618.5
703.069	9636.13
703.415	9498.51
703.76	9545.74
704.105	9512.07
704.45	9492.18
704.795	9423.26
705.14	9449.92
705.485	9505.29
705.83	9430.49
706.175	9447.21
706.52	9442.24
706.865	9336.25
707.209	9400.43
707.554	9334.67
707.899	9420.09
708.243	9382.58
708.588	9321.34
708.932	9294.22
709.277	9317.95
709.621	9328.12
709.966	9317.72
710.31	9314.56
710.654	9208.8
710.998	9250.15
711.342	9285.63
711.687	9250.6
712.031	9231.85
712.375	9207.44
712.719	9269.59
713.063	9222.36
713.407	9322.24
713.75	9180.78
714.094	9189.59
714.438	9277.27
714.782	9243.82
715.125	9144.17
715.469	9204.5
715.812	9203.15
716.156	9109.59
716.499	9170.61
716.843	9128.8
717.186	9120.66
717.53	9173.54
717.873	9120.89
718.216	9136.03
718.559	9143.49
718.902	9112.98
719.246	9085.64
719.589	9150.27
719.932	9083.6
720.275	9099.87
720.617	9069.14
720.96	9048.8
721.303	9048.58
721.646	9088.35
721.989	9016.49
722.331	9169.25
722.674	9047.22
723.016	9042.02
723.359	9053.77
723.701	9028.24
724.044	9021.23
724.386	9002.93
724.729	9082.93
725.071	9060.33
725.413	9028.24
725.755	9089.03
726.097	8978.52
726.439	8953.66
726.782	9015.13
727.124	9104.39
727.465	9031.17
727.807	9016.49
728.149	9010.61
728.491	8983.27
728.833	9003.83
729.175	9069.82
729.516	8927
729.858	8987.79
730.199	8991.85
730.541	8988.92
730.882	8981.23
731.224	9057.39
731.565	9045.64
731.906	8989.82
732.248	9086.77
732.589	8974
732.93	9055.13
733.271	9056.26
733.612	9056.03
733.953	9068.69
734.294	8988.46
734.635	9035.02
734.976	9047.67
735.317	9094.45
735.658	9096.48
735.999	9079.99
736.339	9032.53
736.68	9135.13
737.021	9081.57
737.361	9065.3
737.702	9102.81
738.042	9178.97
738.383	9117.73
738.723	9223.26
739.063	9155.24
739.404	9204.28
739.744	9190.72
740.084	9200.44
740.424	9264.62
740.764	9220.77
741.104	9292.64
741.444	9271.17
741.784	9328.12
742.124	9322.92
742.464	9296.7
742.804	9344.61
743.143	9324.05
743.483	9343.26
743.823	9333.99
744.162	9321.11
744.502	9381.67
744.841	9382.13
745.181	9493.76
745.52	9428.68
745.86	9456.93
746.199	9498.28
746.538	9509.13
746.877	9580.99
747.216	9580.77
747.556	9603.36
747.895	9627.54
748.234	9604.49
748.573	9613.76
748.911	9646.07
749.25	9747.77
749.589	9630.93
749.928	9666.86
750.267	9745.96
750.605	9736.02
750.944	9804.04
751.283	9804.26
751.621	9839.06
751.96	9798.16
752.298	9820.98
752.636	9882.23
752.975	9850.59
753.313	9844.49
753.651	9886.75
753.989	9860.98
754.327	9956.12
754.666	9949.79
755.004	9975.1
755.342	10115.44
755.679	10066.4
756.017	10026.4
756.355	10102.33
756.693	10059.85
757.031	10144.82
757.368	10078.83
757.706	10097.36
758.044	10102.11
758.381	10206.06
758.719	10138.49
759.056	10235.21
759.394	10218.94
759.731	10176.46
760.068	10200.64
760.405	10176.91
760.743	10272.72
761.08	10253.74
761.417	10180.07
761.754	10287.19
762.091	10306.85
762.428	10320.86
762.765	10255.78
763.102	10310.24
763.438	10295.55
763.775	10213.06
764.112	10344.81
764.449	10350.91
764.785	10330.58
765.122	10365.83
765.458	10339.84
765.795	10278.83
766.131	10357.24
766.467	10376.45
766.804	10335.32
767.14	10340.07
767.476	10388.2
767.812	10416
768.148	10405.6
768.485	10336.68
768.821	10246.96
769.157	10353.17
769.492	10344.36
769.828	10344.36
770.164	10304.14
770.5	10323.57
770.836	10432.27
771.171	10339.84
771.507	10352.5
771.842	10324.47
772.178	10370.35
772.513	10284.7
772.849	10312.72
773.184	10249.9
773.519	10412.38
773.855	10320.18
774.19	10359.95
774.525	10321.99
774.86	10375.32
775.195	10378.26
775.53	10358.6
775.865	10312.95
776.2	10278.6
776.535	10269.11
776.87	10258.71
777.205	10191.14
777.539	10248.09
777.874	10315.66
778.209	10258.94
778.543	10232.95
778.878	10237.92
779.212	10270.69
779.547	10215.1
779.881	10225.27
780.215	10196.79
780.55	10273.4
780.884	10108.89
781.218	10263.46
781.552	10232.27
781.886	10196.79
782.22	10179.62
782.554	10145.5
782.888	10085.61
783.222	10146.17
783.556	10150.02
783.889	10155.67
784.223	10022.34
784.557	10100.3
784.89	10068.21
785.224	10035.44
785.557	9965.84
785.891	10023.47
786.224	10053.52
786.558	10053.97
786.891	10009.45
787.224	9951.83
787.557	9959.29
787.891	9922.9
788.224	9996.8
788.557	9950.25
788.89	9964.03
789.223	9963.35
789.556	9895.11
789.888	9882.23
790.221	9921.1
790.554	9894.88
790.887	9894.43
791.219	9857.82
791.552	9843.81
791.884	9779.18
792.217	9792.06
792.549	9763.81
792.882	9726.52
793.214	9743.02
793.546	9777.37
793.879	9703.25
794.211	9686.52
794.543	9725.39
794.875	9681.33
795.207	9776.24
795.539	9706.64
795.871	9706.86
796.203	9631.84
796.535	9625.06
796.867	9644.04
797.198	9683.81
797.53	9630.26
797.862	9553.42
798.193	9552.29
798.525	9528.79
798.856	9581.67
799.188	9498.96
799.519	9553.87
799.85	9442.01
800.182	9505.96
800.513	9472.52
800.844	9361.11
801.175	9519.98
801.506	9485.4
801.837	9445.18
802.168	9433.2
802.499	9412.86
802.83	9383.48
803.161	9338.29
803.491	9353.2
803.822	9336.93
804.153	9394.56
804.483	9272.07
804.814	9263.26
805.145	9199.08
805.475	9256.25
805.805	9237.95
806.136	9311.62
806.466	9306.42
806.796	9263.26
807.126	9226.88
807.457	9232.53
807.787	9228.23
808.117	9155.01
808.447	9117.95
808.777	9184.17
809.107	9101.68
809.436	9102.59
809.766	9108.69
810.096	9100.1
810.426	9121.57
810.755	9129.7
811.085	9027.56
811.414	9046.77
811.744	8971.74
812.073	8963.38
812.403	9046.77
812.732	8983.72
813.061	9007.22
813.39	8884.74
813.719	8849.03
814.049	8972.87
814.378	8898.07
814.707	8930.16
815.036	8884.06
815.365	8887.45
815.693	8810.39
816.022	8906.21
816.351	8755.02
816.68	8782.14
817.008	8793.89
817.337	8737.17
817.665	8728.81
817.994	8738.53
818.322	8713.22
818.651	8678.87
818.979	8712.77
819.307	8687.68
819.636	8692.65
819.964	8625.99
820.292	8731.52
820.62	8712.31
820.948	8673.22
821.276	8693.1
821.604	8690.17
821.932	8639.55
822.259	8671.18
822.587	8650.85
822.915	8677.29
823.243	8682.71
823.57	8675.93
823.898	8694.69
824.225	8641.35
824.553	8687.91
824.88	8686.33
825.207	8696.04
825.535	8708.92
825.862	8771.07
826.189	8665.53
826.516	8724.06
826.843	8795.47
827.17	8749.15
827.497	8754.57
827.824	8754.35
828.151	8768.36
828.478	8750.5
828.805	8820.11
829.131	8786.89
829.458	8773.33
829.785	8712.99
830.111	8776.04
830.438	8835.7
830.764	8745.31
831.09	8757.51
831.417	8740.34
831.743	8752.54
832.069	8764.74
832.395	8737.4
832.722	8795.93
833.048	8733.56
833.374	8816.27
833.7	8699.66
834.026	8759.54
834.351	8769.03
834.677	8715.93
835.003	8713.44
835.329	8767.91
835.654	8652.43
835.98	8704.18
836.306	8709.38
836.631	8623.28
836.956	8674.57
837.282	8700.79
837.607	8689.49
837.932	8618.76
838.258	8623.5
838.583	8650.62
838.908	8609.04
839.233	8617.17
839.558	8634.12
839.883	8526.33
840.208	8550.74
840.533	8531.08
840.858	8596.84
841.182	8560.9
841.507	8559.1
841.832	8462.15
842.156	8478.42
842.481	8526.1
842.805	8511.19
843.13	8425.32
843.454	8526.56
843.778	8434.81
844.103	8364.3
844.427	8410.63
844.751	8401.81
845.075	8368.82
845.399	8351.42
845.723	8374.02
846.047	8294.7
846.371	8232.55
846.695	8312.78
847.019	8216.73
847.343	8157.07
847.666	8169.73
847.99	8116.4
848.313	8118.43
848.637	8091.99
848.96	8070.3
849.284	8032.56
849.607	7974.03
849.931	7962.95
850.254	7925.44
850.577	7846.57
850.9	7798.66
851.223	7785.56
851.546	7807.93
851.869	7777.42
852.192	7827.59
852.515	7698.78
852.838	7700.81
853.161	7686.13
853.483	7681.15
853.806	7577.43
854.129	7606.81
854.451	7548.28
854.774	7518.22
855.096	7511.21
855.419	7450.88
855.741	7494.94
856.063	7451.56
856.385	7423.08
856.708	7410.43
857.03	7380.82
857.352	7355.29
857.674	7370.2
857.996	7351.45
858.318	7338.79
858.64	7341.05
858.961	7250.43
859.283	7280.71
859.605	7261.5
859.926	7220.83
860.248	7231.45
860.57	7155.97
860.891	7209.75
861.212	7149.87
861.534	7153.26
861.855	7136.54
862.176	7158.91
862.498	7169.75
862.819	7115.52
863.14	7114.84
863.461	7062.19
863.782	7089.08
864.103	7026.93
864.424	7000.95
864.745	7025.8
865.065	7046.59
865.386	7062.19
865.707	6983.09
866.027	6999.36
866.348	6941.06
866.668	6993.26
866.989	6970.89
867.309	6919.14
867.63	6965.47
867.95	6912.59
868.27	6879.59
868.59	6972.02
868.91	6883.43
869.23	6906.94
869.55	6833.94
869.87	6913.94
870.19	6886.82
870.51	6868.07
870.83	6840.27
871.15	6804.11
871.469	6786.94
871.789	6799.82
872.109	6854.74
872.428	6828.07
872.748	6777
873.067	6792.82
873.386	6781.74
873.706	6809.54
874.025	6734.29
874.344	6755.3
874.663	6756.21
874.982	6723.44
875.301	6703.33
875.62	6671.24
875.939	6670.79
876.258	6682.54
876.577	6596.21
876.896	6670.33
877.214	6675.76
877.533	6592.6
877.852	6624.01
878.17	6609.54
878.489	6605.25
878.807	6636.44
879.125	6563.44
879.444	6647.96
879.762	6633.27
880.08	6621.29
880.398	6551.47
880.716	6556.21
881.034	6553.27
881.352	6521.64
881.67	6484.8
881.988	6511.47
882.306	6461.3
882.624	6492.94
882.941	6410.45
883.259	6418.36
883.577	6457.23
883.894	6467.63
884.212	6377.69
884.529	6411.13
884.846	6363.9
885.164	6411.36
885.481	6276.45
885.798	6391.02
886.115	6304.02
886.432	6287.07
886.75	6315.77
887.067	6337.91
887.383	6236.45
887.7	6249.55
888.017	6215.2
888.334	6220.4
888.651	6176.56
888.967	6242.77
889.284	6173.17
889.6	6115.09
889.917	6162.32
890.233	6124.58
890.55	6071.25
890.866	6055.66
891.182	6104.7
891.498	6064.93
891.815	6088.2
892.131	6045.26
892.447	6000.75
892.763	5979.96
893.079	5951.26
893.395	5985.61
893.71	5965.72
894.026	5921.2
894.342	5931.14
894.657	5876.68
894.973	5891.14
895.289	5899.73
895.604	5886.17
895.92	5879.62
896.235	5748.32
896.55	5777.48
896.865	5734.99
897.181	5736.12
897.496	5767.08
897.811	5699.29
898.126	5734.09
898.441	5630.13
898.756	5658.16
899.071	5626.29
899.386	5624.26
899.7	5600.08
900.015	5628.78
900.33	5587.88
900.644	5529.57
900.959	5538.61
901.273	5508.33
901.588	5457.03
901.902	5477.6
902.216	5487.09
902.531	5393.76
902.845	5405.73
903.159	5360.76
903.473	5364.6
903.787	5341.33
904.101	5316.92
904.415	5255.91
904.729	5319.18
905.042	5235.79
905.356	5219.3
905.67	5263.14
905.984	5218.62
906.297	5223.82
906.611	5132.75
906.924	5199.64
907.237	5150.83
907.551	5123.03
907.864	5106.08
908.177	5113.09
908.491	5092.07
908.804	5047.55
909.117	5035.8
909.43	4981.11
909.743	5025.86
910.056	4990.83
910.368	4994.9
910.681	4946.08
910.994	4916.03
911.307	4892.75
911.619	4854.56
911.932	4899.53
912.244	4811.17
912.557	4827.9
912.869	4779.99
913.181	4798.52
913.494	4766.2
913.806	4755.58
914.118	4743.15
914.43	4691.18
914.742	4704.96
915.054	4649.14
915.366	4672.19
915.678	4625.64
915.99	4601.01
916.302	4558.3
916.613	4574.34
916.925	4595.36
917.236	4551.52
917.548	4509.49
917.859	4526.66
918.171	4479.43
918.482	4490.96
918.794	4407.79
919.105	4473.78
919.416	4424.29
919.727	4431.3
920.038	4415.25
920.349	4393.33
920.66	4377.29
920.971	4361.24
921.282	4301.81
921.593	4296.38
921.903	4306.78
922.214	4299.1
922.525	4278.08
922.835	4259.55
923.146	4200.57
923.456	4261.81
923.767	4207.57
924.077	4188.36
924.387	4188.59
924.697	4087.58
925.008	4125.32
925.318	4105.65
925.628	4098.88
925.938	4062.49
926.248	4027.69
926.558	4033.79
926.867	4010.97
927.177	4054.81
927.487	4052.1
927.796	3993.34
928.106	3955.83
928.416	3947.47
928.725	3938.2
929.034	3928.48
929.344	3907.02
929.653	3886.23
929.962	3871.99
930.271	3820.46
930.581	3830.86
930.89	3790.63
931.199	3773.91
931.508	3787.7
931.817	3769.17
932.125	3761.03
932.434	3740.01
932.743	3726.91
933.051	3693.69
933.36	3664.08
933.669	3656.85
933.977	3667.7
934.286	3642.16
934.594	3617.08
934.902	3596.29
935.21	3577.53
935.519	3608.04
935.827	3565.78
936.135	3524.2
936.443	3526.69
936.751	3550.64
937.059	3495.73
937.367	3507.48
937.674	3515.84
937.982	3515.84
938.29	3447.82
938.597	3462.73
938.905	3425.22
939.213	3435.62
939.52	3379.57
939.827	3433.58
940.135	3351.32
940.442	3338.67
940.749	3354.26
941.056	3321.27
941.363	3336.86
941.67	3312
941.977	3281.72
942.284	3315.17
942.591	3304.55
942.898	3248.28
943.205	3260.93
943.511	3233.59
943.818	3220.71
944.125	3206.92
944.431	3199.92
944.738	3199.24
945.044	3194.94
945.35	3140.03
945.657	3138.67
945.963	3132.12
946.269	3086.02
946.575	3100.26
946.881	3093.03
947.187	3093.48
947.493	3044.67
947.799	3022.52
948.105	3016.42
948.41	2998.57
948.716	3020.71
949.022	2975.29
949.327	2974.61
949.633	2981.62
949.938	2975.74
950.244	2944.56
950.549	2949.08
950.854	2891.45
951.16	2918.12
951.465	2905.46
951.77	2886.48
952.075	2894.16
952.38	2849.64
952.685	2873.6
952.99	2864.33
953.294	2830.66
953.599	2844.9
953.904	2817.33
954.209	2771.45
954.513	2783.2
954.818	2757.67
955.122	2758.8
955.426	2735.3
955.731	2774.62
956.035	2742.07
956.339	2721.06
956.643	2728.52
956.948	2663.21
957.252	2681.06
957.556	2679.03
957.86	2655.07
958.163	2657.78
958.467	2634.51
958.771	2655.75
959.075	2608.07
959.378	2608.97
959.682	2597.9
959.985	2581.63
960.289	2613.94
960.592	2545.47
960.896	2549.54
961.199	2521.74
961.502	2556.77
961.805	2519.26
962.108	2506.15
962.411	2537.11
962.714	2473.61
963.017	2504.57
963.32	2484.45
963.623	2475.64
963.926	2457.56
964.228	2481.97
964.531	2420.73
964.833	2438.13
965.136	2400.16
965.438	2415.53
965.741	2393.16
966.043	2406.49
966.345	2392.71
966.648	2363.1
966.95	2365.14
967.252	2359.71
967.554	2371.92
967.856	2360.16
968.158	2285.14
968.46	2271.13
968.761	2285.82
969.063	2291.69
969.365	2277
969.666	2264.57
969.968	2264.57
970.269	2240.17
970.571	2263.44
970.872	2237.91
971.174	2215.76
971.475	2219.15
971.776	2179.83
972.077	2187.29
972.378	2194.07
972.679	2160.85
972.98	2158.81
973.281	2172.37
973.582	2188.19
973.883	2131.92
974.183	2128.98
974.484	2084.92
974.785	2108.42
975.085	2097.57
975.386	2121.3
975.686	2097.8
975.986	2081.3
976.287	2095.31
976.587	2044.69
976.887	2055.31
977.187	2050.34
977.487	2037.01
977.787	2019.83
978.087	2025.71
978.387	2053.96
978.687	2007.63
978.987	1997.46
979.286	2005.82
979.586	1969.67
979.885	1982.77
980.185	1968.08
980.484	1942.32
980.784	1986.39
981.083	1947.75
981.382	1954.3
981.682	1941.87
981.981	1965.37
982.28	1905.26
982.579	1881.98
982.878	1884.47
983.177	1897.58
983.475	1888.99
983.774	1858.71
984.073	1872.49
984.372	1852.83
984.67	1870.01
984.969	1854.64
985.267	1831.82
985.566	1831.14
985.864	1811.7
986.162	1840.4
986.461	1844.7
986.759	1830.23
987.057	1782.33
987.355	1781.65
987.653	1750.01
987.951	1764.25
988.249	1744.36
988.547	1767.19
988.844	1798.14
989.142	1752.95
989.44	1742.78
989.737	1735.55
990.035	1709.56
990.332	1685.83
990.63	1719.05
990.927	1693.97
991.224	1692.16
991.521	1696
991.819	1684.25
992.116	1640.63
992.413	1665.04
992.71	1641.09
993.006	1641.99
993.303	1633.4
993.6	1604.25
993.897	1657.13
994.193	1639.05
994.49	1631.14
994.787	1569.9
995.083	1598.15
995.379	1581.43
995.676	1583.69
995.972	1575.1
996.268	1553.18
996.565	1520.41
996.861	1556.57
997.157	1529.68
997.453	1541.88
997.749	1539.85
998.044	1562.44
998.34	1517.93
998.636	1500.98
998.932	1517.93
999.227	1525.16
999.523	1510.02
999.818	1481.09
1000.114	1453.75
1000.409	1470.47
1000.704	1458.72
1001	1462.79
1001.295	1447.65
1001.59	1467.76
1001.885	1467.53
1002.18	1423.01
1002.475	1432.73
1002.77	1415.78
1003.065	1406.52
1003.359	1411.49
1003.654	1438.15
1003.949	1396.35
1004.243	1378.04
1004.538	1370.59
1004.832	1366.29
1005.127	1367.2
1005.421	1354.77
1005.715	1356.8
1006.009	1336.01
1006.304	1339.85
1006.598	1322.9
1006.892	1316.8
1007.186	1310.47
1007.48	1298.95
1007.773	1302.79
1008.067	1302.56
1008.361	1300.98
1008.655	1273.86
1008.948	1258.5
1009.242	1260.31
1009.535	1243.58
1009.829	1262.34
1010.122	1272.96
1010.415	1268.44
1010.708	1245.17
1011.001	1250.81
1011.295	1222.34
1011.588	1211.27
1011.881	1209.46
1012.173	1184.15
1012.466	1175.56
1012.759	1179.18
1013.052	1166.07
1013.344	1193.41
1013.637	1170.59
1013.93	1184.6
1014.222	1163.36
1014.514	1166.3
1014.807	1153.64
1015.099	1158.39
1015.391	1119.29
1015.683	1127.65
1015.976	1171.95
1016.268	1121.55
1016.56	1081.55
1016.851	1131.72
1017.143	1096.02
1017.435	1113.64
1017.727	1087.43
1018.018	1083.81
1018.31	1078.16
1018.602	1082.23
1018.893	1078.84
1019.185	1061.67
1019.476	1072.97
1019.767	1051.5
1020.058	1043.59
1020.35	1028.22
1020.641	1017.6
1020.932	1010.37
1021.223	1025.28
1021.514	1002.91
1021.804	1000.65
1022.095	989.58
1022.386	986.64
1022.677	956.81
1022.967	960.43
1023.258	1000.2
1023.548	992.29
1023.839	973.08
1024.129	983.48
1024.419	945.06
1024.709	918.62
1025	946.64
1025.29	935.57
1025.58	924.95
1025.87	916.81
1026.16	922.69
1026.449	922.91
1026.739	951.39
1027.029	908.9
1027.319	928.11
1027.608	910.94
1027.898	900.99
1028.187	881.11
1028.477	858.73
1028.766	884.04
1029.055	848.79
1029.344	861.22
1029.634	890.37
1029.923	844.05
1030.212	858.73
1030.501	841.56
1030.79	849.02
1031.078	835.01
1031.367	859.86
1031.656	847.89
1031.945	804.5
1032.233	798.62
1032.522	807.44
1032.81	811.05
1033.099	802.46
1033.387	806.08
1033.675	788.91
1033.963	789.36
1034.251	768.57
1034.54	794.1
1034.828	773.54
1035.116	753.65
1035.403	765.4
1035.691	759.53
1035.979	767.44
1036.267	756.36
1036.554	748.23
1036.842	748.91
1037.129	753.43
1037.417	746.42
1037.704	731.05
1037.992	728.34
1038.279	733.77
1038.566	731.51
1038.853	731.51
1039.14	731.51
