Data from blue_clamp_base_FLMS001491_00025.txt Node
Date: Wed Feb 08 15:15:46 GMT 2017
User: dcchb
Spectrometer: FLMS00149
Trigger mode: 0
Integration Time (sec): 2.000000E-2
Scans to average: 10
Electric dark correction enabled: true
Nonlinearity correction enabled: false
Boxcar width: 0
XAxis mode: Wavelengths
Number of Pixels in Spectrum: 2048
>>>>>Begin Spectral Data<<<<<
341.393	13.94
341.776	13.94
342.16	13.94
342.543	-50.92
342.927	-68.32
343.31	-69.45
343.693	-61.09
344.077	-70.35
344.46	-75.77
344.843	-50.01
345.226	-52.95
345.61	-59.5
345.993	-25.15
346.376	-0.97
346.759	21.62
347.142	26.82
347.525	50.55
347.908	45.13
348.291	106.82
348.674	87.61
349.057	126.71
349.44	134.39
349.823	143.65
350.206	163.31
350.588	196.53
350.971	197.44
351.354	208.51
351.737	234.5
352.119	244.89
352.502	267.04
352.884	261.84
353.267	290.09
353.65	289.64
354.032	288.06
354.414	296.19
354.797	326.47
355.179	300.03
355.562	325.12
355.944	305.23
356.326	327.83
356.709	321.95
357.091	323.76
357.473	338.45
357.855	339.58
358.238	332.35
358.62	338.68
359.002	336.19
359.384	348.17
359.766	325.12
360.148	341.39
360.53	341.84
360.912	328.51
361.294	354.72
361.676	322.86
362.057	313.37
362.439	288.06
362.821	326.7
363.203	314.05
363.584	326.25
363.966	317.44
364.348	298.45
364.729	329.86
365.111	315.63
365.493	336.87
365.874	329.86
366.256	310.66
366.637	304.78
367.019	320.82
367.4	301.39
367.781	313.37
368.163	306.59
368.544	286.02
368.925	321.95
369.306	304.55
369.688	300.03
370.069	307.04
370.45	314.5
370.831	328.96
371.212	307.27
371.593	299.13
371.974	302.75
372.355	323.99
372.736	303.65
373.117	314.27
373.498	304.78
373.879	309.3
374.26	304.78
374.641	313.37
375.021	313.37
375.402	332.35
375.783	311.33
376.163	307.49
376.544	320.37
376.925	325.57
377.305	307.04
377.686	305.46
378.066	340.94
378.447	340.03
378.827	307.04
379.208	330.09
379.588	323.99
379.968	307.94
380.349	345.01
380.729	318.34
381.109	321.05
381.489	343.88
381.87	324.89
382.25	323.99
382.63	336.42
383.01	315.63
383.39	333.25
383.77	345.46
384.15	340.26
384.53	338.68
384.91	343.88
385.29	339.36
385.67	350.43
386.049	355.4
386.429	356.3
386.809	355.85
387.189	338
387.568	354.5
387.948	360.6
388.328	351.78
388.707	358.56
389.087	364.67
389.466	356.76
389.846	344.78
390.225	364.67
390.605	365.57
390.984	366.47
391.363	383.2
391.743	377.32
392.122	377.55
392.501	383.2
392.881	382.07
393.26	373.7
393.639	393.37
394.018	397.89
394.397	382.74
394.776	385
395.155	401.5
395.534	390.88
395.913	371.67
396.292	419.81
396.671	419.81
397.05	418.68
397.429	437.21
397.808	436.75
398.186	422.07
398.565	406.92
398.944	427.49
399.323	440.37
399.701	412.35
400.08	410.54
400.458	432.01
400.837	451.67
401.215	449.64
401.594	451.89
401.972	451.44
402.351	455.28
402.729	467.94
403.107	455.51
403.486	476.53
403.864	482.85
404.242	457.77
404.62	470.88
404.999	500.48
405.377	500.93
405.755	514.27
406.133	511.1
406.511	527.83
406.889	521.72
407.267	504.77
407.645	507.03
408.023	531.67
408.401	515.62
408.779	557.65
409.156	542.97
409.534	547.26
409.912	535.73
410.29	571.21
410.667	575.28
411.045	584.32
411.422	580.93
411.8	573.25
412.178	598.56
412.555	599.46
412.933	614.15
413.31	595.85
413.687	616.41
414.065	636.52
414.442	644.88
414.819	630.42
415.197	635.84
415.574	633.36
415.951	665
416.328	648.73
416.705	662.28
417.082	681.72
417.46	681.27
417.837	681.72
418.214	674.26
418.591	705
418.967	716.97
419.344	711.32
419.721	700.02
420.098	673.36
420.475	733.47
420.852	732.79
421.228	735.73
421.605	762.17
421.982	745.67
422.358	759.68
422.735	762.4
423.111	744.54
423.488	757.42
423.864	779.57
424.241	798.55
424.617	825.67
424.994	805.56
425.37	803.75
425.746	815.95
426.123	853.01
426.499	816.18
426.875	825.67
427.251	853.47
427.627	873.35
428.003	872.9
428.379	873.58
428.756	898.66
429.132	881.71
429.507	922.17
429.883	943.18
430.259	945.44
430.635	950.19
431.011	963.97
431.387	968.94
431.763	992.67
432.138	986.8
432.514	1006.91
432.89	1026.57
433.265	1055.27
433.641	1063.4
434.016	1068.83
434.392	1057.75
434.767	1086
435.143	1089.17
435.518	1093.46
435.894	1112.67
436.269	1135.72
436.644	1165.1
437.02	1141.82
437.395	1129.39
437.77	1192.21
438.145	1195.38
438.52	1191.54
438.895	1215.94
439.271	1220.01
439.646	1261.59
440.021	1259.78
440.395	1275.83
440.77	1248.48
441.145	1281.93
441.52	1275.38
441.895	1292.78
442.27	1298.43
442.645	1325.54
443.019	1370.06
443.394	1353.79
443.769	1352.44
444.143	1362.83
444.518	1430.17
444.892	1405.99
445.267	1397.41
445.641	1430.17
446.016	1427.91
446.39	1443.06
446.764	1449.38
447.139	1467.01
447.513	1466.11
447.887	1506.56
448.262	1469.95
448.636	1486.44
449.01	1532.32
449.384	1550.85
449.758	1548.59
450.132	1570.74
450.506	1568.7
450.88	1576.61
451.254	1561.24
451.628	1583.62
452.002	1628.36
452.376	1653.9
452.75	1616.38
453.123	1678.53
453.497	1699.32
453.871	1694.57
454.244	1686.66
454.618	1715.82
454.992	1784.29
455.365	1758.53
455.739	1793.55
456.112	1800.11
456.486	1829.03
456.859	1864.51
457.232	1859.99
457.606	1883.04
457.979	1907.22
458.352	1958.97
458.725	1941.12
459.099	1960.78
459.472	1995.58
459.845	2027.67
460.218	2023.83
460.591	2044.85
460.964	2051.4
461.337	2081.91
461.71	2137.27
462.083	2165.52
462.456	2158.74
462.829	2171.62
463.201	2183.37
463.574	2204.84
463.947	2231.51
464.32	2311.51
464.692	2289.36
465.065	2300.21
465.438	2334.78
465.81	2364.61
466.183	2404.84
466.555	2449.81
466.928	2470.82
467.3	2472.63
467.672	2462.46
468.045	2545.4
468.417	2551.27
468.789	2579.07
469.161	2581.56
469.534	2644.38
469.906	2656.13
470.278	2715.79
470.65	2741.33
471.022	2753.98
471.394	2828.33
471.766	2842.57
472.138	2849.12
472.51	2910.59
472.882	2952.85
473.253	2993.52
473.625	3043.01
473.997	3055.67
474.369	3028.1
474.74	3093.63
475.112	3167.08
475.484	3199.62
475.855	3252.05
476.227	3252.05
476.598	3393.06
476.97	3336.11
477.341	3448.65
477.713	3453.17
478.084	3517.58
478.455	3584.69
478.827	3579.5
479.198	3663.11
479.569	3685.48
479.94	3778.14
480.311	3758.02
480.682	3853.61
481.053	3899.26
481.424	3979.03
481.795	3972.03
482.166	4018.81
482.537	4075.75
482.908	4127.5
483.279	4222.64
483.65	4242.98
484.021	4333.83
484.391	4326.37
484.762	4373.83
485.133	4414.5
485.503	4458.34
485.874	4554.61
486.244	4559.81
486.615	4596.64
486.985	4656.08
487.356	4690.65
487.726	4723.65
488.097	4783.53
488.467	4817.66
488.837	4924.32
489.207	4955.05
489.578	5049.97
489.948	4953.7
490.318	5071.89
490.688	5080.7
491.058	5124.54
491.428	5140.81
491.798	5193.24
492.168	5251.32
492.538	5244.54
492.908	5334.48
493.278	5308.26
493.648	5387.13
494.017	5402.5
494.387	5475.49
494.757	5493.34
495.126	5522.95
495.496	5527.92
495.866	5522.72
496.235	5553
496.605	5624.41
496.974	5668.71
497.344	5626.45
497.713	5677.75
498.082	5731.98
498.452	5717.75
498.821	5741.93
499.19	5799.78
499.559	5815.82
499.928	5815.6
500.298	5877.74
500.667	5879.1
501.036	5832.09
501.405	5954.8
501.774	5961.81
502.143	5972.2
502.512	5981.47
502.88	6037.96
503.249	5968.13
503.618	5979.21
503.987	5985.08
504.356	6086.1
504.724	6100.56
505.093	6067.34
505.462	6060.34
505.83	6167.68
506.199	6177.62
506.567	6192.99
506.936	6167.68
507.304	6230.95
507.672	6226.43
508.041	6304.17
508.409	6357.28
508.777	6327.22
509.145	6385.3
509.514	6393.43
509.882	6440.66
510.25	6409.93
510.618	6454.67
510.986	6466.65
511.354	6472.3
511.722	6557.27
512.09	6602.92
512.458	6536.03
512.826	6636.14
513.193	6605.18
513.561	6653.54
513.929	6627.55
514.297	6716.81
514.664	6693.99
515.032	6680.66
515.4	6784.61
515.767	6761.56
516.135	6788.68
516.502	6738.74
516.869	6744.38
517.237	6811.5
517.604	6794.55
517.972	6812.63
518.339	6873.87
518.706	6882.91
519.073	6868
519.44	6912.52
519.808	6949.13
520.175	6891.95
520.542	7027.77
520.909	7063.25
521.276	6951.84
521.643	7110.48
522.009	7091.49
522.376	7159.74
522.743	7159.52
523.11	7219.17
523.477	7306.18
523.843	7237.71
524.21	7350.47
524.577	7368.32
524.943	7398.83
525.31	7378.72
525.676	7443.8
526.043	7444.03
526.409	7512.73
526.776	7577.13
527.142	7550.92
527.508	7553.63
527.874	7610.58
528.241	7712.95
528.607	7702.1
528.973	7725.38
529.339	7683.8
529.705	7764.92
530.071	7794.98
530.437	7904.58
530.803	7900.29
531.169	7954.97
531.535	7796.11
531.901	7941.19
532.267	7973.96
532.632	8042.2
532.998	8046.72
533.364	8081.07
533.73	8020.28
534.095	8082.2
534.461	8164.69
534.826	8134.18
535.192	8204.01
535.557	8271.35
535.923	8153.16
536.288	8216.66
536.653	8266.38
537.019	8190.67
537.384	8248.3
537.749	8317.22
538.114	8293.27
538.479	8372.14
538.845	8377.56
539.21	8313.16
539.575	8363.33
539.94	8391.12
540.305	8425.24
540.67	8467.5
541.034	8485.58
541.399	8423.44
541.764	8477.45
542.129	8450.33
542.494	8473.15
542.858	8564
543.223	8478.8
543.587	8606.03
543.952	8541.85
544.316	8582.98
544.681	8602.42
545.045	8574.85
545.41	8614.62
545.774	8646.93
546.138	8662.07
546.503	8740.72
546.867	8665.92
547.231	8684.67
547.595	8767.16
547.959	8808.51
548.324	8766.93
548.688	8709.3
549.052	8825.23
549.416	8785.91
549.779	8779.13
550.143	8833.82
550.507	8877.21
550.871	8897.32
551.235	8834.73
551.599	8883.99
551.962	8905.68
552.326	8911.79
552.689	8964.89
553.053	8932.35
553.417	8945.46
553.78	9074.04
554.143	8991.11
554.507	9046.25
554.87	8972.57
555.234	9104.1
555.597	9077.66
555.96	9081.72
556.323	9079.69
556.686	9177.32
557.05	9168.73
557.413	9152.91
557.776	9175.73
558.139	9253.25
558.502	9156.52
558.865	9217.31
559.228	9231.1
559.59	9295.28
559.953	9314.94
560.316	9378.67
560.679	9322.4
561.041	9367.14
561.404	9377.31
561.767	9400.36
562.129	9417.76
562.492	9491.88
562.854	9485.78
563.217	9490.53
563.579	9506.12
563.941	9537.76
564.304	9521.26
564.666	9680.58
565.028	9631.77
565.39	9697.53
565.753	9686.91
566.115	9645.1
566.477	9683.52
566.839	9766.23
567.201	9828.6
567.563	9806.45
567.925	9924.87
568.287	9910.63
568.648	9915.37
569.01	9928.71
569.372	10082.6
569.734	9935.04
570.095	10036.5
570.457	10144.75
570.819	10114.69
571.18	10081.25
571.542	10157.4
571.903	10204.63
572.265	10127.35
572.626	10152.2
572.987	10268.81
573.349	10223.16
573.71	10241.24
574.071	10274.91
574.432	10345.19
574.794	10420.45
575.155	10370.05
575.516	10425.19
575.877	10431.52
576.238	10422.71
576.599	10440.11
576.96	10491.86
577.32	10457.51
577.681	10509.94
578.042	10521.23
578.403	10558.75
578.763	10500.44
579.124	10606.88
579.485	10638.07
579.845	10667.9
580.206	10665.64
580.566	10652.76
580.927	10660.67
581.287	10703.6
581.648	10745.18
582.008	10753.09
582.368	10738.86
582.728	10746.31
583.089	10790.15
583.449	10679.2
583.809	10737.73
584.169	10799.65
584.529	10782.24
584.889	10832.64
585.249	10799.42
585.609	10749.48
585.969	10839.64
586.329	10773.21
586.688	10807.1
587.048	10838.06
587.408	10877.38
587.768	10832.19
588.127	10818.4
588.487	10818.63
588.846	10871.73
589.206	10850.04
589.565	10861.11
589.925	10889.59
590.284	10847.78
590.643	10869.7
591.003	10947.66
591.362	10915.57
591.721	10917.38
592.08	11030.37
592.44	10968.91
592.799	10978.4
593.158	10853.43
593.517	10938.85
593.876	10981.34
594.235	10961.68
594.593	10955.12
594.952	10932.98
595.311	10993.09
595.67	10999.87
596.029	11051.39
596.387	11058.85
596.746	10997.15
597.104	11082.8
597.463	11031.73
597.822	11078.51
598.18	11019.53
598.538	10983.37
598.897	11078.51
599.255	11012.3
599.613	11161.67
599.972	11049.36
600.33	11123.48
600.688	11032.18
601.046	11144.95
601.404	11164.38
601.762	11097.04
602.12	11209.58
602.478	11203.02
602.836	11168.22
603.194	11076.7
603.552	11159.64
603.91	11095
604.268	11186.53
604.625	11140.65
604.983	11192.86
605.341	11136.59
605.698	11197.15
606.056	11217.49
606.413	11154.66
606.771	11260.42
607.128	11206.19
607.485	11227.66
607.843	11180.65
608.2	11335
608.557	11258.84
608.914	11324.38
609.272	11289.58
609.629	11326.64
609.986	11409.12
610.343	11403.92
610.7	11401.21
611.057	11424.04
611.414	11383.81
611.771	11354.89
612.127	11467.42
612.484	11401.89
612.841	11506.07
613.198	11386.3
613.554	11465.62
613.911	11502.45
614.267	11546.52
614.624	11570.02
614.98	11457.48
615.337	11576.12
615.693	11524.6
616.05	11541.55
616.406	11620.64
616.762	11526.18
617.118	11519.63
617.475	11544.71
617.831	11567.99
618.187	11644.14
618.543	11654.09
618.899	11670.36
619.255	11690.92
619.611	11743.35
619.967	11690.24
620.323	11715.55
620.678	11705.38
621.034	11708.1
621.39	11747.64
621.746	11691.15
622.101	11836.91
622.457	11716.46
622.812	11833.29
623.168	11796.23
623.523	11747.87
623.879	11798.72
624.234	11830.58
624.589	11753.74
624.945	11873.06
625.3	11908.09
625.655	11889.33
626.01	11819.28
626.365	11903.57
626.72	11850.92
627.075	11934.98
627.43	11857.24
627.785	11896.79
628.14	11941.31
628.495	12040.06
628.85	11999.16
629.205	11915.32
629.559	11997.81
629.914	11947.86
630.269	11984.47
630.623	11948.09
630.978	11966.39
631.332	11991.48
631.687	12057.47
632.041	12037.8
632.396	12078.93
632.75	11944.02
633.104	11998.71
633.459	11901.76
633.813	11955.1
634.167	11920.75
634.521	12053.62
634.875	11973.63
635.229	12040.74
635.583	11962.1
635.937	11954.64
636.291	11993.74
636.645	12025.38
636.999	12095.88
637.352	12039.84
637.706	12029.9
638.06	12103.34
638.413	12056.79
638.767	12066.73
639.121	12075.54
639.474	11971.37
639.828	11987.64
640.181	12028.09
640.534	12081.65
640.888	12088.65
641.241	11976.34
641.594	12134.75
641.947	12174.98
642.301	12114.64
642.654	12068.09
643.007	12114.87
643.36	12122.55
643.713	12108.31
644.066	12199.61
644.419	12059.95
644.771	12076.45
645.124	12032.38
645.477	12101.98
645.83	12014.98
646.182	11980.18
646.535	11875.78
646.888	11903.8
647.24	11837.13
647.593	11818.6
647.945	11858.37
648.298	11800.07
648.65	11787.19
649.002	11798.94
649.355	11845.49
649.707	11965.94
650.059	12076.67
650.411	12137.01
650.763	12148.54
651.115	12321.87
651.467	12288.65
651.819	12333.62
652.171	12295.2
652.523	12197.12
652.875	12236.22
653.227	12207.29
653.578	12389.89
653.93	12381.98
654.282	12345.37
654.633	12234.86
654.985	12360.28
655.337	12370.23
655.688	12398.7
656.039	12397.12
656.391	12357.57
656.742	12403.22
657.094	12392.82
657.445	12487.74
657.796	12422.65
658.147	12410.68
658.498	12335.65
658.849	12411.35
659.2	12352.15
659.551	12364.35
659.902	12481.18
660.253	12466.95
660.604	12465.59
660.955	12362.99
661.306	12475.08
661.656	12501.3
662.007	12458.36
662.358	12497.45
662.708	12485.25
663.059	12528.19
663.409	12424.46
663.76	12547.85
664.11	12485.25
664.461	12487.51
664.811	12504.91
665.161	12565.7
665.511	12458.58
665.862	12488.19
666.212	12462.43
666.562	12509.66
666.912	12432.6
667.262	12482.77
667.612	12416.33
667.962	12386.72
668.312	12374.07
668.662	12411.81
669.011	12432.82
669.361	12415.2
669.711	12333.84
670.06	12294.75
670.41	12328.19
670.76	12334.97
671.109	12343.11
671.459	12285.26
671.808	12278.7
672.157	12299.27
672.507	12090.68
672.856	12191.02
673.205	12154.86
673.554	12284.58
673.904	12089.1
674.253	12195.54
674.602	12115.54
674.951	12003.91
675.3	11857.24
675.649	12075.54
675.998	12053.85
676.346	12071.25
676.695	12055.88
677.044	11934.3
677.393	11971.59
677.741	12025.83
678.09	11941.76
678.438	11884.81
678.787	11852.5
679.135	11960.97
679.484	11763.69
679.832	11834.87
680.181	11741.54
680.529	11790.13
680.877	11746.51
681.225	11724.59
681.573	11756.91
681.922	11706.06
682.27	11640.08
682.618	11633.97
682.966	11610.92
683.314	11611.38
683.661	11546.74
684.009	11522.34
684.357	11460.42
684.705	11498.38
685.053	11477.59
685.4	11465.84
685.748	11441.89
686.095	11392.4
686.443	11357.37
686.79	11387.65
687.138	11285.28
687.485	11395.56
687.832	11284.6
688.18	11316.24
688.527	11271.5
688.874	11178.84
689.221	11255.68
689.568	11233.08
689.915	11264.49
690.262	11314.21
690.609	11231.72
690.956	11215.45
691.303	11153.76
691.65	11061.56
691.997	11128.45
692.344	11092.75
692.69	11096.36
693.037	11142.01
693.383	10984.27
693.73	11032.86
694.077	10975.69
694.423	10951.73
694.769	10914.67
695.116	10940.66
695.462	10919.64
695.808	10940.21
696.155	10874.67
696.501	10819.31
696.847	10911.96
697.193	10721.23
697.539	10803.71
697.885	10779.31
698.231	10671.97
698.577	10768.91
698.923	10791.28
699.269	10656.82
699.614	10568.69
699.96	10628.12
700.306	10691.4
700.651	10604.17
700.997	10614.57
701.342	10598.97
701.688	10559.43
702.033	10607.33
702.379	10561.46
702.724	10528.01
703.069	10612.31
703.415	10500.9
703.76	10533.21
704.105	10513.78
704.45	10469.71
704.795	10462.48
705.14	10476.49
705.485	10511.29
705.83	10490.28
706.175	10486.66
706.52	10485.98
706.865	10409.15
707.209	10417.06
707.554	10402.59
707.899	10368.02
708.243	10349.49
708.588	10411.18
708.932	10282.14
709.277	10259.32
709.621	10379.09
709.966	10269.26
710.31	10329.15
710.654	10243.5
710.998	10301.81
711.342	10300.68
711.687	10251.64
712.031	10232.65
712.375	10157.4
712.719	10244.18
713.063	10192.88
713.407	10211.19
713.75	10189.04
714.094	10207.8
714.438	10203.5
714.782	10241.24
715.125	10159.21
715.469	10121.02
715.812	10140.23
716.156	10061.36
716.499	10092.55
716.843	10135.71
717.186	10042.38
717.53	10062.49
717.873	10035.82
718.216	10045.54
718.559	10049.61
718.902	9952.44
719.246	10029.72
719.589	10071.3
719.932	9954.24
720.275	10017.29
720.617	10033.34
720.96	9921.25
721.303	9983.62
721.646	9984.53
721.989	9906.79
722.331	9997.86
722.674	10014.13
723.016	9978.42
723.359	9934.58
723.701	10007.8
724.044	9913.57
724.386	9890.06
724.729	9922.61
725.071	9897.97
725.413	9841.25
725.755	9898.2
726.097	9888.03
726.439	9804.87
726.782	9894.58
727.124	9856.62
727.465	9836.28
727.807	9879.44
728.149	9851.65
728.491	9917.63
728.833	9961.7
729.175	9924.87
729.516	9949.72
729.858	9922.83
730.199	9943.17
730.541	9967.58
730.882	9906.79
731.224	9900.01
731.565	9827.02
731.906	9944.98
732.248	9919.22
732.589	9864.53
732.93	9820.91
733.271	9863.4
733.612	9908.14
733.953	9913.79
734.294	9966
734.635	9834.7
734.976	9958.54
735.317	9850.97
735.658	9911.76
735.999	9944.3
736.339	9916.28
736.68	9951.98
737.021	9963.28
737.361	9993.56
737.702	10022.72
738.042	10062.94
738.383	9968.48
738.723	10063.39
739.063	10057.74
739.404	10082.83
739.744	10069.72
740.084	10066.78
740.424	10063.39
740.764	10050.29
741.104	10053.45
741.444	10101.36
741.784	10144.97
742.124	10155.59
742.464	10116.95
742.804	10202.15
743.143	10148.82
743.483	10255.93
743.823	10165.09
744.162	10156.27
744.502	10288.25
744.841	10223.62
745.181	10332.77
745.52	10295.25
745.86	10332.77
746.199	10325.31
746.538	10361.24
746.877	10370.05
747.216	10405.76
747.556	10372.31
747.895	10440.11
748.234	10364.18
748.573	10446.66
748.911	10497.96
749.25	10465.19
749.589	10462.25
749.928	10529.37
750.267	10591.29
750.605	10594.68
750.944	10499.99
751.283	10553.1
751.621	10622.02
751.96	10659.08
752.298	10703.83
752.636	10661.8
752.975	10590.84
753.313	10708.35
753.651	10699.76
753.989	10680.55
754.327	10704.28
754.666	10729.82
755.004	10886.87
755.342	10840.1
755.679	10830.15
756.017	10920.77
756.355	10928.68
756.693	10804.17
757.031	10914.44
757.368	10871.51
757.706	10923.71
758.044	10916.48
758.381	10986.53
758.719	10937.95
759.056	11003.48
759.394	10971.62
759.731	10903.6
760.068	10962.13
760.405	11038.96
760.743	10959.87
761.08	11010.49
761.417	10978.17
761.754	10990.15
762.091	11009.81
762.428	11039.64
762.765	11010.71
763.102	11115.34
763.438	11123.93
763.775	11050.71
764.112	11087.55
764.449	11101.78
764.785	11112.41
765.122	11108.79
765.458	11031.05
765.795	11092.07
766.131	11165.74
766.467	11130.03
766.804	11109.02
767.14	11020.43
767.476	11105.63
767.812	11135.68
768.148	11118.73
768.485	11112.63
768.821	11124.61
769.157	11123.48
769.492	11061.33
769.828	11137.94
770.164	11055.01
770.5	11142.24
770.836	11200.99
771.171	11114.67
771.507	11085.74
771.842	11056.14
772.178	11102.46
772.513	11068.79
772.849	11046.87
773.184	11109.02
773.519	11137.94
773.855	11011.84
774.19	11111.5
774.525	11004.39
774.86	11089.58
775.195	11095.91
775.53	11039.64
775.865	11051.39
776.2	11019.75
776.535	10967.32
776.87	10950.6
777.205	10999.87
777.539	11004.39
777.874	11051.62
778.209	10972.75
778.543	10886.65
778.878	10916.03
779.212	10994.44
779.547	10908.8
779.881	11026.08
780.215	10868.8
780.55	10957.38
780.884	10918.74
781.218	10839.42
781.552	11006.65
781.886	10895.91
782.22	10779.98
782.554	10812.75
782.888	10813.88
783.222	10856.14
783.556	10757.61
783.889	10767.33
784.223	10805.29
784.557	10760.1
784.89	10748.35
785.224	10684.85
785.557	10683.26
785.891	10751.74
786.224	10687.33
786.558	10734.79
786.891	10640.33
787.224	10637.84
787.557	10664.28
787.891	10689.37
788.224	10627.45
788.557	10666.09
788.89	10642.14
789.223	10612.53
789.556	10542.48
789.888	10565.3
790.221	10549.71
790.554	10440.33
790.887	10535.92
791.219	10505.64
791.552	10463.84
791.884	10429.03
792.217	10503.83
792.549	10495.47
792.882	10436.04
793.214	10390.62
793.546	10440.33
793.879	10392.65
794.211	10393.33
794.543	10416.38
794.875	10389.03
795.207	10419.54
795.539	10325.31
795.871	10354.69
796.203	10278.53
796.535	10293.22
796.867	10283.05
797.198	10245.31
797.53	10231.75
797.862	10133.67
798.193	10229.49
798.525	10236.04
798.856	10217.74
799.188	10132.09
799.519	10121.92
799.85	10076.73
800.182	10166.89
800.513	10216.16
800.844	10125.54
801.175	10208.7
801.506	10163.5
801.837	10042.83
802.168	10030.17
802.499	10024.3
802.83	10017.75
803.161	10051.42
803.491	9978.2
803.822	10013
804.153	9979.33
804.483	9898.88
804.814	9941.59
805.145	9916.96
805.475	9932.1
805.805	9853.23
806.136	9948.37
806.466	9841.48
806.796	9939.1
807.126	9792.89
807.457	9762.16
807.787	9784.98
808.117	9761.25
808.447	9709.96
808.777	9783.17
809.107	9699.79
809.436	9738.2
809.766	9695.72
810.096	9694.14
810.426	9650.98
810.755	9736.4
811.085	9631.77
811.414	9686.45
811.744	9584.76
812.073	9646
812.403	9615.72
812.732	9514.71
813.061	9542.28
813.39	9520.58
813.719	9505.67
814.049	9551.09
814.378	9465.22
814.707	9460.92
815.036	9482.84
815.365	9445.78
815.693	9323.98
816.022	9398.33
816.351	9354.94
816.68	9317.65
817.008	9408.5
817.337	9313.13
817.665	9294.83
817.994	9361.27
818.322	9284.43
818.651	9244.43
818.979	9290.53
819.307	9337.09
819.636	9258.89
819.964	9223.87
820.292	9291.89
820.62	9229.97
820.948	9228.84
821.276	9285.11
821.604	9202.85
821.932	9224.32
822.259	9293.92
822.587	9242.4
822.915	9271.32
823.243	9248.27
823.57	9224.32
823.898	9240.14
824.225	9279.69
824.553	9241.72
824.88	9244.88
825.207	9272.45
825.535	9190.2
825.862	9337.54
826.189	9290.08
826.516	9372.79
826.843	9314.71
827.17	9345.22
827.497	9336.41
827.824	9321.04
828.151	9321.94
828.478	9357.2
828.805	9335.05
829.131	9340.02
829.458	9336.63
829.785	9314.03
830.111	9322.85
830.438	9426.35
830.764	9334.15
831.09	9321.04
831.417	9307.26
831.743	9363.3
832.069	9414.82
832.395	9332.79
832.722	9343.64
833.048	9292.57
833.374	9330.98
833.7	9285.79
834.026	9277.88
834.351	9315.62
834.677	9332.57
835.003	9316.07
835.329	9350.19
835.654	9310.19
835.98	9206.24
836.306	9327.37
836.631	9236.3
836.956	9290.53
837.282	9338.67
837.607	9239.91
837.932	9203.76
838.258	9213.02
838.583	9243.08
838.908	9182.51
839.233	9240.36
839.558	9176.64
839.883	9110.65
840.208	9110.65
840.533	9107.26
840.858	9148.39
841.182	9129.63
841.507	9143.42
841.832	9090.76
842.156	9034.27
842.481	9067.71
842.805	9046.92
843.13	9041.73
843.454	9041.5
843.778	8966.47
844.103	8910.88
844.427	8998.34
844.751	8911.11
845.075	9001.5
845.399	8927.83
845.723	8870.43
846.047	8869.98
846.371	8811
846.695	8786.37
847.019	8730.77
847.343	8681.51
847.666	8693.03
847.99	8653.26
848.313	8616.88
848.637	8549.08
848.96	8609.42
849.284	8546.37
849.607	8497.33
849.931	8517.45
850.254	8427.73
850.577	8417.11
850.9	8403.55
851.223	8373.04
851.546	8315.64
851.869	8238.36
852.192	8367.17
852.515	8284.68
852.838	8238.13
853.161	8202.43
853.483	8182.77
853.806	8138.25
854.129	8138.7
854.451	8117.23
854.774	8064.8
855.096	8054.41
855.419	8057.8
855.741	8034.52
856.063	7977.8
856.385	7986.84
856.708	8001.07
857.03	7879.04
857.352	7876.78
857.674	7881.3
857.996	7806.05
858.318	7757.24
858.64	7798.59
858.961	7744.36
859.283	7780.74
859.605	7658.03
859.926	7759.27
860.248	7741.19
860.57	7656.68
860.891	7680.86
861.212	7620.75
861.534	7692.16
861.855	7674.76
862.176	7597.02
862.498	7622.78
862.819	7646.06
863.14	7558.6
863.461	7576
863.782	7586.4
864.103	7558.15
864.424	7556.34
864.745	7498.26
865.065	7504.82
865.386	7482.67
865.707	7495.55
866.027	7480.86
866.348	7389.79
866.668	7480.64
866.989	7453.07
867.309	7396.8
867.63	7436.34
867.95	7430.24
868.27	7408.1
868.59	7357.48
868.91	7386.85
869.23	7353.41
869.55	7343.92
869.87	7325.39
870.19	7389.79
870.51	7373.75
870.83	7250.13
871.15	7290.81
871.469	7319.06
871.789	7286.74
872.109	7288.1
872.428	7204.94
872.748	7278.61
873.067	7269.12
873.386	7281.55
873.706	7246.52
874.025	7221.89
874.344	7169.46
874.663	7213.98
874.982	7197.03
875.301	7184.6
875.62	7159.06
875.939	7157.93
876.258	7150.25
876.577	7125.39
876.896	7162.9
877.214	7083.58
877.533	7118.16
877.852	7081.33
878.17	7059.4
878.489	7104.15
878.807	7116.8
879.125	7078.84
879.444	7098.95
879.762	7006.07
880.08	6975.79
880.398	6977.37
880.716	7041.78
881.034	7004.49
881.352	7002.91
881.67	6878.17
881.988	6929.24
882.306	6930.37
882.624	6890.14
882.941	6839.07
883.259	6829.35
883.577	6837.72
883.894	6871.39
884.212	6842.69
884.529	6836.59
884.846	6819.19
885.164	6785.74
885.481	6827.55
885.798	6790.26
886.115	6695.57
886.432	6759.07
886.75	6700.54
887.067	6736.7
887.383	6730.83
887.7	6719.98
888.017	6688.57
888.334	6685.4
888.651	6650.83
888.967	6594.56
889.284	6651.05
889.6	6569.7
889.917	6534.45
890.233	6575.12
890.55	6517.95
890.866	6569.7
891.182	6529.02
891.498	6495.13
891.815	6444.51
892.131	6454.22
892.447	6475.01
892.763	6421.68
893.079	6397.5
893.395	6360.89
893.71	6371.29
894.026	6361.12
894.342	6277.28
894.657	6261.69
894.973	6259.2
895.289	6256.94
895.604	6228.24
895.92	6186.21
896.235	6228.69
896.55	6189.15
896.865	6165.42
897.181	6157.73
897.496	6126.77
897.811	6134.68
898.126	6103.95
898.441	6101.01
898.756	5992.77
899.071	6015.59
899.386	6040.45
899.7	5966.33
900.015	5936.5
900.33	5916.16
900.644	5945.99
900.959	5937.4
901.273	5881.13
901.588	5864.63
901.902	5858.31
902.216	5830.06
902.531	5819.66
902.845	5789.61
903.159	5790.51
903.473	5734.02
903.787	5767.24
904.101	5736.05
904.415	5710.29
904.729	5676.84
905.042	5670.97
905.356	5589.16
905.67	5657.41
905.984	5607.92
906.297	5579.67
906.611	5550.52
906.924	5524.08
907.237	5518.2
907.551	5515.94
907.864	5468.49
908.177	5435.27
908.491	5457.64
908.804	5384.42
909.117	5385.78
909.43	5323.63
909.743	5325.67
910.056	5317.76
910.368	5275.27
910.681	5265.33
910.994	5293.8
911.307	5265.78
911.619	5189.17
911.932	5251.99
912.244	5145.78
912.557	5220.36
912.869	5156.86
913.181	5097.87
913.494	5123.41
913.806	5049.29
914.118	5096.07
914.43	5032.57
914.742	5053.13
915.054	4981.04
915.366	4951.89
915.678	4959.12
915.99	4935.84
916.302	4923.19
916.613	4888.16
916.925	4873.93
917.236	4930.65
917.548	4831.44
917.859	4834.38
918.171	4814.04
918.482	4793.02
918.794	4734.72
919.105	4797.54
919.416	4717.77
919.727	4756.87
920.038	4734.04
920.349	4670.99
920.66	4612.46
920.971	4658.56
921.282	4624.67
921.593	4605.91
921.903	4536.31
922.214	4595.97
922.525	4539.25
922.835	4542.41
923.146	4493.37
923.456	4521.62
923.767	4482.75
924.077	4451.79
924.387	4448.17
924.697	4412.47
925.008	4419.93
925.318	4386.48
925.628	4365.46
925.938	4337.89
926.248	4311.68
926.558	4327.27
926.867	4277.33
927.177	4288.18
927.487	4233.94
927.796	4249.08
928.106	4224.9
928.416	4208.63
928.725	4208.18
929.034	4102.42
929.344	4158.92
929.653	4182.42
929.962	4118.92
930.271	4096.77
930.581	4134.28
930.89	4052.93
931.199	4072.14
931.508	4017
931.817	4012.93
932.125	3988.07
932.434	4019.94
932.743	3969.09
933.051	3945.14
933.36	3915.31
933.669	3939.03
933.977	3920.05
934.286	3858.81
934.594	3866.49
934.902	3867.17
935.21	3857.23
935.519	3820.39
935.827	3837.79
936.135	3773.16
936.443	3764.12
936.751	3735.88
937.059	3745.37
937.367	3708.31
937.674	3745.59
937.982	3738.14
938.29	3715.99
938.597	3678.48
938.905	3654.3
939.213	3631.92
939.52	3632.6
939.827	3630.79
940.135	3637.8
940.442	3607.97
940.749	3557.8
941.056	3594.64
941.363	3570.46
941.67	3543.11
941.977	3524.81
942.284	3476.67
942.591	3484.81
942.898	3477.13
943.205	3495.43
943.511	3463.79
943.818	3423.12
944.125	3414.98
944.431	3410.01
944.738	3415.21
945.044	3390.8
945.35	3371.14
945.657	3313.29
945.963	3374.08
946.269	3332.27
946.575	3316.23
946.881	3314.42
947.187	3272.16
947.493	3304.7
947.799	3229.22
948.105	3237.13
948.41	3270.8
948.716	3197.13
949.022	3207.08
949.327	3183.8
949.633	3169.11
949.938	3158.72
950.244	3175.44
950.549	3129.79
950.854	3120.98
951.16	3120.53
951.465	3111.26
951.77	3064.71
952.075	3077.14
952.38	3061.54
952.685	3043.24
952.99	3031.94
953.294	3041.21
953.599	3016.57
953.904	3029.23
954.209	2995.1
954.513	3014.09
954.818	2940.42
955.122	2941.09
955.426	2956.01
955.731	2939.97
956.035	2918.72
956.339	2930.7
956.643	2903.58
956.948	2860.42
957.252	2878.72
957.556	2860.87
957.86	2827.43
958.163	2827.2
958.467	2838.72
958.771	2859.29
959.075	2818.16
959.378	2796.69
959.682	2762.57
959.985	2759.86
960.289	2749.01
960.592	2732.29
960.896	2751.27
961.199	2724.38
961.502	2702.68
961.805	2723.93
962.108	2705.39
962.411	2711.5
962.714	2660.65
963.017	2650.03
963.32	2650.71
963.623	2649.13
963.926	2632.4
964.228	2624.04
964.531	2631.95
964.833	2600.76
965.136	2602.57
965.438	2547.66
965.741	2567.32
966.043	2537.49
966.345	2548.34
966.648	2546.53
966.95	2528.68
967.252	2499.07
967.554	2528.9
967.856	2497.49
968.158	2456.36
968.46	2469.47
968.761	2488.68
969.063	2462.24
969.365	2430.83
969.666	2422.92
969.968	2404.39
970.269	2407.55
970.571	2396.93
970.872	2378.85
971.174	2381.56
971.475	2363.94
971.776	2346.08
972.077	2347.44
972.378	2344.5
972.679	2348.12
972.98	2346.53
973.281	2305.18
973.582	2291.39
973.883	2272.19
974.183	2288
974.484	2285.74
974.785	2253.43
975.085	2275.58
975.386	2276.03
975.686	2270.83
975.986	2227.67
976.287	2250.72
976.587	2207.55
976.887	2202.81
977.187	2187.89
977.487	2182.47
977.787	2157.16
978.087	2142.47
978.387	2174.34
978.687	2140.89
978.987	2146.99
979.286	2093.89
979.586	2115.81
979.885	2130.72
980.185	2097.95
980.484	2116.03
980.784	2076.48
981.083	2076.26
981.382	2075.81
981.682	2079.42
981.981	2058.18
982.28	2072.64
982.579	2050.27
982.878	2051.17
983.177	2036.26
983.475	2013.21
983.774	2006.43
984.073	1982.25
984.372	1960.33
984.67	1978.18
984.969	1984.74
985.267	1967.56
985.566	1964.85
985.864	1930.95
986.162	1943.83
986.461	1924.62
986.759	1931.4
987.057	1893.66
987.355	1863.16
987.653	1887.11
987.951	1891.63
988.249	1862.93
988.547	1876.26
988.844	1839.66
989.142	1857.96
989.44	1842.59
989.737	1847.11
990.035	1798.07
990.332	1812.09
990.63	1784.29
990.927	1789.94
991.224	1777.51
991.521	1763.05
991.819	1778.64
992.116	1794.23
992.413	1783.61
992.71	1788.81
993.006	1768.24
993.303	1755.14
993.6	1722.6
993.897	1747.45
994.193	1728.92
994.49	1711.07
994.787	1744.52
995.083	1699.09
995.379	1690.51
995.676	1670.17
995.972	1695.25
996.268	1686.66
996.565	1672.65
996.861	1669.04
997.157	1636.27
997.453	1605.99
997.749	1632.88
998.044	1622.71
998.34	1626.78
998.636	1646.67
998.932	1623.39
999.227	1606.67
999.523	1607.57
999.818	1610.51
1000.114	1556.05
1000.409	1579.32
1000.704	1539.55
1001	1538.42
1001.295	1512.21
1001.59	1503.84
1001.885	1557.85
1002.18	1518.99
1002.475	1537.97
1002.77	1513.11
1003.065	1472.43
1003.359	1506.1
1003.654	1500.91
1003.949	1470.63
1004.243	1481.25
1004.538	1462.26
1004.832	1441.02
1005.127	1450.74
1005.421	1424.52
1005.715	1429.95
1006.009	1443.06
1006.304	1425.43
1006.598	1418.42
1006.892	1391.08
1007.186	1392.21
1007.48	1396.28
1007.773	1386.11
1008.067	1369.16
1008.361	1326.22
1008.655	1351.08
1008.948	1316.96
1009.242	1344.3
1009.535	1340.23
1009.829	1323.74
1010.122	1321.25
1010.415	1326.22
1010.708	1309.95
1011.001	1277.18
1011.295	1303.85
1011.588	1297.97
1011.881	1297.07
1012.173	1261.37
1012.466	1260.69
1012.759	1256.62
1013.052	1260.91
1013.344	1260.24
1013.637	1279.9
1013.93	1204.19
1014.222	1241.25
1014.514	1216.85
1014.807	1187.47
1015.099	1198.99
1015.391	1211.2
1015.683	1201.48
1015.976	1188.37
1016.268	1201.48
1016.56	1167.13
1016.851	1177.98
1017.143	1170.52
1017.435	1168.71
1017.727	1145.21
1018.018	1125.78
1018.31	1170.75
1018.602	1149.96
1018.893	1101.82
1019.185	1104.99
1019.476	1133.68
1019.767	1116.06
1020.058	1104.08
1020.35	1119.45
1020.641	1076.29
1020.932	1076.96
1021.223	1063.63
1021.514	1066.57
1021.804	1057.98
1022.095	1061.82
1022.386	1067.02
1022.677	1058.88
1022.967	1053.24
1023.258	1038.32
1023.548	1036.74
1023.839	1044.87
1024.129	1031.77
1024.419	980.92
1024.709	1005.1
1025	1005.1
1025.29	1008.49
1025.58	1022.73
1025.87	968.27
1026.16	998.32
1026.449	979.56
1026.739	973.92
1027.029	961.94
1027.319	942.5
1027.608	971.66
1027.898	968.04
1028.187	944.31
1028.477	947.93
1028.766	918.55
1029.055	907.7
1029.344	923.97
1029.634	878.1
1029.923	909.06
1030.212	899.79
1030.501	905.22
1030.79	878.1
1031.078	914.93
1031.367	876.52
1031.656	877.87
1031.945	878.78
1032.233	853.69
1032.522	851.88
1032.81	857.76
1033.099	862.28
1033.387	864.54
1033.675	842.17
1033.963	834.94
1034.251	819.34
1034.54	826.35
1034.828	829.29
1035.116	817.54
1035.403	803.3
1035.691	797.87
1035.979	800.36
1036.267	800.59
1036.554	785.45
1036.842	778.89
1037.129	780.93
1037.417	799
1037.704	778.21
1037.992	756.52
1038.279	755.39
1038.566	761.49
1038.853	761.49
1039.14	761.49
