Data from blue_chair_FLMS001491_00099.txt Node
Date: Wed Feb 08 10:32:19 GMT 2017
User: dcchb
Spectrometer: FLMS00149
Trigger mode: 0
Integration Time (sec): 2.000000E-2
Scans to average: 10
Electric dark correction enabled: true
Nonlinearity correction enabled: false
Boxcar width: 0
XAxis mode: Wavelengths
Number of Pixels in Spectrum: 2048
>>>>>Begin Spectral Data<<<<<
341.393	-25.62
341.776	-25.62
342.16	-25.62
342.543	-74.21
342.927	-73.3
343.31	-61.55
343.693	-62
344.077	-57.48
344.46	-62.68
344.843	-44.38
345.226	-54.09
345.61	-32.85
345.993	-12.51
346.376	-0.08
346.759	7.82
347.142	21.61
347.525	66.13
347.908	39.91
348.291	72.91
348.674	78.11
349.057	101.16
349.44	104.09
349.823	112.91
350.206	137.54
350.588	182.51
350.971	193.13
351.354	188.16
351.737	199.23
352.119	220.47
352.502	247.14
352.884	250.53
353.267	250.76
353.65	266.8
354.032	265.22
354.414	251.89
354.797	281.26
355.179	290.98
355.562	271.32
355.944	308.83
356.326	305.44
356.709	307.03
357.091	298.89
357.473	310.19
357.855	304.09
358.238	313.58
358.62	292.11
359.002	302.05
359.384	280.36
359.766	316.29
360.148	331.66
360.53	304.77
360.912	289.4
361.294	296.63
361.676	287.37
362.057	300.25
362.439	286.24
362.821	289.4
363.203	302.73
363.584	303.18
363.966	292.79
364.348	276.07
364.729	297.76
365.111	281.94
365.493	280.13
365.874	266.35
366.256	272.22
366.637	287.14
367.019	279.23
367.4	252.34
367.781	270.42
368.163	274.03
368.544	271.32
368.925	296.86
369.306	280.36
369.688	279
370.069	289.85
370.45	286.46
370.831	290.08
371.212	279.91
371.593	278.1
371.974	275.39
372.355	300.25
372.736	257.08
373.117	285.56
373.498	269.29
373.879	272.9
374.26	280.81
374.641	269.51
375.021	289.85
375.402	283.07
375.783	269.74
376.163	272.45
376.544	276.29
376.925	270.19
377.305	267.25
377.686	276.52
378.066	283.75
378.447	301.6
378.827	267.7
379.208	295.27
379.588	276.97
379.968	272.22
380.349	276.29
380.729	310.42
381.109	288.04
381.489	273.13
381.87	287.14
382.25	275.61
382.63	276.29
383.01	288.5
383.39	288.95
383.77	310.87
384.15	308.38
384.53	283.98
384.91	292.34
385.29	288.27
385.67	307.03
386.049	291.21
386.429	317.2
386.809	314.03
387.189	290.3
387.568	307.03
387.948	297.53
388.328	295.5
388.707	304.09
389.087	307.7
389.466	304.09
389.846	308.61
390.225	316.07
390.605	335.05
390.984	303.64
391.363	305.44
391.743	297.53
392.122	312
392.501	303.64
392.881	299.12
393.26	287.37
393.639	302.96
394.018	314.94
394.397	289.4
394.776	321.71
395.155	338.66
395.534	317.65
395.913	302.96
396.292	312.9
396.671	292.56
397.05	320.58
397.429	334.6
397.808	307.7
398.186	320.81
398.565	329.62
398.944	330.53
399.323	302.28
399.701	328.27
400.08	319
400.458	326.01
400.837	325.78
401.215	337.76
401.594	332.79
401.972	317.87
402.351	353.35
402.729	328.27
403.107	333.69
403.486	335.5
403.864	340.92
404.242	363.07
404.62	348.83
404.999	342.28
405.377	349.74
405.755	340.7
406.133	354.48
406.511	361.26
406.889	364.2
407.267	339.12
407.645	349.74
408.023	357.42
408.401	344.54
408.779	356.74
409.156	365.33
409.534	377.53
409.912	371.88
410.29	367.14
410.667	353.13
411.045	367.36
411.422	370.53
411.8	357.65
412.178	375.05
412.555	398.55
412.933	392.45
413.31	391.32
413.687	382.5
414.065	369.17
414.442	388.61
414.819	404.65
415.197	398.55
415.574	403.52
415.951	416.4
416.328	403.97
416.705	392.67
417.082	402.39
417.46	411.43
417.837	409.85
418.214	412.79
418.591	403.07
418.967	413.46
419.344	408.94
419.721	420.47
420.098	402.16
420.475	393.58
420.852	425.67
421.228	414.82
421.605	406.23
421.982	414.14
422.358	429.06
422.735	415.27
423.111	422.95
423.488	430.19
423.864	417.98
424.241	412.11
424.617	446.46
424.994	444.2
425.37	455.5
425.746	475.16
426.123	456.4
426.499	470.41
426.875	459.34
427.251	474.48
427.627	476.06
428.003	473.8
428.379	479.9
428.756	461.37
429.132	482.39
429.507	467.7
429.883	475.38
430.259	478.77
430.635	488.26
431.011	492.11
431.387	475.16
431.763	499.11
432.138	510.18
432.514	502.95
432.89	527.81
433.265	545.89
433.641	534.59
434.016	535.27
434.392	526.91
434.767	551.31
435.143	532.78
435.518	535.95
435.894	547.92
436.269	568.04
436.644	563.52
437.02	570.97
437.395	573.46
437.77	581.14
438.145	585.66
438.52	582.5
438.895	605.32
439.271	603.74
439.646	589.73
440.021	615.49
440.395	620.46
440.77	610.29
441.145	616.62
441.52	627.24
441.895	624.98
442.27	637.41
442.645	638.09
443.019	637.64
443.394	653.68
443.769	662.04
444.143	655.94
444.518	677.86
444.892	664.3
445.267	670.63
445.641	707.69
446.016	695.94
446.39	722.38
446.764	687.35
447.139	686.22
447.513	667.47
447.887	663.4
448.262	710.18
448.636	714.02
449.01	715.15
449.384	717.41
449.758	705.89
450.132	718.77
450.506	728.03
450.88	714.47
451.254	733.91
451.628	756.51
452.002	744.75
452.376	749.95
452.75	762.61
453.123	775.49
453.497	799.22
453.871	795.37
454.244	802.15
454.618	804.19
454.992	803.06
455.365	790.18
455.739	818.65
456.112	821.59
456.486	816.62
456.859	839.67
457.232	840.35
457.606	827.92
457.979	844.64
458.352	842.83
458.725	854.81
459.099	848.71
459.472	868.37
459.845	871.76
460.218	873.11
460.591	880.57
460.964	901.36
461.337	898.42
461.71	917.41
462.083	929.83
462.456	876.28
462.829	929.61
463.201	921.92
463.574	937.07
463.947	950.85
464.32	942.26
464.692	955.14
465.065	970.51
465.438	994.92
465.81	987.91
466.183	981.13
466.555	1007.12
466.928	1003.05
467.3	1013.22
467.672	1005.76
468.045	1053.22
468.417	1034.46
468.789	1081.47
469.161	1043.28
469.534	1079.66
469.906	1082.6
470.278	1104.97
470.65	1081.02
471.022	1118.53
471.394	1119.66
471.766	1117.85
472.138	1098.64
472.51	1160.56
472.882	1161.01
473.253	1168.92
473.625	1191.52
473.997	1212.76
474.369	1206.44
474.74	1194.91
475.112	1217.28
475.484	1217.96
475.855	1254.57
476.227	1253.67
476.598	1275.36
476.97	1250.28
477.341	1282.59
477.713	1306.1
478.084	1310.39
478.455	1320.33
478.827	1329.6
479.198	1376.83
479.569	1368.69
479.94	1409.82
480.311	1423.61
480.682	1445.98
481.053	1454.57
481.424	1435.58
481.795	1426.54
482.166	1469.93
482.537	1485.98
482.908	1480.78
483.279	1523.94
483.65	1506.99
484.021	1533.89
484.391	1558.07
484.762	1565.07
485.133	1561.68
485.503	1578.18
485.874	1575.47
486.244	1583.15
486.615	1595.58
486.985	1622.92
487.356	1657.27
487.726	1620.66
488.097	1638.97
488.467	1685.52
488.837	1685.75
489.207	1711.96
489.578	1735.24
489.948	1728.23
490.318	1716.03
490.688	1738.85
491.058	1756.71
491.428	1768.23
491.798	1774.56
492.168	1784.05
492.538	1789.02
492.908	1809.36
493.278	1803.94
493.648	1817.49
494.017	1781.11
494.387	1808.91
494.757	1820.21
495.126	1860.66
495.496	1818.62
495.866	1847.32
496.235	1848.68
496.605	1854.1
496.974	1844.39
497.344	1878.51
497.713	1832.64
498.082	1857.49
498.452	1888.68
498.821	1845.74
499.19	1868.34
499.559	1854.56
499.928	1860.21
500.298	1884.39
500.667	1867.44
501.036	1858.4
501.405	1865.63
501.774	1896.36
502.143	1855.01
502.512	1898.17
502.88	1892.29
503.249	1879.64
503.618	1912.86
503.987	1923.03
504.356	1898.85
504.724	1873.99
505.093	1909.7
505.462	1924.38
505.83	1907.44
506.199	1869.7
506.567	1904.27
506.936	1896.81
507.304	1910.37
507.672	1878.51
508.041	1897.72
508.409	1919.19
508.777	1899.75
509.145	1949.24
509.514	1906.08
509.882	1923.48
510.25	1859.08
510.618	1904.5
510.986	1898.62
511.354	1929.58
511.722	1920.09
512.09	1913.54
512.458	1903.37
512.826	1891.84
513.193	1918.28
513.561	1897.49
513.929	1885.97
514.297	1890.26
514.664	1873.09
515.032	1898.85
515.4	1893.65
515.767	1900.88
516.135	1902.24
516.502	1878.06
516.869	1868.79
517.237	1847.1
517.604	1880.09
517.972	1859.53
518.339	1860.88
518.706	1855.46
519.073	1857.49
519.44	1883.26
519.808	1898.85
520.175	1805.52
520.542	1850.71
520.909	1823.37
521.276	1843.71
521.643	1863.82
522.009	1823.14
522.376	1852.07
522.743	1808.23
523.11	1850.04
523.477	1869.02
523.843	1832.41
524.21	1821.56
524.577	1807.1
524.943	1820.88
525.31	1815.91
525.676	1852.3
526.043	1827.44
526.409	1812.07
526.776	1815.23
527.142	1855.01
527.508	1793.54
527.874	1836.7
528.241	1793.77
528.607	1817.72
528.973	1820.43
529.339	1808.91
529.705	1802.35
530.071	1816.59
530.437	1804.84
530.803	1778.85
531.169	1784.5
531.535	1795.8
531.901	1798.06
532.267	1819.98
532.632	1782.47
532.998	1772.3
533.364	1801.22
533.73	1782.92
534.095	1772.75
534.461	1782.24
534.826	1771.17
535.192	1785.63
535.557	1739.08
535.923	1765.52
536.288	1757.38
536.653	1751.06
537.019	1746.31
537.384	1762.35
537.749	1743.15
538.114	1730.72
538.479	1734.56
538.845	1744.05
539.21	1702.92
539.575	1701.11
539.94	1697.72
540.305	1716.25
540.67	1681.9
541.034	1713.32
541.399	1716.71
541.764	1705.18
542.129	1680.32
542.494	1681.68
542.858	1658.63
543.223	1662.02
543.587	1674.67
543.952	1663.37
544.316	1647.1
544.681	1635.8
545.045	1638.97
545.41	1638.74
545.774	1640.32
546.138	1613.21
546.503	1598.29
546.867	1624.73
547.231	1616.37
547.595	1595.81
547.959	1625.86
548.324	1576.6
548.688	1582.92
549.052	1586.54
549.416	1565.52
549.779	1576.6
550.143	1580.44
550.507	1538.18
550.871	1565.52
551.235	1552.64
551.599	1535.02
551.962	1521.46
552.326	1537.95
552.689	1525.75
553.053	1518.07
553.417	1527.33
553.78	1524.85
554.143	1523.04
554.507	1529.14
554.87	1503.38
555.234	1492.31
555.597	1498.86
555.96	1493.89
556.323	1488.69
556.686	1481.23
557.05	1466.54
557.413	1473.55
557.776	1491.85
558.139	1501.12
558.502	1489.82
558.865	1482.59
559.228	1480.33
559.59	1478.29
559.953	1483.04
560.316	1483.04
560.679	1466.77
561.041	1470.84
561.404	1485.3
561.767	1510.84
562.129	1479.2
562.492	1474.23
562.854	1480.78
563.217	1493.21
563.579	1485.07
563.941	1470.16
564.304	1488.69
564.666	1489.14
565.028	1488.01
565.39	1484.85
565.753	1467.22
566.115	1473.1
566.477	1477.39
566.839	1481.68
567.201	1478.29
567.563	1502.47
567.925	1476.94
568.287	1480.55
568.648	1469.48
569.01	1490.95
569.372	1500.89
569.734	1474.9
570.095	1517.84
570.457	1487.56
570.819	1483.94
571.18	1499.99
571.542	1499.08
571.903	1490.27
572.265	1491.85
572.626	1496.83
572.987	1516.94
573.349	1513.32
573.71	1530.5
574.071	1479.2
574.432	1545.86
574.794	1561
575.155	1521.01
575.516	1543.6
575.877	1555.35
576.238	1539.31
576.599	1540.21
576.96	1542.93
577.32	1530.27
577.681	1555.13
578.042	1559.42
578.403	1548.58
578.763	1574.56
579.124	1565.75
579.485	1582.92
579.845	1571.4
580.206	1582.25
580.566	1561.91
580.927	1559.2
581.287	1599.2
581.648	1574.79
582.008	1582.02
582.368	1574.11
582.728	1590.61
583.089	1598.74
583.449	1587.22
583.809	1640.78
584.169	1586.09
584.529	1585.64
584.889	1601
585.249	1591.74
585.609	1575.47
585.969	1586.99
586.329	1598.74
586.688	1584.96
587.048	1609.36
587.408	1594
587.768	1593.55
588.127	1604.17
588.487	1605.97
588.846	1605.3
589.206	1596.48
589.565	1624.96
589.925	1608.69
590.284	1592.42
590.643	1583.6
591.003	1604.84
591.362	1598.97
591.721	1614.79
592.08	1592.19
592.44	1594.68
592.799	1588.12
593.158	1605.97
593.517	1605.52
593.876	1633.77
594.235	1615.92
594.593	1600.33
594.952	1591.96
595.311	1601
595.67	1617.95
596.029	1591.51
596.387	1625.41
596.746	1631.06
597.104	1593.55
597.463	1609.82
597.822	1607.33
598.18	1597.61
598.538	1584.28
598.897	1624.05
599.255	1595.58
599.613	1605.75
599.972	1581.79
600.33	1624.51
600.688	1599.42
601.046	1605.07
601.404	1610.72
601.762	1595.81
602.12	1582.25
602.478	1611.4
602.836	1618.63
603.194	1594.9
603.552	1579.99
603.91	1597.16
604.268	1612.98
604.625	1584.05
604.983	1590.16
605.341	1593.32
605.698	1592.42
606.056	1599.42
606.413	1592.42
606.771	1587.22
607.128	1609.14
607.485	1614.11
607.843	1611.85
608.2	1608.01
608.557	1566.88
608.914	1591.96
609.272	1605.97
609.629	1606.2
609.986	1598.29
610.343	1592.87
610.7	1635.8
611.057	1607.56
611.414	1643.04
611.771	1610.95
612.127	1612.98
612.484	1607.56
612.841	1591.96
613.198	1606.88
613.554	1628.12
613.911	1619.08
614.267	1619.76
614.624	1586.54
614.98	1600.55
615.337	1622.92
615.693	1617.73
616.05	1603.71
616.406	1638.06
616.762	1595.81
617.118	1634.9
617.475	1621.12
617.831	1594.45
618.187	1631.06
618.543	1646.2
618.899	1620.89
619.255	1623.38
619.611	1660.89
619.967	1637.84
620.323	1625.86
620.678	1641.45
621.034	1643.04
621.39	1637.16
621.746	1646.88
622.101	1637.16
622.457	1649.59
622.812	1627.44
623.168	1613.88
623.523	1626.54
623.879	1649.14
624.234	1618.18
624.589	1633.09
624.945	1636.93
625.3	1643.49
625.655	1633.32
626.01	1614.11
626.365	1631.74
626.72	1649.36
627.075	1617.5
627.43	1632.64
627.785	1628.12
628.14	1648.46
628.495	1644.62
628.85	1642.13
629.205	1625.18
629.559	1663.6
629.914	1650.95
630.269	1609.14
630.623	1638.29
630.978	1644.84
631.332	1634.22
631.687	1630.61
632.041	1639.87
632.396	1645.75
632.75	1630.61
633.104	1634.22
633.459	1633.09
633.813	1642.13
634.167	1643.26
634.521	1652.08
634.875	1643.49
635.229	1644.62
635.583	1623.38
635.937	1649.82
636.291	1632.64
636.645	1639.65
636.999	1607.78
637.352	1655.92
637.706	1624.05
638.06	1623.15
638.413	1626.99
638.767	1670.15
639.121	1630.83
639.474	1626.09
639.828	1600.33
640.181	1617.73
640.534	1604.39
640.888	1631.74
641.241	1601.23
641.594	1623.6
641.947	1624.28
642.301	1623.38
642.654	1621.57
643.007	1633.77
643.36	1655.24
643.713	1629.7
644.066	1627.22
644.419	1599.87
644.771	1616.14
645.124	1597.39
645.477	1639.42
645.83	1595.35
646.182	1616.14
646.535	1575.92
646.888	1619.76
647.24	1596.71
647.593	1613.66
647.945	1593.55
648.298	1576.37
648.65	1583.38
649.002	1592.87
649.355	1588.8
649.707	1607.78
650.059	1581.34
650.411	1626.31
650.763	1641.91
651.115	1651.17
651.467	1645.07
651.819	1628.12
652.171	1654.79
652.523	1620.66
652.875	1616.6
653.227	1639.42
653.578	1659.98
653.93	1667.89
654.282	1629.48
654.633	1631.96
654.985	1655.01
655.337	1662.47
655.688	1650.95
656.039	1636.03
656.391	1645.97
656.742	1652.08
657.094	1643.04
657.445	1650.95
657.796	1669.25
658.147	1635.58
658.498	1655.24
658.849	1674.22
659.2	1641.68
659.551	1652.53
659.902	1639.65
660.253	1649.59
660.604	1627.67
660.955	1662.7
661.306	1680.78
661.656	1663.83
662.007	1662.7
662.358	1658.63
662.708	1679.19
663.059	1660.44
663.409	1651.4
663.76	1641.45
664.11	1661.57
664.461	1699.08
664.811	1671.96
665.161	1661.34
665.511	1640.55
665.862	1682.81
666.212	1670.15
666.562	1663.15
666.912	1680.55
667.262	1647.33
667.612	1642.58
667.962	1657.05
668.312	1644.62
668.662	1677.16
669.011	1640.55
669.361	1658.63
669.711	1668.57
670.06	1669.02
670.41	1662.24
670.76	1636.93
671.109	1665.86
671.459	1635.35
671.808	1656.59
672.157	1652.98
672.507	1638.97
672.856	1640.78
673.205	1632.64
673.554	1658.18
673.904	1648.91
674.253	1634.22
674.602	1623.38
674.951	1629.93
675.3	1594.68
675.649	1635.58
675.998	1595.35
676.346	1623.15
676.695	1624.05
677.044	1605.3
677.393	1598.97
677.741	1622.02
678.09	1643.26
678.438	1604.84
678.787	1586.77
679.135	1601.46
679.484	1606.88
679.832	1601.46
680.181	1608.01
680.529	1593.55
680.877	1581.79
681.225	1567.56
681.573	1613.43
681.922	1592.87
682.27	1594
682.618	1591.29
682.966	1615.92
683.314	1595.35
683.661	1585.18
684.009	1572.76
684.357	1578.4
684.705	1589.48
685.053	1568.01
685.4	1567.11
685.748	1532.08
686.095	1557.39
686.443	1533.89
686.79	1535.02
687.138	1526.88
687.485	1549.03
687.832	1529.14
688.18	1517.39
688.527	1507.9
688.874	1544.06
689.221	1545.64
689.568	1527.78
689.915	1526.43
690.262	1513.1
690.609	1496.83
690.956	1505.86
691.303	1500.21
691.65	1495.24
691.997	1479.88
692.344	1476.26
692.69	1481.68
693.037	1479.2
693.383	1469.26
693.73	1470.39
694.077	1466.77
694.423	1470.84
694.769	1474
695.116	1454.11
695.462	1472.42
695.808	1468.8
696.155	1485.98
696.501	1471.97
696.847	1437.39
697.193	1427.67
697.539	1447.56
697.885	1410.5
698.231	1434.23
698.577	1425.64
698.923	1457.73
699.269	1438.3
699.614	1439.2
699.96	1426.32
700.306	1423.61
700.651	1417.05
700.997	1406.66
701.342	1422.25
701.688	1403.95
702.033	1405.75
702.379	1396.04
702.724	1399.65
703.069	1362.82
703.415	1377.28
703.76	1384.96
704.105	1382.03
704.45	1389.03
704.795	1373.89
705.14	1361.24
705.485	1410.73
705.83	1366.88
706.175	1377.73
706.52	1385.87
706.865	1395.13
707.209	1417.28
707.554	1391.29
707.899	1356.04
708.243	1378.41
708.588	1369.14
708.932	1366.21
709.277	1373.89
709.621	1381.12
709.966	1384.74
710.31	1401.69
710.654	1358.07
710.998	1391.74
711.342	1376.83
711.687	1353.33
712.031	1369.82
712.375	1379.09
712.719	1381.57
713.063	1371.63
713.407	1354.68
713.75	1386.77
714.094	1397.39
714.438	1374.57
714.782	1392.2
715.125	1394.23
715.469	1393.1
715.812	1348.13
716.156	1425.87
716.499	1359.65
716.843	1399.2
717.186	1351.97
717.53	1401.01
717.873	1402.14
718.216	1404.62
718.559	1400.33
718.902	1414.57
719.246	1399.88
719.589	1399.43
719.932	1387.45
720.275	1397.62
720.617	1410.95
720.96	1425.87
721.303	1425.64
721.646	1421.35
721.989	1432.19
722.331	1421.35
722.674	1452.08
723.016	1455.24
723.359	1442.82
723.701	1461.12
724.044	1467
724.386	1459.31
724.729	1464.51
725.071	1458.63
725.413	1463.61
725.755	1465.41
726.097	1447.79
726.439	1459.99
726.782	1466.77
727.124	1476.03
727.465	1476.94
727.807	1471.06
728.149	1488.92
728.491	1522.59
728.833	1521.23
729.175	1484.62
729.516	1496.83
729.858	1479.42
730.199	1511.29
730.541	1512.64
730.882	1519.2
731.224	1544.73
731.565	1538.41
731.906	1538.63
732.248	1575.24
732.589	1556.26
732.93	1553.55
733.271	1587.22
733.612	1545.64
733.953	1591.74
734.294	1605.75
734.635	1582.47
734.976	1627.67
735.317	1606.43
735.658	1635.35
735.999	1647.33
736.339	1639.19
736.68	1651.62
737.021	1651.4
737.361	1634
737.702	1675.35
738.042	1691.17
738.383	1696.14
738.723	1702.02
739.063	1723.71
739.404	1725.07
739.744	1737.95
740.084	1777.27
740.424	1733.65
740.764	1778.63
741.104	1775.01
741.444	1783.6
741.784	1793.31
742.124	1825.63
742.464	1822.01
742.804	1849.58
743.143	1862.92
743.483	1902.46
743.823	1912.41
744.162	1935.68
744.502	1959.64
744.841	1975.68
745.181	1967.1
745.52	1995.34
745.86	2044.38
746.199	2061.78
746.538	2059.97
746.877	2077.6
747.216	2149.69
747.556	2151.05
747.895	2162.57
748.234	2201.89
748.573	2234.88
748.911	2270.82
749.25	2284.37
749.589	2330.25
749.928	2335.67
750.267	2354.43
750.605	2408.67
750.944	2465.39
751.283	2459.06
751.621	2529.57
751.96	2548.32
752.298	2562.56
752.636	2631.48
752.975	2635.33
753.313	2661.99
753.651	2746.28
753.989	2759.62
754.327	2845.26
754.666	2882.78
755.004	2915.77
755.342	2900.63
755.679	2983.11
756.017	3020.63
756.355	3115.99
756.693	3117.35
757.031	3231.47
757.368	3207.74
757.706	3256.78
758.044	3315.31
758.381	3408.19
758.719	3399.83
759.056	3487.06
759.394	3506.49
759.731	3559.14
760.068	3620.84
760.405	3670.55
760.743	3717.78
761.08	3752.58
761.417	3788.74
761.754	3875.75
762.091	3851.11
762.428	3896.08
762.765	3976.08
763.102	4059.47
763.438	4058.11
763.775	4132.01
764.112	4189.64
764.449	4237.77
764.785	4213.59
765.122	4294.27
765.458	4291.55
765.795	4371.1
766.131	4400.93
766.467	4447.26
766.804	4520.25
767.14	4541.49
767.476	4567.03
767.812	4557.54
768.148	4642.96
768.485	4687.93
768.821	4689.28
769.157	4724.08
769.492	4720.24
769.828	4783.29
770.164	4774.48
770.5	4830.07
770.836	4864.19
771.171	4860.35
771.507	4885.21
771.842	4939.22
772.178	4901.26
772.513	5041.36
772.849	4999.11
773.184	5044.98
773.519	4998.65
773.855	4997.07
774.19	5096.73
774.525	5084.08
774.86	5064.19
775.195	5129.5
775.53	5149.84
775.865	5115.49
776.2	5144.41
776.535	5120.01
776.87	5165.2
777.205	5155.03
777.539	5174.69
777.874	5203.85
778.209	5199.33
778.543	5209.27
778.878	5222.38
779.212	5221.92
779.547	5185.54
779.881	5251.98
780.215	5237.52
780.55	5286.56
780.884	5250.62
781.218	5266.44
781.552	5261.02
781.886	5251.75
782.22	5218.08
782.554	5277.29
782.888	5267.8
783.222	5247.01
783.556	5248.59
783.889	5219.21
784.223	5184.41
784.557	5211.76
784.89	5261.7
785.224	5249.72
785.557	5253.11
785.891	5223.05
786.224	5261.25
786.558	5246.78
786.891	5220.34
787.224	5246.1
787.557	5194.13
787.891	5213.56
788.224	5234.58
788.557	5205.2
788.89	5234.81
789.223	5231.19
789.556	5245.88
789.888	5195.71
790.221	5196.39
790.554	5156.39
790.887	5176.5
791.219	5191.87
791.552	5170.63
791.884	5159.33
792.217	5175.37
792.549	5145.32
792.882	5182.38
793.214	5121.81
793.546	5134.92
793.879	5084.08
794.211	5115.71
794.543	5134.92
794.875	5155.26
795.207	5140.12
795.539	5131.31
795.871	5153.9
796.203	5104.41
796.535	5076.17
796.867	5076.39
797.198	5047.24
797.53	5066.9
797.862	5061.48
798.193	5058.09
798.525	5023.06
798.856	5040.01
799.188	5009.5
799.519	4983.51
799.85	5017.18
800.182	4983.29
800.513	5019.22
800.844	4928.15
801.175	5040.46
801.506	4962.27
801.837	4925.44
802.168	4921.14
802.499	4983.29
802.83	4946.23
803.161	4888.37
803.491	4870.3
803.822	4894.7
804.153	4910.75
804.483	4924.31
804.814	4868.26
805.145	4861.26
805.475	4879.33
805.805	4927.24
806.136	4845.21
806.466	4875.49
806.796	4845.66
807.126	4819.9
807.457	4787.59
807.787	4862.61
808.117	4796.63
808.447	4804.53
808.777	4840.47
809.107	4801.14
809.436	4784.42
809.766	4798.66
810.096	4745.1
810.426	4716.4
810.755	4757.76
811.085	4719.34
811.414	4753.91
811.744	4711.43
812.073	4743.52
812.403	4707.81
812.732	4730.86
813.061	4688.83
813.39	4633.69
813.719	4693.35
814.049	4698.32
814.378	4646.12
814.707	4678.44
815.036	4672.56
815.365	4691.09
815.693	4604.77
816.022	4618.1
816.351	4637.99
816.68	4605.67
817.008	4604.31
817.337	4579.23
817.665	4550.98
817.994	4579
818.322	4604.09
818.651	4549.85
818.979	4560.93
819.307	4569.06
819.636	4557.54
819.964	4534.94
820.292	4562.96
820.62	4539.46
820.948	4587.82
821.276	4532.68
821.604	4557.76
821.932	4594.14
822.259	4558.89
822.587	4544.2
822.915	4531.77
823.243	4563.19
823.57	4529.29
823.898	4592.79
824.225	4543.3
824.553	4518.67
824.88	4542.17
825.207	4570.19
825.535	4562.06
825.862	4549.17
826.189	4565.22
826.516	4589.4
826.843	4592.34
827.17	4598.44
827.497	4591.21
827.824	4638.44
828.151	4607.7
828.478	4618.1
828.805	4626.01
829.131	4579.68
829.458	4569.74
829.785	4556.63
830.111	4572.45
830.438	4590.3
830.764	4609.51
831.09	4598.21
831.417	4592.34
831.743	4590.75
832.069	4588.27
832.395	4550.08
832.722	4581.49
833.048	4604.77
833.374	4597.76
833.7	4567.7
834.026	4576.74
834.351	4583.52
834.677	4619.91
835.003	4595.05
835.329	4593.92
835.654	4600.25
835.98	4569.96
836.306	4573.35
836.631	4571.55
836.956	4597.53
837.282	4578.78
837.607	4559.12
837.932	4504.66
838.258	4540.81
838.583	4525.22
838.908	4471.44
839.233	4538.1
839.558	4502.62
839.883	4504.88
840.208	4502.62
840.533	4456.52
840.858	4470.08
841.182	4462.62
841.507	4527.03
841.832	4435.28
842.156	4485.45
842.481	4452.68
842.805	4458.78
843.13	4436.63
843.454	4443.87
843.778	4414.94
844.103	4433.7
844.427	4388.95
844.751	4383.75
845.075	4412.68
845.399	4396.18
845.723	4361.38
846.047	4373.81
846.371	4312.57
846.695	4345.56
847.019	4332.46
847.343	4273.48
847.666	4280.48
847.99	4219.92
848.313	4251.33
848.637	4249.3
848.96	4162.07
849.284	4217.88
849.607	4194.38
849.931	4216.3
850.254	4130.88
850.577	4148.28
850.9	4124.55
851.223	4086.36
851.546	4087.72
851.869	4060.37
852.192	4110.32
852.515	4059.02
852.838	4048.4
853.161	4040.94
853.483	3992.58
853.806	4035.52
854.129	3995.97
854.451	3982.86
854.774	3932.47
855.096	3954.16
855.419	3962.3
855.741	3911.68
856.063	3925.69
856.385	3880.04
856.708	3884.33
857.03	3894.95
857.352	3879.36
857.674	3834.84
857.996	3862.41
858.318	3850.89
858.64	3828.06
858.961	3828.06
859.283	3811.79
859.605	3835.97
859.926	3812.92
860.248	3814.73
860.57	3788.74
860.891	3793.49
861.212	3776.77
861.534	3754.17
861.855	3728.18
862.176	3752.36
862.498	3761.85
862.819	3743.55
863.14	3772.47
863.461	3717.33
863.782	3707.61
864.103	3719.14
864.424	3705.81
864.745	3725.24
865.065	3678.01
865.386	3646.37
865.707	3673.04
866.027	3664
866.348	3685.02
866.668	3656.99
866.989	3695.86
867.309	3665.13
867.63	3624.45
867.95	3664.9
868.27	3629.2
868.59	3643.89
868.91	3612.7
869.23	3650.44
869.55	3604.34
869.87	3663.55
870.19	3640.72
870.51	3660.16
870.83	3621.29
871.15	3571.35
871.469	3583.78
871.789	3609.76
872.109	3618.35
872.428	3585.58
872.748	3580.16
873.067	3572.7
873.386	3596.43
873.706	3560.27
874.025	3523.21
874.344	3569.54
874.663	3569.99
874.982	3524.12
875.301	3543.1
875.62	3532.48
875.939	3536.77
876.258	3509.43
876.577	3496.55
876.896	3495.64
877.214	3443.67
877.533	3478.92
877.852	3475.76
878.17	3475.76
878.489	3455.64
878.807	3495.19
879.125	3470.56
879.444	3454.29
879.762	3440.5
880.08	3425.36
880.398	3456.55
880.716	3441.63
881.034	3467.62
881.352	3443.21
881.67	3422.42
881.988	3405.02
882.306	3403.44
882.624	3400.05
882.941	3416.32
883.259	3374.52
883.577	3373.16
883.894	3358.02
884.212	3359.15
884.529	3357.12
884.846	3374.74
885.164	3327.29
885.481	3311.69
885.798	3340.39
886.115	3313.05
886.432	3290.22
886.75	3333.61
887.067	3284.35
887.383	3298.81
887.7	3249.32
888.017	3266.95
888.334	3267.4
888.651	3247.97
888.967	3295.87
889.284	3271.24
889.6	3220.85
889.917	3230.56
890.233	3220.17
890.55	3206.38
890.866	3196.67
891.182	3186.72
891.498	3206.84
891.815	3179.94
892.131	3180.62
892.447	3169.78
892.763	3157.35
893.079	3135.88
893.395	3129.1
893.71	3121.19
894.026	3115.09
894.342	3085.03
894.657	3102.43
894.973	3101.08
895.289	3076.67
895.604	3041.64
895.92	3047.52
896.235	3037.35
896.55	3058.82
896.865	3021.98
897.181	2998.25
897.496	3009.1
897.811	2999.61
898.126	3001.42
898.441	2994.64
898.756	2983.34
899.071	2918.03
899.386	2962.55
899.7	2944.92
900.015	2895.66
900.33	2890.69
900.644	2925.94
900.959	2902.89
901.273	2885.04
901.588	2891.36
901.902	2868.09
902.216	2894.53
902.531	2841.2
902.845	2846.62
903.159	2829.22
903.473	2814.3
903.787	2784.25
904.101	2771.14
904.415	2782.21
904.729	2790.12
905.042	2747.87
905.356	2738.37
905.67	2745.15
905.984	2764.36
906.297	2735.21
906.611	2683.23
906.924	2760.75
907.237	2727.53
907.551	2693.18
907.864	2706.28
908.177	2670.35
908.491	2662.67
908.804	2663.35
909.117	2600.52
909.43	2625.38
909.743	2624.7
910.056	2589.9
910.368	2641.43
910.681	2619.96
910.994	2578.6
911.307	2576.12
911.619	2564.82
911.932	2584.48
912.244	2530.92
912.557	2522.56
912.869	2530.7
913.181	2502.45
913.494	2504.71
913.806	2464.94
914.118	2527.76
914.43	2487.99
914.742	2469.68
915.054	2458.83
915.366	2465.16
915.678	2442.79
915.99	2452.05
916.302	2372.06
916.613	2408.21
916.925	2373.41
917.236	2374.77
917.548	2411.83
917.859	2391.26
918.171	2396.46
918.482	2348.33
918.794	2331.15
919.105	2346.97
919.416	2377.03
919.727	2318.95
920.038	2360.53
920.349	2311.49
920.66	2310.14
920.971	2299.52
921.282	2290.02
921.593	2252.74
921.903	2291.61
922.214	2261.78
922.525	2238.73
922.835	2245.28
923.146	2243.47
923.456	2226.07
923.767	2233.53
924.077	2218.61
924.387	2216.35
924.697	2186.3
925.008	2214.09
925.318	2182.23
925.628	2194.66
925.938	2194.43
926.248	2149.24
926.558	2153.98
926.867	2141.78
927.177	2150.82
927.487	2126.19
927.796	2117.37
928.106	2102.23
928.416	2129.58
928.725	2128.45
929.034	2110.82
929.344	2093.42
929.653	2106.3
929.962	2090.48
930.271	2092.97
930.581	2062.23
930.89	2026.08
931.199	2031.27
931.508	2029.47
931.817	2009.35
932.125	2033.08
932.434	1999.64
932.743	2029.01
933.051	1997.6
933.36	1993.08
933.669	1952.18
933.977	2002.8
934.286	1983.82
934.594	1962.35
934.902	1952.18
935.21	1945.85
935.519	1946.76
935.827	1924.84
936.135	1913.09
936.443	1909.47
936.751	1923.03
937.059	1913.99
937.367	1889.36
937.674	1908.79
937.982	1890.71
938.29	1867.66
938.597	1889.13
938.905	1884.16
939.213	1860.21
939.52	1869.47
939.827	1878.51
940.135	1822.92
940.442	1833.09
940.749	1832.41
941.056	1821.56
941.363	1769.13
941.67	1789.7
941.977	1775.69
942.284	1789.02
942.591	1751.96
942.898	1761.9
943.205	1756.03
943.511	1748.12
943.818	1743.6
944.125	1736.59
944.431	1750.6
944.738	1738.85
945.044	1735.91
945.35	1756.48
945.657	1720.77
945.963	1731.62
946.269	1693.2
946.575	1705.86
946.881	1667.44
947.187	1677.39
947.493	1699.76
947.799	1676.71
948.105	1651.62
948.41	1649.82
948.716	1646.2
949.022	1637.84
949.327	1651.62
949.633	1634.45
949.938	1631.06
950.244	1637.61
950.549	1607.78
950.854	1622.47
951.16	1625.41
951.465	1624.51
951.77	1601.46
952.075	1579.99
952.38	1576.37
952.685	1588.8
952.99	1569.59
953.294	1543.83
953.599	1562.81
953.904	1569.14
954.209	1577.05
954.513	1539.99
954.818	1535.24
955.122	1510.16
955.426	1547.22
955.731	1539.08
956.035	1522.14
956.339	1512.64
956.643	1489.59
956.948	1486.88
957.252	1503.6
957.556	1481.01
957.86	1470.61
958.163	1501.8
958.467	1471.74
958.771	1470.84
959.075	1486.66
959.378	1466.09
959.682	1480.55
959.985	1462.48
960.289	1450.5
960.592	1419.99
960.896	1423.38
961.199	1423.38
961.502	1421.8
961.805	1415.47
962.108	1432.19
962.411	1412.99
962.714	1395.81
963.017	1379.54
963.32	1435.13
963.623	1375.25
963.926	1407.79
964.228	1384.29
964.531	1346.77
964.833	1356.26
965.136	1342.48
965.438	1347.9
965.741	1360.11
966.043	1328.02
966.345	1363.72
966.648	1345.64
966.95	1327.11
967.252	1322.82
967.554	1321.24
967.856	1362.14
968.158	1306.55
968.46	1329.82
968.761	1291.41
969.063	1316.72
969.365	1300.45
969.666	1315.36
969.968	1260
970.269	1262.03
970.571	1292.31
970.872	1299.09
971.174	1238.3
971.475	1277.17
971.776	1256.15
972.077	1254.8
972.378	1255.25
972.679	1239.2
972.98	1239.2
973.281	1262.71
973.582	1251.86
973.883	1238.07
974.183	1210.28
974.484	1202.37
974.785	1194.01
975.085	1204.86
975.386	1204.18
975.686	1205.53
975.986	1198.98
976.287	1212.54
976.587	1189.26
976.887	1175.93
977.187	1166.89
977.487	1159.43
977.787	1195.14
978.087	1162.6
978.387	1178.19
978.687	1147.68
978.987	1143.16
979.286	1142.26
979.586	1146.33
979.885	1167.12
980.185	1146.1
980.484	1129.6
980.784	1150.17
981.083	1126.89
981.382	1121.92
981.682	1135.25
981.981	1114.01
982.28	1101.13
982.579	1129.83
982.878	1111.52
983.177	1112.65
983.475	1108.59
983.774	1102.71
984.073	1098.64
984.372	1102.94
984.67	1065.42
984.969	1061.36
985.267	1082.37
985.566	1046.22
985.864	1063.62
986.162	1057.51
986.461	1085.08
986.759	1055.93
987.057	1062.49
987.355	1064.52
987.653	1060.9
987.951	1020.91
988.249	1055.71
988.547	1026.1
988.844	1022.26
989.142	1022.26
989.44	1032.88
989.737	983.62
990.035	1004.18
990.332	1006.67
990.63	1015.93
990.927	995.82
991.224	963.28
991.521	989.49
991.819	994.01
992.116	972.77
992.413	959.44
992.71	998.76
993.006	956.73
993.303	980.68
993.6	978.87
993.897	978.65
994.193	963.05
994.49	967.57
994.787	947.91
995.083	940
995.379	961.25
995.676	945.43
995.972	959.44
996.268	907.24
996.565	927.35
996.861	932.32
997.157	929.83
997.453	930.74
997.749	915.15
998.044	923.05
998.34	945.43
998.636	924.18
998.932	895.03
999.227	884.64
999.523	895.94
999.818	894.81
1000.114	884.86
1000.409	881.02
1000.704	890.29
1001	838.31
1001.295	886.67
1001.59	882.15
1001.885	875.82
1002.18	878.76
1002.475	855.94
1002.77	858.42
1003.065	853.68
1003.359	843.28
1003.654	852.77
1003.949	840.8
1004.243	834.7
1004.538	822.49
1004.832	824.07
1005.127	808.93
1005.421	816.62
1005.715	841.25
1006.009	833.11
1006.304	811.87
1006.598	806.9
1006.892	810.74
1007.186	806.67
1007.48	789.95
1007.773	787.47
1008.067	806.22
1008.361	772.78
1008.655	772.55
1008.948	769.61
1009.242	787.92
1009.535	774.36
1009.829	789.5
1010.122	775.26
1010.415	749.05
1010.708	749.73
1011.001	769.61
1011.295	753.79
1011.588	747.47
1011.881	738.88
1012.173	754.25
1012.466	754.47
1012.759	761.7
1013.052	730.29
1013.344	750.86
1013.637	743.62
1013.93	704.3
1014.222	738.65
1014.514	707.24
1014.807	712.66
1015.099	720.35
1015.391	703.63
1015.683	706.11
1015.976	687.81
1016.268	682.38
1016.56	709.05
1016.851	718.54
1017.143	688.26
1017.435	693.91
1017.727	708.37
1018.018	678.32
1018.31	666.56
1018.602	684.64
1018.893	653.68
1019.185	664.53
1019.476	667.02
1019.767	670.18
1020.058	656.17
1020.35	645.55
1020.641	662.5
1020.932	636.96
1021.223	643.29
1021.514	653.23
1021.804	632.67
1022.095	661.82
1022.386	630.86
1022.677	623.18
1022.967	614.81
1023.258	638.54
1023.548	647.58
1023.839	610.29
1024.129	616.62
1024.419	612.33
1024.709	601.26
1025	599.45
1025.29	609.84
1025.58	614.36
1025.87	612.78
1026.16	600.8
1026.449	603.97
1026.739	586.34
1027.029	606
1027.319	599
1027.608	571.65
1027.898	584.53
1028.187	601.71
1028.477	578.43
1028.766	606.23
1029.055	581.59
1029.344	569.39
1029.634	562.61
1029.923	574.36
1030.212	573.01
1030.501	555.15
1030.79	567.13
1031.078	553.57
1031.367	542.73
1031.656	553.8
1031.945	551.31
1032.233	567.81
1032.522	560.35
1032.81	551.31
1033.099	537.08
1033.387	543.4
1033.675	549.51
1033.963	547.92
1034.251	541.14
1034.54	522.84
1034.828	540.01
1035.116	554.93
1035.403	528.04
1035.691	543.63
1035.979	549.28
1036.267	502.95
1036.554	529.17
1036.842	519.9
1037.129	546.79
1037.417	489.39
1037.704	525.78
1037.992	506.34
1038.279	495.72
1038.566	530.75
1038.853	530.75
1039.14	530.75
