Data from blue_shiny_book_FLMS001491_00048.txt Node
Date: Wed Feb 08 15:27:01 GMT 2017
User: dcchb
Spectrometer: FLMS00149
Trigger mode: 0
Integration Time (sec): 2.000000E-2
Scans to average: 10
Electric dark correction enabled: true
Nonlinearity correction enabled: false
Boxcar width: 0
XAxis mode: Wavelengths
Number of Pixels in Spectrum: 2048
>>>>>Begin Spectral Data<<<<<
341.393	1.23
341.776	1.23
342.16	1.23
342.543	-61.37
342.927	-60.24
343.31	-78.09
343.693	-63.85
344.077	-81.03
344.46	-44.87
344.843	-40.8
345.226	-35.15
345.61	-19.11
345.993	-25.44
346.376	-10.97
346.759	-5.1
347.142	21.57
347.525	33.09
347.908	77.61
348.291	75.13
348.674	76.03
349.057	121
349.44	133.43
349.823	143.37
350.206	156.93
350.588	205.29
350.971	198.74
351.354	216.36
351.737	244.16
352.119	264.72
352.502	264.95
352.884	276.48
353.267	289.81
353.65	287.77
354.032	302.92
354.414	333.65
354.797	321.67
355.179	337.27
355.562	341.33
355.944	342.91
356.326	339.07
356.709	336.14
357.091	354.44
357.473	376.59
357.855	340.88
358.238	376.13
358.62	360.99
359.002	338.17
359.384	352.41
359.766	348.34
360.148	353.54
360.53	361.67
360.912	344.27
361.294	339.75
361.676	356.02
362.057	369.13
362.439	362.35
362.821	335.91
363.203	357.15
363.584	341.33
363.966	340.88
364.348	354.89
364.729	355.8
365.111	346.98
365.493	340.65
365.874	341.78
366.256	335.23
366.637	351.28
367.019	320.32
367.4	330.03
367.781	323.48
368.163	338.17
368.544	338.62
368.925	314.44
369.306	335.01
369.688	335.23
370.069	356.47
370.45	321.45
370.831	358.51
371.212	346.98
371.593	357.83
371.974	359.19
372.355	357.15
372.736	358.06
373.117	351.73
373.498	344.27
373.879	372.74
374.26	342.24
374.641	355.8
375.021	328
375.402	354.21
375.783	364.16
376.163	363.71
376.544	374.1
376.925	366.19
377.305	376.13
377.686	368
378.066	383.59
378.447	358.96
378.827	378.39
379.208	366.42
379.588	380.65
379.968	365.96
380.349	384.5
380.729	378.62
381.109	391.28
381.489	400.77
381.87	405.29
382.25	413.42
382.63	405.06
383.01	417.49
383.39	411.39
383.77	424.27
384.15	417.94
384.53	412.74
384.91	429.47
385.29	436.47
385.67	430.6
386.049	433.76
386.429	436.02
386.809	426.3
387.189	431.73
387.568	438.05
387.948	452.06
388.328	462.69
388.707	472.85
389.087	463.59
389.466	463.36
389.846	463.82
390.225	467.88
390.605	471.5
390.984	506.53
391.363	497.71
391.743	483.02
392.122	512.85
392.501	515.34
392.881	524.38
393.26	496.58
393.639	492.74
394.018	512.85
394.397	524.6
394.776	535.68
395.155	554.43
395.534	560.76
395.913	530.93
396.292	552.85
396.671	559.41
397.05	564.15
397.429	551.27
397.808	563.93
398.186	572.29
398.565	574.77
398.944	593.98
399.323	592.85
399.701	580.42
400.08	579.74
400.458	603.47
400.837	603.47
401.215	624.04
401.594	626.98
401.972	629.23
402.351	619.07
402.729	627.43
403.107	649.12
403.486	656.8
403.864	669.46
404.242	685.05
404.62	692.28
404.999	694.77
405.377	704.94
405.755	703.58
406.133	688.44
406.511	710.14
406.889	738.61
407.267	738.84
407.645	748.33
408.023	760.53
408.401	767.76
408.779	776.35
409.156	801.89
409.534	827.2
409.912	794.2
410.29	809.12
410.667	823.58
411.045	840.3
411.422	846.18
411.8	867.65
412.178	853.41
412.555	907.42
412.933	878.49
413.31	937.93
413.687	922.56
414.065	926.18
414.442	954.65
414.819	940.41
415.197	937.7
415.574	987.87
415.951	1004.14
416.328	1006.85
416.705	1007.53
417.082	1027.42
417.46	1030.35
417.837	1041.2
418.214	1044.37
418.591	1069
418.967	1080.75
419.344	1101.99
419.721	1111.03
420.098	1101.31
420.475	1124.59
420.852	1127.98
421.228	1155.32
421.605	1168.43
421.982	1180.41
422.358	1194.42
422.735	1201.88
423.111	1235.09
423.488	1211.14
423.864	1215.66
424.241	1277.35
424.617	1257.92
424.994	1279.39
425.37	1307.41
425.746	1304.02
426.123	1351.25
426.499	1345.37
426.875	1325.49
427.251	1373.4
427.627	1405.94
428.003	1423.34
428.379	1448.87
428.756	1460.85
429.132	1454.3
429.507	1496.78
429.883	1497.91
430.259	1548.08
430.635	1566.39
431.011	1584.24
431.387	1628.98
431.763	1629.89
432.138	1645.93
432.514	1673.05
432.89	1692.48
433.265	1731.13
433.641	1758.47
434.016	1749.21
434.392	1788.53
434.767	1831.01
435.143	1793.27
435.518	1835.53
435.894	1909.2
436.269	1916.21
436.644	1962.53
437.02	2008.86
437.395	1993.94
437.77	2052.93
438.145	2041.18
438.52	2044.56
438.895	2074.62
439.271	2046.6
439.646	2129.31
440.021	2123.66
440.395	2126.37
440.77	2144.45
441.145	2216.76
441.52	2257.44
441.895	2234.62
442.27	2294.5
442.645	2289.3
443.019	2295.41
443.394	2316.2
443.769	2295.18
444.143	2291.11
444.518	2337.66
444.892	2323.65
445.267	2359.13
445.641	2406.82
446.016	2427.15
446.39	2459.02
446.764	2474.16
447.139	2482.29
447.513	2461.5
447.887	2536.76
448.262	2577.43
448.636	2573.36
449.01	2600.03
449.384	2634.61
449.758	2631.44
450.132	2663.31
450.506	2645.45
450.88	2707.6
451.254	2699.91
451.628	2712.34
452.002	2805
452.376	2827.37
452.75	2854.94
453.123	2891.77
453.497	2950.76
453.871	2986.24
454.244	2991.66
454.618	3012.9
454.992	3067.59
455.365	3068.49
455.739	3153.24
456.112	3166.8
456.486	3198.88
456.859	3259
457.232	3284.53
457.606	3329.95
457.979	3368.37
458.352	3454.92
458.725	3527.24
459.099	3528.82
459.472	3599.1
459.845	3637.97
460.218	3642.71
460.591	3670.06
460.964	3714.58
461.337	3795.25
461.71	3854.01
462.083	3916.61
462.456	3933.55
462.829	3965.42
463.201	4051.52
463.574	3999.99
463.947	4145.3
464.32	4249.25
464.692	4218.07
465.065	4327.67
465.438	4327.44
465.81	4418.97
466.183	4430.26
466.555	4511.17
466.928	4533.09
467.3	4574.44
467.672	4637.72
468.045	4782.8
468.417	4781.89
468.789	4845.62
469.161	4942.57
469.534	5015.33
469.906	5100.98
470.278	5178.27
470.65	5215.78
471.022	5281.54
471.394	5380.97
471.766	5423.23
472.138	5524.47
472.51	5589.33
472.882	5677.46
473.253	5725.82
473.625	5827.29
473.997	5987.51
474.369	5976.44
474.74	6098.24
475.112	6238.35
475.484	6329.88
475.855	6422.98
476.227	6493.71
476.598	6685.57
476.97	6717.66
477.341	6892.8
477.713	6923.08
478.084	7052.12
478.455	7219.57
478.827	7248.5
479.198	7505.66
479.569	7480.35
479.94	7736.39
480.311	7840.57
480.682	8054.12
481.053	8212.99
481.424	8330.05
481.795	8395.13
482.166	8522.81
482.537	8601.68
482.908	8780.21
483.279	8948.11
483.65	9104.04
484.021	9297.71
484.391	9358.04
484.762	9409.57
485.133	9515.78
485.503	9713.74
485.874	9948.54
486.244	9955.09
486.615	10197.8
486.985	10382.2
487.356	10597.56
487.726	10670.55
488.097	10880.04
488.467	10947.16
488.837	11162.07
489.207	11317.09
489.578	11439.35
489.948	11520.93
490.318	11714.82
490.688	11750.75
491.058	11964.98
491.428	12162.49
491.798	12272.09
492.168	12576.94
492.538	12643.83
492.908	12701.69
493.278	12905.3
493.648	12915.47
494.017	13138.51
494.387	13277.94
494.757	13379.18
495.126	13605.84
495.496	13671.83
495.866	13734.43
496.235	13961.09
496.605	13992.73
496.974	14094.87
497.344	14278.14
497.713	14380.74
498.082	14504.12
498.452	14636.55
498.821	14698.92
499.19	14802.65
499.559	15043.55
499.928	15107.27
500.298	15159.93
500.667	15351.56
501.036	15399.24
501.405	15510.88
501.774	15567.6
502.143	15673.59
502.512	15813.24
502.88	15965.78
503.249	15935.05
503.618	16102.5
503.987	16120.35
504.356	16292.55
504.724	16428.14
505.093	16591.98
505.462	16684.18
505.83	16685.08
506.199	16928.24
506.567	17116.03
506.936	17123.26
507.304	17313.77
507.672	17498.62
508.041	17494.55
508.409	17585.85
508.777	17806.41
509.145	17967.54
509.514	17983.13
509.882	18106.29
510.25	18178.6
510.618	18408.65
510.986	18397.36
511.354	18614.98
511.722	18693.39
512.09	18934.74
512.458	18898.59
512.826	19104.91
513.193	19266.26
513.561	19344.45
513.929	19416.76
514.297	19618.57
514.664	19721.84
515.032	19749.41
515.4	20064.66
515.767	20146.24
516.135	20338.32
516.502	20294.71
516.869	20479.56
517.237	20713
517.604	20711.87
517.972	20999.55
518.339	21059.88
518.706	21080.45
519.073	21252.42
519.44	21409.48
519.808	21649.7
520.175	21720.21
520.542	21951.39
520.909	21989.8
521.276	22082.46
521.643	22271.38
522.009	22417.59
522.376	22652.84
522.743	22829.33
523.11	23180.96
523.477	23326.04
523.843	23459.37
524.21	23801.05
524.577	23915.85
524.943	23968.51
525.31	24088.51
525.676	24455.05
526.043	24533.92
526.409	24575.05
526.776	24933.91
527.142	24968.71
527.508	25206.44
527.874	25316.72
528.241	25342.71
528.607	25541.12
528.973	25883.03
529.339	25807.56
529.705	25971.85
530.071	26204.38
530.437	26514.2
530.803	26695.67
531.169	26849.56
531.535	26869.67
531.901	27091.36
532.267	27224.69
532.632	27422.65
532.998	27562.54
533.364	27671.24
533.73	27774.28
534.095	27961.85
534.461	28065.12
534.826	28145.57
535.192	28298.56
535.557	28571.1
535.923	28356.42
536.288	28512.57
536.653	28547.82
537.019	28621.72
537.384	28884.09
537.749	29078.66
538.114	29268.48
538.479	29271.87
538.845	29349.16
539.21	29399.33
539.575	29560.23
539.94	29823.27
540.305	30001.12
540.67	29990.5
541.034	30073.21
541.399	30207.21
541.764	30175.58
542.129	30270.72
542.494	30424.84
542.858	30544.15
543.223	30585.06
543.587	30694.21
543.952	30743.47
544.316	30811.27
544.681	30729.46
545.045	30937.14
545.41	31080.86
545.774	31154.31
546.138	31201.54
546.503	31289.67
546.867	31397.47
547.231	31712.49
547.595	31843.33
547.959	32021.86
548.324	31996.77
548.688	32114.06
549.052	32238.35
549.416	32263.66
549.779	32257.56
550.143	32331.9
550.507	32545.46
550.871	32621.84
551.235	32446.03
551.599	32649.64
551.962	32721.05
552.326	32979.34
552.689	32935.28
553.053	32952.68
553.417	32844.66
553.78	33419.79
554.143	33280.58
554.507	33387.7
554.87	33670.17
555.234	33943.39
555.597	33916.5
555.96	34014.8
556.323	34202.59
556.686	34230.16
557.05	34532.07
557.413	34737.94
557.776	34819.3
558.139	34991.72
558.502	34859.52
558.865	34971.83
559.228	35109.01
559.59	34973.87
559.953	35041.21
560.316	35394.42
560.679	35371.37
561.041	35560.97
561.404	35779.95
561.767	35943.56
562.129	35819.5
562.492	36259.71
562.854	36193.05
563.217	36445.02
563.579	36599.36
563.941	36878.9
564.304	37028.96
564.666	37319.34
565.028	37454.26
565.39	37520.69
565.753	37763.4
566.115	37805.66
566.477	38108.93
566.839	38032.32
567.201	38162.49
567.563	38114.8
567.925	38371.29
568.287	38273.67
568.648	38335.59
569.01	38348.92
569.372	38700.1
569.734	38421.69
570.095	38697.39
570.457	39081.78
570.819	39037.72
571.18	39003.37
571.542	39337.6
571.903	39604.26
572.265	39549.79
572.626	39650.58
572.987	39808.32
573.349	40055.09
573.71	40304.35
574.071	40432.26
574.432	40577.79
574.794	40870.44
575.155	40682.19
575.516	40565.81
575.877	40647.62
576.238	40790.44
576.599	40842.19
576.96	40755.41
577.32	40843.54
577.681	40958.34
578.042	40999.7
578.403	41064.1
578.763	41006.93
579.124	41097.32
579.485	41204.89
579.845	41361.5
580.206	41283.53
580.566	41370.08
580.927	41582.96
581.287	41940.69
581.648	41761.94
582.008	41922.39
582.368	41945.44
582.728	42067.02
583.089	42069.95
583.449	41983.4
583.809	42111.99
584.169	42251.87
584.529	42226.56
584.889	42559.66
585.249	42189.5
585.609	42087.13
585.969	42227.92
586.329	41929.39
586.688	41915.61
587.048	42022.04
587.408	41873.12
587.768	41996.06
588.127	41858.89
588.487	41859.56
588.846	42131.42
589.206	41847.59
589.565	41898.21
589.925	42157.18
590.284	41893.01
590.643	42242.6
591.003	42462.03
591.362	42608.24
591.721	42483.28
592.08	42448.47
592.44	42742.93
592.799	42762.59
593.158	42815.24
593.517	42780.22
593.876	42839.65
594.235	42763.49
594.593	42861.57
594.952	42721.01
595.311	42577.74
595.67	42631.75
596.029	42783.61
596.387	42685.98
596.746	42628.81
597.104	42525.99
597.463	42566.89
597.822	42596.94
598.18	42473.78
598.538	42505.2
598.897	42690.73
599.255	42435.37
599.613	42944.73
599.972	42870.38
600.33	42954.45
600.688	42932.76
601.046	43137.72
601.404	43494.32
601.762	43494.77
602.12	43586.98
602.478	43560.08
602.836	43526.41
603.194	43402.8
603.552	43632.62
603.91	43524.15
604.268	43612.29
604.625	43314.89
604.983	43416.81
605.341	43100.66
605.698	43445.96
606.056	43439.63
606.413	43244.84
606.771	43542.23
607.128	43487.32
607.485	43164.39
607.843	43343.82
608.2	43628.56
608.557	43417.49
608.914	43439.63
609.272	43667.43
609.629	43935.89
609.986	44016.57
610.343	43939.96
610.7	44249.33
611.057	44259.5
611.414	44414.07
611.771	44469.44
612.127	44594.41
612.484	44514.18
612.841	44853.83
613.198	44607.29
613.554	44678.25
613.911	44851.12
614.267	44959.37
614.624	44895.64
614.98	44911.23
615.337	45030.33
615.693	44851.8
616.05	44635.54
616.406	44864.91
616.762	44594.18
617.118	44657.91
617.475	44598.7
617.831	44696.1
618.187	44576.1
618.543	44696.1
618.899	44965.02
619.255	44717.57
619.611	44813.38
619.967	45095.41
620.323	45041.85
620.678	45009.31
621.034	45184.67
621.39	45213.37
621.746	45261.73
622.101	45599.35
622.457	45383.76
622.812	45395.06
623.168	45560.93
623.523	45541.95
623.879	45764.32
624.234	45483.2
624.589	45692.46
624.945	45628.96
625.3	45589.86
625.655	45453.14
626.01	45412.24
626.365	45456.76
626.72	45342.64
627.075	45226.48
627.43	45112.81
627.785	44946.94
628.14	45141.28
628.495	45010.21
628.85	45049.08
629.205	44922.99
629.559	44989.42
629.914	44875.53
630.269	44985.13
630.623	44939.48
630.978	44823.33
631.332	45087.27
631.687	45261.73
632.041	45223.77
632.396	45224.22
632.75	45198.68
633.104	45273.48
633.459	45079.82
633.813	45141.74
634.167	45191.45
634.521	45097.9
634.875	45170.89
635.229	45076.43
635.583	44934.28
635.937	44996.2
636.291	44911.01
636.645	44868.52
636.999	44614.07
637.352	44723.44
637.706	44438.25
638.06	44534.3
638.413	44276.22
638.767	44146.51
639.121	44059.96
639.474	43799.63
639.828	43830.36
640.181	43817.7
640.534	43853.64
640.888	43872.84
641.241	43591.5
641.594	43619.29
641.947	43830.58
642.301	43777.03
642.654	43811.6
643.007	43869
643.36	43903.13
643.713	43894.76
644.066	43957.81
644.419	43857.7
644.771	43788.55
645.124	43760.76
645.477	43744.94
645.83	43453.19
646.182	42944.28
646.535	42595.36
646.888	42584.06
647.24	42317.4
647.593	42531.64
647.945	42317.63
648.298	42209.84
648.65	42145.43
649.002	41897.53
649.355	42030.41
649.707	42109.5
650.059	42239.21
650.411	42782.93
650.763	42766.43
651.115	43030.83
651.467	42725.3
651.819	42685.76
652.171	42791.52
652.523	42563.5
652.875	42608.24
653.227	42432.66
653.578	42994.22
653.93	42840.33
654.282	42591.3
654.633	42404.86
654.985	42710.84
655.337	42675.59
655.688	42869.25
656.039	42975.69
656.391	42626.1
656.742	42741.35
657.094	42847.33
657.445	43023.83
657.796	43005.52
658.147	43021.79
658.498	42853.89
658.849	43070.38
659.2	42817.73
659.551	42854.79
659.902	42843.94
660.253	42735.25
660.604	42831.29
660.955	42547.23
661.306	42555.36
661.656	42330.96
662.007	42312.21
662.358	42402.15
662.708	42322.38
663.059	42224.3
663.409	41822.95
663.76	42149.05
664.11	42085.55
664.461	41949.73
664.811	42105.66
665.161	41929.39
665.511	41910.18
665.862	41936.62
666.212	42132.32
666.562	42063.85
666.912	42293.9
667.262	42245.77
667.612	42316.73
667.962	42436.72
668.312	42391.3
668.662	42508.59
669.011	42624.51
669.361	42463.16
669.711	42600.11
670.06	42349.27
670.41	42514.24
670.76	42438.98
671.109	42476.95
671.459	42334.58
671.808	42139.1
672.157	42297.52
672.507	41950.63
672.856	42120.8
673.205	42109.5
673.554	42168.48
673.904	41879.22
674.253	41959.22
674.602	41799.45
674.951	41091
675.3	40870.66
675.649	41435.85
675.998	41187.72
676.346	41214.61
676.695	41300.93
677.044	40977.1
677.393	41079.02
677.741	41188.17
678.09	41026.82
678.438	40933.03
678.787	41079.47
679.135	41174.84
679.484	40876.09
679.832	41126.25
680.181	40940.27
680.529	41014.84
680.877	40982.98
681.225	41111.33
681.573	41346.13
681.922	41111.56
682.27	41000.38
682.618	41019.59
682.966	41006.25
683.314	41112.01
683.661	41005.12
684.009	40805.35
684.357	40755.41
684.705	40572.59
685.053	40621.86
685.4	40538.47
685.748	40383.67
686.095	40069.1
686.443	40013.74
686.79	39968.09
687.138	39824.14
687.485	39715.89
687.832	39618.94
688.18	39503.24
688.527	39302.12
688.874	39079.52
689.221	38981.22
689.568	38947.1
689.915	38780.77
690.262	38628.91
690.609	38542.81
690.956	38470.5
691.303	38507.11
691.65	38550.27
691.997	38457.84
692.344	38094.01
692.69	38004.98
693.037	38084.07
693.383	38151.41
693.73	38330.39
694.077	37989.61
694.423	38127.68
694.769	38117.51
695.116	37835.04
695.462	37808.6
695.808	37753.23
696.155	37925.66
696.501	37543.29
696.847	37597.3
697.193	37490.86
697.539	37551.2
697.885	37202.96
698.231	37171.32
698.577	36925
698.923	36874.38
699.269	36729.3
699.614	36419.03
699.96	36180.39
700.306	36252.03
700.651	36015.88
700.997	35802.1
701.342	35680.97
701.688	35567.07
702.033	35433.97
702.379	35314.88
702.724	35267.42
703.069	35337.93
703.415	34819.52
703.76	34878.05
704.105	34898.16
704.45	34736.36
704.795	34477.84
705.14	34429.25
705.485	34310.38
705.83	34384.73
706.175	34437.84
706.52	34377.95
706.865	34256.83
707.209	34381.79
707.554	34328.46
707.899	34401
708.243	34266.77
708.588	34141.57
708.932	34069.03
709.277	34018.64
709.621	34291.4
709.966	33975.25
710.31	34121.69
710.654	33810.51
710.998	33935.03
711.342	33845.31
711.687	33677.86
712.031	33717.63
712.375	33501.36
712.719	33483.74
713.063	33307.02
713.407	33389.5
713.75	33098.44
714.094	33022.28
714.438	32807.37
714.782	32789.75
715.125	32647.6
715.469	32656.42
715.812	32377.78
716.156	32239.48
716.499	32088.97
716.843	32135.3
717.186	31842.2
717.53	31912.25
717.873	31863.22
718.216	31864.57
718.559	31721.3
718.902	31567.86
719.246	31733.28
719.589	31783.67
719.932	31593.84
720.275	31533.06
720.617	31691.24
720.96	31717.01
721.303	31717.46
721.646	31742.99
721.989	31656.67
722.331	31851.01
722.674	31779.15
723.016	31862.31
723.359	31900.5
723.701	31788.19
724.044	31510.46
724.386	31406.96
724.729	31700.06
725.071	31544.13
725.413	31535.99
725.755	31741.41
726.097	31453.51
726.439	31355.43
726.782	31353.62
727.124	31458.25
727.465	31113.63
727.807	31189.79
728.149	30966.74
728.491	30899.85
728.833	30993.63
729.175	30855.56
729.516	30864.15
729.858	30623.25
730.199	30859.85
730.541	30633.42
730.882	30647.2
731.224	30666.86
731.565	30395.01
731.906	30336.48
732.248	30483.82
732.589	30335.8
732.93	30165.86
733.271	30269.81
733.612	30407.66
733.953	30377.38
734.294	30351.84
734.635	30194.79
734.976	30364.95
735.317	30118.4
735.658	30330.83
735.999	30475.68
736.339	30300.32
736.68	30468.9
737.021	30476.13
737.361	30473.65
737.702	30593.42
738.042	30541.89
738.383	30626.19
738.723	30632.51
739.063	30445.17
739.404	30511.61
739.744	30621.67
740.084	30520.88
740.424	30676.13
740.764	30695.56
741.104	30667.32
741.444	30532.18
741.784	30396.36
742.124	30634.77
742.464	30597.94
742.804	30541.44
743.143	30410.15
743.483	30336.48
743.823	30026.65
744.162	30205.63
744.502	30176.03
744.841	30167.67
745.181	30295.12
745.52	30077.27
745.86	30010.84
746.199	29947.11
746.538	29871.4
746.877	30034.34
747.216	30017.39
747.556	30135.58
747.895	30044.51
748.234	29976.49
748.573	30017.39
748.911	30079.08
749.25	30113.66
749.589	29959.54
749.928	30116.14
750.267	30227.1
750.605	30036.82
750.944	30121.11
751.283	30054
751.621	30375.12
751.96	30308.45
752.298	30372.18
752.636	30412.86
752.975	30421.22
753.313	30389.36
753.651	30611.72
753.989	30355.23
754.327	30450.37
754.666	30426.64
755.004	30713.64
755.342	30601.55
755.679	30585.28
756.017	30570.82
756.355	30663.47
756.693	30498.51
757.031	30494.66
757.368	30435
757.706	30455.8
758.044	30297.16
758.381	30551.61
758.719	30438.62
759.056	30428.9
759.394	30382.35
759.731	30137.16
760.068	30260.77
760.405	30130.15
760.743	29931.97
761.08	30116.82
761.417	30014.68
761.754	29881.8
762.091	30023.04
762.428	29769.71
762.765	29675.02
763.102	29932.42
763.438	29809.94
763.775	29614.69
764.112	29688.81
764.449	29722.93
764.785	29588.7
765.122	29556.61
765.458	29424.86
765.795	29396.84
766.131	29547.34
766.467	29516.38
766.804	29471.19
767.14	29317.29
767.476	29362.49
767.812	29252.21
768.148	29425.31
768.485	29341.47
768.821	29176.51
769.157	29273.45
769.492	29096.51
769.828	29227.35
770.164	28997.98
770.5	28975.38
770.836	29128.37
771.171	28901.26
771.507	28816.52
771.842	28781.94
772.178	28730.42
772.513	28685.67
772.849	28619.23
773.184	28500.37
773.519	28412.69
773.855	28214.27
774.19	28187.15
774.525	28014.73
774.86	28014.05
775.195	27993.26
775.53	27969.53
775.865	27780.84
776.2	27604.12
776.535	27337.69
776.87	27455.2
777.205	27258.82
777.539	27078.03
777.874	27061.08
778.209	26798.49
778.543	26753.75
778.878	26535.22
779.212	26621.55
779.547	26495.22
779.881	26584.94
780.215	26408.9
780.55	26408.9
780.884	26354.66
781.218	26174.33
781.552	26114.67
781.886	25968.91
782.22	25747.22
782.554	25697.95
782.888	25520.33
783.222	25479.65
783.556	25424.52
783.889	25354.91
784.223	25189.72
784.557	25241.92
784.89	25172.54
785.224	25120.79
785.557	25012.55
785.891	25032.89
786.224	24968.71
786.558	24989.5
786.891	24761.93
787.224	24732.1
787.557	24750.41
787.891	24798.54
788.224	24751.31
788.557	24682.39
788.89	24662.5
789.223	24593.12
789.556	24349.74
789.888	24482.62
790.221	24321.95
790.554	24191.55
790.887	24069.97
791.219	24022.07
791.552	23860.04
791.884	23756.76
792.217	23681.06
792.549	23545.92
792.882	23458.24
793.214	23396.09
793.546	23461.85
793.879	23255.98
794.211	23212.82
794.543	23085.82
794.875	23184.12
795.207	23086.5
795.539	22806.5
795.871	22812.83
796.203	22508.43
796.535	22299.63
796.867	22324.03
797.198	22323.13
797.53	22366.97
797.862	22230.47
798.193	22192.96
798.525	22119.07
798.856	22083.81
799.188	21790.26
799.519	21862.35
799.85	21639.76
800.182	21606.54
800.513	21815.34
800.844	21586.42
801.175	21702.81
801.506	21649.02
801.837	21589.14
802.168	21501.91
802.499	21393.66
802.83	21390.27
803.161	21342.59
803.491	21301.23
803.822	21298.75
804.153	21155.47
804.483	21145.76
804.814	21025.53
805.145	21153.44
805.475	21024.18
805.805	20916.84
806.136	20933.56
806.466	20930.17
806.796	20961.81
807.126	20756.39
807.457	20722.04
807.787	20701.02
808.117	20607.01
808.447	20598.88
808.777	20636.84
809.107	20445.21
809.436	20403.86
809.766	20389.17
810.096	20268.49
810.426	20325.21
810.755	20306.68
811.085	20147.14
811.414	20082.28
811.744	19943.08
812.073	19880.48
812.403	19809.07
812.732	19663.31
813.061	19678.45
813.39	19408.18
813.719	19525.91
814.049	19535.63
814.378	19536.31
814.707	19359.82
815.036	19345.58
815.365	19130.22
815.693	19002.31
816.022	19130.44
816.351	18984.01
816.68	18856.33
817.008	18956.89
817.337	18800.06
817.665	18880.96
817.994	18949.43
818.322	18744.69
818.651	18649.33
818.979	18600.97
819.307	18664.01
819.636	18595.54
819.964	18525.71
820.292	18555.09
820.62	18595.32
820.948	18502.66
821.276	18607.07
821.604	18541.31
821.932	18631.25
822.259	18571.59
822.587	18609.1
822.915	18495.88
823.243	18633.28
823.57	18656.11
823.898	18641.42
824.225	18567.29
824.553	18685.26
824.88	18718.48
825.207	18784.46
825.535	18656.56
825.862	18655.65
826.189	18666.73
826.516	18751.02
826.843	18853.39
827.17	18771.81
827.497	18785.14
827.824	18765.93
828.151	18790.57
828.478	18759.38
828.805	18846.83
829.131	18688.65
829.458	18733.84
829.785	18583.57
830.111	18640.74
830.438	18704.47
830.764	18603
831.09	18622.89
831.417	18433.51
831.743	18543.57
832.069	18563.9
832.395	18551.7
832.722	18545.83
833.048	18452.95
833.374	18452.27
833.7	18259.05
834.026	18285.49
834.351	18266.96
834.677	18190.58
835.003	18289.56
835.329	18239.85
835.654	18195.78
835.98	18101.77
836.306	18021.55
836.631	18005.73
836.956	17937.48
837.282	17988.78
837.607	17860.87
837.932	17909.68
838.258	17900.87
838.583	17805.51
838.908	17813.19
839.233	17742.68
839.558	17755.79
839.883	17759.18
840.208	17673.53
840.533	17691.84
840.858	17702.01
841.182	17749.01
841.507	17680.54
841.832	17548.34
842.156	17548.56
842.481	17589.69
842.805	17608
843.13	17565.51
843.454	17491.62
843.778	17427.66
844.103	17473.76
844.427	17443.93
844.751	17406.42
845.075	17477.83
845.399	17470.6
845.723	17368.46
846.047	17392.41
846.371	17253.88
846.695	17205.07
847.019	16982.93
847.343	16985.41
847.666	16876.72
847.99	16728.92
848.313	16858.86
848.637	16663.16
848.96	16660
849.284	16648.47
849.607	16521.7
849.931	16407.8
850.254	16202.38
850.577	16191.76
850.9	16050.3
851.223	16023.18
851.546	15970.98
851.869	15794.03
852.192	15891.21
852.515	15700.93
852.838	15652.12
853.161	15626.35
853.483	15528.96
853.806	15523.98
854.129	15443.31
854.451	15377.32
854.774	15311.11
855.096	15346.59
855.419	15198.34
855.741	15157.89
856.063	15025.01
856.385	15015.52
856.708	14910.89
857.03	14868.86
857.352	14964.68
857.674	14805.13
857.996	14741.41
858.318	14751.58
858.64	14774.63
858.961	14670
859.283	14719.71
859.605	14606.49
859.926	14558.81
860.248	14524.91
860.57	14573.95
860.891	14533.28
861.212	14436.33
861.534	14492.15
861.855	14428.19
862.176	14393.84
862.498	14425.03
862.819	14424.58
863.14	14400.85
863.461	14356.11
863.782	14328.99
864.103	14360.63
864.424	14356.56
864.745	14453.5
865.065	14294.41
865.386	14246.28
865.707	14229.1
866.027	14329.67
866.348	14261.19
866.668	14283.11
866.989	14245.15
867.309	14083.8
867.63	14168.77
867.95	14193.4
868.27	13986.17
868.59	14101.87
868.91	14135.09
869.23	14065.72
869.55	13962.44
869.87	14048.54
870.19	13924.93
870.51	13989.11
870.83	13936.23
871.15	13757.93
871.469	13935.55
871.789	13783.92
872.109	13670.47
872.428	13714.09
872.748	13714.31
873.067	13675.67
873.386	13639.51
873.706	13557.93
874.025	13516.13
874.344	13424.6
874.663	13548.67
874.982	13459.41
875.301	13446.52
875.62	13315
875.939	13315.91
876.258	13286.53
876.577	13268.68
876.896	13222.12
877.214	13153.43
877.533	13094.9
877.852	13178.28
878.17	13157.49
878.489	13180.54
878.807	13061.9
879.125	13019.64
879.444	13104.39
879.762	13133.31
880.08	13077.5
880.398	12879.31
880.716	12977.84
881.034	12925.41
881.352	12942.36
881.67	12846.99
881.988	12870.95
882.306	12794.56
882.624	12775.36
882.941	12746.66
883.259	12762.25
883.577	12781.01
883.894	12785.53
884.212	12747.56
884.529	12696.04
884.846	12742.36
885.164	12729.71
885.481	12706.88
885.798	12719.99
886.115	12691.29
886.432	12596.15
886.75	12609.48
887.067	12624.4
887.383	12565.19
887.7	12596.83
888.017	12478.64
888.334	12489.94
888.651	12503.95
888.967	12466.44
889.284	12426.44
889.6	12353.45
889.917	12345.54
890.233	12354.8
890.55	12333.11
890.866	12308.48
891.182	12184.41
891.498	12175.6
891.815	12086.33
892.131	12062.38
892.447	12094.24
892.763	11994.59
893.079	11942.84
893.395	11903.51
893.71	11856.74
894.026	11741.71
894.342	11808.38
894.657	11759.79
894.973	11622.17
895.289	11618.1
895.604	11622.62
895.92	11478.67
896.235	11453.58
896.55	11489.06
896.865	11383.98
897.181	11305.34
897.496	11330.42
897.811	11263.08
898.126	11146.02
898.441	11115.96
898.756	11139.02
899.071	11025.35
899.386	11130.2
899.7	10956.65
900.015	10937.89
900.33	10819.7
900.644	10794.39
900.959	10850.89
901.273	10772.02
901.588	10757.1
901.902	10658.12
902.216	10681.4
902.531	10610.22
902.845	10595.75
903.159	10465.36
903.473	10526.15
903.787	10425.36
904.101	10418.36
904.415	10407.96
904.729	10425.36
905.042	10324.12
905.356	10343.1
905.67	10306.49
905.984	10345.59
906.297	10280.28
906.611	10244.58
906.924	10231.02
907.237	10202.77
907.551	10184.69
907.864	10117.57
908.177	10113.51
908.491	10154.18
908.804	10056.56
909.117	10010.01
909.43	9943.79
909.743	9960.06
910.056	9904.02
910.368	9950.12
910.681	9874.64
910.994	9790.12
911.307	9714.42
911.619	9701.54
911.932	9707.64
912.244	9699.05
912.557	9635.55
912.869	9650.69
913.181	9519.85
913.494	9549.68
913.806	9450.92
914.118	9436.46
914.43	9353.3
914.742	9354.88
915.054	9271.49
915.366	9281.89
915.678	9259.06
915.99	9165.06
916.302	9079.86
916.613	9089.8
916.925	9023.82
917.236	9005.51
917.548	8946.76
917.859	8961.22
918.171	8823.6
918.482	8775.91
918.794	8686.2
919.105	8727.55
919.416	8605.97
919.727	8594.22
920.038	8640.55
920.349	8561.23
920.66	8486.66
920.971	8472.42
921.282	8427.22
921.593	8451.18
921.903	8314.46
922.214	8292.31
922.525	8196.95
922.835	8171.41
923.146	8125.99
923.456	8109.49
923.767	8065.2
924.077	8147.91
924.387	8048.93
924.697	7996.5
925.008	7983.84
925.318	7870.17
925.628	7930.06
925.938	7922.38
926.248	7848.48
926.558	7916.95
926.867	7782.72
927.177	7730.97
927.487	7738.65
927.796	7636.06
928.106	7648.03
928.416	7658.43
928.725	7600.58
929.034	7564.87
929.344	7556.74
929.653	7533.23
929.962	7517.64
930.271	7428.83
930.581	7498.21
930.89	7432.9
931.199	7380.24
931.508	7390.64
931.817	7391.09
932.125	7287.82
932.434	7312.9
932.743	7268.61
933.051	7222.96
933.36	7200.36
933.669	7168.27
933.977	7192.23
934.286	7144.09
934.594	7160.81
934.902	7073.59
935.21	7018.45
935.519	7038.33
935.827	7016.41
936.135	6984.32
936.443	6940.93
936.751	6968.28
937.059	6923.31
937.367	6873.82
937.674	6885.57
937.982	6840.37
938.29	6811.67
938.597	6770.32
938.905	6694.84
939.213	6695.06
939.52	6652.13
939.827	6652.35
940.135	6604.22
940.442	6547.72
940.749	6510.21
941.056	6534.39
941.363	6398.8
941.67	6385.24
941.977	6339.82
942.284	6295.07
942.591	6323.32
942.898	6246.04
943.205	6239.26
943.511	6208.98
943.818	6172.14
944.125	6091.46
944.431	6131.46
944.738	6058.02
945.044	6084.23
945.35	6021.64
945.657	5989.55
945.963	5994.07
946.269	5907.51
946.575	5938.02
946.881	5888.76
947.187	5917.23
947.493	5855.99
947.799	5837.46
948.105	5761.53
948.41	5777.8
948.716	5757.91
949.022	5751.59
949.327	5717.01
949.633	5595.21
949.938	5605.6
950.244	5641.53
950.549	5559.95
950.854	5508.65
951.16	5541.87
951.465	5530.57
951.77	5505.49
952.075	5488.32
952.38	5513.85
952.685	5473.63
952.99	5413.97
953.294	5410.13
953.599	5376.68
953.904	5350.69
954.209	5322.67
954.513	5337.59
954.818	5286.97
955.122	5301.2
955.426	5328.32
955.731	5280.86
956.035	5301.43
956.339	5261.88
956.643	5266.4
956.948	5165.16
957.252	5216.23
957.556	5155.9
957.86	5094.43
958.163	5148.44
958.467	5098.72
958.771	5127.87
959.075	5077.93
959.378	5039.74
959.682	5032.06
959.985	4952.06
960.289	4978.27
960.592	4929.23
960.896	4941.66
961.199	4895.56
961.502	4912.96
961.805	4855.34
962.108	4860.31
962.411	4833.64
962.714	4799.29
963.017	4802.23
963.32	4795.9
963.623	4779.86
963.926	4699.18
964.228	4653.76
964.531	4640.65
964.833	4678.39
965.136	4609.47
965.438	4607.44
965.741	4552.75
966.043	4559.3
966.345	4580.32
966.648	4556.14
966.95	4479.53
967.252	4479.3
967.554	4436.14
967.856	4442.92
968.158	4368.8
968.46	4357.5
968.761	4333.54
969.063	4298.52
969.365	4295.58
969.666	4275.92
969.968	4279.08
970.269	4246.31
970.571	4186.2
970.872	4209.93
971.174	4187.11
971.475	4167.67
971.776	4167.67
972.077	4147.11
972.378	4129.71
972.679	4085.42
972.98	4103.49
973.281	4096.94
973.582	3990.73
973.883	3982.14
974.183	4004.74
974.484	3975.59
974.785	3952.31
975.085	3936.72
975.386	3935.36
975.686	3941.01
975.986	3890.62
976.287	3875.03
976.587	3870.28
976.887	3843.16
977.187	3831.18
977.487	3817.4
977.787	3832.77
978.087	3821.47
978.387	3779.21
978.687	3748.93
978.987	3750.06
979.286	3733.79
979.586	3710.51
979.885	3689.72
980.185	3687.01
980.484	3719.55
980.784	3611.76
981.083	3618.76
981.382	3596.84
981.682	3621.92
981.981	3575.6
982.28	3588.25
982.579	3573.34
982.878	3593.9
983.177	3606.56
983.475	3562.04
983.774	3535.37
984.073	3525.88
984.372	3495.15
984.67	3511.19
984.969	3522.49
985.267	3485.43
985.566	3450.4
985.864	3404.98
986.162	3423.74
986.461	3424.87
986.759	3435.26
987.057	3369.5
987.355	3367.47
987.653	3312.1
987.951	3329.05
988.249	3381.48
988.547	3342.61
988.844	3251.54
989.142	3252.22
989.44	3234.14
989.737	3183.97
990.035	3209.05
990.332	3183.07
990.63	3191.2
990.927	3169.28
991.224	3153.24
991.521	3107.14
991.819	3066.01
992.116	3095.84
992.413	3085.22
992.71	3047.93
993.006	3077.76
993.303	3015.16
993.6	3048.15
993.897	2967.7
994.193	2996.4
994.49	2976.07
994.787	2952.34
995.083	2959.34
995.379	2887.93
995.676	2921.15
995.972	2862.85
996.268	2889.29
996.565	2881.15
996.861	2869.63
997.157	2845.67
997.453	2805.45
997.749	2828.95
998.044	2773.36
998.34	2746.47
998.636	2736.3
998.932	2722.51
999.227	2721.84
999.523	2715.96
999.818	2696.98
1000.114	2661.05
1000.409	2644.32
1000.704	2651.1
1001	2616.75
1001.295	2640.48
1001.59	2596.19
1001.885	2612.01
1002.18	2583.08
1002.475	2533.14
1002.77	2520.26
1003.065	2519.13
1003.359	2533.37
1003.654	2520.94
1003.949	2522.74
1004.243	2503.99
1004.538	2415.85
1004.832	2460.37
1005.127	2461.96
1005.421	2404.78
1005.715	2424.67
1006.009	2390.09
1006.304	2385.8
1006.598	2351.45
1006.892	2365.91
1007.186	2354.61
1007.48	2371.56
1007.773	2329.3
1008.067	2327.04
1008.361	2318.91
1008.655	2276.2
1008.948	2274.62
1009.242	2266.71
1009.535	2299.47
1009.829	2251.57
1010.122	2256.08
1010.415	2220.61
1010.708	2207.95
1011.001	2209.08
1011.295	2205.24
1011.588	2188.97
1011.881	2158.01
1012.173	2150.1
1012.466	2146.48
1012.759	2160.95
1013.052	2103.55
1013.344	2109.65
1013.637	2132.92
1013.93	2101.06
1014.222	2058.8
1014.514	2058.35
1014.807	2041.85
1015.099	2012.93
1015.391	2049.76
1015.683	2027.39
1015.976	2014.74
1016.268	2002.76
1016.56	1977.22
1016.851	2002.08
1017.143	1957.34
1017.435	1953.95
1017.727	1944
1018.018	1899.71
1018.31	1935.42
1018.602	1908.75
1018.893	1922.31
1019.185	1874.17
1019.476	1894.29
1019.767	1846.15
1020.058	1801.63
1020.35	1803.22
1020.641	1818.13
1020.932	1784.91
1021.223	1775.87
1021.514	1733.16
1021.804	1729.77
1022.095	1765.48
1022.386	1713.5
1022.677	1709.88
1022.967	1727.06
1023.258	1686.83
1023.548	1675.76
1023.839	1674.41
1024.129	1664.91
1024.419	1645.93
1024.709	1626.72
1025	1606.38
1025.29	1615.42
1025.58	1598.02
1025.87	1570.23
1026.16	1584.46
1026.449	1579.94
1026.739	1579.04
1027.029	1531.36
1027.319	1505.14
1027.608	1531.13
1027.898	1524.13
1028.187	1508.31
1028.477	1473.51
1028.766	1487.74
1029.055	1454.98
1029.344	1461.3
1029.634	1449.1
1029.923	1447.07
1030.212	1451.13
1030.501	1434.86
1030.79	1414.75
1031.078	1374.75
1031.367	1410.01
1031.656	1402.32
1031.945	1375.66
1032.233	1337.46
1032.522	1346.73
1032.81	1331.59
1033.099	1345.83
1033.387	1329.1
1033.675	1329.1
1033.963	1290.01
1034.251	1332.95
1034.54	1316.67
1034.828	1292.04
1035.116	1275.77
1035.403	1285.49
1035.691	1278.71
1035.979	1259.5
1036.267	1233.74
1036.554	1244.59
1036.842	1228.32
1037.129	1206.62
1037.417	1208.2
1037.704	1212.72
1037.992	1174.53
1038.279	1198.26
1038.566	1192.61
1038.853	1192.61
1039.14	1192.61
