Data from blue_chair_FLMS001491_00018.txt Node
Date: Wed Feb 08 10:29:33 GMT 2017
User: dcchb
Spectrometer: FLMS00149
Trigger mode: 0
Integration Time (sec): 2.000000E-2
Scans to average: 10
Electric dark correction enabled: true
Nonlinearity correction enabled: false
Boxcar width: 0
XAxis mode: Wavelengths
Number of Pixels in Spectrum: 2048
>>>>>Begin Spectral Data<<<<<
341.393	-7.51
341.776	-7.51
342.16	-7.51
342.543	-75.76
342.927	-64.46
343.31	-68.76
343.693	-54.29
344.077	-66.95
344.46	-65.82
344.843	-61.75
345.226	-39.6
345.61	-15.2
345.993	-27.63
346.376	-11.81
346.759	1.75
347.142	28.42
347.525	57.57
347.908	54.86
348.291	79.49
348.674	79.04
349.057	110.68
349.44	128.53
349.823	152.26
350.206	158.81
350.588	182.09
350.971	199.94
351.354	191.58
351.737	199.71
352.119	220.5
352.502	250.78
352.884	263.89
353.267	261.63
353.65	275.19
354.032	261.86
354.414	263.89
354.797	276.55
355.179	302.31
355.562	302.99
355.944	316.32
356.326	304.12
356.709	290.78
357.091	309.09
357.473	324.91
357.855	288.3
358.238	312.93
358.62	328.97
359.002	323.55
359.384	328.52
359.766	311.35
360.148	327.39
360.53	311.35
360.912	316.55
361.294	284.91
361.676	284.46
362.057	299.82
362.439	296.43
362.821	294.4
363.203	292.59
363.584	320.84
363.966	315.42
364.348	302.99
364.729	289.43
365.111	288.52
365.493	289.88
365.874	293.5
366.256	286.49
366.637	297.34
367.019	296.21
367.4	307.05
367.781	285.59
368.163	273.16
368.544	283.78
368.925	281.29
369.306	268.41
369.688	287.17
370.069	293.72
370.45	295.75
370.831	274.29
371.212	283.55
371.593	272.25
371.974	293.5
372.355	275.64
372.736	293.95
373.117	268.41
373.498	295.98
373.879	283.1
374.26	284.46
374.641	283.78
375.021	272.03
375.402	291.69
375.783	282.87
376.163	282.2
376.544	279.03
376.925	280.16
377.305	285.13
377.686	276.09
378.066	295.08
378.447	316.32
378.827	290.56
379.208	287.39
379.588	272.48
379.968	276.32
380.349	302.76
380.729	305.47
381.109	315.19
381.489	292.82
381.87	302.99
382.25	277.22
382.63	297.34
383.01	307.51
383.39	299.6
383.77	305.7
384.15	281.29
384.53	274.74
384.91	290.78
385.29	300.73
385.67	300.95
386.049	308.64
386.429	288.52
386.809	320.61
387.189	302.08
387.568	298.92
387.948	321.97
388.328	313.61
388.707	296.66
389.087	306.6
389.466	314.29
389.846	308.86
390.225	314.51
390.605	323.78
390.984	312.48
391.363	307.51
391.743	314.06
392.122	319.94
392.501	299.37
392.881	299.82
393.26	334.17
393.639	326.49
394.018	315.19
394.397	338.47
394.776	324.68
395.155	322.65
395.534	326.26
395.913	333.27
396.292	328.3
396.671	342.53
397.05	311.12
397.429	329.2
397.808	339.37
398.186	327.39
398.565	320.84
398.944	338.24
399.323	330.56
399.701	343.89
400.08	323.55
400.458	336.21
400.837	364.91
401.215	340.73
401.594	335.3
401.972	346.83
402.351	345.92
402.729	355.64
403.107	370.78
403.486	363.78
403.864	345.47
404.242	352.7
404.62	355.19
404.999	360.39
405.377	352.7
405.755	370.33
406.133	370.78
406.511	346.38
406.889	370.1
407.267	361.52
407.645	377.11
408.023	357.67
408.401	374.17
408.779	376.88
409.156	372.82
409.534	354.06
409.912	387.96
410.29	392.02
410.667	403.55
411.045	391.12
411.422	379.37
411.8	375.98
412.178	407.62
412.555	390.22
412.933	367.17
413.31	392.93
413.687	410.1
414.065	392.7
414.442	415.53
414.819	408.75
415.197	399.93
415.574	414.85
415.951	409.2
416.328	403.1
416.705	410.1
417.082	399.93
417.46	408.07
417.837	425.24
418.214	393.15
418.591	424.79
418.967	410.78
419.344	404.23
419.721	438.12
420.098	431.34
420.475	407.62
420.852	430.44
421.228	417.56
421.605	450.55
421.982	451.23
422.358	443.77
422.735	446.71
423.111	437.67
423.488	445.81
423.864	457.33
424.241	448.52
424.617	468.86
424.994	474.51
425.37	468.18
425.746	461.63
426.123	471.8
426.499	475.64
426.875	469.76
427.251	509.08
427.627	501.17
428.003	484.9
428.379	480.38
428.756	494.85
429.132	509.08
429.507	515.18
429.883	488.74
430.259	502.76
430.635	521.74
431.011	511.57
431.387	537.1
431.763	524.68
432.138	526.48
432.514	512.25
432.89	555.64
433.265	534.84
433.641	554.51
434.016	532.13
434.392	538.91
434.767	572.58
435.143	564.67
435.518	583.88
435.894	582.08
436.269	573.49
436.644	564.9
437.02	598.12
437.395	604.67
437.77	596.76
438.145	587.05
438.52	634.73
438.895	632.7
439.271	635.41
439.646	641.06
440.021	636.76
440.395	653.71
440.77	669.98
441.145	661.62
441.52	655.29
441.895	637.21
442.27	684.45
442.645	682.64
443.019	696.2
443.394	695.29
443.769	683.77
444.143	693.03
444.518	711.79
444.892	693.48
445.267	710.89
445.641	720.15
446.016	704.56
446.39	719.47
446.764	728.51
447.139	728.51
447.513	737.78
447.887	730.09
448.262	742.3
448.636	752.92
449.01	736.42
449.384	747.72
449.758	761.96
450.132	768.74
450.506	743.88
450.88	774.16
451.254	756.08
451.628	765.35
452.002	791.34
452.376	802.41
452.75	815.29
453.123	806.7
453.497	782.3
453.871	832.01
454.244	829.3
454.618	815.06
454.992	835.63
455.365	837.21
455.739	864.1
456.112	845.12
456.486	877.21
456.859	877.21
457.232	866.59
457.606	876.53
457.979	895.97
458.352	884.44
458.725	893.93
459.099	905.46
459.472	933.93
459.845	924.66
460.218	915.4
460.591	923.31
460.964	952.23
461.337	946.59
461.71	957.66
462.083	981.39
462.456	968.73
462.829	987.49
463.201	988.17
463.574	978
463.947	965.79
464.32	1006.7
464.692	998.34
465.065	1005.34
465.438	1034.04
465.81	1026.36
466.183	1013.25
466.555	1080.59
466.928	1065.68
467.3	1069.97
467.672	1077.88
468.045	1097.09
468.417	1085.34
468.789	1063.42
469.161	1085.34
469.534	1125.56
469.906	1118.33
470.278	1142.06
470.65	1157.65
471.022	1154.04
471.394	1165.79
471.766	1156.52
472.138	1179.8
472.51	1211.44
472.882	1239.46
473.253	1203.08
473.625	1228.84
473.997	1243.98
474.369	1249.18
474.74	1239.46
475.112	1253.47
475.484	1277.2
475.855	1283.75
476.227	1284.43
476.598	1328.5
476.97	1338.44
477.341	1341.6
477.713	1370.98
478.084	1346.35
478.455	1364.88
478.827	1396.74
479.198	1402.62
479.569	1411.88
479.94	1431.77
480.311	1468.61
480.682	1476.29
481.053	1476.97
481.424	1509.51
481.795	1487.81
482.166	1521.03
482.537	1510.19
482.908	1542.95
483.279	1556.29
483.65	1573.46
484.021	1590.18
484.391	1607.58
484.762	1588.15
485.133	1583.86
485.503	1622.5
485.874	1646.23
486.244	1632.89
486.615	1672.67
486.985	1704.98
487.356	1696.62
487.726	1665.21
488.097	1691.65
488.467	1699.11
488.837	1722.38
489.207	1740.69
489.578	1740.91
489.948	1761.25
490.318	1774.81
490.688	1758.99
491.058	1778.65
491.428	1812.1
491.798	1765.09
492.168	1782.5
492.538	1796.05
492.908	1797.86
493.278	1811.65
493.648	1786.79
494.017	1841.25
494.387	1822.27
494.757	1799.44
495.126	1820.69
495.496	1843.28
495.866	1823.62
496.235	1848.03
496.605	1841.7
496.974	1858.43
497.344	1854.36
497.713	1863.85
498.082	1879.44
498.452	1868.82
498.821	1865.88
499.19	1826.34
499.559	1850.74
499.928	1852.1
500.298	1840.8
500.667	1840.8
501.036	1839.9
501.405	1855.71
501.774	1853.45
502.143	1879.89
502.512	1813.23
502.88	1856.39
503.249	1871.08
503.618	1894.58
503.987	1831.31
504.356	1829.05
504.724	1832.66
505.093	1827.47
505.462	1833.79
505.83	1862.27
506.199	1866.11
506.567	1834.7
506.936	1839.9
507.304	1845.77
507.672	1871.31
508.041	1859.78
508.409	1883.06
508.777	1857.75
509.145	1845.09
509.514	1825.21
509.882	1831.08
510.25	1845.32
510.618	1846
510.986	1816.84
511.354	1833.57
511.722	1817.07
512.09	1806
512.458	1819.78
512.826	1827.92
513.193	1816.39
513.561	1800.57
513.929	1831.31
514.297	1813.23
514.664	1844.64
515.032	1829.5
515.4	1832.44
515.767	1825.66
516.135	1835.6
516.502	1823.62
516.869	1815.71
517.237	1838.54
517.604	1820.69
517.972	1805.77
518.339	1817.3
518.706	1803.51
519.073	1798.31
519.44	1813.46
519.808	1813
520.175	1770.07
520.542	1781.59
520.909	1800.8
521.276	1753.34
521.643	1785.21
522.009	1791.53
522.376	1811.2
522.743	1752.21
523.11	1763.74
523.477	1767.13
523.843	1767.35
524.21	1783.4
524.577	1775.26
524.943	1806.22
525.31	1762.16
525.676	1764.87
526.043	1771.42
526.409	1784.08
526.776	1784.08
527.142	1766.68
527.508	1781.59
527.874	1763.74
528.241	1803.29
528.607	1763.51
528.973	1794.47
529.339	1739.33
529.705	1781.82
530.071	1773.46
530.437	1783.17
530.803	1787.24
531.169	1757.19
531.535	1729.16
531.901	1745.43
532.267	1757.19
532.632	1749.73
532.998	1764.19
533.364	1756.96
533.73	1751.08
534.095	1759.22
534.461	1746.79
534.826	1756.28
535.192	1750.86
535.557	1743.17
535.923	1748.37
536.288	1747.92
536.653	1756.51
537.019	1728.94
537.384	1745.43
537.749	1732.78
538.114	1712.44
538.479	1713.12
538.845	1713.12
539.21	1738.88
539.575	1728.26
539.94	1726.45
540.305	1711.31
540.67	1713.34
541.034	1686.68
541.399	1701.59
541.764	1710.41
542.129	1718.09
542.494	1688.94
542.858	1708.37
543.223	1709.73
543.587	1697.75
543.952	1703.4
544.316	1704.31
544.681	1676.74
545.045	1699.11
545.41	1674.48
545.774	1686.23
546.138	1687.58
546.503	1672.67
546.867	1652.78
547.231	1641.48
547.595	1664.98
547.959	1670.86
548.324	1665.66
548.688	1641.26
549.052	1662.5
549.416	1634.7
549.779	1641.93
550.143	1635.61
550.507	1644.87
550.871	1662.27
551.235	1607.58
551.599	1620.24
551.962	1628.6
552.326	1620.47
552.689	1627.02
553.053	1588.6
553.417	1623.18
553.78	1617.75
554.143	1640.13
554.507	1646.68
554.87	1624.99
555.234	1604.2
555.597	1619.56
555.96	1645.32
556.323	1639.22
556.686	1629.73
557.05	1623.4
557.413	1594.03
557.776	1593.57
558.139	1604.42
558.502	1607.13
558.865	1578.43
559.228	1605.1
559.59	1617.98
559.953	1603.07
560.316	1626.57
560.679	1598.32
561.041	1622.05
561.404	1620.92
561.767	1623.86
562.129	1597.42
562.492	1634.02
562.854	1595.61
563.217	1611.65
563.579	1636.74
563.941	1617.75
564.304	1627.47
564.666	1624.31
565.028	1635.61
565.39	1616.4
565.753	1613.23
566.115	1646.23
566.477	1646.68
566.839	1650.07
567.201	1631.54
567.563	1675.61
567.925	1617.98
568.287	1655.04
568.648	1642.84
569.01	1661.59
569.372	1685.77
569.734	1665.89
570.095	1675.38
570.457	1660.24
570.819	1661.37
571.18	1665.89
571.542	1673.35
571.903	1664.76
572.265	1683.29
572.626	1694.81
572.987	1669.05
573.349	1695.27
573.71	1687.13
574.071	1709.73
574.432	1704.08
574.794	1719.22
575.155	1714.7
575.516	1721.71
575.877	1695.49
576.238	1703.18
576.599	1716.06
576.96	1724.64
577.32	1707.7
577.681	1734.36
578.042	1744.53
578.403	1707.92
578.763	1731.2
579.124	1722.16
579.485	1754.25
579.845	1746.79
580.206	1732.33
580.566	1740.46
580.927	1758.54
581.287	1757.64
581.648	1754.7
582.008	1732.55
582.368	1774.81
582.728	1750.63
583.089	1754.25
583.449	1795.83
583.809	1773
584.169	1767.13
584.529	1785.66
584.889	1776.62
585.249	1790.4
585.609	1782.04
585.969	1790.86
586.329	1788.37
586.688	1770.07
587.048	1790.63
587.408	1772.1
587.768	1778.88
588.127	1763.06
588.487	1777.98
588.846	1766.45
589.206	1761.93
589.565	1765.77
589.925	1808.71
590.284	1768.26
590.643	1780.46
591.003	1782.27
591.362	1765.77
591.721	1781.14
592.08	1798.31
592.44	1782.95
592.799	1780.46
593.158	1768.03
593.517	1796.73
593.876	1756.73
594.235	1763.51
594.593	1797.86
594.952	1781.14
595.311	1770.07
595.67	1776.17
596.029	1773.23
596.387	1769.61
596.746	1774.36
597.104	1768.03
597.463	1769.16
597.822	1789.73
598.18	1775.49
598.538	1782.5
598.897	1771.65
599.255	1782.5
599.613	1773
599.972	1780.24
600.33	1806.68
600.688	1745.43
601.046	1769.61
601.404	1764.87
601.762	1785.21
602.12	1801.7
602.478	1785.66
602.836	1786.79
603.194	1777.07
603.552	1779.11
603.91	1788.82
604.268	1783.17
604.625	1751.54
604.983	1773
605.341	1779.56
605.698	1772.33
606.056	1795.15
606.413	1795.15
606.771	1775.94
607.128	1781.14
607.485	1766
607.843	1789.95
608.2	1777.98
608.557	1806.22
608.914	1797.41
609.272	1810.97
609.629	1812.55
609.986	1804.42
610.343	1757.86
610.7	1800.57
611.057	1788.37
611.414	1774.36
611.771	1782.5
612.127	1779.33
612.484	1778.65
612.841	1794.47
613.198	1799.9
613.554	1774.59
613.911	1836.05
614.267	1810.07
614.624	1824.3
614.98	1802.61
615.337	1797.86
615.693	1783.17
616.05	1806.68
616.406	1800.8
616.762	1828.14
617.118	1809.39
617.475	1813.91
617.831	1822.27
618.187	1789.73
618.543	1786.56
618.899	1798.77
619.255	1849.84
619.611	1789.95
619.967	1809.84
620.323	1800.12
620.678	1841.25
621.034	1832.21
621.39	1787.24
621.746	1798.09
622.101	1817.3
622.457	1824.75
622.812	1817.52
623.168	1842.38
623.523	1812.1
623.879	1857.75
624.234	1828.6
624.589	1832.21
624.945	1869.95
625.3	1832.89
625.655	1827.92
626.01	1817.75
626.365	1842.61
626.72	1845.09
627.075	1844.64
627.43	1840.35
627.785	1860.23
628.14	1846.9
628.495	1831.31
628.85	1809.16
629.205	1835.83
629.559	1836.28
629.914	1841.03
630.269	1807.58
630.623	1829.27
630.978	1825.43
631.332	1816.62
631.687	1834.25
632.041	1828.14
632.396	1846.67
632.75	1844.64
633.104	1784.76
633.459	1841.25
633.813	1834.02
634.167	1840.35
634.521	1813.91
634.875	1835.83
635.229	1822.95
635.583	1828.6
635.937	1808.94
636.291	1831.53
636.645	1796.28
636.999	1798.77
637.352	1804.42
637.706	1828.14
638.06	1787.47
638.413	1816.39
638.767	1813.23
639.121	1838.77
639.474	1815.26
639.828	1842.83
640.181	1798.31
640.534	1816.17
640.888	1842.83
641.241	1808.03
641.594	1787.92
641.947	1824.75
642.301	1824.08
642.654	1830.18
643.007	1787.92
643.36	1789.73
643.713	1804.64
644.066	1865.43
644.419	1814.13
644.771	1817.75
645.124	1815.26
645.477	1800.12
645.83	1806.68
646.182	1781.14
646.535	1780.46
646.888	1784.76
647.24	1765.77
647.593	1801.03
647.945	1819.1
648.298	1817.97
648.65	1808.03
649.002	1801.93
649.355	1818.65
649.707	1781.37
650.059	1806.9
650.411	1823.17
650.763	1817.75
651.115	1830.63
651.467	1838.54
651.819	1852.1
652.171	1856.39
652.523	1825.21
652.875	1821.59
653.227	1832.89
653.578	1858.88
653.93	1846.67
654.282	1816.39
654.633	1852.1
654.985	1834.25
655.337	1859.78
655.688	1839.67
656.039	1867.47
656.391	1828.14
656.742	1839.67
657.094	1844.87
657.445	1852.32
657.796	1860.91
658.147	1885.77
658.498	1872.44
658.849	1847.13
659.2	1833.34
659.551	1838.77
659.902	1855.04
660.253	1881.02
660.604	1852.55
660.955	1866.79
661.306	1874.7
661.656	1856.17
662.007	1863.4
662.358	1852.32
662.708	1843.96
663.059	1882.15
663.409	1866.56
663.76	1871.98
664.11	1881.7
664.461	1880.35
664.811	1891.19
665.161	1854.81
665.511	1858.65
665.862	1881.48
666.212	1893.68
666.562	1890.97
666.912	1851.87
667.262	1888.71
667.612	1853.91
667.962	1890.52
668.312	1881.93
668.662	1863.17
669.011	1868.14
669.361	1841.93
669.711	1832.21
670.06	1848.93
670.41	1849.61
670.76	1868.37
671.109	1857.07
671.459	1857.75
671.808	1854.58
672.157	1863.85
672.507	1847.58
672.856	1828.6
673.205	1872.21
673.554	1865.21
673.904	1835.6
674.253	1847.58
674.602	1862.95
674.951	1828.82
675.3	1824.75
675.649	1867.01
675.998	1828.37
676.346	1838.99
676.695	1823.62
677.044	1814.13
677.393	1849.39
677.741	1832.21
678.09	1837.41
678.438	1797.64
678.787	1818.43
679.135	1836.96
679.484	1804.64
679.832	1790.86
680.181	1785.66
680.529	1814.59
680.877	1787.47
681.225	1794.47
681.573	1780.69
681.922	1767.13
682.27	1779.11
682.618	1755.15
682.966	1764.87
683.314	1800.35
683.661	1795.83
684.009	1761.25
684.357	1755.15
684.705	1762.16
685.053	1760.58
685.4	1766.9
685.748	1754.47
686.095	1757.64
686.443	1748.6
686.79	1749.73
687.138	1771.2
687.485	1755.15
687.832	1726.45
688.18	1757.86
688.527	1722.84
688.874	1721.03
689.221	1733.46
689.568	1709.5
689.915	1736.62
690.262	1718.77
690.609	1714.93
690.956	1686.9
691.303	1706.79
691.65	1705.44
691.997	1696.85
692.344	1674.48
692.69	1688.94
693.037	1657.98
693.383	1673.35
693.73	1667.7
694.077	1687.13
694.423	1676.28
694.769	1637.64
695.116	1664.08
695.462	1641.03
695.808	1636.96
696.155	1662.72
696.501	1629.05
696.847	1658.43
697.193	1648.71
697.539	1643.29
697.885	1639.67
698.231	1621.82
698.577	1610.07
698.923	1610.75
699.269	1620.47
699.614	1596.96
699.96	1589.96
700.306	1591.31
700.651	1601.03
700.997	1603.07
701.342	1589.28
701.688	1590.86
702.033	1590.41
702.379	1583.63
702.724	1577.53
703.069	1601.94
703.415	1543.41
703.76	1575.27
704.105	1556.96
704.45	1563.74
704.795	1559.45
705.14	1566
705.485	1555.61
705.83	1553.35
706.175	1573.69
706.52	1579.34
706.865	1583.4
707.209	1561.71
707.554	1572.56
707.899	1584.08
708.243	1555.83
708.588	1584.31
708.932	1542.95
709.277	1577.3
709.621	1559
709.966	1541.15
710.31	1551.99
710.654	1536.17
710.998	1514.71
711.342	1544.08
711.687	1540.24
712.031	1549.06
712.375	1547.7
712.719	1573.01
713.063	1548.6
713.407	1568.26
713.75	1530.07
714.094	1578.21
714.438	1532.11
714.782	1562.84
715.125	1562.16
715.469	1600.81
715.812	1554.93
716.156	1567.13
716.499	1532.78
716.843	1567.36
717.186	1568.04
717.53	1565.78
717.873	1577.98
718.216	1561.48
718.559	1565.1
718.902	1563.29
719.246	1581.6
719.589	1587.47
719.932	1585.66
720.275	1584.53
720.617	1574.37
720.96	1618.88
721.303	1595.61
721.646	1609.39
721.989	1596.06
722.331	1617.08
722.674	1601.26
723.016	1594.25
723.359	1614.36
723.701	1658.88
724.044	1651.43
724.386	1602.61
724.729	1649.84
725.071	1586.57
725.413	1629.28
725.755	1655.04
726.097	1645.55
726.439	1634.25
726.782	1645.1
727.124	1678.54
727.465	1678.54
727.807	1645.55
728.149	1677.41
728.491	1683.52
728.833	1687.58
729.175	1648.71
729.516	1693.46
729.858	1686.23
730.199	1709.05
730.541	1728.49
730.882	1702.72
731.224	1702.95
731.565	1717.41
731.906	1732.1
732.248	1736.62
732.589	1729.16
732.93	1751.99
733.271	1734.59
733.612	1751.31
733.953	1756.96
734.294	1774.59
734.635	1757.41
734.976	1795.83
735.317	1774.13
735.658	1780.69
735.999	1809.84
736.339	1814.81
736.68	1858.88
737.021	1837.41
737.361	1854.13
737.702	1885.54
738.042	1854.36
738.383	1888.26
738.723	1888.26
739.063	1917.63
739.404	1903.4
739.744	1925.32
740.084	1914.7
740.424	1931.87
740.764	1980.91
741.104	1984.3
741.444	2031.3
741.784	2019.33
742.124	2024.75
742.464	2068.36
742.804	2046.22
743.143	2060
743.483	2080.11
743.823	2111.75
744.162	2117.63
744.502	2119.44
744.841	2150.17
745.181	2169.6
745.52	2224.97
745.86	2236.27
746.199	2255.48
746.538	2229.72
746.877	2327.57
747.216	2322.37
747.556	2339.77
747.895	2412.76
748.234	2392.87
748.573	2448.47
748.911	2477.84
749.25	2474.23
749.589	2555.81
749.928	2561.46
750.267	2623.15
750.605	2696.14
750.944	2692.53
751.283	2738.18
751.621	2750.15
751.96	2770.72
752.298	2816.82
752.636	2899.98
752.975	2918.74
753.313	2978.85
753.651	3008
753.989	3052.07
754.327	3096.13
754.666	3163.02
755.004	3226.07
755.342	3308.78
755.679	3301.78
756.017	3387.43
756.355	3396.24
756.693	3437.82
757.031	3534.77
757.368	3567.99
757.706	3621.09
758.044	3704.25
758.381	3773.18
758.719	3813.63
759.056	3884.59
759.394	3922.33
759.731	4024.47
760.068	4015.66
760.405	4064.47
760.743	4173.39
761.08	4265.82
761.417	4270.79
761.754	4342.43
762.091	4409.55
762.428	4446.15
762.765	4486.15
763.102	4560.5
763.438	4611.57
763.775	4648.86
764.112	4709.65
764.449	4737.67
764.785	4880.49
765.122	4854.96
765.458	4916.65
765.795	4966.37
766.131	5068.96
766.467	5120.03
766.804	5084.33
767.14	5187.6
767.476	5188.73
767.812	5258.11
768.148	5324.55
768.485	5353.48
768.821	5395.51
769.157	5400.71
769.492	5436.41
769.828	5539.46
770.164	5545.33
770.5	5567.48
770.836	5645.67
771.171	5626.69
771.507	5727.48
771.842	5707.14
772.178	5743.07
772.513	5777.87
772.849	5775.38
773.184	5867.13
773.519	5868.26
773.855	5862.16
774.19	5916.85
774.525	5957.75
774.86	6005.89
775.195	6018.77
775.53	6033.01
775.865	6053.12
776.2	6039.33
776.535	6002.5
776.87	6112.33
777.205	6073.46
777.539	6126.56
777.874	6178.99
778.209	6144.19
778.543	6099.44
778.878	6155.04
779.212	6198.88
779.547	6182.38
779.881	6245.2
780.215	6204.3
780.55	6222.15
780.884	6221.93
781.218	6233.23
781.552	6248.14
781.886	6219.67
782.22	6264.86
782.554	6196.84
782.888	6250.63
783.222	6231.19
783.556	6234.36
783.889	6264.64
784.223	6259.44
784.557	6202.27
784.89	6313.45
785.224	6237.52
785.557	6220.8
785.891	6244.98
786.224	6223.73
786.558	6277.07
786.891	6237.07
787.224	6236.62
787.557	6263.06
787.891	6251.3
788.224	6250.17
788.557	6284.75
788.89	6273.22
789.223	6302.83
789.556	6204.3
789.888	6267.35
790.221	6274.58
790.554	6226.22
790.887	6197.52
791.219	6221.93
791.552	6240.23
791.884	6197.07
792.217	6276.61
792.549	6210.4
792.882	6190.29
793.214	6207.69
793.546	6247.91
793.879	6157.97
794.211	6170.18
794.543	6174.24
794.875	6212.89
795.207	6187.35
795.539	6176.73
795.871	6148.71
796.203	6149.39
796.535	6160.69
796.867	6149.61
797.198	6104.87
797.53	6056.73
797.862	6065.32
798.193	6094.7
798.525	6082.95
798.856	6099.44
799.188	6081.37
799.519	6053.34
799.85	6009.5
800.182	6004.53
800.513	6039.56
800.844	6025.32
801.175	6003.4
801.506	6029.84
801.837	5965.21
802.168	6001.14
802.499	5969.73
802.83	5958.66
803.161	5948.94
803.491	5980.13
803.822	5976.28
804.153	5915.04
804.483	5927.02
804.814	5890.18
805.145	5907.58
805.475	5873.24
805.805	5849.51
806.136	5861.48
806.466	5860.58
806.796	5853.35
807.126	5799.34
807.457	5761.83
807.787	5848.83
808.117	5785.78
808.447	5771.54
808.777	5822.16
809.107	5826.01
809.436	5798.89
809.766	5779.9
810.096	5790.07
810.426	5728.61
810.755	5699.45
811.085	5741.94
811.414	5687.25
811.744	5686.57
812.073	5743.07
812.403	5662.17
812.732	5669.62
813.061	5701.26
813.39	5652
813.719	5670.98
814.049	5665.33
814.378	5654.03
814.707	5620.13
815.036	5676.4
815.365	5593.24
815.693	5588.95
816.022	5597.31
816.351	5543.07
816.68	5568.16
817.008	5574.49
817.337	5541.04
817.665	5515.28
817.994	5601.83
818.322	5559.12
818.651	5498.1
818.979	5479.12
819.307	5527.48
819.636	5492.68
819.964	5486.8
820.292	5509.86
820.62	5471.89
820.948	5496.07
821.276	5517.54
821.604	5484.09
821.932	5523.87
822.259	5456.07
822.587	5501.72
822.915	5499.23
823.243	5505.11
823.57	5513.24
823.898	5555.28
824.225	5458.78
824.553	5503.53
824.88	5476.64
825.207	5510.76
825.535	5520.48
825.862	5539.46
826.189	5505.79
826.516	5569.29
826.843	5541.27
827.17	5529.97
827.497	5514.15
827.824	5550.31
828.151	5572.23
828.478	5551.66
828.805	5566.58
829.131	5535.17
829.458	5559.8
829.785	5482.96
830.111	5548.27
830.438	5603.86
830.764	5550.98
831.09	5548.95
831.417	5507.6
831.743	5591.21
832.069	5534.04
832.395	5515.05
832.722	5566.35
833.048	5518.22
833.374	5527.26
833.7	5510.53
834.026	5587.82
834.351	5591.66
834.677	5485.67
835.003	5566.58
835.329	5512.57
835.654	5488.84
835.98	5515.05
836.306	5449.07
836.631	5490.19
836.956	5494.71
837.282	5505.56
837.607	5443.42
837.932	5457.43
838.258	5452.91
838.583	5472.57
838.908	5432.8
839.233	5416.52
839.558	5419.46
839.883	5417.88
840.208	5447.71
840.533	5372.23
840.858	5414.04
841.182	5407.94
841.507	5423.98
841.832	5386.24
842.156	5343.31
842.481	5391.21
842.805	5375.4
843.13	5290.43
843.454	5313.7
843.778	5277.32
844.103	5291.33
844.427	5254.27
844.751	5282.06
845.075	5322.29
845.399	5232.35
845.723	5210.65
846.047	5228.73
846.371	5203.42
846.695	5203.42
847.019	5108.74
847.343	5152.12
847.666	5148.28
847.99	5137.44
848.313	5159.36
848.637	5059.25
848.96	5052.47
849.284	5047.72
849.607	5074.16
849.931	5021.51
850.254	4994.84
850.577	5011.34
850.9	4928.85
851.223	4947.84
851.546	4880.72
851.869	4866.71
852.192	4909.19
852.515	4850.89
852.838	4852.02
853.161	4812.25
853.483	4799.14
853.806	4789.65
854.129	4790.33
854.451	4817.44
854.774	4768.86
855.096	4733.83
855.419	4725.92
855.741	4724.11
856.063	4738.12
856.385	4666.26
856.708	4642.31
857.03	4653.83
857.352	4666.71
857.674	4610.22
857.996	4661.74
858.318	4595.75
858.64	4587.17
858.961	4589.2
859.283	4530.9
859.605	4527.96
859.926	4528.19
860.248	4558.47
860.57	4561.18
860.891	4518.47
861.212	4477.11
861.534	4494.74
861.855	4461.52
862.176	4456.55
862.498	4464.91
862.819	4466.04
863.14	4418.36
863.461	4457
863.782	4389.21
864.103	4412.48
864.424	4457.45
864.745	4424.46
865.065	4423.78
865.386	4400.05
865.707	4392.37
866.027	4393.5
866.348	4373.61
866.668	4379.26
866.989	4360.28
867.309	4286.61
867.63	4306.27
867.95	4351.02
868.27	4292.03
868.59	4357.12
868.91	4349.43
869.23	4313.5
869.55	4308.76
869.87	4315.08
870.19	4276.44
870.51	4290
870.83	4285.25
871.15	4303.79
871.469	4315.08
871.789	4306.04
872.109	4292.49
872.428	4211.58
872.748	4251.36
873.067	4221.98
873.386	4254.29
873.706	4182.21
874.025	4184.24
874.344	4163.45
874.663	4180.62
874.982	4151.7
875.301	4191.25
875.62	4163
875.939	4163.45
876.258	4189.21
876.577	4156.44
876.896	4182.21
877.214	4132.04
877.533	4142.21
877.852	4114.41
878.17	4144.47
878.489	4102.89
878.807	4123.9
879.125	4122.55
879.444	4099.95
879.762	4092.72
880.08	4084.58
880.398	4099.27
880.716	4086.39
881.034	4066.28
881.352	4071.02
881.67	4047.75
881.988	4038.03
882.306	4054.53
882.624	4010.01
882.941	4055.2
883.259	3964.13
883.577	4017.01
883.894	3955.55
884.212	3985.83
884.529	4012.95
884.846	3958.94
885.164	3935.66
885.481	3902.89
885.798	3991.03
886.115	3853.4
886.432	3915.77
886.75	3880.29
887.067	3871.71
887.383	3851.59
887.7	3906.51
888.017	3894.53
888.334	3849.33
888.651	3847.53
888.967	3799.62
889.284	3812.72
889.6	3799.17
889.917	3788.09
890.233	3768.21
890.55	3780.18
890.866	3810.92
891.182	3746.06
891.498	3762.78
891.815	3734.53
892.131	3677.36
892.447	3753.52
892.763	3720.75
893.079	3711.26
893.395	3705.16
893.71	3699.51
894.026	3650.92
894.342	3664.71
894.657	3588.78
894.973	3632.84
895.289	3638.94
895.604	3591.71
895.92	3549
896.235	3593.3
896.55	3569.79
896.865	3527.08
897.181	3535.67
897.496	3557.59
897.811	3546.52
898.126	3490.7
898.441	3509.46
898.756	3470.36
899.071	3485.28
899.386	3480.98
899.7	3444.82
900.015	3383.58
900.33	3422.9
900.644	3391.27
900.959	3386.97
901.273	3368.44
901.588	3346.97
901.902	3365.5
902.216	3313.08
902.531	3367.99
902.845	3324.6
903.159	3324.83
903.473	3276.69
903.787	3278.95
904.101	3276.24
904.415	3219.97
904.729	3252.06
905.042	3248.67
905.356	3244.6
905.67	3224.72
905.984	3219.07
906.297	3169.8
906.611	3184.04
906.924	3205.51
907.237	3156.02
907.551	3137.04
907.864	3109.47
908.177	3119.41
908.491	3146.3
908.804	3080.09
909.117	3074.21
909.43	3084.61
909.743	3065.17
910.056	3045.97
910.368	3028.34
910.681	3044.16
910.994	3030.82
911.307	3013.65
911.619	2960.32
911.932	2980.43
912.244	2979.3
912.557	2991.05
912.869	2953.09
913.181	2943.59
913.494	2910.38
913.806	2909.02
914.118	2892.97
914.43	2872.86
914.742	2863.15
915.054	2852.07
915.366	2846.42
915.678	2860.66
915.99	2839.42
916.302	2822.92
916.613	2822.69
916.925	2791.73
917.236	2820.66
917.548	2762.36
917.859	2776.82
918.171	2738.85
918.482	2756.03
918.794	2737.95
919.105	2742.7
919.416	2694.79
919.727	2723.04
920.038	2706.09
920.349	2666.09
920.66	2659.31
920.971	2662.25
921.282	2658.18
921.593	2633.09
921.903	2655.69
922.214	2615.47
922.525	2596.03
922.835	2632.87
923.146	2557.84
923.456	2585.86
923.767	2557.16
924.077	2565.07
924.387	2561.23
924.697	2545.64
925.008	2543.38
925.318	2523.04
925.628	2516.71
925.938	2475.81
926.248	2502.93
926.558	2478.3
926.867	2511.29
927.177	2455.47
927.487	2459.31
927.796	2436.26
928.106	2477.62
928.416	2431.29
928.725	2408.02
929.034	2407.11
929.344	2419.99
929.653	2389.49
929.962	2405.3
930.271	2424.74
930.581	2364.63
930.89	2367.56
931.199	2389.94
931.508	2360.11
931.817	2368.02
932.125	2337.06
932.434	2291.18
932.743	2324.85
933.051	2298.19
933.36	2305.19
933.669	2294.12
933.977	2269.49
934.286	2267.68
934.594	2241.92
934.902	2243.27
935.21	2210.73
935.519	2239.88
935.827	2222.94
936.135	2245.99
936.443	2231.98
936.751	2188.13
937.059	2197.85
937.367	2195.37
937.674	2196.95
937.982	2162.37
938.29	2162.37
938.597	2147.46
938.905	2166.89
939.213	2131.41
939.52	2110.17
939.827	2137.97
940.135	2123.5
940.442	2111.3
940.749	2103.39
941.056	2099.1
941.363	2076.73
941.67	2063.39
941.977	2081.47
942.284	2023.85
942.591	2040.79
942.898	2074.69
943.205	2048.7
943.511	2043.05
943.818	2035.6
944.125	2017.29
944.431	2046.9
944.738	2016.61
945.044	1976.61
945.35	1988.14
945.657	1991.98
945.963	1956.5
946.269	1960.12
946.575	1944.07
946.881	1953.34
947.187	1921.7
947.493	1892.78
947.799	1908.82
948.105	1918.99
948.41	1918.09
948.716	1907.92
949.022	1885.77
949.327	1905.66
949.633	1865.88
949.938	1883.96
950.244	1878.99
950.549	1857.07
950.854	1826.79
951.16	1850.74
951.465	1818.43
951.77	1860.91
952.075	1813.91
952.38	1816.84
952.685	1806.9
952.99	1807.13
953.294	1781.82
953.599	1765.55
953.904	1780.46
954.209	1763.51
954.513	1747.24
954.818	1754.25
955.122	1733.01
955.426	1738.43
955.731	1738.65
956.035	1717.41
956.339	1734.81
956.643	1725.32
956.948	1694.59
957.252	1720.12
957.556	1688.03
957.86	1698.88
958.163	1692.1
958.467	1677.19
958.771	1679.9
959.075	1642.39
959.378	1673.12
959.682	1635.83
959.985	1688.03
960.289	1662.27
960.592	1642.61
960.896	1657.75
961.199	1603.52
961.502	1619.56
961.805	1629.28
962.108	1603.07
962.411	1604.42
962.714	1564.2
963.017	1593.8
963.32	1597.19
963.623	1562.39
963.926	1551.99
964.228	1579.56
964.531	1554.7
964.833	1575.27
965.136	1542.73
965.438	1545.89
965.741	1520.13
966.043	1541.82
966.345	1542.5
966.648	1536.4
966.95	1500.7
967.252	1480.36
967.554	1520.58
967.856	1506.12
968.158	1503.41
968.46	1492.11
968.761	1502.5
969.063	1487.36
969.365	1448.72
969.666	1449.4
969.968	1485.78
970.269	1447.82
970.571	1439
970.872	1442.84
971.174	1440.13
971.475	1440.81
971.776	1418.21
972.077	1409.17
972.378	1413.47
972.679	1408.95
972.98	1394.71
973.281	1425.22
973.582	1398.55
973.883	1403.75
974.183	1368.27
974.484	1347.03
974.785	1375.95
975.085	1358.78
975.386	1379.12
975.686	1341.38
975.986	1363.75
976.287	1354.94
976.587	1340.47
976.887	1338.44
977.187	1339.8
977.487	1349.29
977.787	1341.6
978.087	1333.47
978.387	1321.49
978.687	1330.08
978.987	1300.7
979.286	1291.66
979.586	1309.51
979.885	1292.79
980.185	1250.31
980.484	1283.75
980.784	1262.51
981.083	1261.61
981.382	1293.92
981.682	1240.36
981.981	1253.02
982.28	1226.13
982.579	1263.87
982.878	1246.92
983.177	1245.33
983.475	1241.72
983.774	1233.81
984.073	1244.66
984.372	1189.74
984.67	1210.99
984.969	1193.13
985.267	1180.93
985.566	1206.69
985.864	1183.42
986.162	1196.3
986.461	1200.82
986.759	1159.24
987.057	1159.91
987.355	1163.08
987.653	1167.6
987.951	1170.99
988.249	1156.75
988.547	1158.11
988.844	1137.31
989.142	1134.15
989.44	1156.07
989.737	1149.29
990.035	1135.05
990.332	1140.03
990.63	1128.05
990.927	1121.95
991.224	1119.01
991.521	1115.17
991.819	1106.36
992.116	1116.75
992.413	1092.34
992.71	1087.6
993.006	1106.13
993.303	1083.76
993.6	1079.24
993.897	1076.98
994.193	1075.17
994.49	1044.89
994.787	1057.32
995.083	1070.88
995.379	1062.06
995.676	1065
995.972	1021.84
996.268	1044.44
996.565	1042.4
996.861	1019.13
997.157	1027.94
997.453	1036.98
997.749	1011.44
998.044	1026.81
998.34	993.36
998.636	1010.31
998.932	993.82
999.227	989.3
999.523	988.39
999.818	972.8
1000.114	959.92
1000.409	979.8
1000.704	971.44
1001	979.13
1001.295	973.93
1001.59	974.38
1001.885	983.19
1002.18	933.03
1002.475	941.84
1002.77	947.49
1003.065	920.82
1003.359	937.55
1003.654	944.1
1003.949	929.86
1004.243	932.57
1004.538	933.25
1004.832	912.46
1005.127	932.8
1005.421	924.44
1005.715	919.47
1006.009	937.77
1006.304	888.96
1006.598	884.67
1006.892	889.19
1007.186	884.21
1007.48	928.28
1007.773	875.63
1008.067	839.7
1008.361	880.15
1008.655	872.69
1008.948	863.42
1009.242	880.6
1009.535	862.07
1009.829	865.91
1010.122	840.15
1010.415	835.4
1010.708	822.75
1011.001	834.95
1011.295	827.04
1011.588	839.7
1011.881	830.66
1012.173	826.59
1012.466	834.5
1012.759	788.17
1013.052	814.61
1013.344	807.61
1013.637	797.21
1013.93	813.03
1014.222	798.34
1014.514	792.24
1014.807	768.28
1015.099	775.06
1015.391	781.39
1015.683	781.17
1015.976	775.06
1016.268	756.53
1016.56	768.28
1016.851	759.02
1017.143	753.37
1017.435	745.69
1017.727	753.82
1018.018	749.75
1018.31	748.4
1018.602	715.18
1018.893	723.99
1019.185	747.27
1019.476	717.21
1019.767	722.64
1020.058	734.61
1020.35	713.6
1020.641	722.64
1020.932	723.31
1021.223	716.08
1021.514	688.29
1021.804	717.89
1022.095	687.84
1022.386	703.43
1022.677	697.1
1022.967	700.94
1023.258	707.27
1023.548	688.51
1023.839	676.76
1024.129	701.39
1024.419	678.12
1024.709	673.15
1025	667.95
1025.29	672.24
1025.58	672.47
1025.87	667.04
1026.16	662.75
1026.449	666.37
1026.739	652.81
1027.029	643.32
1027.319	651.45
1027.608	631.79
1027.898	643.77
1028.187	651
1028.477	639.47
1028.766	624.11
1029.055	648.29
1029.344	632.47
1029.634	600.61
1029.923	613.03
1030.212	632.24
1030.501	601.74
1030.79	603.09
1031.078	617.1
1031.367	625.69
1031.656	605.8
1031.945	612.36
1032.233	582.3
1032.522	597.67
1032.81	592.02
1033.099	594.73
1033.387	582.75
1033.675	597.22
1033.963	557.67
1034.251	580.49
1034.54	569.19
1034.828	574.17
1035.116	574.39
1035.403	581.85
1035.691	554.96
1035.979	599.48
1036.267	576.43
1036.554	551.34
1036.842	547.73
1037.129	551.57
1037.417	564.45
1037.704	556.99
1037.992	541.62
1038.279	551.79
1038.566	545.69
1038.853	545.69
1039.14	545.69
