Data from blue_shiny_book_FLMS001491_00029.txt Node
Date: Wed Feb 08 15:26:45 GMT 2017
User: dcchb
Spectrometer: FLMS00149
Trigger mode: 0
Integration Time (sec): 2.000000E-2
Scans to average: 10
Electric dark correction enabled: true
Nonlinearity correction enabled: false
Boxcar width: 0
XAxis mode: Wavelengths
Number of Pixels in Spectrum: 2048
>>>>>Begin Spectral Data<<<<<
341.393	-30.97
341.776	-30.97
342.16	-30.97
342.543	-72.55
342.927	-71.88
343.31	-61.93
343.693	-81.82
344.077	-49.73
344.46	-55.15
344.843	-67.81
345.226	-35.72
345.61	-36.85
345.993	-23.29
346.376	-12.44
346.759	-3.86
347.142	42.24
347.525	34.56
347.908	67.55
348.291	85.41
348.674	95.12
349.057	103.71
349.44	119.08
349.823	143.94
350.206	169.92
350.588	198.17
350.971	216.25
351.354	223.03
351.737	245.4
352.119	275.23
352.502	266.42
352.884	290.83
353.267	293.09
353.65	319.3
354.032	308.23
354.414	288.34
354.797	327.21
355.179	331.05
355.562	335.12
355.944	320.66
356.326	343.25
356.709	341.22
357.091	359.07
357.473	349.13
357.855	356.13
358.238	352.74
358.62	325.85
359.002	341.9
359.384	356.36
359.766	365.63
360.148	343.93
360.53	356.59
360.912	340.54
361.294	348
361.676	343.93
362.057	350.03
362.439	371.95
362.821	346.64
363.203	350.71
363.584	345.74
363.966	338.96
364.348	342.58
364.729	344.61
365.111	326.3
365.493	339.64
365.874	338.73
366.256	331.95
366.637	322.01
367.019	356.13
367.4	339.41
367.781	322.01
368.163	340.54
368.544	345.74
368.925	348
369.306	345.29
369.688	316.59
370.069	343.71
370.45	322.01
370.831	342.8
371.212	316.14
371.593	353.87
371.974	348.68
372.355	334.21
372.736	353.2
373.117	364.27
373.498	347.32
373.879	343.93
374.26	366.76
374.641	353.42
375.021	343.71
375.402	366.08
375.783	356.13
376.163	379.86
376.544	368.79
376.925	358.62
377.305	376.47
377.686	382.8
378.066	371.5
378.447	386.87
378.827	366.53
379.208	383.48
379.588	387.55
379.968	381.9
380.349	375.8
380.729	399.75
381.109	399.52
381.489	387.77
381.87	396.13
382.25	414.44
382.63	414.44
383.01	404.5
383.39	400.43
383.77	421.67
384.15	419.18
384.53	428.22
384.91	432.74
385.29	418.96
385.67	444.27
386.049	412.4
386.429	470.48
386.809	468.45
387.189	444.04
387.568	466.41
387.948	471.84
388.328	460.31
388.707	459.86
389.087	467.09
389.466	469.35
389.846	485.85
390.225	472.06
390.605	488.79
390.984	494.66
391.363	500.76
391.743	513.19
392.122	515
392.501	517.03
392.881	506.64
393.26	511.61
393.639	523.36
394.018	518.39
394.397	516.36
394.776	531.27
395.155	555.45
395.534	558.39
395.913	559.29
396.292	570.37
396.671	564.26
397.05	602
397.429	602
397.808	600.42
398.186	600.65
398.565	594.55
398.944	608.56
399.323	605.17
399.701	604.26
400.08	619.86
400.458	614.88
400.837	598.61
401.215	636.81
401.594	638.61
401.972	659.63
402.351	662.34
402.729	656.24
403.107	669.35
403.486	687.2
403.864	697.14
404.242	700.31
404.62	713.41
404.999	720.19
405.377	721.77
405.755	731.04
406.133	748.67
406.511	754.09
406.889	765.62
407.267	774.43
407.645	787.54
408.023	785.5
408.401	819.63
408.779	823.47
409.156	831.15
409.534	844.71
409.912	828.44
410.29	881.54
410.667	899.85
411.045	879.74
411.422	916.57
411.8	933.52
412.178	927.87
412.555	945.05
412.933	948.44
413.31	949.34
413.687	987.53
414.065	984.14
414.442	998.6
414.819	1006.51
415.197	1014.2
415.574	1048.32
415.951	1032.05
416.328	1067.75
416.705	1089
417.082	1096.91
417.46	1125.61
417.837	1124.02
418.214	1099.39
418.591	1107.3
418.967	1117.47
419.344	1166.96
419.721	1163.8
420.098	1177.36
420.475	1223.46
420.852	1211.48
421.228	1244.02
421.605	1254.19
421.982	1285.15
422.358	1294.19
422.735	1312.27
423.111	1304.13
423.488	1319.73
423.864	1323.57
424.241	1340.52
424.617	1350.01
424.994	1395.88
425.37	1398.82
425.746	1409.44
426.123	1447.63
426.499	1446.73
426.875	1433.17
427.251	1495.99
427.627	1516.78
428.003	1543.67
428.379	1566.95
428.756	1572.6
429.132	1604.01
429.507	1600.4
429.883	1665.7
430.259	1657.12
430.635	1688.3
431.011	1729.66
431.387	1739.83
431.763	1808.75
432.138	1777.79
432.514	1825.47
432.89	1831.12
433.265	1869.54
433.641	1879.48
434.016	1893.27
434.392	1947.96
434.767	2008.75
435.143	2018.92
435.518	2012.81
435.894	2072.47
436.269	2101.17
436.644	2134.39
437.02	2130.1
437.395	2164.45
437.77	2199.93
438.145	2194.5
438.52	2247.61
438.895	2248.97
439.271	2291.45
439.646	2317.89
440.021	2380.49
440.395	2389.53
440.77	2392.69
441.145	2414.84
441.52	2439.92
441.895	2481.73
442.27	2493.48
442.645	2491.22
443.019	2506.81
443.394	2525.34
443.769	2539.13
444.143	2516.3
444.518	2581.39
444.892	2622.06
445.267	2653.02
445.641	2697.54
446.016	2704.77
446.39	2719.01
446.764	2739.57
447.139	2754.72
447.513	2788.16
447.887	2735.73
448.262	2808.27
448.636	2789.74
449.01	2857.31
449.384	2905.9
449.758	2899.34
450.132	2961.49
450.506	2999
450.88	3023.64
451.254	3013.24
451.628	3082.39
452.002	3131.88
452.376	3142.73
452.75	3188.83
453.123	3201.26
453.497	3226.57
453.871	3286
454.244	3330.75
454.618	3333.91
454.992	3450.97
455.365	3401.93
455.739	3551.3
456.112	3559.67
456.486	3600.8
456.859	3644.64
457.232	3766.89
457.606	3744.75
457.979	3793.78
458.352	3890.51
458.725	3864.97
459.099	3924.18
459.472	3979.99
459.845	4044.17
460.218	4056.83
460.591	4144.96
460.964	4176.15
461.337	4302.25
461.71	4335.69
462.083	4430.38
462.456	4454.11
462.829	4492.52
463.201	4534.78
463.574	4558.06
463.947	4686.64
464.32	4788.11
464.692	4836.69
465.065	4839.18
465.438	4903.36
465.81	4996.46
466.183	4972.28
466.555	5129.79
466.928	5207.76
467.3	5234.2
467.672	5330.69
468.045	5426.74
468.417	5511.25
468.789	5494.76
469.161	5559.39
469.534	5645.71
469.906	5823.79
470.278	5757.57
470.65	5906.05
471.022	5958.93
471.394	6083.67
471.766	6166.38
472.138	6216.77
472.51	6391.23
472.882	6506.93
473.253	6606.82
473.625	6708.74
473.997	6841.84
474.369	6830.09
474.74	6964.1
475.112	7137.43
475.484	7250.87
475.855	7323.18
476.227	7376.97
476.598	7614.47
476.97	7644.3
477.341	7804.98
477.713	7999.78
478.084	8042.49
478.455	8308.47
478.827	8400.89
479.198	8606.09
479.569	8665.97
479.94	8864.16
480.311	8930.82
480.682	9181.67
481.053	9361.1
481.424	9494.65
481.795	9580.3
482.166	9754.08
482.537	9903.23
482.908	10158.14
483.279	10257.57
483.65	10417.11
484.021	10642.42
484.391	10645.81
484.762	10898.23
485.133	10932.13
485.503	11173.25
485.874	11403.98
486.244	11508.16
486.615	11683.97
486.985	11959.45
487.356	12123.28
487.726	12209.61
488.097	12474.91
488.467	12523.95
488.837	12784.06
489.207	12990.83
489.578	13144.05
489.948	13339.97
490.318	13545.39
490.688	13541.55
491.058	13874.42
491.428	14070.35
491.798	14180.63
492.168	14457.46
492.538	14566.16
492.908	14732.25
493.278	14928.18
493.648	14897
494.017	15143.32
494.387	15319.81
494.757	15466.02
495.126	15720.02
495.496	15819
495.866	15853.35
496.235	16034.37
496.605	16184.87
496.974	16280.01
497.344	16501.7
497.713	16632.09
498.082	16743.27
498.452	16917.73
498.821	17072.08
499.19	17130.38
499.559	17323.37
499.928	17294.22
500.298	17457.83
500.667	17700.99
501.036	17717.94
501.405	17977.37
501.774	18059.4
502.143	18162.22
502.512	18336.23
502.88	18420.97
503.249	18461.2
503.618	18780.51
503.987	18795.2
504.356	18826.61
504.724	18971.69
505.093	19140.5
505.462	19132.36
505.83	19325.13
506.199	19490.32
506.567	19687.15
506.936	19729.18
507.304	20012.57
507.672	20126.01
508.041	20283.75
508.409	20396.74
508.777	20552.21
509.145	20835.14
509.514	20881.7
509.882	21019.32
510.25	21044.18
510.618	21323.94
510.986	21357.39
511.354	21582.24
511.722	21811.16
512.09	21964.38
512.458	21836.25
512.826	22174.09
513.193	22163.24
513.561	22246.18
513.929	22471.03
514.297	22675.32
514.664	22929.1
515.032	23078.02
515.4	23260.39
515.767	23336.55
516.135	23523.21
516.502	23542.64
516.869	24018.56
517.237	24064.66
517.604	24042.97
517.972	24308.5
518.339	24523.63
518.706	24417.87
519.073	24733.57
519.44	24692.67
519.808	25052.66
520.175	25057.63
520.542	25431.41
520.909	25531.29
521.276	25459.88
521.643	25973.31
522.009	26071.39
522.376	26343.47
522.743	26596.12
523.11	26759.73
523.477	27093.96
523.843	27267.52
524.21	27594.51
524.577	27652.14
524.943	27867.95
525.31	27940.72
525.676	28203.31
526.043	28333.7
526.409	28433.59
526.776	28774.37
527.142	28852.11
527.508	29068.83
527.874	29234.47
528.241	29347.69
528.607	29474.47
528.973	29815.02
529.339	29891.86
529.705	30338.85
530.071	30603.7
530.437	30774.09
530.803	31089.56
531.169	31305.15
531.535	31200.97
531.901	31428.76
532.267	31565.48
532.632	31777.46
532.998	31953.04
533.364	32040.95
533.73	32113.94
534.095	32286.59
534.461	32288.4
534.826	32447.04
535.192	32675.51
535.557	32770.65
535.923	32807.94
536.288	32995.73
536.653	33162.5
537.019	33187.81
537.384	33381.03
537.749	33676.39
538.114	33820.34
538.479	34000.67
538.845	34202.7
539.21	34228.01
539.575	34257.16
539.94	34304.17
540.305	34672.75
540.67	34611.05
541.034	34654.67
541.399	34802.91
541.764	34737.6
542.129	34792.52
542.494	34958.61
542.858	35054.66
543.223	35008.33
543.587	35250.81
543.952	35328.32
544.316	35508.66
544.681	35595.21
545.045	35809.67
545.41	36116.1
545.774	36019.15
546.138	36307.28
546.503	36403.32
546.867	36447.84
547.231	36721.51
547.595	36837.44
547.959	36932.8
548.324	36959.69
548.688	37024.32
549.052	37136.64
549.416	36955.62
549.779	37024.32
550.143	37076.3
550.507	37359.91
550.871	37363.98
551.235	37312.45
551.599	37691.65
551.962	37627.47
552.326	37826.11
552.689	37961.25
553.053	37963.96
553.417	38141.58
553.78	38744.5
554.143	38554.23
554.507	38810.72
554.87	38980.66
555.234	39293.87
555.597	39272.17
555.96	39320.31
556.323	39544.93
556.686	39528.89
557.05	39626.29
557.413	39665.16
557.776	39598.72
558.139	39866.96
558.502	39794.65
558.865	39910.35
559.228	39974.08
559.59	40244.13
559.953	40239.15
560.316	40581.07
560.679	40665.13
561.041	40982.41
561.404	41187.38
561.767	41474.38
562.129	41444.09
562.492	41960.46
562.854	42084.76
563.217	41999.33
563.579	42348.48
563.941	42577.4
564.304	42643.38
564.666	42790.05
565.028	42774.68
565.39	42956.37
565.753	43109.36
566.115	43207.89
566.477	43178.51
566.839	43285.18
567.201	43342.35
567.563	43298.28
567.925	43521.55
568.287	43475.23
568.648	43646.3
569.01	43908.44
569.372	44041.77
569.734	44036.79
570.095	44382.1
570.457	44694.4
570.819	44773.5
571.18	44975.07
571.542	45177.56
571.903	45388.85
572.265	45539.81
572.626	45627.03
572.987	45756.97
573.349	45901.6
573.71	46001.94
574.071	46098.66
574.432	46122.61
574.794	46315.38
575.155	46189.96
575.516	45985.44
575.877	46201.03
576.238	46027.02
576.599	46071.77
576.96	46154.48
577.32	46210.3
577.681	46389.05
578.042	46507.46
578.403	46617.74
578.763	46595.14
579.124	46709.49
579.485	47019.09
579.845	47257.5
580.206	47232.64
580.566	47410.72
580.927	47429.7
581.287	47549.92
581.648	47473.54
582.008	47763.48
582.368	47621.11
582.728	47864.94
583.089	47786.53
583.449	47618.17
583.809	47628.79
584.169	47516.48
584.529	47419.08
584.889	47635.57
585.249	47392.64
585.609	47236.48
585.969	47389.7
586.329	47303.15
586.688	47364.39
587.048	47348.57
587.408	47362.13
587.768	47464.95
588.127	47470.83
588.487	47505.18
588.846	47776.58
589.206	47661.33
589.565	47754.44
589.925	47986.07
590.284	47855.45
590.643	48044.15
591.003	48227.19
591.362	48264.48
591.721	48141.09
592.08	48109.46
592.44	48090.02
592.799	48159.4
593.158	48117.82
593.517	48089.34
593.876	48054.99
594.235	47942.45
594.593	47959.18
594.952	48016.12
595.311	47864.49
595.67	47818.84
596.029	47952.62
596.387	48002.34
596.746	47962.57
597.104	47681.9
597.463	47854.55
597.822	48079.63
598.18	48082.79
598.538	48182.45
598.897	48360.75
599.255	48139.06
599.613	48749.44
599.972	48476.9
600.33	48671.47
600.688	48654.53
601.046	48763.9
601.404	48933.39
601.762	48807.52
602.12	48959.83
602.478	48848.19
602.836	48829.66
603.194	48719.61
603.552	48619.27
603.91	48351.71
604.268	48542.21
604.625	48408.43
604.983	48430.12
605.341	48198.27
605.698	48438.26
606.056	48614.53
606.413	48537.92
606.771	48597.8
607.128	48611.14
607.485	48485.49
607.843	48662.89
608.2	48862.66
608.557	49038.47
608.914	49085.93
609.272	49149.43
609.629	49275.07
609.986	49532.69
610.343	49332.47
610.7	49658.57
611.057	49562.52
611.414	49630.32
611.771	49801.16
612.127	49913.7
612.484	49845.91
612.841	49948.5
613.198	49692.01
613.554	49700.15
613.911	49841.16
614.267	49682.3
614.624	49674.84
614.98	49651.11
615.337	49875.96
615.693	49676.65
616.05	49583.31
616.406	49740.15
616.762	49682.07
617.118	49668.28
617.475	49569.76
617.831	49702.18
618.187	49853.82
618.543	49915.51
618.899	50164.77
619.255	50152.57
619.611	50192.11
619.967	50318.89
620.323	50375.84
620.678	50369.51
621.034	50472.33
621.39	50538.32
621.746	50361.6
622.101	50742.61
622.457	50514.59
622.812	50556.4
623.168	50602.05
623.523	50595.04
623.879	50672.78
624.234	50284.77
624.589	50357.76
624.945	50487.92
625.3	50414.71
625.655	50277.08
626.01	50188.04
626.365	50194.15
626.72	50062.85
627.075	50043.64
627.43	50082.51
627.785	49972.23
628.14	50017.43
628.495	50140.59
628.85	50097.2
629.205	49905.11
629.559	50103.53
629.914	50091.55
630.269	50175.84
630.623	50217.65
630.978	50126.35
631.332	50352.79
631.687	50504.42
632.041	50312.11
632.396	50533.12
632.75	50318.44
633.104	50311.88
633.459	50327.25
633.813	50274.82
634.167	50127.71
634.521	50036.86
634.875	50095.84
635.229	49928.84
635.583	49799.35
635.937	49786.93
636.291	49696.31
636.645	49601.39
636.999	49505.58
637.352	49514.39
637.706	49280.05
638.06	49335.86
638.413	49264.68
638.767	48993.27
639.121	49064.46
639.474	48781.98
639.828	48789.44
640.181	48920.51
640.534	49039.15
640.888	48949.21
641.241	48847.52
641.594	48880.51
641.947	49180.16
642.301	49129.99
642.654	49222.87
643.007	49245.02
643.36	49124.12
643.713	49117.79
644.066	49307.62
644.419	49154.63
644.771	49099.71
645.124	48942.88
645.477	49082.31
645.83	48734.07
646.182	48240.98
646.535	48029.46
646.888	47695.91
647.24	47387.89
647.593	47480.09
647.945	47209.14
648.298	46959.88
648.65	46969.15
649.002	46878.3
649.355	47011.86
649.707	47047.11
650.059	47322.81
650.411	47799.41
650.763	47724.38
651.115	48109.68
651.467	47930.93
651.819	47870.82
652.171	47870.37
652.523	47858.39
652.875	47890.93
653.227	47848.45
653.578	48134.54
653.93	48179.28
654.282	48052.51
654.633	47849.35
654.985	48072.39
655.337	48137.48
655.688	47970.48
656.039	48226.29
656.391	47906.07
656.742	47935.67
657.094	48047.76
657.445	48007.31
657.796	48026.75
658.147	47917.37
658.498	48027.2
658.849	47931.15
659.2	47835.34
659.551	47664.95
659.902	47782.23
660.253	47653.42
660.604	47584.27
660.955	47373.2
661.306	47405.97
661.656	47394.22
662.007	47381.79
662.358	47212.53
662.708	47162.59
663.059	47370.27
663.409	47026.32
663.76	47337.05
664.11	47217.05
664.461	47132.08
664.811	47230.16
665.161	47241.46
665.511	47141.8
665.862	47461.34
666.212	47594.44
666.562	47516.93
666.912	47599.19
667.262	47621.78
667.612	47601.45
667.962	47721.22
668.312	47765.06
668.662	47890.93
669.011	47767.77
669.361	47789.92
669.711	47728.22
670.06	47591.28
670.41	47530.94
670.76	47282.36
671.109	47467.89
671.459	47269.93
671.808	47196.71
672.157	47264.05
672.507	46960.11
672.856	46888.92
673.205	47006.66
673.554	47115.13
673.904	46714.46
674.253	46845.53
674.602	46692.77
674.951	46048.04
675.3	45855.73
675.649	46430.63
675.998	46291.42
676.346	46392.89
676.695	46526.9
677.044	46287.81
677.393	46471.76
677.741	46461.59
678.09	46374.59
678.438	46369.39
678.787	46450.97
679.135	46526.67
679.484	46400.12
679.832	46568.48
680.181	46352.21
680.529	46575.26
680.877	46476.96
681.225	46556.73
681.573	46544.07
681.922	46329.62
682.27	46227.92
682.618	46301.14
682.966	46262.05
683.314	46248.94
683.661	46021.37
684.009	45792.23
684.357	45613.48
684.705	45351.79
685.053	45321.73
685.4	45322.18
685.748	45091.91
686.095	44915.42
686.443	44838.13
686.79	44696.21
687.138	44643.11
687.485	44700.96
687.832	44429.78
688.18	44462.09
688.527	44050.35
688.874	44032.73
689.221	43962.9
689.568	43809.68
689.915	43798.16
690.262	43860.98
690.609	43769.68
690.956	43800.87
691.303	43715.67
691.65	43549.12
691.997	43624.83
692.344	43422.12
692.69	43530.37
693.037	43579.86
693.383	43302.58
693.73	43515
694.077	43170.15
694.423	43218.28
694.769	43070.04
695.116	43040.66
695.462	42863.04
695.808	42752.31
696.155	42903.72
696.501	42530.84
696.847	42430.06
697.193	42127.24
697.539	42293.79
697.885	41926.57
698.231	41786.46
698.577	41644.77
698.923	41453.36
699.269	41258.34
699.614	41004.56
699.96	40876.65
700.306	40971.11
700.651	40555.3
700.997	40255.65
701.342	40311.02
701.688	40212.71
702.033	39918.03
702.379	39953.74
702.724	39929.78
703.069	40015.43
703.415	39672.39
703.76	39694.99
704.105	39693.63
704.45	39454.99
704.795	39513.3
705.14	39314.66
705.485	39374.54
705.83	39133.65
706.175	39423.36
706.52	39367.31
706.865	39148.34
707.209	39201.22
707.554	39081.22
707.899	39301.55
708.243	39049.13
708.588	39070.82
708.932	38821.11
709.277	38646.88
709.621	38860.21
709.966	38507
710.31	38481.01
710.654	38248.47
710.998	38220.9
711.342	38368.24
711.687	38291.63
712.031	37970.74
712.375	37623.18
712.719	37645.55
713.063	37440.58
713.407	37556.74
713.75	37249.18
714.094	37035.62
714.438	37039.01
714.782	37087.37
715.125	36807.38
715.469	36757.21
715.812	36483.55
716.156	36236.55
716.499	36274.06
716.843	36312.93
717.186	36066.61
717.53	36156.1
717.873	36281.74
718.216	36224.57
718.559	36141.63
718.902	35974.18
719.246	36232.25
719.589	36214.63
719.932	36095.31
720.275	36262.08
720.617	36101.86
720.96	36033.16
721.303	36056.21
721.646	36072.03
721.989	36048.3
722.331	36211.24
722.674	36068.87
723.016	36160.39
723.359	36039.94
723.701	36114.06
724.044	35936.44
724.386	35720.18
724.729	35848.76
725.071	35741.64
725.413	35728.09
725.755	35726.5
726.097	35616.9
726.439	35236.57
726.782	35325.84
727.124	35176.46
727.465	34895.57
727.807	34922.68
728.149	34664.84
728.491	34455.13
728.833	34545.07
729.175	34607.66
729.516	34348.46
729.858	34472.07
730.199	34349.59
730.541	34437.72
730.882	34333.32
731.224	34372.64
731.565	34148.69
731.906	34171.29
732.248	34336.48
732.589	33962.26
732.93	34182.59
733.271	34167.68
733.612	34366.77
733.953	34268.46
734.294	34169.48
734.635	34223.72
734.976	34406.31
735.317	34268.69
735.658	34460.77
735.999	34296.03
736.339	34508.46
736.68	34601.56
737.021	34618.96
737.361	34479.53
737.702	34572.86
738.042	34417.61
738.383	34344.62
738.723	34525.86
739.063	34407.67
739.404	34489.02
739.744	34392.53
740.084	34258.97
740.424	34337.39
740.764	34336.71
741.104	34218.52
741.444	34018.75
741.784	33903.05
742.124	33923.61
742.464	33854.24
742.804	33734.69
743.143	33689.95
743.483	33693.34
743.823	33485.66
744.162	33458.54
744.502	33599.55
744.841	33375.15
745.181	33462.61
745.52	33387.13
745.86	33463.96
746.199	33472.78
746.538	33396.4
746.877	33571.08
747.216	33545.54
747.556	33371.54
747.895	33449.05
748.234	33367.24
748.573	33476.62
748.911	33564.53
749.25	33591.87
749.589	33560.69
749.928	33716.84
750.267	33741.92
750.605	33556.39
750.944	33664.86
751.283	33489.05
751.621	33917.51
751.96	33743.28
752.298	33910.51
752.636	34012.88
752.975	33890.85
753.313	33859.89
753.651	33988.7
753.989	33942.14
754.327	33881.81
754.666	33846.1
755.004	34008.81
755.342	33911.18
755.679	33958.42
756.017	33712.55
756.355	33827.35
756.693	33752.09
757.031	33861.47
757.368	33604.75
757.706	33644.07
758.044	33491.08
758.381	33498.54
758.719	33259.68
759.056	33415.83
759.394	33162.5
759.731	33030.53
760.068	32985.11
760.405	32813.59
760.743	32888.84
761.08	32969.06
761.417	32793.7
761.754	32842.51
762.091	32719.13
762.428	32690.65
762.765	32576.08
763.102	32729.52
763.438	32608.85
763.775	32528.4
764.112	32595.74
764.449	32645.91
764.785	32466.48
765.122	32288.18
765.458	32283.43
765.795	32337.44
766.131	32401.85
766.467	32420.83
766.804	32318.23
767.14	32228.52
767.476	32385.8
767.812	32317.1
768.148	32407.27
768.485	32342.64
768.821	32044.57
769.157	32022.19
769.492	31878.24
769.828	31963.67
770.164	31759.15
770.5	31707.85
770.836	31598.93
771.171	31426.5
771.507	31564.58
771.842	31377.47
772.178	31458.37
772.513	31482.1
772.849	31279.84
773.184	30898.61
773.519	30945.16
773.855	30682.79
774.19	30695.68
774.525	30641.89
774.86	30683.02
775.195	30516.25
775.53	30294.78
775.865	30133.43
776.2	30079.87
776.535	29883.72
776.87	29813.44
777.205	29637.85
777.539	29602.6
777.874	29514.46
778.209	29312.44
778.543	29085.55
778.878	28965.33
779.212	28918.77
779.547	28760.36
779.881	28967.36
780.215	28544.55
780.55	28815.05
780.884	28560.36
781.218	28561.27
781.552	28486.24
781.886	28390.88
782.22	28184.1
782.554	28143.65
782.888	28039.25
783.222	28065.01
783.556	27794.96
783.889	27918.35
784.223	27715.19
784.557	27743.66
784.89	27722.42
785.224	27571.69
785.557	27582.76
785.891	27524.01
786.224	27430.45
786.558	27337.8
786.891	27227.74
787.224	27063.23
787.557	27010.12
787.891	27030.01
788.224	26937.58
788.557	27087.41
788.89	26801.99
789.223	26765.61
789.556	26593.18
789.888	26413.98
790.221	26398.61
790.554	26178.28
790.887	26186.87
791.219	26047.66
791.552	25993.65
791.884	25705.98
792.217	25621.91
792.549	25516.6
792.882	25441.8
793.214	25367.23
793.546	25271.64
793.879	25133.11
794.211	24986.45
794.543	25018.99
794.875	24940.57
795.207	24823.74
795.539	24611.09
795.871	24583.52
796.203	24342.4
796.535	24346.92
796.867	24185.11
797.198	24219.01
797.53	24209.29
797.862	24167.26
798.193	24127.71
798.525	24040.03
798.856	24040.48
799.188	23887.49
799.519	23759.59
799.85	23606.6
800.182	23669.42
800.513	23614.28
800.844	23604.56
801.175	23666.03
801.506	23516.66
801.837	23591.46
802.168	23576.54
802.499	23450.89
802.83	23279.37
803.161	23186.49
803.491	23286.83
803.822	23225.59
804.153	23075.54
804.483	22927.07
804.814	22869.89
805.145	22957.12
805.475	22971.81
805.805	22844.13
806.136	22892.94
806.466	22920.51
806.796	22759.61
807.126	22576.34
807.457	22634.42
807.787	22586.06
808.117	22537.7
808.447	22441.88
808.777	22402.33
809.107	22272.17
809.436	22104.49
809.766	22084.38
810.096	21989.46
810.426	21966.64
810.755	21804.38
811.085	21744.27
811.414	21654.11
811.744	21506.99
812.073	21478.97
812.403	21484.39
812.732	21323.94
813.061	21277.39
813.39	21100.67
813.719	21071.07
814.049	21124.63
814.378	20990.62
814.707	20912.2
815.036	20796.05
815.365	20869.04
815.693	20661.82
816.022	20663.85
816.351	20658.88
816.68	20474.93
817.008	20622.72
817.337	20427.92
817.665	20466.57
817.994	20494.36
818.322	20405.78
818.651	20266.57
818.979	20229.28
819.307	20480.13
819.636	20271.09
819.964	20208.49
820.292	20341.37
820.62	20269.06
820.948	20227.7
821.276	20337.3
821.604	20316.29
821.932	20360.58
822.259	20304.76
822.587	20255.95
822.915	20320.13
823.243	20357.42
823.57	20359.9
823.898	20343.41
824.225	20225.22
824.553	20292.11
824.88	20294.59
825.207	20478.32
825.535	20331.88
825.862	20412.56
826.189	20259.79
826.516	20475.83
826.843	20517.19
827.17	20406.91
827.497	20366.68
827.824	20356.96
828.151	20366.91
828.478	20354.03
828.805	20375.5
829.131	20218.89
829.458	20160.13
829.785	20115.16
830.111	20105.67
830.438	20201.49
830.764	20194.48
831.09	20040.14
831.417	19944.32
831.743	20034.94
832.069	19988.84
832.395	19902.97
832.722	19880.37
833.048	19833.36
833.374	19870.2
833.7	19707.49
834.026	19740.03
834.351	19834.49
834.677	19748.17
835.003	19758.11
835.329	19745.46
835.654	19582.52
835.98	19502.98
836.306	19533.94
836.631	19529.19
836.956	19580.71
837.282	19480.6
837.607	19470.21
837.932	19433.15
838.258	19427.95
838.583	19323.55
838.908	19397.22
839.233	19355.86
839.558	19405.13
839.883	19343.88
840.208	19287.84
840.533	19310.21
840.858	19425.01
841.182	19477.44
841.507	19427.5
841.832	19203.32
842.156	19209.2
842.481	19249.42
842.805	19147.51
843.13	19155.19
843.454	19085.36
843.778	19082.65
844.103	19079.94
844.427	19041.52
844.751	19014.18
845.075	18932.82
845.399	18911.58
845.723	18825.25
846.047	18837.46
846.371	18645.37
846.695	18688.31
847.019	18500.52
847.343	18481.76
847.666	18351.82
847.99	18277.02
848.313	18373.29
848.637	18091.26
848.96	18054.2
849.284	17959.29
849.607	17922.9
849.931	17858.5
850.254	17658.28
850.577	17523.82
850.9	17330.6
851.223	17362.24
851.546	17297.38
851.869	17087.45
852.192	17221.23
852.515	17056.26
852.838	16868.47
853.161	16835.48
853.483	16686.33
853.806	16698.98
854.129	16696.5
854.451	16669.6
854.774	16554.58
855.096	16429.84
855.419	16413.34
855.741	16290.18
856.063	16233.91
856.385	16212.21
856.708	16190.29
857.03	16103.29
857.352	16153.01
857.674	16084.31
857.996	16058.09
858.318	15985.33
858.64	16046.34
858.961	15936.52
859.283	15899.45
859.605	15874.82
859.926	15977.87
860.248	15938.1
860.57	15869.4
860.891	15823.07
861.212	15813.36
861.534	15823.07
861.855	15703.08
862.176	15740.36
862.498	15794.15
862.819	15767.93
863.14	15681.38
863.461	15672.12
863.782	15625.11
864.103	15619.69
864.424	15616.52
864.745	15707.14
865.065	15556.41
865.386	15517.54
865.707	15577.66
866.027	15518
866.348	15497.21
866.668	15439.58
866.989	15350.54
867.309	15205.46
867.63	15236.42
867.95	15212.24
868.27	15207.04
868.59	15152.58
868.91	15110.1
869.23	15068.52
869.55	15045.24
869.87	15044.11
870.19	15043.21
870.51	15085.01
870.83	14978.8
871.15	14855.64
871.469	14843.21
871.789	14812.7
872.109	14764.12
872.428	14623.1
872.748	14607.06
873.067	14669.66
873.386	14643.44
873.706	14570.45
874.025	14410
874.344	14490.9
874.663	14478.25
874.982	14393.96
875.301	14404.58
875.62	14307.86
875.939	14274.19
876.258	14360.29
876.577	14237.35
876.896	14281.87
877.214	14239.84
877.533	14247.07
877.852	14146.96
878.17	14184.7
878.489	14148.99
878.807	14263.57
879.125	14120.29
879.444	14184.7
879.762	14050.92
880.08	14107.86
880.398	14042.78
880.716	14073.06
881.034	13992.39
881.352	13950.81
881.67	13958.26
881.988	13981.99
882.306	13899.06
882.624	13866.06
882.941	13938.38
883.259	13899.06
883.577	13951.94
883.894	13828.55
884.212	13883.01
884.529	13956.23
884.846	13903.8
885.164	13837.14
885.481	13861.99
885.798	13891.37
886.115	13796.69
886.432	13829.9
886.75	13639.85
887.067	13755.1
887.383	13697.03
887.7	13696.12
888.017	13656.58
888.334	13574.77
888.651	13527.54
888.967	13482.8
889.284	13421.1
889.6	13400.99
889.917	13238.96
890.233	13256.36
890.55	13230.6
890.866	13276.7
891.182	13158.51
891.498	13050.04
891.815	13024.28
892.131	12974.11
892.447	12942.92
892.763	12883.26
893.079	12821.8
893.395	12706.32
893.71	12680.78
894.026	12658.41
894.342	12711.74
894.657	12618.86
894.973	12474.91
895.289	12485.08
895.604	12390.85
895.92	12342.26
896.235	12194.24
896.55	12264.3
896.865	12196.73
897.181	12135.26
897.496	12079.44
897.811	12082.38
898.126	11975.26
898.441	11979.78
898.756	11887.58
899.071	11889.16
899.386	11927.58
899.7	11905.89
900.015	11819.11
900.33	11719.45
900.644	11696.63
900.959	11716.29
901.273	11675.84
901.588	11588.16
901.902	11509.06
902.216	11596.07
902.531	11589.29
902.845	11588.83
903.159	11471.77
903.473	11465.22
903.787	11437.65
904.101	11318.56
904.415	11349.07
904.729	11359.46
905.042	11213.93
905.356	11207.37
905.67	11223.42
905.984	11162.63
906.297	11160.82
906.611	11106.13
906.924	11094.61
907.237	11120.15
907.551	11046.7
907.864	11018
908.177	10939.36
908.491	10911.11
908.804	10797.44
909.117	10814.62
909.43	10714.28
909.743	10752.25
910.056	10768.74
910.368	10621.18
910.681	10549.76
910.994	10545.47
911.307	10611.91
911.619	10491.24
911.932	10536.66
912.244	10354.97
912.557	10380.5
912.869	10270.9
913.181	10261.64
913.494	10265.93
913.806	10149.78
914.118	10065.03
914.43	10054.86
914.742	10007.41
915.054	9958.82
915.366	9951.14
915.678	9868.43
915.99	9824.59
916.302	9722.22
916.613	9689.45
916.925	9728.54
917.236	9691.26
917.548	9496.91
917.859	9547.98
918.171	9423.47
918.482	9403.13
918.794	9327.65
919.105	9315
919.416	9272.28
919.727	9229.8
920.038	9141.89
920.349	9117.49
920.66	9032.29
920.971	9068
921.282	9060.31
921.593	8955.46
921.903	8959.52
922.214	8938.06
922.525	8848.11
922.835	8787.78
923.146	8824.16
923.456	8742.13
923.767	8716.59
924.077	8666.42
924.387	8625.07
924.697	8607.67
925.008	8679.98
925.318	8562.47
925.628	8644.28
925.938	8527.9
926.248	8463.04
926.558	8421.91
926.867	8428.01
927.177	8448.13
927.487	8344.4
927.796	8315.7
928.106	8297.62
928.416	8228.24
928.725	8272.99
929.034	8173.33
929.344	8204.06
929.653	8170.39
929.962	8136.95
930.271	8092.43
930.581	8085.65
930.89	8053.79
931.199	8022.15
931.508	7978.76
931.817	8023.96
932.125	7933.79
932.434	7961.58
932.743	7873.23
933.051	7866.67
933.36	7829.61
933.669	7798.42
933.977	7736.51
934.286	7714.59
934.594	7705.09
934.902	7624.87
935.21	7528.6
935.519	7568.15
935.827	7597.3
936.135	7491.77
936.443	7454.93
936.751	7510.75
937.059	7443.63
937.367	7400.47
937.674	7349.62
937.982	7301.49
938.29	7307.82
938.597	7244.77
938.905	7183.98
939.213	7135.84
939.52	7064.66
939.827	7085.45
940.135	7046.81
940.442	6982.4
940.749	6953.25
941.056	6938.56
941.363	6860.37
941.67	6816.76
941.977	6832.35
942.284	6765.68
942.591	6712.8
942.898	6671
943.205	6693.14
943.511	6610.89
943.818	6556.2
944.125	6509.19
944.431	6558.91
944.738	6510.1
945.044	6485.01
945.35	6396.88
945.657	6385.58
945.963	6288.18
946.269	6304.9
946.575	6294.28
946.881	6303.32
947.187	6264
947.493	6246.15
947.799	6179.26
948.105	6237.79
948.41	6166.38
948.716	6191.69
949.022	6142.65
949.327	6147.39
949.633	6060.62
949.938	6078.02
950.244	6065.82
950.549	5965.7
950.854	6007.29
951.16	6030.79
951.465	5983.33
951.77	5939.26
952.075	5908.08
952.38	5848.87
952.685	5860.62
952.99	5810
953.294	5837.8
953.599	5864.69
953.904	5790.57
954.209	5770.23
954.513	5772.04
954.818	5693.17
955.122	5736.78
955.426	5730.46
955.731	5759.83
956.035	5647.97
956.339	5593.74
956.643	5610.46
956.948	5619.27
957.252	5630.35
957.556	5541.54
957.86	5532.5
958.163	5473.97
958.467	5462.89
958.771	5523.46
959.075	5441.2
959.378	5405.27
959.682	5356.46
959.985	5365.27
960.289	5274.65
960.592	5279.17
960.896	5284.82
961.199	5269.23
961.502	5208.89
961.805	5210.92
962.108	5163.01
962.411	5163.24
962.714	5106.74
963.017	5136.57
963.32	5085.95
963.623	5084.6
963.926	5064.94
964.228	5005.96
964.531	4979.97
964.833	4979.06
965.136	4879.63
965.438	4882.34
965.741	4861.33
966.043	4875.34
966.345	4810.71
966.648	4773.42
966.95	4742.69
967.252	4708.34
967.554	4714.21
967.856	4685.29
968.158	4634.89
968.46	4671.05
968.761	4583.14
969.063	4585.4
969.365	4557.15
969.666	4544.5
969.968	4499.08
970.269	4461.11
970.571	4512.86
970.872	4476.48
971.174	4462.69
971.475	4487.33
971.776	4444.16
972.077	4394.67
972.378	4412.07
972.679	4363.71
972.98	4306.31
973.281	4334.34
973.582	4318.97
973.883	4280.1
974.183	4248.69
974.484	4268.57
974.785	4198.75
975.085	4242.13
975.386	4193.55
975.686	4209.14
975.986	4197.16
976.287	4162.14
976.587	4093.21
976.887	4134.11
977.187	4104.96
977.487	4086.43
977.787	4059.54
978.087	4028.35
978.387	4041.01
978.687	4070.84
978.987	4066.32
979.286	4027.68
979.586	3998.07
979.885	3959.88
980.185	3938.64
980.484	3930.05
980.784	3943.39
981.083	3942.93
981.382	3964.85
981.682	3965.08
981.981	3866.78
982.28	3863.61
982.579	3852.54
982.878	3869.71
983.177	3841.24
983.475	3834.91
983.774	3802.82
984.073	3787.23
984.372	3790.85
984.67	3726.44
984.969	3758.98
985.267	3694.13
985.566	3689.15
985.864	3670.85
986.162	3685.54
986.461	3637.4
986.759	3635.82
987.057	3598.99
987.355	3568.71
987.653	3556.05
987.951	3532.77
988.249	3519.22
988.547	3494.58
988.844	3478.54
989.142	3485.32
989.44	3402.83
989.737	3444.87
990.035	3369.61
990.332	3408.03
990.63	3434.92
990.927	3391.08
991.224	3340.69
991.521	3368.03
991.819	3299.11
992.116	3289.39
992.413	3281.93
992.71	3257.98
993.006	3270.86
993.303	3228.38
993.6	3190.41
993.897	3135.95
994.193	3141.15
994.49	3125.33
994.787	3078.77
995.083	3082.16
995.379	3072.67
995.676	3069.06
995.972	3051.88
996.268	3052.56
996.565	3010.75
996.861	2974.82
997.157	3018.89
997.453	2977.53
997.749	2957.42
998.044	2935.28
998.34	2919.68
998.636	2938.21
998.932	2918.33
999.227	2902.28
999.523	2872.45
999.818	2858.22
1000.114	2844.2
1000.409	2814.38
1000.704	2795.62
1001	2771.66
1001.295	2763.76
1001.59	2765.56
1001.885	2762.85
1002.18	2726.24
1002.475	2737.32
1002.77	2706.81
1003.065	2699.8
1003.359	2693.25
1003.654	2669.29
1003.949	2651.67
1004.243	2665.23
1004.538	2607.15
1004.832	2625.68
1005.127	2622.74
1005.421	2591.1
1005.715	2585.68
1006.009	2575.29
1006.304	2551.11
1006.598	2540.03
1006.892	2521.95
1007.186	2510.2
1007.48	2524.21
1007.773	2481.5
1008.067	2451.9
1008.361	2464.55
1008.655	2458
1008.948	2406.25
1009.242	2436.31
1009.535	2417.55
1009.829	2410.77
1010.122	2386.59
1010.415	2367.38
1010.708	2353.6
1011.001	2299.59
1011.295	2321.28
1011.588	2346.82
1011.881	2308.63
1012.173	2280.15
1012.466	2290.32
1012.759	2302.3
1013.052	2311.56
1013.344	2234.73
1013.637	2232.24
1013.93	2188.18
1014.222	2210.55
1014.514	2189.53
1014.807	2170.1
1015.099	2148.4
1015.391	2164.67
1015.683	2125.58
1015.976	2128.29
1016.268	2099.59
1016.56	2085.58
1016.851	2053.49
1017.143	2095.75
1017.435	2046.94
1017.727	2078.8
1018.018	2036.77
1018.31	1991.57
1018.602	1993.38
1018.893	1960.84
1019.185	2010.55
1019.476	1989.99
1019.767	1952.7
1020.058	1924.23
1020.35	1919.26
1020.641	1879.26
1020.932	1894.17
1021.223	1887.62
1021.514	1867.51
1021.804	1835.19
1022.095	1853.04
1022.386	1833.61
1022.677	1833.38
1022.967	1816.89
1023.258	1806.49
1023.548	1739.6
1023.839	1740.51
1024.129	1751.58
1024.419	1731.47
1024.709	1729.66
1025	1696.44
1025.29	1712.26
1025.58	1693.73
1025.87	1669.55
1026.16	1648.98
1026.449	1660.73
1026.739	1640.17
1027.029	1622.09
1027.319	1598.59
1027.608	1604.24
1027.898	1594.75
1028.187	1554.75
1028.477	1581.87
1028.766	1556.33
1029.055	1534.63
1029.344	1530.57
1029.634	1517.46
1029.923	1493.28
1030.212	1501.64
1030.501	1488.76
1030.79	1504.81
1031.078	1470.46
1031.367	1470.91
1031.656	1466.16
1031.945	1453.96
1032.233	1434.07
1032.522	1418.03
1032.81	1430.23
1033.099	1431.59
1033.387	1373.06
1033.675	1381.64
1033.963	1412.83
1034.251	1360.85
1034.54	1355.2
1034.828	1368.54
1035.116	1381.42
1035.403	1362.66
1035.691	1343.23
1035.979	1337.58
1036.267	1297.13
1036.554	1295.55
1036.842	1315.66
1037.129	1292.61
1037.417	1285.15
1037.704	1273.62
1037.992	1263.68
1038.279	1259.61
1038.566	1286.73
1038.853	1286.73
1039.14	1286.73
