Data from blue_shiny_book_FLMS001491_00006.txt Node
Date: Wed Feb 08 15:26:27 GMT 2017
User: dcchb
Spectrometer: FLMS00149
Trigger mode: 0
Integration Time (sec): 2.000000E-2
Scans to average: 10
Electric dark correction enabled: true
Nonlinearity correction enabled: false
Boxcar width: 0
XAxis mode: Wavelengths
Number of Pixels in Spectrum: 2048
>>>>>Begin Spectral Data<<<<<
341.393	-14.53
341.776	-14.53
342.16	-14.53
342.543	-56.34
342.927	-51.37
343.31	-72.16
343.693	-66.96
344.077	-72.61
344.46	-51.59
344.843	-39.62
345.226	-42.56
345.61	-44.36
345.993	-5.49
346.376	13.94
346.759	14.84
347.142	26.82
347.525	31.12
347.908	50.32
348.291	85.12
348.674	75.41
349.057	97.78
349.44	140.04
349.823	134.39
350.206	168.29
350.588	206.7
350.971	218.68
351.354	254.39
351.737	225.01
352.119	250.32
352.502	278.57
352.884	305.01
353.267	310.88
353.65	306.81
354.032	301.16
354.414	319.92
354.797	309.3
355.179	337.77
355.562	343.42
355.944	356.76
356.326	324.89
356.709	370.77
357.091	338.68
357.473	355.4
357.855	347.94
358.238	361.95
358.62	369.41
359.002	369.64
359.384	353.37
359.766	349.75
360.148	353.82
360.53	363.08
360.912	366.93
361.294	371.67
361.676	359.02
362.057	344.78
362.439	370.99
362.821	368.06
363.203	355.63
363.584	354.95
363.966	358.11
364.348	334.61
364.729	355.63
365.111	326.7
365.493	363.99
365.874	361.95
366.256	340.26
366.637	338.9
367.019	352.24
367.4	345.46
367.781	352.24
368.163	351.56
368.544	335.51
368.925	364.21
369.306	347.72
369.688	363.31
370.069	335.51
370.45	348.17
370.831	360.15
371.212	351.78
371.593	370.77
371.974	347.04
372.355	346.81
372.736	359.69
373.117	356.08
373.498	361.05
373.879	379.35
374.26	365.34
374.641	357.21
375.021	355.17
375.402	363.76
375.783	380.03
376.163	383.65
376.544	401.27
376.925	408.28
377.305	391.33
377.686	376.87
378.066	377.77
378.447	390.88
378.827	408.28
379.208	394.72
379.588	398.34
379.968	412.35
380.349	396.08
380.729	412.35
381.109	415.74
381.489	415.06
381.87	438.79
382.25	436.08
382.63	422.97
383.01	443.31
383.39	426.13
383.77	442.4
384.15	441.05
384.53	425
384.91	451.22
385.29	442.4
385.67	455.28
386.049	471.56
386.429	464.55
386.809	467.49
387.189	458.67
387.568	478.11
387.948	482.63
388.328	491.89
388.707	486.02
389.087	497.32
389.466	487.15
389.846	467.94
390.225	498.9
390.605	491.44
390.984	513.36
391.363	545.68
391.743	523.98
392.122	512.68
392.501	538.45
392.881	580.71
393.26	546.81
393.639	585
394.018	556.98
394.397	572.34
394.776	572.34
395.155	566.92
395.534	594.26
395.913	564.21
396.292	582.51
396.671	586.13
397.05	604.66
397.429	602.4
397.808	609.63
398.186	591.33
398.565	611.89
398.944	656.18
399.323	627.26
399.701	621.38
400.08	631.55
400.458	640.36
400.837	665
401.215	662.51
401.594	667.93
401.972	668.61
402.351	691.89
402.729	697.76
403.107	699.8
403.486	717.88
403.864	719.46
404.242	717.42
404.62	716.29
404.999	748.61
405.377	750.19
405.755	756.75
406.133	760.81
406.511	780.47
406.889	812.34
407.267	791.1
407.645	819.34
408.023	837.2
408.401	824.77
408.779	834.94
409.156	829.74
409.534	854.6
409.912	878.78
410.29	870.64
410.667	909.06
411.045	902.73
411.422	909.06
411.8	930.53
412.178	930.75
412.555	961.49
412.933	976.63
413.31	1010.07
413.687	1006.46
414.065	1027.7
414.442	1015.72
414.819	1054.14
415.197	1067.25
415.574	1083.97
415.951	1074.93
416.328	1097.08
416.705	1108.15
417.082	1120.8
417.46	1114.02
417.837	1141.82
418.214	1156.28
418.591	1159.67
418.967	1161.48
419.344	1189.73
419.721	1191.54
420.098	1214.36
420.475	1250.74
420.852	1224.98
421.228	1243.06
421.605	1225.21
421.982	1260.46
422.358	1288.26
422.735	1316.5
423.111	1328.26
423.488	1338.2
423.864	1360.57
424.241	1381.81
424.617	1400.8
424.994	1425.43
425.37	1442.15
425.746	1442.6
426.123	1454.35
426.499	1457.97
426.875	1481.25
427.251	1528.02
427.627	1544.97
428.003	1554.24
428.379	1591.07
428.756	1585.2
429.132	1652.99
429.507	1688.92
429.883	1670.85
430.259	1715.59
430.635	1736.15
431.011	1717.17
431.387	1751.52
431.763	1792.42
432.138	1810.96
432.514	1835.81
432.89	1881.46
433.265	1941.12
433.641	1982.25
434.016	1949.71
434.392	1963.49
434.767	2005.98
435.143	2009.82
435.518	2033.1
435.894	2055.92
436.269	2068.58
436.644	2140.89
437.02	2199.87
437.395	2157.16
437.77	2227.22
438.145	2238.06
438.52	2300.43
438.895	2308.57
439.271	2308.57
439.646	2370.94
440.021	2373.2
440.395	2389.02
440.77	2389.02
441.145	2416.81
441.52	2436.25
441.895	2417.27
442.27	2502.69
442.645	2478.51
443.019	2563.03
443.394	2562.8
443.769	2584.95
444.143	2618.17
444.518	2641.89
444.892	2621.33
445.267	2641.22
445.641	2681.67
446.016	2683.47
446.39	2707.65
446.764	2711.5
447.139	2735.45
447.513	2755.34
447.887	2796.01
448.262	2782.91
448.636	2846.63
449.01	2890.47
449.384	2942.68
449.758	2960.76
450.132	3012.28
450.506	2981.32
450.88	2989.23
451.254	3005.05
451.628	3020.19
452.002	3086.85
452.376	3078.94
452.75	3141.77
453.123	3194.42
453.497	3237.13
453.871	3296.79
454.244	3397.81
454.618	3382.21
454.992	3471.7
455.365	3441.87
455.739	3558.71
456.112	3536.79
456.486	3589.67
456.859	3578.37
457.232	3650.23
457.606	3688.87
457.979	3737.68
458.352	3832.15
458.725	3857.46
459.099	3949.88
459.472	4004.57
459.845	4050.67
460.218	4112.59
460.591	4138.13
460.964	4123.89
461.337	4254.51
461.71	4273.49
462.083	4329.99
462.456	4372.47
462.829	4337.67
463.201	4462.41
463.574	4500.6
463.947	4604.55
464.32	4723.65
464.692	4782.4
465.065	4780.37
465.438	4861.04
465.81	4949.4
466.183	4992.34
466.555	5098.55
466.928	5100.59
467.3	5067.82
467.672	5158.21
468.045	5312.33
468.417	5298.1
468.789	5348.04
469.161	5415.15
469.534	5571.99
469.906	5674.81
470.278	5744.19
470.65	5816.95
471.022	5964.74
471.394	6079.54
471.766	6141.69
472.138	6233.44
472.51	6282.02
472.882	6389.37
473.253	6459.19
473.625	6488.12
473.997	6662.81
474.369	6691.96
474.74	6840.88
475.112	6987.32
475.484	7060.76
475.855	7249.68
476.227	7272.05
476.598	7597.47
476.97	7680.86
477.341	7805.83
477.713	7863.45
478.084	7990.91
478.455	8158.58
478.827	8177.57
479.198	8415.98
479.569	8418.92
479.94	8641.06
480.311	8704.33
480.682	9005.57
481.053	9167.82
481.424	9399.91
481.795	9438.55
482.166	9622.95
482.537	9741.37
482.908	10012.32
483.279	10119.21
483.65	10266.55
484.021	10459.32
484.391	10644.4
484.762	10640.55
485.133	10767.78
485.503	10917.83
485.874	11118.73
486.244	11240.99
486.615	11498.38
486.985	11653.63
487.356	11842.78
487.726	11976.34
488.097	12332.26
488.467	12311.7
488.837	12720.27
489.207	12888.63
489.578	13039.81
489.948	13139.7
490.318	13254.5
490.688	13392.12
491.058	13502.4
491.428	13691.55
491.798	13807.25
492.168	14047.24
492.538	14109.61
492.908	14305.54
493.278	14600.22
493.648	14594.12
494.017	14856.26
494.387	15157.72
494.757	15129.02
495.126	15376.7
495.496	15456.25
495.866	15624.38
496.235	15745.05
496.605	15884.71
496.974	15976.68
497.344	16202.67
497.713	16237.92
498.082	16312.95
498.452	16475.43
498.821	16488.54
499.19	16688.3
499.559	16893.27
499.928	17018.24
500.298	17109.08
500.667	17267.5
501.036	17350.89
501.405	17594.95
501.774	17615.06
502.143	17832.23
502.512	17911.32
502.88	18035.16
503.249	18154.48
503.618	18247.59
503.987	18325.1
504.356	18478.77
504.724	18524.41
505.093	18670.62
505.462	18739.78
505.83	18811.64
506.199	19043.27
506.567	19296.6
506.936	19352.64
507.304	19530.72
507.672	19595.8
508.041	19794.44
508.409	19887.09
508.777	20176.8
509.145	20315.55
509.514	20304.25
509.882	20450.24
510.25	20481.88
510.618	20663.11
510.986	20786.28
511.354	20904.92
511.722	21069.43
512.09	21360.27
512.458	21337.22
512.826	21520.27
513.193	21614.28
513.561	21788.28
513.929	21932.91
514.297	22227.59
514.664	22414.03
515.032	22625.55
515.4	22722.95
515.767	22862.38
516.135	23042.94
516.502	22846.79
516.869	23240.9
517.237	23331.52
517.604	23276.83
517.972	23666.88
518.339	23676.37
518.706	23886.98
519.073	24083.36
519.44	24145.51
519.808	24405.84
520.175	24653.07
520.542	24862.1
520.909	25012.61
521.276	25007.86
521.643	25293.05
522.009	25530.78
522.376	25714.73
522.743	25761.51
523.11	26036.76
523.477	26333.47
523.843	26504.32
524.21	26801.48
524.577	26928.26
524.943	27180.23
525.31	27172.1
525.676	27544.97
526.043	27651.63
526.409	27819.54
526.776	28132.3
527.142	28252.29
527.508	28372.74
527.874	28662.9
528.241	28981.31
528.607	28939.73
528.973	29189.67
529.339	29273.06
529.705	29522.77
530.071	29730.22
530.437	29825.81
530.803	30031.68
531.169	30190.32
531.535	30141.28
531.901	30362.07
532.267	30460.82
532.632	30731.55
532.998	30954.14
533.364	31141.48
533.73	31345.55
534.095	31584.86
534.461	31649.27
534.826	31956.15
535.192	32006.55
535.557	32198.18
535.923	32180.55
536.288	32349.59
536.653	32470.49
537.019	32476.36
537.384	32689.69
537.749	32763.59
538.114	32652.86
538.479	32728.33
538.845	33059.17
539.21	33030.7
539.575	33339.39
539.94	33437.92
540.305	33596.79
540.67	33552.72
541.034	33707.74
541.399	33950
541.764	34102.08
542.129	34349.76
542.494	34398.57
542.858	34468.4
543.223	34747.26
543.587	34779.58
543.952	34754.27
544.316	34746.81
544.681	34805.79
545.045	35043.98
545.41	35010.08
545.774	35208.95
546.138	35156.07
546.503	35323.29
546.867	35341.6
547.231	35476.28
547.595	35657.07
547.959	35813.9
548.324	35945.2
548.688	36242.37
549.052	36329.6
549.416	36401.68
549.779	36480.33
550.143	36741.11
550.507	36863.59
550.871	36966.64
551.235	36748.79
551.599	37246.63
551.962	37301.55
552.326	37249.35
552.689	37511.03
553.053	37277.37
553.417	37499.06
553.78	37685.49
554.143	37556.23
554.507	37782.66
554.87	37970
555.234	38195.99
555.597	38090.68
555.96	38212.03
556.323	38558.01
556.686	38681.62
557.05	39042.29
557.413	39059.92
557.776	39154.15
558.139	39540.58
558.502	39399.8
558.865	39686.8
559.228	40012.21
559.59	40091.98
559.953	40066.9
560.316	40316.16
560.679	40277.51
561.041	40517.28
561.404	40505.08
561.767	40688.8
562.129	40580.78
562.492	40959.76
562.854	40903.71
563.217	41028.46
563.579	41332.18
563.941	41464.15
564.304	41693.97
564.666	41846.96
565.028	42054.64
565.39	42195.43
565.753	42361.3
566.115	42712.48
566.477	42958.57
566.839	43079.47
567.201	43294.61
567.563	43267.94
567.925	43678.55
568.287	43590.2
568.648	43561.27
569.01	43851.43
569.372	43848.49
569.734	43624.32
570.095	43858.21
570.457	43819.12
570.819	43889.4
571.18	43841.49
571.542	44156.73
571.903	44173.01
572.265	44249.61
572.626	44478.08
572.987	44636.5
573.349	44952.87
573.71	45228.34
574.071	45352.86
574.432	45482.12
574.794	45835.79
575.155	45716.02
575.516	45801.21
575.877	46114.88
576.238	46177.02
576.599	46116
576.96	46167.3
577.32	46296.57
577.681	46456.11
578.042	46343.34
578.403	46180.64
578.763	46189.9
579.124	46212.27
579.485	46279.62
579.845	46301.99
580.206	46078.04
580.566	46203.69
580.927	46401.42
581.287	46479.39
581.648	46416.56
582.008	46778.59
582.368	46755.54
582.728	46961.18
583.089	47035.98
583.449	47021.29
583.809	47179.71
584.169	47365.69
584.529	47180.61
584.889	47684.78
585.249	47544.89
585.609	47393.94
585.969	47727.49
586.329	47333.83
586.688	47555.52
587.048	47362.98
587.408	47262.19
587.768	47130.67
588.127	46987.39
588.487	46873.05
588.846	47071.91
589.206	46795.31
589.565	46977.9
589.925	47134.96
590.284	46919.15
590.643	47033.95
591.003	47350.55
591.362	47398.23
591.721	47430.55
592.08	47484.33
592.44	47661.5
592.799	47714.38
593.158	47782.63
593.517	47860.59
593.876	48028.95
594.235	47909.86
594.593	48017.2
594.952	48225.55
595.311	47962.06
595.67	47989.85
596.029	47992.11
596.387	47947.37
596.746	48092.45
597.104	47621.95
597.463	47625.57
597.822	47695.85
598.18	47524.78
598.538	47550.54
598.897	47673.48
599.255	47183.55
599.613	47783.53
599.972	47560.49
600.33	47775.85
600.688	47673.03
601.046	47988.5
601.404	48212.9
601.762	48052.68
602.12	48341.26
602.478	48474.59
602.836	48461.25
603.194	48381.93
603.552	48569.95
603.91	48430.29
604.268	48773.79
604.625	48471.2
604.983	48685.43
605.341	48363.18
605.698	48587.13
606.056	48716.61
606.413	48632.55
606.771	48680.68
607.128	48602.72
607.485	48381.93
607.843	48393.01
608.2	48551.42
608.557	48711.42
608.914	48455.83
609.272	48621.25
609.629	48647.92
609.986	48733.56
610.343	48537.18
610.7	48824.63
611.057	48861.24
611.414	48943.5
611.771	49075.25
612.127	49395.01
612.484	49439.99
612.841	49519.98
613.198	49474.79
613.554	49481.57
613.911	49714.1
614.267	49806.3
614.624	49654.44
614.98	49810.37
615.337	49948.45
615.693	49897.83
616.05	49926.75
616.406	50043.59
616.762	49625.52
617.118	49677.72
617.475	49571.96
617.831	49634.78
618.187	49578.96
618.543	49599.76
618.899	49733.31
619.255	49688.79
619.611	49564.28
619.967	49707.77
620.323	49713.42
620.678	49656.7
621.034	49708
621.39	49582.13
621.746	49591.39
622.101	50073.19
622.457	49881.1
622.812	50152.51
623.168	50100.31
623.523	50214.65
623.879	50268.44
624.234	50190.25
624.589	50405.84
624.945	50348.66
625.3	50457.36
625.655	50436.12
626.01	50321.32
626.365	50334.88
626.72	50186.41
627.075	50106.86
627.43	50044.72
627.785	49908.67
628.14	49964.72
628.495	49899.18
628.85	49768.56
629.205	49639.3
629.559	49844.95
629.914	49694.67
630.269	49652.86
630.623	49596.82
630.978	49475.46
631.332	49684.72
631.687	49835.46
632.041	49706.42
632.396	49762.01
632.75	49756.81
633.104	49901.22
633.459	49667.55
633.813	49844.04
634.167	49762.46
634.521	49789.81
634.875	49869.35
635.229	49772.41
635.583	49701.67
635.937	49676.36
636.291	49668.45
636.645	49748.45
636.999	49609.25
637.352	49735.8
637.706	49378.97
638.06	49573.54
638.413	49352.98
638.767	49162.7
639.121	49137.62
639.474	48870.28
639.828	48867.57
640.181	48833.67
640.534	48778.53
640.888	48582.38
641.241	48396.17
641.594	48472.1
641.947	48596.39
642.301	48367.92
642.654	48529.05
643.007	48417.41
643.36	48270.07
643.713	48224.88
644.066	48520.91
644.419	48386
644.771	48536.96
645.124	48382.16
645.477	48496.28
645.83	48184.2
646.182	47954.15
646.535	47596.42
646.888	47474.39
647.24	47231.91
647.593	47552.35
647.945	47369.08
648.298	47244.11
648.65	47121.18
649.002	46940.39
649.355	47240.95
649.707	47095.41
650.059	47387.61
650.411	47792.35
650.763	47828.95
651.115	47914.6
651.467	47839.35
651.819	47589.41
652.171	47548.51
652.523	47469.87
652.875	47495.86
653.227	47323.2
653.578	47615.85
653.93	47460.6
654.282	47287.5
654.633	47153.94
654.985	47485.01
655.337	47370.89
655.688	47362.98
656.039	47607.94
656.391	47039.82
656.742	47308.97
657.094	47418.12
657.445	47759.35
657.796	47639.35
658.147	47639.58
658.498	47681.61
658.849	47749.41
659.2	47681.61
659.551	47693.36
659.902	47824.43
660.253	47783.08
660.604	47790.54
660.955	47488.85
661.306	47670.31
661.656	47461.96
662.007	47346.26
662.358	47169.99
662.708	47318.23
663.059	47214.96
663.409	47012.48
663.76	47204.34
664.11	47005.7
664.461	46728.64
664.811	46797.12
665.161	46749.66
665.511	46634.86
665.862	46692.71
666.212	46818.36
666.562	46854.29
666.912	46802.09
667.262	46821.52
667.612	46677.35
667.962	46874.18
668.312	46777.68
668.662	47098.8
669.011	47169.76
669.361	47102.65
669.711	47144
670.06	47018.13
670.41	47082.31
670.76	47079.82
671.109	47368.18
671.459	47133.38
671.808	47071.46
672.157	47337.67
672.507	47092.7
672.856	47135.41
673.205	47043.21
673.554	47108.07
673.904	46868.98
674.253	46988.98
674.602	46879.37
674.951	46304.93
675.3	45975.67
675.649	46426.28
675.998	46363.23
676.346	46233.29
676.695	46204.14
677.044	46075.78
677.393	46025.61
677.741	46113.52
678.09	45719.63
678.438	45713.76
678.787	45790.82
679.135	45745.85
679.484	45528.22
679.832	45831.04
680.181	45532.52
680.529	45791.27
680.877	45614.55
681.225	45767.54
681.573	46081.43
681.922	45828.55
682.27	45744.49
682.618	45816.35
682.966	45841.66
683.314	46024.93
683.661	45764.38
684.009	45750.82
684.357	45545.4
684.705	45502.69
685.053	45600.54
685.4	45494.78
685.748	45254.11
686.095	45261.34
686.443	45048.01
686.79	44836.04
687.138	44855.7
687.485	44898.41
687.832	44631.75
688.18	44421.59
688.527	44385.43
688.874	44140.92
689.221	44076.74
689.568	43835.61
689.915	43738.21
690.262	43677.88
690.609	43436.3
690.956	43345.68
691.303	43302.07
691.65	43132.58
691.997	42936.88
692.344	42744.79
692.69	42624.35
693.037	42781.4
693.383	42657.56
693.73	42620.73
694.077	42459.83
694.423	42514.74
694.769	42498.25
695.116	42408.53
695.462	42563.56
695.808	42367.18
696.155	42472.26
696.501	42206.05
696.847	42165.37
697.193	42011.93
697.539	42183
697.885	41877.7
698.231	41856
698.577	41743.01
698.923	41792.73
699.269	41496.01
699.614	41302.35
699.96	41288.56
700.306	41222.35
700.651	40986.65
700.997	40712.76
701.342	40566.32
701.688	40346.89
702.033	40131.08
702.379	40103.96
702.724	39892.21
703.069	39908.26
703.415	39255.17
703.76	39269.18
704.105	39406.58
704.45	39137.88
704.795	38806.14
705.14	38767.5
705.485	38859.02
705.83	38615.64
706.175	38627.61
706.52	38480.05
706.865	38401.63
707.209	38521.63
707.554	38359.15
707.899	38464
708.243	38304.01
708.588	38278.47
708.932	38146.72
709.277	38348.3
709.621	38324.57
709.966	38094.07
710.31	38354.4
710.654	38140.62
710.998	38271.69
711.342	38295.42
711.687	38142.43
712.031	38120.51
712.375	37906.73
712.719	37885.71
713.063	37630.8
713.407	37749.9
713.75	37576.34
714.094	37492.28
714.438	37259.97
714.782	37309.68
715.125	37066.07
715.469	37078.05
715.812	36646.2
716.156	36541.79
716.499	36487.33
716.843	36382.48
717.186	36059.77
717.53	36180.67
717.873	36139.54
718.216	35935.93
718.559	35703.62
718.902	35503.18
719.246	35577.52
719.589	35619.33
719.932	35433.35
720.275	35421.14
720.617	35518.09
720.96	35385.44
721.303	35505.44
721.646	35473.8
721.989	35393.58
722.331	35507.92
722.674	35522.39
723.016	35697.52
723.359	35508.37
723.701	35559.9
724.044	35515.15
724.386	35377.53
724.729	35634.7
725.071	35496.85
725.413	35469.73
725.755	35659.78
726.097	35429.05
726.439	35300.92
726.782	35373.24
727.124	35411.43
727.465	35204.88
727.807	35190.64
728.149	34961.04
728.491	35065
728.833	34954.49
729.175	34806.47
729.516	34693.93
729.858	34653.48
730.199	34660.26
730.541	34452.81
730.882	34293.49
731.224	34486.93
731.565	34107.96
731.906	34016.66
732.248	34063.21
732.589	34018.02
732.93	33933.27
733.271	33807.85
733.612	33786.84
733.953	33879.72
734.294	33721.3
734.635	33566.28
734.976	33864.35
735.317	33718.59
735.658	33692.15
735.999	33873.84
736.339	33851.69
736.68	33947.74
737.021	33904.35
737.361	33764.24
737.702	33893.73
738.042	33947.51
738.383	33937.57
738.723	34173.04
739.063	34086.49
739.404	34389.53
739.744	34342.08
740.084	34189.99
740.424	34339.37
740.764	34334.17
741.104	34449.19
741.444	34087.62
741.784	34067.73
742.124	34374.84
742.464	34280.84
742.804	34225.24
743.143	34055.53
743.483	33990.67
743.823	33853.05
744.162	33956.55
744.502	33914.07
744.841	33623
745.181	33794.3
745.52	33605.83
745.86	33631.59
746.199	33570.8
746.538	33388.43
746.877	33565.83
747.216	33464.59
747.556	33387.3
747.895	33361.54
748.234	33241.99
748.573	33228.89
748.911	33186.18
749.25	33326.06
749.589	33134.43
749.928	33193.18
750.267	33207.19
750.605	33234.31
750.944	33289.68
751.283	33179.62
751.621	33383.23
751.96	33215.78
752.298	33213.29
752.636	33573.51
752.975	33438.82
753.313	33483.12
753.651	33524.92
753.989	33407.64
754.327	33640.17
754.666	33470.46
755.004	33656.45
755.342	33914.74
755.679	33698.03
756.017	33572.38
756.355	33791.81
756.693	33547.75
757.031	33731.25
757.368	33575.54
757.706	33637.24
758.044	33658.03
758.381	33586.84
758.719	33606.96
759.056	33564.7
759.394	33604.47
759.731	33253.74
760.068	33321.77
760.405	33281.77
760.743	33115.67
761.08	33162.45
761.417	32898.73
761.754	32964.49
762.091	32893.08
762.428	32703.25
762.765	32592.52
763.102	32629.58
763.438	32538.51
763.775	32463.93
764.112	32448.34
764.449	32515.23
764.785	32150.04
765.122	32114.57
765.458	32027.79
765.795	32091.06
766.131	32148.46
766.467	31959.77
766.804	31937.85
767.14	31843.16
767.476	31882.48
767.812	31774.24
768.148	31879.32
768.485	31812.43
768.821	31618.99
769.157	31558.42
769.492	31514.81
769.828	31760
770.164	31458.76
770.5	31622.83
770.836	31438.65
771.171	31308.03
771.507	31388.71
771.842	31182.39
772.178	31256.06
772.513	31255.6
772.849	31088.38
773.184	30929.74
773.519	30915.5
773.855	30941.94
774.19	30573.81
774.525	30633.25
774.86	30553.02
775.195	30539.47
775.53	30435.51
775.865	30235.29
776.2	30162.75
776.535	29873.72
776.87	29903.78
777.205	29654.97
777.539	29568.42
777.874	29497.23
778.209	29261.31
778.543	29167.52
778.878	29108.99
779.212	29067.87
779.547	28759.17
779.881	28876.46
780.215	28671.49
780.55	28615
780.884	28482.34
781.218	28347.43
781.552	28235.12
781.886	28164.61
782.22	28068.8
782.554	27936.14
782.888	27745.19
783.222	27726.88
783.556	27685.98
783.889	27489.6
784.223	27298.19
784.557	27323.05
784.89	27445.08
785.224	27224.52
785.557	27121.7
785.891	27122.61
786.224	27034.92
786.558	27009.16
786.891	26782.5
787.224	26812.33
787.557	26728.49
787.891	26668.38
788.224	26778.66
788.557	26639.91
788.89	26736.85
789.223	26573.47
789.556	26362.63
789.888	26563.3
790.221	26411.21
790.554	26038.11
790.887	26189.52
791.219	25967.16
791.552	25898.91
791.884	25705.69
792.217	25657.11
792.549	25604
792.882	25355.19
793.214	25292.82
793.546	25423.44
793.879	25213.96
794.211	25019.38
794.543	25120.62
794.875	24868.65
795.207	24909.1
795.539	24751.82
795.871	24640.41
796.203	24400.19
796.535	24352.06
796.867	24284.94
797.198	24141.44
797.53	24105.28
797.862	23988.68
798.193	24003.14
798.525	23835.23
798.856	23849.47
799.188	23633.66
799.519	23540.33
799.85	23514.79
800.182	23494.9
800.513	23425.08
800.844	23251.75
801.175	23473.21
801.506	23366.77
801.837	23162.94
802.168	23159.77
802.499	23052.2
802.83	23037.74
803.161	22877.29
803.491	22976.73
803.822	23017.63
804.153	22814.24
804.483	22801.14
804.814	22666.68
805.145	22659.67
805.475	22803.62
805.805	22637.07
806.136	22691.99
806.466	22591.43
806.796	22538.09
807.126	22410.19
807.457	22440.7
807.787	22458.77
808.117	22298.78
808.447	22239.57
808.777	22235.95
809.107	22218.55
809.436	22162.96
809.766	22026.69
810.096	22158.22
810.426	21895.62
810.755	22000.48
811.085	21905.34
811.414	21702.86
811.744	21554.62
812.073	21546.48
812.403	21488.86
812.732	21298.8
813.061	21282.53
813.39	21169.09
813.719	21071.01
814.049	21099.26
814.378	21141.07
814.707	20964.35
815.036	20897.91
815.365	20856.78
815.693	20791.93
816.022	20721.87
816.351	20578.82
816.68	20466.74
817.008	20522.55
817.337	20323.91
817.665	20378.6
817.994	20429.9
818.322	20341.99
818.651	20290.47
818.979	20121.89
819.307	20221.54
819.636	20125.95
819.964	20024.49
820.292	20054.77
820.62	20130.02
820.948	20045.73
821.276	20065.84
821.604	20046.63
821.932	20051.15
822.259	20106.52
822.587	20026.3
822.915	20021.1
823.243	20171.15
823.57	20050.7
823.898	20073.07
824.225	20009.12
824.553	20014.54
824.88	20146.07
825.207	20186.29
825.535	20245.05
825.862	20115.78
826.189	20107.88
826.516	20243.01
826.843	20321.43
827.17	20292.73
827.497	20239.62
827.824	20165.95
828.151	20268.55
828.478	20174.77
828.805	20328.89
829.131	20247.31
829.458	20152.39
829.785	20093.19
830.111	20082.57
830.438	20127.54
830.764	20185.84
831.09	20146.97
831.417	20080.76
831.743	20126.18
832.069	20102.9
832.395	20057.48
832.722	20092.28
833.048	20039.85
833.374	19967.77
833.7	19831.27
834.026	19835.11
834.351	19901.1
834.677	19826.3
835.003	19914.66
835.329	19860.65
835.654	19681.67
835.98	19584.5
836.306	19612.3
836.631	19486.42
836.956	19639.64
837.282	19600.77
837.607	19459.98
837.932	19309.03
838.258	19369.36
838.583	19280.78
838.908	19298.63
839.233	19190.84
839.558	19174.11
839.883	19081.24
840.208	19024.06
840.533	19029.94
840.858	19151.06
841.182	19135.02
841.507	19070.16
841.832	19082.14
842.156	18950.62
842.481	19019.09
842.805	18951.97
843.13	18962.14
843.454	18945.87
843.778	18810.96
844.103	18782.03
844.427	18633.56
844.751	18703.62
845.075	18681.47
845.399	18625.65
845.723	18604.64
846.047	18658.65
846.371	18514.02
846.695	18377.98
847.019	18349.96
847.343	18294.82
847.666	18138.44
847.99	18079.45
848.313	18025.67
848.637	18003.75
848.96	18031.09
849.284	17948.61
849.607	17761.04
849.931	17829.29
850.254	17581.84
850.577	17540.94
850.9	17445.57
851.223	17442.63
851.546	17336.65
851.869	17181.4
852.192	17309.3
852.515	17058.01
852.838	17084.9
853.161	17040.39
853.483	16995.41
853.806	16823.89
854.129	16867.51
854.451	16684.91
854.774	16623
855.096	16641.3
855.419	16481.76
855.741	16495.54
856.063	16429.55
856.385	16321.76
856.708	16364.92
857.03	16156.79
857.352	16278.82
857.674	16145.72
857.996	16086.51
858.318	16004.71
858.64	15899.4
858.961	15901.88
859.283	15892.62
859.605	15766.29
859.926	15857.59
860.248	15743.92
860.57	15635.68
860.891	15633.42
861.212	15689.01
861.534	15559.97
861.855	15544.38
862.176	15502.8
862.498	15557.49
862.819	15539.63
863.14	15456.25
863.461	15418.51
863.782	15316.81
864.103	15386.19
864.424	15296.93
864.745	15416.7
865.065	15310.71
865.386	15306.65
865.707	15255.8
866.027	15347.77
866.348	15277.95
866.668	15267.78
866.989	15224.61
867.309	15026.2
867.63	15166.31
867.95	15140.55
868.27	15066.2
868.59	15077.05
868.91	15202.92
869.23	15094.45
869.55	15024.62
869.87	15185.07
870.19	15038.4
870.51	15179.19
870.83	15022.59
871.15	14960.67
871.469	14949.82
871.789	15018.52
872.109	14868.92
872.428	14792.76
872.748	14811.07
873.067	14726.55
873.386	14869.14
873.706	14704.18
874.025	14623.27
874.344	14642.48
874.663	14725.42
874.982	14573.33
875.301	14532.88
875.62	14414.92
875.939	14503.73
876.258	14484.97
876.577	14369.5
876.896	14369.27
877.214	14294.02
877.533	14317.07
877.852	14284.75
878.17	14315.26
878.489	14268.48
878.807	14043.18
879.125	14114.59
879.444	14119.33
879.762	14014.25
880.08	14044.53
880.398	13956.85
880.716	13918.21
881.034	13835.95
881.352	13944.42
881.67	13906.68
881.988	13830.53
882.306	13785.33
882.624	13770.19
882.941	13721.38
883.259	13671.21
883.577	13663.75
883.894	13618.1
884.212	13595.5
884.529	13561.38
884.846	13575.39
885.164	13595.28
885.481	13555.73
885.798	13651.55
886.115	13435.28
886.432	13522.51
886.75	13434.38
887.067	13431.21
887.383	13436.86
887.7	13512.79
888.017	13384.89
888.334	13393.93
888.651	13316.64
888.967	13338.11
889.284	13319.58
889.6	13320.03
889.917	13195.97
890.233	13193.25
890.55	13159.36
890.866	13196.87
891.182	13106.03
891.498	13093.82
891.815	13032.36
892.131	13034.61
892.447	12994.84
892.763	12953.71
893.079	12969.31
893.395	12948.29
893.71	12886.37
894.026	12917.78
894.342	12788.75
894.657	12666.26
894.973	12695.19
895.289	12609.99
895.604	12577
895.92	12525.7
896.235	12476.44
896.55	12424.46
896.865	12373.39
897.181	12289.78
897.496	12245.48
897.811	12211.81
898.126	12151.25
898.441	12059.95
898.756	12045.04
899.071	11943.34
899.386	12012.95
899.7	11915.32
900.015	11856.79
900.33	11766.17
900.644	11720.98
900.959	11795.1
901.273	11680.3
901.588	11657.25
901.902	11595.56
902.216	11530.47
902.531	11481.66
902.845	11437.14
903.159	11324.38
903.473	11288.22
903.787	11250.03
904.101	11142.01
904.415	11237.37
904.729	11167.09
905.042	11092.07
905.356	10955.57
905.67	11015.01
905.984	10999.64
906.297	10986.53
906.611	10938.17
906.924	10890.49
907.237	10846.88
907.551	10818.4
907.864	10784.73
908.177	10785.86
908.491	10738.4
908.804	10726.88
909.117	10654.11
909.43	10571.85
909.743	10594.91
910.056	10552.65
910.368	10476.26
910.681	10482.14
910.994	10425.42
911.307	10415.47
911.619	10404.63
911.932	10340
912.244	10352.65
912.557	10305.2
912.869	10237.4
913.181	10213.9
913.494	10226.78
913.806	10246.89
914.118	10117.4
914.43	10083.51
914.742	10074.47
915.054	9975.03
915.366	9951.08
915.678	9947.46
915.99	9891.19
916.302	9817.98
916.613	9791.54
916.925	9742.95
917.236	9770.52
917.548	9670.18
917.859	9646.68
918.171	9620.02
918.482	9589.73
918.794	9498.21
919.105	9527.59
919.416	9427.25
919.727	9376.63
920.038	9320.14
920.349	9281.49
920.66	9249.18
920.971	9250.31
921.282	9199.01
921.593	9094.38
921.903	9011.9
922.214	9026.81
922.525	9000.14
922.835	8900.94
923.146	8892.35
923.456	8749.76
923.767	8751.11
924.077	8804.9
924.387	8713.82
924.697	8619.59
925.008	8605.13
925.318	8542.76
925.628	8573.72
925.938	8475.19
926.248	8387.96
926.558	8343.89
926.867	8355.19
927.177	8275.42
927.487	8295.08
927.796	8162.43
928.106	8204.91
928.416	8181.41
928.725	8134.86
929.034	8091.24
929.344	8127.17
929.653	8033.62
929.962	8010.11
930.271	8018.93
930.581	7938.7
930.89	7971.7
931.199	7897.12
931.508	7884.69
931.817	7866.16
932.125	7843.79
932.434	7818.03
932.743	7746.17
933.051	7727.64
933.36	7762.89
933.669	7660.74
933.977	7618.49
934.286	7568.77
934.594	7598.83
934.902	7566.96
935.21	7592.05
935.519	7556.11
935.827	7522.9
936.135	7458.04
936.443	7419.17
936.751	7456
937.059	7467.76
937.367	7463.46
937.674	7419.62
937.982	7313.64
938.29	7278.83
938.597	7283.35
938.905	7224.37
939.213	7197.03
939.52	7181.21
939.827	7233.41
940.135	7147.99
940.442	7106.86
940.749	7030.7
941.056	7087.2
941.363	6991.16
941.67	6974.89
941.977	6968.33
942.284	6933.53
942.591	6896.02
942.898	6814.21
943.205	6834.78
943.511	6756.59
943.818	6774.44
944.125	6673.43
944.431	6639.75
944.738	6634.11
945.044	6603.6
945.35	6502.36
945.657	6475.69
945.963	6490.38
946.269	6360.67
946.575	6436.6
946.881	6425.98
947.187	6354.11
947.493	6284.96
947.799	6297.62
948.105	6230.5
948.41	6280.89
948.716	6192.08
949.022	6252.87
949.327	6162.93
949.633	6067.34
949.938	6090.16
950.244	6090.16
950.549	5955.25
950.854	5994.57
951.16	5934.24
951.465	5933.33
951.77	5928.36
952.075	5855.82
952.38	5826.67
952.685	5858.76
952.99	5733.56
953.294	5768.82
953.599	5733.56
953.904	5700.57
954.209	5720.91
954.513	5713.9
954.818	5631.42
955.122	5628.48
955.426	5668.03
955.731	5549.61
956.035	5510.97
956.339	5571.08
956.643	5559.78
956.948	5509.16
957.252	5505.1
957.556	5537.86
957.86	5474.36
958.163	5490.41
958.467	5444.76
958.771	5431.65
959.075	5412.44
959.378	5409.28
959.682	5366.57
959.985	5361.82
960.289	5317.98
960.592	5317.53
960.896	5326.57
961.199	5322.73
961.502	5267.81
961.805	5320.92
962.108	5250.41
962.411	5194.14
962.714	5185.56
963.017	5172.22
963.32	5150.53
963.623	5134.03
963.926	5141.26
964.228	5084.99
964.531	5077.08
964.833	5075.95
965.136	5037.31
965.438	5050.19
965.741	4990.98
966.043	4970.65
966.345	4987.14
966.648	4883.19
966.95	4885.9
967.252	4820.14
967.554	4818.11
967.856	4786.24
968.158	4768.84
968.46	4783.53
968.761	4730.88
969.063	4747.15
969.365	4650.65
969.666	4654.95
969.968	4568.4
970.269	4602.97
970.571	4576.53
970.872	4578.11
971.174	4489.08
971.475	4537.66
971.776	4487.04
972.077	4457.67
972.378	4481.85
972.679	4434.62
972.98	4390.77
973.281	4354.62
973.582	4356.43
973.883	4316.65
974.183	4292.47
974.484	4267.39
974.785	4281.4
975.085	4219.03
975.386	4232.13
975.686	4188.97
975.986	4153.27
976.287	4172.7
976.587	4098.8
976.887	4070.33
977.187	4083.44
977.487	4071.69
977.787	4021.29
978.087	4039.82
978.387	4023.78
978.687	4019.71
978.987	3953.72
979.286	3928.19
979.586	3905.14
979.885	3936.1
980.185	3931.8
980.484	3905.59
980.784	3890.45
981.083	3861.3
981.382	3831.92
981.682	3856.55
981.981	3832.82
982.28	3826.27
982.579	3824.01
982.878	3800.06
983.177	3804.58
983.475	3758.47
983.774	3743.56
984.073	3732.94
984.372	3720.06
984.67	3716.89
984.969	3732.03
985.267	3680.74
985.566	3650.91
985.864	3667.63
986.162	3654.07
986.461	3645.26
986.759	3643.9
987.057	3581.53
987.355	3594.19
987.653	3613.17
987.951	3580.63
988.249	3539.95
988.547	3521.87
988.844	3551.93
989.142	3549.44
989.44	3502.21
989.737	3508.76
990.035	3484.36
990.332	3465.37
990.63	3490.91
990.927	3425.6
991.224	3409.78
991.521	3433.74
991.819	3421.08
992.116	3371.37
992.413	3354.87
992.71	3381.76
993.006	3333.63
993.303	3318.71
993.6	3276.23
993.897	3272.39
994.193	3252.05
994.49	3216.34
994.787	3224.03
995.083	3188.32
995.379	3170.02
995.676	3129.11
995.972	3127.98
996.268	3114.88
996.565	3073.07
996.861	3071.94
997.157	3091.37
997.453	3021.09
997.749	3002.56
998.044	3005.5
998.34	3018.83
998.636	2986.29
998.932	2942.22
999.227	2923.47
999.523	2923.69
999.818	2874.66
1000.114	2865.39
1000.409	2845.5
1000.704	2849.12
1001	2822.91
1001.295	2799.18
1001.59	2774.77
1001.885	2789.46
1002.18	2728.22
1002.475	2746.98
1002.77	2745.39
1003.065	2730.48
1003.359	2667.66
1003.654	2647.77
1003.949	2640.99
1004.243	2641.67
1004.538	2619.75
1004.832	2608
1005.127	2569.13
1005.421	2532.97
1005.715	2551.95
1006.009	2554.44
1006.304	2519.19
1006.598	2518.73
1006.892	2514.44
1007.186	2502.91
1007.48	2482.35
1007.773	2442.35
1008.067	2418.4
1008.361	2390.15
1008.655	2392.86
1008.948	2388.12
1009.242	2404.39
1009.535	2395.12
1009.829	2381.79
1010.122	2363.48
1010.415	2392.41
1010.708	2344.27
1011.001	2324.61
1011.295	2346.76
1011.588	2294.56
1011.881	2282.58
1012.173	2266.31
1012.466	2273.77
1012.759	2280.55
1013.052	2254.79
1013.344	2252.98
1013.637	2248.23
1013.93	2215.46
1014.222	2224.5
1014.514	2206.2
1014.807	2184.96
1015.099	2180.66
1015.391	2188.12
1015.683	2150.38
1015.976	2162.81
1016.268	2111.29
1016.56	2122.36
1016.851	2113.55
1017.143	2073.32
1017.435	2087.33
1017.727	2076.94
1018.018	2046.2
1018.31	2086.43
1018.602	2039.42
1018.893	2036.71
1019.185	2011.18
1019.476	2045.07
1019.767	1986.54
1020.058	1977.73
1020.35	1987.45
1020.641	1934.12
1020.932	1925.98
1021.223	1925.3
1021.514	1907
1021.804	1896.6
1022.095	1876.49
1022.386	1879.2
1022.677	1852.76
1022.967	1851.86
1023.258	1833.33
1023.548	1786.32
1023.839	1793.33
1024.129	1765.53
1024.419	1770.05
1024.709	1746.55
1025	1726.66
1025.29	1732.99
1025.58	1692.54
1025.87	1697.96
1026.16	1675.59
1026.449	1691.86
1026.739	1658.19
1027.029	1684.18
1027.319	1637.4
1027.608	1630.62
1027.898	1633.11
1028.187	1595.59
1028.477	1583.39
1028.766	1619.77
1029.055	1563.5
1029.344	1551.08
1029.634	1536.16
1029.923	1533.67
1030.212	1528.02
1030.501	1487.12
1030.79	1485.77
1031.078	1487.8
1031.367	1487.57
1031.656	1496.16
1031.945	1416.39
1032.233	1441.25
1032.522	1431.08
1032.81	1432.21
1033.099	1433.34
1033.387	1419.78
1033.675	1408.71
1033.963	1398.08
1034.251	1401.7
1034.54	1367.13
1034.828	1367.13
1035.116	1338.65
1035.403	1341.59
1035.691	1348.14
1035.979	1309.5
1036.267	1322.61
1036.554	1295.94
1036.842	1307.01
1037.129	1298.2
1037.417	1286.9
1037.704	1280.57
1037.992	1280.57
1038.279	1243.96
1038.566	1217.07
1038.853	1217.07
1039.14	1217.07
