Data from blue_chair_FLMS001491_00091.txt Node
Date: Wed Feb 08 10:32:18 GMT 2017
User: dcchb
Spectrometer: FLMS00149
Trigger mode: 0
Integration Time (sec): 2.000000E-2
Scans to average: 10
Electric dark correction enabled: true
Nonlinearity correction enabled: false
Boxcar width: 0
XAxis mode: Wavelengths
Number of Pixels in Spectrum: 2048
>>>>>Begin Spectral Data<<<<<
341.393	7.06
341.776	7.06
342.16	7.06
342.543	-52.82
342.927	-62.31
343.31	-60.28
343.693	-49.43
344.077	-68.64
344.46	-59.15
344.843	-50.11
345.226	-44.46
345.61	-42.65
345.993	-14.18
346.376	-9.43
346.759	12.71
347.142	17.68
347.525	36.21
347.908	65.37
348.291	74.18
348.674	73.73
349.057	118.47
349.44	136.78
349.823	165.7
350.206	161.41
350.588	168.19
350.971	187.4
351.354	188.3
351.737	214.51
352.119	241.63
352.502	254.97
352.884	269.2
353.267	262.87
353.65	260.16
354.032	268.75
354.414	285.02
354.797	280.05
355.179	286.83
355.562	292.25
355.944	312.36
356.326	273.72
356.709	295.19
357.091	324.57
357.473	322.08
357.855	301.29
358.238	314.85
358.62	306.94
359.002	323.44
359.384	314.17
359.766	312.59
360.148	321.63
360.53	306.49
360.912	312.59
361.294	285.25
361.676	322.76
362.057	315.3
362.439	313.72
362.821	292.93
363.203	295.64
363.584	312.82
363.966	290.67
364.348	309.43
364.729	297
365.111	294.06
365.493	276.66
365.874	310.56
366.256	297.68
366.637	275.53
367.019	277.34
367.4	266.26
367.781	275.08
368.163	293.16
368.544	287.05
368.925	286.15
369.306	264.46
369.688	292.7
370.069	292.93
370.45	288.41
370.831	280.73
371.212	268.52
371.593	288.64
371.974	261.74
372.355	273.95
372.736	281.86
373.117	313.72
373.498	304.91
373.879	290.9
374.26	282.08
374.641	297.9
375.021	303.55
375.402	289.54
375.783	289.09
376.163	286.15
376.544	293.38
376.925	287.96
377.305	301.29
377.686	286.83
378.066	298.58
378.447	306.94
378.827	319.14
379.208	294.96
379.588	293.38
379.968	294.06
380.349	313.72
380.729	318.69
381.109	286.6
381.489	277.56
381.87	275.08
382.25	292.03
382.63	310.1
383.01	313.49
383.39	317.79
383.77	322.53
384.15	287.28
384.53	306.26
384.91	299.94
385.29	289.99
385.67	288.64
386.049	311.69
386.429	323.44
386.809	319.82
387.189	335.19
387.568	299.71
387.948	306.49
388.328	319.82
388.707	319.82
389.087	310.56
389.466	298.58
389.846	321.4
390.225	322.53
390.605	311.46
390.984	317.34
391.363	297.9
391.743	315.98
392.122	313.04
392.501	312.82
392.881	327.96
393.26	312.36
393.639	335.41
394.018	339.48
394.397	322.76
394.776	303.33
395.155	318.69
395.534	338.13
395.913	303.1
396.292	306.72
396.671	316.43
397.05	312.14
397.429	328.18
397.808	323.66
398.186	318.01
398.565	340.16
398.944	314.85
399.323	338.58
399.701	338.8
400.08	314.17
400.458	346.49
400.837	342.19
401.215	355.08
401.594	332.48
401.972	376.54
402.351	352.82
402.729	327.73
403.107	344
403.486	338.58
403.864	345.81
404.242	355.53
404.62	345.58
404.999	352.59
405.377	336.32
405.755	346.94
406.133	345.36
406.511	358.47
406.889	347.39
407.267	378.58
407.645	353.72
408.023	339.48
408.401	364.57
408.779	376.32
409.156	369.99
409.534	367.73
409.912	361.18
410.29	387.39
410.667	375.64
411.045	369.09
411.422	374.74
411.8	373.61
412.178	379.71
412.555	376.32
412.933	381.74
413.31	380.16
413.687	398.01
414.065	400.05
414.442	397.33
414.819	401.85
415.197	395.53
415.574	370.89
415.951	392.14
416.328	381.74
416.705	398.24
417.082	383.32
417.46	411.57
417.837	411.35
418.214	393.94
418.591	393.49
418.967	419.71
419.344	392.59
419.721	397.33
420.098	416.99
420.475	411.57
420.852	417.45
421.228	406.37
421.605	414.06
421.982	421.74
422.358	440.04
422.735	431.68
423.111	441.4
423.488	452.02
423.864	428.75
424.241	448.63
424.617	453.6
424.994	454.51
425.37	446.37
425.746	475.07
426.123	476.43
426.499	456.32
426.875	461.51
427.251	472.59
427.627	480.95
428.003	485.69
428.379	462.42
428.756	467.39
429.132	477.11
429.507	484.79
429.883	478.91
430.259	500.61
430.635	496.99
431.011	475.52
431.387	510.1
431.763	530.89
432.138	497.9
432.514	529.31
432.89	519.59
433.265	515.75
433.641	522.08
434.016	536.31
434.392	549.87
434.767	545.58
435.143	539.7
435.518	563.43
435.894	589.65
436.269	582.41
436.644	577.89
437.02	567.27
437.395	560.95
437.77	574.28
438.145	582.41
438.52	580.38
438.895	613.37
439.271	614.05
439.646	614.73
440.021	611.11
440.395	626.71
440.77	616.31
441.145	612.92
441.52	627.61
441.895	633.71
442.27	632.81
442.645	636.2
443.019	645.92
443.394	645.24
443.769	669.42
444.143	671
444.518	653.82
444.892	675.29
445.267	686.37
445.641	656.08
446.016	668.51
446.39	692.69
446.764	691.11
447.139	683.2
447.513	705.12
447.887	727.72
448.262	680.72
448.636	692.92
449.01	716.65
449.384	716.87
449.758	712.81
450.132	724.33
450.506	737.21
450.88	730.88
451.254	738.12
451.628	742.86
452.002	763.65
452.376	775.4
452.75	780.6
453.123	753.93
453.497	792.35
453.871	776.53
454.244	772.01
454.618	760.26
454.992	811.56
455.365	786.7
455.739	821.96
456.112	788.74
456.486	810.66
456.859	825.35
457.232	870.32
457.606	830.77
457.979	827.61
458.352	852.01
458.725	874.16
459.099	858.79
459.472	889.3
459.845	892.46
460.218	874.38
460.591	906.02
460.964	876.64
461.337	908.73
461.71	922.29
462.083	913.48
462.456	928.39
462.829	915.29
463.201	970.2
463.574	902.86
463.947	948.51
464.32	985.12
464.692	967.71
465.065	976.08
465.438	979.24
465.81	977.88
466.183	1018.79
466.555	980.14
466.928	992.12
467.3	1005.68
467.672	1015.4
468.045	1034.38
468.417	1052.01
468.789	1023.76
469.161	1077.54
469.534	1060.82
469.906	1056.75
470.278	1054.27
470.65	1082.74
471.022	1087.71
471.394	1123.87
471.766	1129.29
472.138	1128.39
472.51	1160.25
472.882	1141.04
473.253	1157.54
473.625	1186.01
473.997	1176.3
474.369	1174.94
474.74	1178.78
475.112	1214.71
475.484	1230.31
475.855	1248.39
476.227	1248.16
476.598	1250.87
476.97	1248.61
477.341	1259.91
477.713	1286.58
478.084	1300.81
478.455	1301.49
478.827	1329.97
479.198	1358.44
479.569	1365.44
479.94	1382.17
480.311	1379.46
480.682	1381.04
481.053	1406.57
481.424	1426.69
481.795	1420.58
482.166	1465.33
482.537	1476.4
482.908	1457.19
483.279	1496.06
483.65	1499.45
484.021	1538.1
484.391	1505.55
484.762	1527.47
485.133	1554.59
485.503	1573.8
485.874	1576.96
486.244	1595.72
486.615	1592.33
486.985	1602.27
487.356	1633.69
487.726	1624.65
488.097	1668.94
488.467	1674.36
488.837	1679.79
489.207	1693.57
489.578	1710.07
489.948	1689.73
490.318	1714.81
490.688	1724.3
491.058	1736.51
491.428	1730.63
491.798	1740.12
492.168	1769.05
492.538	1769.95
492.908	1764.53
493.278	1802.27
493.648	1759.56
494.017	1775.15
494.387	1823.29
494.757	1800.24
495.126	1798.43
495.496	1810.18
495.866	1785.09
496.235	1823.51
496.605	1818.77
496.974	1826.9
497.344	1828.93
497.713	1876.62
498.082	1848.14
498.452	1860.35
498.821	1840.69
499.19	1865.09
499.559	1858.09
499.928	1844.08
500.298	1869.84
500.667	1863.06
501.036	1856.28
501.405	1865.54
501.774	1867.58
502.143	1894.92
502.512	1898.09
502.88	1857.18
503.249	1849.27
503.618	1874.81
503.987	1850.18
504.356	1881.81
504.724	1843.62
505.093	1851.53
505.462	1883.4
505.83	1877.97
506.199	1849.5
506.567	1901.25
506.936	1848.82
507.304	1847.01
507.672	1892.44
508.041	1880.01
508.409	1884.98
508.777	1892.44
509.145	1885.2
509.514	1874.13
509.882	1886.56
510.25	1885.88
510.618	1862.15
510.986	1837.3
511.354	1877.52
511.722	1894.47
512.09	1866
512.458	1873
512.826	1858.09
513.193	1887.01
513.561	1862.83
513.929	1868.03
514.297	1887.24
514.664	1859.67
515.032	1880.46
515.4	1856.05
515.767	1881.81
516.135	1871.19
516.502	1858.99
516.869	1852.21
517.237	1845.66
517.604	1823.29
517.972	1819.67
518.339	1849.73
518.706	1814.92
519.073	1824.64
519.44	1845.66
519.808	1825.32
520.175	1809.95
520.542	1831.87
520.909	1817.64
521.276	1816.28
521.643	1823.06
522.009	1804.75
522.376	1775.6
522.743	1831.42
523.11	1820.35
523.477	1809.73
523.843	1821.03
524.21	1835.71
524.577	1805.88
524.943	1816.73
525.31	1817.18
525.676	1826.9
526.043	1793
526.409	1792.1
526.776	1795.49
527.142	1819.67
527.508	1795.26
527.874	1806.56
528.241	1794.13
528.607	1814.47
528.973	1785.77
529.339	1782.61
529.705	1797.75
530.071	1776.96
530.437	1793.91
530.803	1758.88
531.169	1780.12
531.535	1772.44
531.901	1794.81
532.267	1784.87
532.632	1755.26
532.998	1747.13
533.364	1774.02
533.73	1724.08
534.095	1738.09
534.461	1735.38
534.826	1745.32
535.192	1741.48
535.557	1764.08
535.923	1737.19
536.288	1735.83
536.653	1736.73
537.019	1713.46
537.384	1691.99
537.749	1724.76
538.114	1705.55
538.479	1740.12
538.845	1724.3
539.21	1697.19
539.575	1663.97
539.94	1694.7
540.305	1703.74
540.67	1659.22
541.034	1651.76
541.399	1656.51
541.764	1662.39
542.129	1691.31
542.494	1649.05
542.858	1640.24
543.223	1649.05
543.587	1644.53
543.952	1620.35
544.316	1638.21
544.681	1641.37
545.045	1616.06
545.41	1604.08
545.774	1620.58
546.138	1602.95
546.503	1605.66
546.867	1599.56
547.231	1588.94
547.595	1592.56
547.959	1601.14
548.324	1587.59
548.688	1595.72
549.052	1552.56
549.416	1563.18
549.779	1547.59
550.143	1519.79
550.507	1558.21
550.871	1568.83
551.235	1545.1
551.599	1534.93
551.962	1545.78
552.326	1521.82
552.689	1525.44
553.053	1517.08
553.417	1505.33
553.78	1505.55
554.143	1530.86
554.507	1508.49
554.87	1497.19
555.234	1522.73
555.597	1491.54
555.96	1487.7
556.323	1505.55
556.686	1466.68
557.05	1472.79
557.413	1467.14
557.776	1451.54
558.139	1493.12
558.502	1457.65
558.865	1469.4
559.228	1464.42
559.59	1492.22
559.953	1468.04
560.316	1486.35
560.679	1521.37
561.041	1492.67
561.404	1465.55
561.767	1459.45
562.129	1484.09
562.492	1444.09
562.854	1444.31
563.217	1481.15
563.579	1445.67
563.941	1461.26
564.304	1455.39
564.666	1478.89
565.028	1475.27
565.39	1465.33
565.753	1452
566.115	1455.39
566.477	1464.88
566.839	1489.06
567.201	1480.47
567.563	1477.76
567.925	1475.72
568.287	1463.29
568.648	1464.65
569.01	1496.29
569.372	1500.13
569.734	1476.18
570.095	1489.28
570.457	1461.49
570.819	1491.32
571.18	1503.07
571.542	1486.35
571.903	1467.36
572.265	1502.84
572.626	1498.1
572.987	1489.73
573.349	1534.93
573.71	1522.05
574.071	1519.56
574.432	1536.29
574.794	1550.75
575.155	1537.87
575.516	1546.46
575.877	1541.48
576.238	1543.97
576.599	1548.04
576.96	1534.25
577.32	1554.14
577.681	1536.06
578.042	1564.99
578.403	1552.78
578.763	1573.57
579.124	1557.3
579.485	1599.56
579.845	1570.18
580.206	1560.92
580.566	1558.89
580.927	1591.2
581.287	1572.44
581.648	1556.17
582.008	1618.55
582.368	1584.2
582.728	1579.9
583.089	1617.42
583.449	1592.11
583.809	1582.16
584.169	1586.23
584.529	1566.79
584.889	1603.18
585.249	1560.92
585.609	1585.33
585.969	1606.34
586.329	1568.83
586.688	1578.32
587.048	1597.75
587.408	1595.72
587.768	1592.56
588.127	1600.01
588.487	1565.67
588.846	1598.88
589.206	1566.79
589.565	1595.49
589.925	1596.17
590.284	1588.26
590.643	1623.74
591.003	1579.45
591.362	1600.69
591.721	1584.65
592.08	1597.3
592.44	1608.15
592.799	1613.35
593.158	1619.9
593.517	1586
593.876	1636.62
594.235	1579.9
594.593	1567.25
594.952	1593.23
595.311	1573.57
595.67	1568.15
596.029	1617.64
596.387	1603.4
596.746	1595.04
597.104	1607.47
597.463	1614.93
597.822	1597.3
598.18	1600.24
598.538	1569.05
598.897	1594.59
599.255	1565.44
599.613	1573.57
599.972	1610.18
600.33	1593.01
600.688	1595.72
601.046	1575.16
601.404	1603.18
601.762	1608.83
602.12	1607.02
602.478	1578.55
602.836	1575.16
603.194	1576.06
603.552	1590.52
603.91	1585.55
604.268	1589.17
604.625	1615.16
604.983	1602.5
605.341	1598.88
605.698	1589.62
606.056	1580.13
606.413	1596.17
606.771	1585.1
607.128	1620.8
607.485	1566.12
607.843	1595.27
608.2	1634.82
608.557	1601.82
608.914	1576.74
609.272	1629.17
609.629	1595.49
609.986	1580.81
610.343	1591.65
610.7	1621.03
611.057	1618.32
611.414	1602.5
611.771	1601.37
612.127	1619
612.484	1597.98
612.841	1614.25
613.198	1594.36
613.554	1596.62
613.911	1610.18
614.267	1605.89
614.624	1611.77
614.98	1602.73
615.337	1611.09
615.693	1626.91
616.05	1608.6
616.406	1600.47
616.762	1624.42
617.118	1603.86
617.475	1639.79
617.831	1628.04
618.187	1600.01
618.543	1633.23
618.899	1643.86
619.255	1646.57
619.611	1630.52
619.967	1598.43
620.323	1613.12
620.678	1621.48
621.034	1658.09
621.39	1601.82
621.746	1645.66
622.101	1636.85
622.457	1611.54
622.812	1605.66
623.168	1622.39
623.523	1631.88
623.879	1618.09
624.234	1579.45
624.589	1649.96
624.945	1613.35
625.3	1636.17
625.655	1670.97
626.01	1620.58
626.365	1613.8
626.72	1610.86
627.075	1637.53
627.43	1583.74
627.785	1615.61
628.14	1602.27
628.495	1627.58
628.85	1613.57
629.205	1632.56
629.559	1638.21
629.914	1635.27
630.269	1625.1
630.623	1629.17
630.978	1647.92
631.332	1623.52
631.687	1626.45
632.041	1620.35
632.396	1626.68
632.75	1626
633.104	1617.87
633.459	1635.95
633.813	1598.66
634.167	1620.13
634.521	1639.79
634.875	1630.07
635.229	1626.45
635.583	1602.05
635.937	1642.05
636.291	1613.12
636.645	1642.27
636.999	1631.65
637.352	1619.22
637.706	1579.68
638.06	1619.22
638.413	1610.41
638.767	1601.37
639.121	1648.15
639.474	1593.69
639.828	1623.52
640.181	1610.41
640.534	1590.52
640.888	1601.6
641.241	1615.16
641.594	1600.24
641.947	1588.72
642.301	1623.29
642.654	1606.57
643.007	1613.12
643.36	1605.21
643.713	1617.87
644.066	1577.19
644.419	1618.09
644.771	1635.27
645.124	1585.33
645.477	1602.95
645.83	1587.59
646.182	1610.18
646.535	1600.01
646.888	1617.64
647.24	1619
647.593	1566.12
647.945	1580.81
648.298	1560.24
648.65	1577.19
649.002	1570.86
649.355	1590.75
649.707	1621.93
650.059	1610.41
650.411	1619
650.763	1631.65
651.115	1658.32
651.467	1603.63
651.819	1611.99
652.171	1663.97
652.523	1633.69
652.875	1628.94
653.227	1630.97
653.578	1633.69
653.93	1637.08
654.282	1656.74
654.633	1640.47
654.985	1647.24
655.337	1630.3
655.688	1666.23
656.039	1623.06
656.391	1617.87
656.742	1623.97
657.094	1630.07
657.445	1672.78
657.796	1622.84
658.147	1633.23
658.498	1654.48
658.849	1659.22
659.2	1642.05
659.551	1640.01
659.902	1618.77
660.253	1668.04
660.604	1664.87
660.955	1669.17
661.306	1666.91
661.656	1637.98
662.007	1652.44
662.358	1627.13
662.708	1659
663.059	1635.49
663.409	1648.83
663.76	1644.08
664.11	1630.97
664.461	1646.34
664.811	1649.96
665.161	1663.52
665.511	1692.89
665.862	1656.06
666.212	1667.58
666.562	1659.45
666.912	1653.57
667.262	1670.97
667.612	1641.82
667.962	1637.3
668.312	1661.03
668.662	1638.21
669.011	1657.19
669.361	1646.79
669.711	1677.3
670.06	1648.83
670.41	1629.62
670.76	1662.16
671.109	1658.77
671.459	1676.4
671.808	1656.51
672.157	1635.04
672.507	1614.03
672.856	1645.21
673.205	1633.01
673.554	1638.66
673.904	1605.89
674.253	1642.5
674.602	1636.85
674.951	1597.53
675.3	1602.73
675.649	1611.77
675.998	1591.43
676.346	1617.19
676.695	1621.71
677.044	1607.47
677.393	1623.74
677.741	1621.48
678.09	1633.46
678.438	1593.01
678.787	1600.92
679.135	1626.45
679.484	1579.45
679.832	1616.06
680.181	1586
680.529	1614.03
680.877	1594.36
681.225	1600.69
681.573	1585.55
681.922	1576.06
682.27	1608.6
682.618	1560.92
682.966	1566.12
683.314	1545.55
683.661	1589.39
684.009	1585.55
684.357	1578.77
684.705	1569.96
685.053	1542.39
685.4	1560.47
685.748	1584.87
686.095	1511.43
686.443	1522.5
686.79	1525.67
687.138	1553.46
687.485	1539.68
687.832	1539.23
688.18	1525.21
688.527	1527.7
688.874	1510.3
689.221	1539.9
689.568	1517.08
689.915	1498.1
690.262	1507.14
690.609	1515.95
690.956	1513.91
691.303	1495.16
691.65	1510.53
691.997	1505.33
692.344	1487.48
692.69	1491.77
693.037	1453.35
693.383	1473.01
693.73	1466.91
694.077	1468.04
694.423	1488.83
694.769	1464.42
695.116	1475.27
695.462	1444.54
695.808	1473.69
696.155	1461.49
696.501	1456.74
696.847	1476.85
697.193	1443.86
697.539	1452.67
697.885	1436.18
698.231	1447.48
698.577	1456.29
698.923	1428.04
699.269	1449.51
699.614	1407.48
699.96	1446.35
700.306	1435.27
700.651	1433.24
700.997	1406.12
701.342	1402.05
701.688	1434.82
702.033	1381.72
702.379	1392.79
702.724	1396.63
703.069	1388.04
703.415	1366.57
703.76	1357.99
704.105	1384.43
704.45	1386.23
704.795	1369.96
705.14	1389.4
705.485	1375.84
705.83	1371.32
706.175	1365.9
706.52	1371.77
706.865	1383.75
707.209	1372.22
707.554	1385.1
707.899	1367.48
708.243	1376.29
708.588	1360.02
708.932	1372.45
709.277	1379.23
709.621	1370.87
709.966	1381.04
710.31	1407.25
710.654	1383.97
710.998	1379.91
711.342	1367.48
711.687	1363.18
712.031	1372
712.375	1368.38
712.719	1385.78
713.063	1375.39
713.407	1380.36
713.75	1389.4
714.094	1372.68
714.438	1388.72
714.782	1411.54
715.125	1387.36
715.469	1404.31
715.812	1402.05
716.156	1376.97
716.499	1392.11
716.843	1405.9
717.186	1384.88
717.53	1403.86
717.873	1393.01
718.216	1411.09
718.559	1388.72
718.902	1407.48
719.246	1401.6
719.589	1401.38
719.932	1386.23
720.275	1410.64
720.617	1413.58
720.96	1415.39
721.303	1422.39
721.646	1420.13
721.989	1431.21
722.331	1440.02
722.674	1419.91
723.016	1426.69
723.359	1459
723.701	1424.2
724.044	1427.36
724.386	1449.28
724.729	1433.47
725.071	1470.75
725.413	1442.05
725.755	1459
726.097	1480.47
726.439	1460.81
726.782	1468.04
727.124	1465.78
727.465	1440.92
727.807	1485.22
728.149	1480.24
728.491	1486.35
728.833	1509.62
729.175	1478.66
729.516	1499.23
729.858	1497.42
730.199	1524.76
730.541	1541.26
730.882	1524.99
731.224	1519.79
731.565	1544.2
731.906	1531.09
732.248	1544.2
732.589	1584.65
732.93	1565.21
733.271	1583.97
733.612	1563.18
733.953	1579.9
734.294	1616.74
734.635	1589.39
734.976	1593.69
735.317	1609.05
735.658	1591.43
735.999	1627.36
736.339	1652.89
736.68	1649.96
737.021	1633.23
737.361	1633.46
737.702	1671.88
738.042	1665.55
738.383	1690.86
738.723	1731.54
739.063	1709.62
739.404	1737.19
739.744	1732.89
740.084	1724.53
740.424	1748.94
740.764	1761.82
741.104	1795.94
741.444	1803.62
741.784	1797.75
742.124	1811.08
742.464	1825.32
742.804	1828.26
743.143	1894.02
743.483	1881.36
743.823	1909.61
744.162	1899.89
744.502	1935.82
744.841	1945.77
745.181	1968.14
745.52	1973.11
745.86	2016.73
746.199	2042.04
746.538	2044.97
746.877	2103.73
747.216	2107.12
747.556	2125.65
747.895	2183.95
748.234	2174.46
748.573	2203.39
748.911	2263.05
749.25	2272.31
749.589	2283.16
749.928	2346.21
750.267	2387.56
750.605	2408.81
750.944	2426.21
751.283	2460.56
751.621	2501.23
751.96	2515.47
752.298	2557.28
752.636	2594.34
752.975	2642.02
753.313	2662.13
753.651	2745.97
753.989	2719.53
754.327	2815.12
754.666	2819.42
755.004	2885.63
755.342	2937.15
755.679	2945.06
756.017	3020.09
756.355	3079.3
756.693	3139.18
757.031	3152.29
757.368	3199.07
757.706	3236.13
758.044	3278.16
758.381	3408.33
758.719	3386.41
759.056	3514.31
759.394	3522.45
759.731	3540.75
760.068	3608.1
760.405	3640.19
760.743	3728.32
761.08	3749.79
761.417	3787.75
761.754	3867.75
762.091	3860.07
762.428	3860.07
762.765	3943.46
763.102	4008.99
763.438	4029.56
763.775	4125.82
764.112	4121.3
764.449	4181.87
764.785	4203.34
765.122	4257.8
765.458	4321.07
765.795	4358.81
766.131	4414.63
766.467	4394.29
766.804	4458.47
767.14	4447.17
767.476	4485.14
767.812	4553.84
768.148	4586.15
768.485	4577.79
768.821	4612.59
769.157	4627.96
769.492	4708.18
769.828	4760.16
770.164	4735.07
770.5	4810.1
770.836	4764.68
771.171	4765.81
771.507	4890.1
771.842	4845.58
772.178	4866.6
772.513	4919.25
772.849	4937.78
773.184	4961.73
773.519	4952.69
773.855	4943.66
774.19	4993.15
774.525	5013.26
774.86	5019.59
775.195	5074.27
775.53	5074.5
775.865	5100.04
776.2	5081.05
776.535	5049.19
776.87	5124.22
777.205	5067.27
777.539	5128.51
777.874	5182.07
778.209	5176.42
778.543	5183.2
778.878	5160.6
779.212	5142.52
779.547	5161.05
779.881	5220.94
780.215	5213.48
780.55	5186.13
780.884	5244.21
781.218	5231.56
781.552	5215.51
781.886	5239.24
782.22	5195.85
782.554	5257.55
782.888	5153.59
783.222	5184.1
783.556	5181.39
783.889	5180.49
784.223	5175.29
784.557	5171.67
784.89	5207.38
785.224	5176.87
785.557	5178
785.891	5167.83
786.224	5197.43
786.558	5229.75
786.891	5147.49
787.224	5196.98
787.557	5155.18
787.891	5161.28
788.224	5210.09
788.557	5216.19
788.89	5161.05
789.223	5165.57
789.556	5132.58
789.888	5198.11
790.221	5118.34
790.554	5109.07
790.887	5116.98
791.219	5083.54
791.552	5082.18
791.884	5124.22
792.217	5093.48
792.549	5127.38
792.882	5069.75
793.214	5047.38
793.546	5048.29
793.879	5079.02
794.211	5064.78
794.543	5100.04
794.875	5080.6
795.207	5103.43
795.539	5036.31
795.871	5079.24
796.203	5032.01
796.535	5028.4
796.867	5018.23
797.198	4963.54
797.53	5013.48
797.862	4970.77
798.193	4997.21
798.525	4967.61
798.856	4966.03
799.188	4944.11
799.519	4933.71
799.85	4926.03
800.182	4929.87
800.513	4946.82
800.844	4915.18
801.175	5008.96
801.506	4904.56
801.837	4886.93
802.168	4890.55
802.499	4876.09
802.83	4891.23
803.161	4843.32
803.491	4872.7
803.822	4857.56
804.153	4821.17
804.483	4853.49
804.814	4813.04
805.145	4840.16
805.475	4800.16
805.805	4806.94
806.136	4801.96
806.466	4820.49
806.796	4812.13
807.126	4757.22
807.457	4792.92
807.787	4769.65
808.117	4751.57
808.447	4752.02
808.777	4727.84
809.107	4749.08
809.436	4658.92
809.766	4749.76
810.096	4688.97
810.426	4684.91
810.755	4680.84
811.085	4740.04
811.414	4684.68
811.744	4670.44
812.073	4658.69
812.403	4712.7
812.732	4677
813.061	4672.7
813.39	4620.73
813.719	4617.79
814.049	4633.83
814.378	4616.43
814.707	4567.62
815.036	4641.74
815.365	4575.98
815.693	4593.61
816.022	4573.27
816.351	4564.23
816.68	4544.12
817.008	4545.7
817.337	4532.37
817.665	4524.46
817.994	4515.87
818.322	4533.27
818.651	4500.5
818.979	4509.77
819.307	4535.08
819.636	4544.12
819.964	4490.56
820.292	4501.18
820.62	4514.51
820.948	4526.04
821.276	4487.62
821.604	4481.52
821.932	4523.78
822.259	4486.04
822.587	4540.28
822.915	4502.76
823.243	4557.9
823.57	4546.38
823.898	4539.37
824.225	4512.48
824.553	4525.36
824.88	4524.01
825.207	4521.52
825.535	4494.4
825.862	4501.63
826.189	4541.18
826.516	4585.25
826.843	4550.22
827.17	4577.79
827.497	4534.17
827.824	4560.61
828.151	4552.03
828.478	4552.25
828.805	4547.28
829.131	4517
829.458	4530.33
829.785	4525.59
830.111	4528.07
830.438	4524.23
830.764	4599.94
831.09	4537.79
831.417	4568.3
831.743	4565.59
832.069	4545.93
832.395	4526.94
832.722	4560.16
833.048	4514.97
833.374	4524.01
833.7	4531.01
834.026	4530.78
834.351	4540.95
834.677	4542.76
835.003	4562.2
835.329	4511.12
835.654	4522.88
835.98	4520.84
836.306	4545.25
836.631	4495.98
836.956	4531.01
837.282	4543.89
837.607	4535.76
837.932	4489.66
838.258	4495.08
838.583	4458.47
838.908	4471.8
839.233	4437.91
839.558	4473.39
839.883	4420.28
840.208	4407.4
840.533	4450.79
840.858	4430.45
841.182	4416.66
841.507	4469.32
841.832	4438.81
842.156	4414.63
842.481	4423.89
842.805	4380.05
843.13	4376.21
843.454	4371.24
843.778	4394.74
844.103	4373.05
844.427	4369.66
844.751	4357.91
845.075	4331.47
845.399	4336.67
845.723	4310.45
846.047	4268.19
846.371	4261.41
846.695	4278.81
847.019	4220.96
847.343	4287.18
847.666	4203.79
847.99	4186.84
848.313	4198.59
848.637	4171.25
848.96	4194.07
849.284	4156.11
849.607	4139.38
849.931	4123.34
850.254	4100.74
850.577	4116.33
850.9	4071.59
851.223	4112.94
851.546	4061.64
851.869	3964.92
852.192	4014.41
852.515	4004.02
852.838	4001.31
853.161	4024.81
853.483	3962.21
853.806	3940.29
854.129	3966.28
854.451	3966.96
854.774	3919.5
855.096	3897.13
855.419	3896
855.741	3869.79
856.063	3901.87
856.385	3896.9
856.708	3837.47
857.03	3834.76
857.352	3823.91
857.674	3843.12
857.996	3846.06
858.318	3797.02
858.64	3820.07
858.961	3833.18
859.283	3809.67
859.605	3781.88
859.926	3739.39
860.248	3769
860.57	3744.82
860.891	3750.47
861.212	3746.17
861.534	3708.66
861.855	3734.65
862.176	3679.96
862.498	3678.6
862.819	3722.44
863.14	3659.4
863.461	3655.1
863.782	3677.47
864.103	3680.64
864.424	3719.05
864.745	3700.52
865.065	3649.23
865.386	3685.16
865.707	3613.52
866.027	3663.01
866.348	3661.43
866.668	3597.48
866.989	3659.85
867.309	3601.32
867.63	3644.71
867.95	3599.74
868.27	3594.31
868.59	3589.57
868.91	3597.7
869.23	3606.06
869.55	3564.48
869.87	3555.22
870.19	3571.26
870.51	3553.41
870.83	3593.41
871.15	3566.06
871.469	3588.44
871.789	3524.94
872.109	3558.16
872.428	3501.43
872.748	3529.23
873.067	3520.19
873.386	3509.34
873.706	3507.08
874.025	3528.55
874.344	3525.39
874.663	3549.12
874.982	3463.02
875.301	3503.02
875.62	3472.96
875.939	3469.57
876.258	3509.57
876.577	3478.61
876.896	3458.04
877.214	3428.21
877.533	3462.34
877.852	3455.56
878.17	3425.28
878.489	3427.54
878.807	3471.83
879.125	3449.68
879.444	3456.46
879.762	3442.45
880.08	3385.73
880.398	3405.84
880.716	3412.85
881.034	3421.66
881.352	3366.07
881.67	3389.8
881.988	3375.79
882.306	3372.85
882.624	3353.87
882.941	3385.96
883.259	3331.27
883.577	3347.54
883.894	3314.55
884.212	3309.8
884.529	3332.4
884.846	3301.44
885.164	3305.96
885.481	3304.83
885.798	3298.5
886.115	3280.87
886.432	3271.83
886.75	3264.6
887.067	3293.76
887.383	3239.29
887.7	3258.05
888.017	3206.98
888.334	3239.29
888.651	3200.88
888.967	3202.91
889.284	3206.3
889.6	3203.81
889.917	3164.49
890.233	3195.45
890.55	3152.97
890.866	3170.59
891.182	3174.44
891.498	3197.49
891.815	3158.39
892.131	3138.28
892.447	3138.51
892.763	3108.45
893.079	3084.04
893.395	3099.18
893.71	3091.95
894.026	3055.57
894.342	3090.14
894.657	3042.46
894.973	3028.68
895.289	3054.44
895.604	3039.75
895.92	3053.54
896.235	3010.15
896.55	3042.91
896.865	3011.95
897.181	2993.88
897.496	2991.84
897.811	2997.72
898.126	2949.81
898.441	2917.27
898.756	2965.4
899.071	2906.19
899.386	2926.76
899.7	2847.21
900.015	2922.01
900.33	2861.9
900.644	2905.97
900.959	2881.79
901.273	2849.7
901.588	2868.46
901.902	2814.67
902.216	2838.85
902.531	2857.38
902.845	2807.21
903.159	2773.32
903.473	2774.67
903.787	2757.5
904.101	2790.04
904.415	2761.57
904.729	2731.96
905.042	2718.86
905.356	2723.15
905.67	2746.88
905.984	2722.92
906.297	2736.71
906.611	2705.3
906.924	2679.31
907.237	2670.04
907.551	2652.19
907.864	2662.13
908.177	2681.57
908.491	2644.05
908.804	2640.67
909.117	2604.73
909.43	2599.99
909.743	2589.59
910.056	2630.95
910.368	2583.94
910.681	2531.52
910.994	2554.11
911.307	2562.7
911.619	2515.92
911.932	2525.41
912.244	2486.77
912.557	2531.97
912.869	2510.27
913.181	2476.38
913.494	2507.56
913.806	2476.15
914.118	2501.01
914.43	2461.23
914.742	2453.33
915.054	2454
915.366	2438.86
915.678	2400.22
915.99	2415.36
916.302	2401.58
916.613	2396.38
916.925	2414
917.236	2391.18
917.548	2377.62
917.859	2414
918.171	2383.27
918.482	2343.27
918.794	2350.05
919.105	2340.33
919.416	2312.09
919.727	2315.25
920.038	2253.56
920.349	2290.62
920.66	2294.46
920.971	2288.13
921.282	2248.81
921.593	2242.94
921.903	2264.4
922.214	2271.41
922.525	2233.44
922.835	2218.08
923.146	2189.15
923.456	2182.82
923.767	2203.84
924.077	2173.56
924.387	2195.93
924.697	2194.8
925.008	2192.77
925.318	2188.93
925.628	2188.25
925.938	2162.26
926.248	2174.46
926.558	2135.14
926.867	2148.7
927.177	2090.17
927.487	2113.45
927.796	2093.33
928.106	2114.58
928.416	2142.83
928.725	2107.35
929.034	2064.18
929.344	2074.58
929.653	2047.23
929.962	2040.68
930.271	2033.45
930.581	2018.31
930.89	2069.38
931.199	2000
931.508	2038.87
931.817	2016.5
932.125	2034.13
932.434	2007.91
932.743	1950.97
933.051	1996.84
933.36	1976.73
933.669	1953.9
933.977	1995.71
934.286	1956.16
934.594	1960
934.902	1902.38
935.21	1947.12
935.519	1953.45
935.827	1939.21
936.135	1901.93
936.443	1899.22
936.751	1874.36
937.059	1899.22
937.367	1888.82
937.674	1889.5
937.982	1873.45
938.29	1831.65
938.597	1865.77
938.905	1884.53
939.213	1819.44
939.52	1817.41
939.827	1835.26
940.135	1808.82
940.442	1827.13
940.749	1806.79
941.056	1798.2
941.363	1774.25
941.67	1781.48
941.977	1781.25
942.284	1770.18
942.591	1758.88
942.898	1754.13
943.205	1757.75
943.511	1737.19
943.818	1747.81
944.125	1727.92
944.431	1726.79
944.738	1710.75
945.044	1729.5
945.35	1720.46
945.657	1702.38
945.963	1692.22
946.269	1723.4
946.575	1698.99
946.881	1681.14
947.187	1679.33
947.493	1658.32
947.799	1665.32
948.105	1665.1
948.41	1672.33
948.716	1640.01
949.022	1596.4
949.327	1650.63
949.633	1621.71
949.938	1642.27
950.244	1642.5
950.549	1598.66
950.854	1600.92
951.16	1594.14
951.465	1584.2
951.77	1588.94
952.075	1582.84
952.38	1580.81
952.685	1551.88
952.99	1581.71
953.294	1552.33
953.599	1545.55
953.904	1558.21
954.209	1546.23
954.513	1532.22
954.818	1553.24
955.122	1522.28
955.426	1529.96
955.731	1526.34
956.035	1497.42
956.339	1505.78
956.643	1508.94
956.948	1517.3
957.252	1498.32
957.556	1495.84
957.86	1491.54
958.163	1480.24
958.467	1466.01
958.771	1466.23
959.075	1446.12
959.378	1454.03
959.682	1451.09
959.985	1437.76
960.289	1464.88
960.592	1430.53
960.896	1435.72
961.199	1385.1
961.502	1417.87
961.805	1408.38
962.108	1386.23
962.411	1346.24
962.714	1412.9
963.017	1385.1
963.32	1422.62
963.623	1376.74
963.926	1365.22
964.228	1367.25
964.531	1359.57
964.833	1361.38
965.136	1382.17
965.438	1356.86
965.741	1371.55
966.043	1322.73
966.345	1315.05
966.648	1346.24
966.95	1320.25
967.252	1329.06
967.554	1330.87
967.856	1324.54
968.158	1299.01
968.46	1299.68
968.761	1293.36
969.063	1320.93
969.365	1280.02
969.666	1322.73
969.968	1287.71
970.269	1270.08
970.571	1253.81
970.872	1244.09
971.174	1288.61
971.475	1259.91
971.776	1225.79
972.077	1232.57
972.378	1247.71
972.679	1228.72
972.98	1248.61
973.281	1251.55
973.582	1239.12
973.883	1225.34
974.183	1223.53
974.484	1207.03
974.785	1205.22
975.085	1186.47
975.386	1236.18
975.686	1217.43
975.986	1173.58
976.287	1185.56
976.587	1186.24
976.887	1171.55
977.187	1158.67
977.487	1191.21
977.787	1171.1
978.087	1170.42
978.387	1170.87
978.687	1157.99
978.987	1166.58
979.286	1161.83
979.586	1174.04
979.885	1131.55
980.185	1152.57
980.484	1152.34
980.784	1129.97
981.083	1110.08
981.382	1126.13
981.682	1121.83
981.981	1095.85
982.28	1117.77
982.579	1112.57
982.878	1114.6
983.177	1115.51
983.475	1108.05
983.774	1077.77
984.073	1082.51
984.372	1093.81
984.67	1081.61
984.969	1064.89
985.267	1079.8
985.566	1064.66
985.864	1083.87
986.162	1061.95
986.461	1041.16
986.759	1034.38
987.057	1023.31
987.355	1027.6
987.653	1030.99
987.951	1012.01
988.249	1054.04
988.547	1000.48
988.844	1023.53
989.142	1030.31
989.44	1025.34
989.737	988.96
990.035	993.93
990.332	1016.75
990.63	1027.83
990.927	981.95
991.224	1011.33
991.521	1001.61
991.819	990.76
992.116	981.95
992.413	981.73
992.71	971.1
993.006	949.64
993.303	938.11
993.6	963.87
993.897	951.44
994.193	974.72
994.49	963.65
994.787	941.27
995.083	947.6
995.379	925.91
995.676	947.6
995.972	936.53
996.268	937.66
996.565	943.99
996.861	946.47
997.157	917.55
997.453	934.95
997.749	948.28
998.044	916.19
998.34	925
998.636	908.06
998.932	902.63
999.227	875.29
999.523	910.99
999.818	884.33
1000.114	874.61
1000.409	889.98
1000.704	881.84
1001	887.04
1001.295	889.75
1001.59	868.73
1001.885	849.07
1002.18	851.56
1002.475	904.67
1002.77	845.23
1003.065	866.93
1003.359	865.57
1003.654	850.43
1003.949	841.16
1004.243	826.7
1004.538	855.63
1004.832	823.09
1005.127	838.45
1005.421	821.73
1005.715	800.04
1006.009	799.36
1006.304	827.38
1006.598	813.37
1006.892	832.8
1007.186	803.88
1007.48	812.46
1007.773	792.13
1008.067	791
1008.361	799.13
1008.655	783.54
1008.948	795.29
1009.242	798.45
1009.535	769.75
1009.829	770.88
1010.122	781.73
1010.415	763.88
1010.708	752.13
1011.001	780.37
1011.295	743.54
1011.588	738.12
1011.881	754.39
1012.173	736.31
1012.466	728.85
1012.759	741.05
1013.052	733.37
1013.344	711.45
1013.637	743.54
1013.93	702.86
1014.222	710.55
1014.514	724.78
1014.807	735.63
1015.099	712.35
1015.391	731.56
1015.683	713.48
1015.976	711.22
1016.268	692.92
1016.56	711.45
1016.851	693.37
1017.143	706.25
1017.435	692.47
1017.727	713.26
1018.018	684.33
1018.31	663.77
1018.602	690.66
1018.893	689.98
1019.185	679.59
1019.476	671.9
1019.767	659.7
1020.058	661.51
1020.35	661.51
1020.641	648.18
1020.932	653.82
1021.223	644.79
1021.514	644.11
1021.804	648.63
1022.095	640.94
1022.386	644.79
1022.677	640.72
1022.967	639.36
1023.258	647.95
1023.548	622.64
1023.839	626.48
1024.129	616.99
1024.419	608.18
1024.709	611.34
1025	621.96
1025.29	611.34
1025.58	627.84
1025.87	623.09
1026.16	594.84
1026.449	629.64
1026.739	601.62
1027.029	589.65
1027.319	575.41
1027.608	620.61
1027.898	603.43
1028.187	602.75
1028.477	609.53
1028.766	605.01
1029.055	581.96
1029.344	583.32
1029.634	566.82
1029.923	579.48
1030.212	567.5
1030.501	574.28
1030.79	572.7
1031.078	573.83
1031.367	572.24
1031.656	552.81
1031.945	566.6
1032.233	576.99
1032.522	581.06
1032.81	548.74
1033.099	564.79
1033.387	542.19
1033.675	554.62
1033.963	545.13
1034.251	552.58
1034.54	539.03
1034.828	548.06
1035.116	520.04
1035.403	548.29
1035.691	532.92
1035.979	534.96
1036.267	530.44
1036.554	514.39
1036.842	532.7
1037.129	509.87
1037.417	533.83
1037.704	507.39
1037.992	528.4
1038.279	511.68
1038.566	516.88
1038.853	516.88
1039.14	516.88
