Data from blue_surface_keyboard_FLMS001491_004.txt Node
Date: Tue Feb 07 11:12:32 GMT 2017
User: dcchb
Spectrometer: FLMS00149
Trigger mode: 0
Integration Time (sec): 2.000000E-2
Scans to average: 10
Electric dark correction enabled: true
Nonlinearity correction enabled: false
Boxcar width: 0
XAxis mode: Wavelengths
Number of Pixels in Spectrum: 2048
>>>>>Begin Spectral Data<<<<<
341.393	-31.51
341.776	-31.51
342.16	-31.51
342.543	-60.89
342.927	-76.48
343.31	-55.92
343.693	-68.8
344.077	-48.01
344.46	-85.29
344.843	-51.85
345.226	-34
345.61	-35.13
345.993	-33.09
346.376	-2.13
346.759	7.81
347.142	18.66
347.525	41.71
347.908	65.66
348.291	86.45
348.674	90.29
349.057	103.63
349.44	115.15
349.823	139.56
350.206	148.6
350.588	155.83
350.971	189.05
351.354	180.46
351.737	211.42
352.119	214.13
352.502	222.04
352.884	257.75
353.267	248.03
353.65	264.98
354.032	275.37
354.414	266.56
354.797	285.09
355.179	299.78
355.562	301.36
355.944	293
356.326	327.8
356.709	291.19
357.091	289.16
357.473	327.35
357.855	346.11
358.238	309.27
358.62	284.64
359.002	298.42
359.384	305.88
359.766	307.69
360.148	309.72
360.53	294.13
360.912	311.08
361.294	284.64
361.676	297.97
362.057	307.46
362.439	291.19
362.821	291.64
363.203	296.84
363.584	293.9
363.966	313.79
364.348	292.32
364.729	283.51
365.111	293.68
365.493	278.31
365.874	287.13
366.256	278.31
366.637	301.81
367.019	276.96
367.4	293.23
367.781	288.71
368.163	266.79
368.544	288.03
368.925	283.51
369.306	282.83
369.688	290.97
370.069	265.2
370.45	274.02
370.831	282.38
371.212	284.41
371.593	273.79
371.974	270.85
372.355	278.99
372.736	300.68
373.117	278.09
373.498	298.2
373.879	260.91
374.26	272.21
374.641	274.92
375.021	282.61
375.402	277.41
375.783	297.97
376.163	292.1
376.544	291.87
376.925	271.53
377.305	297.29
377.686	293.23
378.066	297.29
378.447	280.57
378.827	283.74
379.208	286.22
379.588	270.63
379.968	290.06
380.349	290.06
380.729	291.19
381.109	302.27
381.489	310.63
381.87	289.61
382.25	296.62
382.63	306.56
383.01	298.65
383.39	282.61
383.77	289.16
384.15	309.27
384.53	283.51
384.91	289.39
385.29	303.17
385.67	286.45
386.049	318.76
386.429	311.98
386.809	301.14
387.189	292.55
387.568	301.36
387.948	303.85
388.328	302.04
388.707	321.25
389.087	314.92
389.466	301.14
389.846	302.72
390.225	308.59
390.605	325.77
390.984	319.67
391.363	294.81
391.743	327.35
392.122	311.31
392.501	312.21
392.881	297.97
393.26	328.93
393.639	318.54
394.018	322.6
394.397	330.06
394.776	342.94
395.155	316.73
395.534	331.42
395.913	303.17
396.292	323.28
396.671	320.57
397.05	318.31
397.429	306.33
397.808	319.21
398.186	322.83
398.565	316.5
398.944	313.11
399.323	328.03
399.701	309.5
400.08	316.73
400.458	340.23
400.837	323.06
401.215	335.03
401.594	324.19
401.972	340.46
402.351	335.26
402.729	335.26
403.107	316.95
403.486	344.07
403.864	341.81
404.242	328.71
404.62	324.41
404.999	335.94
405.377	321.7
405.755	347.91
406.133	342.27
406.511	343.17
406.889	341.14
407.267	359.67
407.645	328.48
408.023	358.76
408.401	363.51
408.779	342.72
409.156	366.22
409.534	352.43
409.912	351.08
410.29	361.02
410.667	361.93
411.045	358.31
411.422	369.83
411.8	352.43
412.178	353.34
412.555	362.6
412.933	359.67
413.31	386.11
413.687	379.1
414.065	369.38
414.442	358.99
414.819	359.67
415.197	366.22
415.574	370.96
415.951	351.98
416.328	373.45
416.705	398.53
417.082	386.33
417.46	385.43
417.837	370.96
418.214	373.22
418.591	374.58
418.967	369.38
419.344	375.26
419.721	384.98
420.098	396.05
420.475	398.76
420.852	403.73
421.228	392.43
421.605	408.48
421.982	407.57
422.358	394.92
422.735	411.42
423.111	386.56
423.488	425.43
423.864	407.12
424.241	402.38
424.617	393.34
424.994	408.25
425.37	410.06
425.746	416.16
426.123	405.99
426.499	419.1
426.875	431.3
427.251	403.96
427.627	418.87
428.003	412.77
428.379	415.94
428.756	393.34
429.132	429.27
429.507	435.82
429.883	424.3
430.259	454.13
430.635	458.65
431.011	441.47
431.387	441.02
431.763	436.95
432.138	433.79
432.514	432.66
432.89	455.26
433.265	431.53
433.641	467.91
434.016	460.91
434.392	471.08
434.767	483.28
435.143	456.39
435.518	464.52
435.894	471.3
436.269	461.13
436.644	467.69
437.02	486.67
437.395	487.12
437.77	490.06
438.145	488.48
438.52	501.36
438.895	476.27
439.271	482.37
439.646	490.51
440.021	501.81
440.395	528.47
440.77	501.13
441.145	486.67
441.52	478.76
441.895	505.42
442.27	517.85
442.645	505.2
443.019	505.88
443.394	518.08
443.769	522.37
444.143	516.05
444.518	531.41
444.892	524.41
445.267	521.7
445.641	501.58
446.016	538.19
446.39	533.45
446.764	523.28
447.139	529.6
447.513	543.62
447.887	507.68
448.262	535.48
448.636	528.02
449.01	550.85
449.384	544.52
449.758	560.11
450.132	559.43
450.506	542.03
450.88	558.53
451.254	564.18
451.628	548.14
452.002	547.91
452.376	544.97
452.75	566.21
453.123	565.76
453.497	578.87
453.871	584.07
454.244	596.5
454.618	563.73
454.992	579.09
455.365	572.77
455.739	587.46
456.112	605.99
456.486	605.31
456.859	605.53
457.232	623.61
457.606	608.47
457.979	595.82
458.352	607.57
458.725	629.04
459.099	608.25
459.472	610.05
459.845	632.65
460.218	667
460.591	644.4
460.964	625.2
461.337	641.69
461.71	687.57
462.083	662.93
462.456	646.89
462.829	653.44
463.201	658.19
463.574	665.19
463.947	679.66
464.32	692.76
464.692	690.28
465.065	688.02
465.438	674.01
465.81	696.15
466.183	714.46
466.555	688.24
466.928	711.29
467.3	695.93
467.672	699.54
468.045	749.03
468.417	719.2
468.789	736.83
469.161	722.59
469.534	741.35
469.906	758.75
470.278	763.72
470.65	768.69
471.022	775.47
471.394	793.55
471.766	789.48
472.138	805.98
472.51	790.84
472.882	804.85
473.253	795.36
473.625	806.66
473.997	824.51
474.369	823.83
474.74	820.22
475.112	836.94
475.484	847.11
475.855	848.92
476.227	854.57
476.598	873.55
476.97	874.45
477.341	884.85
477.713	888.24
478.084	905.19
478.455	906.32
478.827	918.75
479.198	941.57
479.569	942.02
479.94	928.92
480.311	952.19
480.682	956.94
481.053	984.06
481.424	992.42
481.795	1000.33
482.166	1001
482.537	1006.2
482.908	1017.05
483.279	997.39
483.65	1027.67
484.021	1061.12
484.391	1044.17
484.762	1077.39
485.133	1077.39
485.503	1074.45
485.874	1082.81
486.244	1089.36
486.615	1089.14
486.985	1104.96
487.356	1116.26
487.726	1121
488.097	1109.48
488.467	1125.3
488.837	1142.24
489.207	1174.79
489.578	1163.03
489.948	1185.18
490.318	1198.97
490.688	1183.15
491.058	1180.66
491.428	1214.11
491.798	1208
492.168	1235.57
492.538	1225.63
492.908	1213.2
493.278	1247.1
493.648	1256.14
494.017	1266.99
494.387	1292.52
494.757	1262.69
495.126	1273.31
495.496	1288
495.866	1280.77
496.235	1257.04
496.605	1332.07
496.974	1296.36
497.344	1300.21
497.713	1289.81
498.082	1342.46
498.452	1306.08
498.821	1305.18
499.19	1306.31
499.559	1316.93
499.928	1312.18
500.298	1342.24
500.667	1321.9
501.036	1341.79
501.405	1334.1
501.774	1367.1
502.143	1337.04
502.512	1355.35
502.88	1363.93
503.249	1351.96
503.618	1365.97
503.987	1359.64
504.356	1351.05
504.724	1370.26
505.093	1383.37
505.462	1335.91
505.83	1379.3
506.199	1372.75
506.567	1381.33
506.936	1376.36
507.304	1390.83
507.672	1386.31
508.041	1372.97
508.409	1382.46
508.777	1401.67
509.145	1391.95
509.514	1417.49
509.882	1386.76
510.25	1393.31
510.618	1389.92
510.986	1417.49
511.354	1403.03
511.722	1402.8
512.09	1424.04
512.458	1408
512.826	1433.54
513.193	1444.38
513.561	1433.99
513.929	1461.33
514.297	1442.12
514.664	1429.92
515.032	1448
515.4	1449.13
515.767	1463.14
516.135	1443.48
516.502	1453.87
516.869	1478.96
517.237	1448.22
517.604	1452.97
517.972	1454.1
518.339	1472.63
518.706	1468.56
519.073	1462.69
519.44	1452.97
519.808	1496.81
520.175	1476.92
520.542	1503.82
520.909	1508.79
521.276	1499.75
521.643	1471.95
522.009	1507.21
522.376	1509.69
522.743	1506.08
523.11	1526.19
523.477	1520.77
523.843	1545.62
524.21	1541.33
524.577	1511.73
524.943	1521.44
525.31	1538.39
525.676	1520.54
526.043	1524.61
526.409	1535.91
526.776	1531.61
527.142	1586.07
527.508	1554.21
527.874	1559.18
528.241	1542.01
528.607	1546.98
528.973	1558.73
529.339	1575.9
529.705	1560.09
530.071	1560.99
530.437	1571.61
530.803	1572.29
531.169	1558.96
531.535	1599.86
531.901	1593.08
532.267	1564.61
532.632	1564.38
532.998	1586.3
533.364	1581.33
533.73	1586.75
534.095	1596.92
534.461	1593.08
534.826	1594.89
535.192	1582.01
535.557	1622.91
535.923	1616.36
536.288	1592.18
536.653	1622.68
537.019	1586.98
537.384	1605.51
537.749	1595.57
538.114	1598.28
538.479	1599.41
538.845	1619.52
539.21	1625.62
539.575	1620.65
539.94	1620.88
540.305	1633.3
540.67	1636.02
541.034	1615.9
541.399	1611.38
541.764	1592.18
542.129	1632.4
542.494	1609.12
542.858	1632.17
543.223	1621.78
543.587	1629.91
543.952	1610.71
544.316	1613.87
544.681	1615.68
545.045	1631.72
545.41	1601.67
545.774	1631.72
546.138	1626.75
546.503	1637.82
546.867	1590.59
547.231	1617.94
547.595	1610.03
547.959	1648.9
548.324	1649.8
548.688	1617.26
549.052	1645.73
549.416	1601.21
549.779	1611.38
550.143	1608.45
550.507	1619.52
550.871	1604.83
551.235	1636.92
551.599	1658.84
551.962	1620.2
552.326	1650.03
552.689	1640.54
553.053	1640.08
553.417	1636.24
553.78	1655
554.143	1655.22
554.507	1637.15
554.87	1662
555.234	1676.69
555.597	1620.2
555.96	1633.53
556.323	1659.52
556.686	1639.41
557.05	1664.72
557.413	1634.21
557.776	1645.28
558.139	1660.87
558.502	1664.49
558.865	1650.48
559.228	1657.48
559.59	1636.69
559.953	1655.22
560.316	1655.68
560.679	1681.21
561.041	1659.74
561.404	1652.29
561.767	1649.35
562.129	1689.35
562.492	1675.11
562.854	1695.68
563.217	1660.87
563.579	1692.06
563.941	1689.12
564.304	1722.12
564.666	1700.65
565.028	1701.78
565.39	1686.86
565.753	1697.26
566.115	1698.39
566.477	1680.53
566.839	1710.59
567.201	1707.88
567.563	1708.33
567.925	1714.21
568.287	1700.42
568.648	1721.89
569.01	1737.03
569.372	1760.76
569.734	1746.75
570.095	1729.57
570.457	1734.54
570.819	1737.71
571.18	1717.6
571.542	1746.75
571.903	1749.91
572.265	1764.37
572.626	1736.13
572.987	1764.6
573.349	1778.61
573.71	1744.04
574.071	1736.8
574.432	1756.92
574.794	1754.43
575.155	1746.52
575.516	1760.76
575.877	1734.32
576.238	1781.55
576.599	1774.09
576.96	1773.41
577.32	1772.51
577.681	1809.35
578.042	1796.92
578.403	1798.5
578.763	1771.83
579.124	1767.54
579.485	1791.27
579.845	1795.33
580.206	1772.06
580.566	1785.16
580.927	1803.7
581.287	1781.55
581.648	1827.2
582.008	1800.08
582.368	1783.58
582.728	1778.16
583.089	1831.27
583.449	1793.75
583.809	1835.33
584.169	1820.87
584.529	1771.61
584.889	1800.08
585.249	1836.01
585.609	1787.2
585.969	1801.66
586.329	1800.98
586.688	1813.41
587.048	1807.99
587.408	1800.76
587.768	1808.44
588.127	1795.33
588.487	1809.12
588.846	1793.3
589.206	1798.5
589.565	1812.51
589.925	1827.88
590.284	1823.58
590.643	1810.02
591.003	1819.74
591.362	1806.86
591.721	1795.56
592.08	1812.06
592.44	1826.52
592.799	1838.27
593.158	1803.24
593.517	1822.23
593.876	1799.18
594.235	1828.55
594.593	1824.71
594.952	1811.6
595.311	1822.23
595.67	1837.82
596.029	1802.57
596.387	1822.68
596.746	1857.03
597.104	1835.11
597.463	1825.39
597.822	1862.45
598.18	1843.92
598.538	1824.03
598.897	1845.05
599.255	1878.95
599.613	1845.5
599.972	1824.26
600.33	1854.32
600.688	1843.47
601.046	1832.62
601.404	1860.19
601.762	1859.29
602.12	1862.23
602.478	1840.76
602.836	1860.64
603.194	1848.21
603.552	1853.19
603.91	1894.31
604.268	1876.24
604.625	1843.02
604.983	1868.1
605.341	1896.12
605.698	1884.82
606.056	1866.52
606.413	1858.16
606.771	1869.68
607.128	1868.78
607.485	1893.18
607.843	1888.89
608.2	1867.42
608.557	1911.72
608.914	1913.52
609.272	1894.77
609.629	1913.75
609.986	1929.34
610.343	1933.18
610.7	1903.81
611.057	1884.82
611.414	1898.61
611.771	1892.73
612.127	1922.34
612.484	1944.26
612.841	1921.88
613.198	1896.57
613.554	1923.92
613.911	1935.67
614.267	1933.64
614.624	1927.99
614.98	1959.4
615.337	1942
615.693	1964.6
616.05	1955.33
616.406	1967.08
616.762	1944.71
617.118	1950.13
617.475	1949.68
617.831	1958.04
618.187	1973.86
618.543	1951.71
618.899	1969.11
619.255	1969.11
619.611	1991.71
619.967	2016.8
620.323	1977.93
620.678	2009.34
621.034	2024.03
621.39	1991.04
621.746	2003.01
622.101	2007.31
622.457	1991.94
622.812	1999.85
623.168	2003.92
623.523	2023.58
623.879	2000.07
624.234	2042.33
624.589	2026.29
624.945	2003.46
625.3	2008.89
625.655	1992.17
626.01	2022.9
626.365	2044.14
626.72	2045.95
627.075	2040.07
627.43	2055.44
627.785	2046.4
628.14	2085.72
628.495	2046.63
628.85	2073.29
629.205	2088.21
629.559	2073.74
629.914	2065.16
630.269	2094.08
630.623	2084.59
630.978	2075.33
631.332	2106.29
631.687	2086.63
632.041	2084.14
632.396	2077.36
632.75	2083.01
633.104	2100.41
633.459	2116
633.813	2084.59
634.167	2092.28
634.521	2120.3
634.875	2130.69
635.229	2141.99
635.583	2099.96
635.937	2139.73
636.291	2114.65
636.645	2099.28
636.999	2104.7
637.352	2126.17
637.706	2141.99
638.06	2148.32
638.413	2137.02
638.767	2184.7
639.121	2180.86
639.474	2139.96
639.828	2199.62
640.181	2185.83
640.534	2170.92
640.888	2181.31
641.241	2154.87
641.594	2174.31
641.947	2224.25
642.301	2210.46
642.654	2221.54
643.007	2248.2
643.36	2240.52
643.713	2216.57
644.066	2240.29
644.419	2227.64
644.771	2254.31
645.124	2243.46
645.477	2225.83
645.83	2208.66
646.182	2203.46
646.535	2217.7
646.888	2216.11
647.24	2253.4
647.593	2229.22
647.945	2211.14
648.298	2250.69
648.65	2226.28
649.002	2246.17
649.355	2281.42
649.707	2275.77
650.059	2260.41
650.411	2309.44
650.763	2344.92
651.115	2373.62
651.467	2379.27
651.819	2396.67
652.171	2420.63
652.523	2407.97
652.875	2378.82
653.227	2431.25
653.578	2447.52
653.93	2417.46
654.282	2433.06
654.633	2452.72
654.985	2473.96
655.337	2481.64
655.688	2484.58
656.039	2498.14
656.391	2516.9
656.742	2513.28
657.094	2525.71
657.445	2522.32
657.796	2542.21
658.147	2573.17
658.498	2584.01
658.849	2582.88
659.2	2582.88
659.551	2582.43
659.902	2619.27
660.253	2620.4
660.604	2653.39
660.955	2619.95
661.306	2671.02
661.656	2663.33
662.007	2674.41
662.358	2666.95
662.708	2711.47
663.059	2718.47
663.409	2704.01
663.76	2767.29
664.11	2757.57
664.461	2791.24
664.811	2781.07
665.161	2804.12
665.511	2779.26
665.862	2812.71
666.212	2854.52
666.562	2865.14
666.912	2851.8
667.262	2876.66
667.612	2877.11
667.962	2902.2
668.312	2909.43
668.662	2938.58
669.011	2926.6
669.361	2972.25
669.711	2998.24
670.06	2972.25
670.41	2999.14
670.76	2974.29
671.109	3014.29
671.459	3033.49
671.808	3026.71
672.157	3059.48
672.507	3072.81
672.856	3066.26
673.205	3087.28
673.554	3114.17
673.904	3067.84
674.253	3146.71
674.602	3118.01
674.951	3088.86
675.3	3103.55
675.649	3166.82
675.998	3164.11
676.346	3172.47
676.695	3237.56
677.044	3211.34
677.393	3185.58
677.741	3242.98
678.09	3226.03
678.438	3233.94
678.787	3280.04
679.135	3274.17
679.484	3262.41
679.832	3309.42
680.181	3317.55
680.529	3309.19
680.877	3329.08
681.225	3306.93
681.573	3392.35
681.922	3309.19
682.27	3373.37
682.618	3331.79
682.966	3375.63
683.314	3374.05
683.661	3425.8
684.009	3385.12
684.357	3395.07
684.705	3390.09
685.053	3412.47
685.4	3405.69
685.748	3405.46
686.095	3426.93
686.443	3396.65
686.79	3451.56
687.138	3494.27
687.485	3459.47
687.832	3478.45
688.18	3475.06
688.527	3506.7
688.874	3503.09
689.221	3487.49
689.568	3465.35
689.915	3497.89
690.262	3507.38
690.609	3517.77
690.956	3487.72
691.303	3521.84
691.65	3504.67
691.997	3503.99
692.344	3484.33
692.69	3545.57
693.037	3515.74
693.383	3527.27
693.73	3572.01
694.077	3504.22
694.423	3506.02
694.769	3526.36
695.116	3568.39
695.462	3524.33
695.808	3547.38
696.155	3536.08
696.501	3492.24
696.847	3532.92
697.193	3554.61
697.539	3543.76
697.885	3534.5
698.231	3535.4
698.577	3530.2
698.923	3533.14
699.269	3499.7
699.614	3487.95
699.96	3483.43
700.306	3555.06
700.651	3507.38
700.997	3480.71
701.342	3495.85
701.688	3503.09
702.033	3500.6
702.379	3516.42
702.724	3463.54
703.069	3474.16
703.415	3466.93
703.76	3471.45
704.105	3504.67
704.45	3444.56
704.795	3445.01
705.14	3429.19
705.485	3424.44
705.83	3433.48
706.175	3412.01
706.52	3456.76
706.865	3452.69
707.209	3404.56
707.554	3446.36
707.899	3452.47
708.243	3408.85
708.588	3420.6
708.932	3400.72
709.277	3375.63
709.621	3419.25
709.966	3412.24
710.31	3422.64
710.654	3383.31
710.998	3413.6
711.342	3404.56
711.687	3369.76
712.031	3353.94
712.375	3362.98
712.719	3393.48
713.063	3389.19
713.407	3378.34
713.75	3384.9
714.094	3401.39
714.438	3342.19
714.782	3367.04
715.125	3392.13
715.469	3420.83
715.812	3350.77
716.156	3388.96
716.499	3346.71
716.843	3393.71
717.186	3385.35
717.53	3444.78
717.873	3402.52
718.216	3377.89
718.559	3339.25
718.902	3372.69
719.246	3360.04
719.589	3369.53
719.932	3352.36
720.275	3323.2
720.617	3335.18
720.96	3375.41
721.303	3351.9
721.646	3384.44
721.989	3332.02
722.331	3424.44
722.674	3342.19
723.016	3368.17
723.359	3356.88
723.701	3316.65
724.044	3319.81
724.386	3342.41
724.729	3336.54
725.071	3383.99
725.413	3386.93
725.755	3400.49
726.097	3325.92
726.439	3369.98
726.782	3368.85
727.124	3396.65
727.465	3349.64
727.807	3381.06
728.149	3298.57
728.491	3364.11
728.833	3375.63
729.175	3359.59
729.516	3391.22
729.858	3366.59
730.199	3353.94
730.541	3361.85
730.882	3394.61
731.224	3374.73
731.565	3416.08
731.906	3376.76
732.248	3417.89
732.589	3393.94
732.93	3409.08
733.271	3364.78
733.612	3372.02
733.953	3422.18
734.294	3374.05
734.635	3420.38
734.976	3435.07
735.317	3385.35
735.658	3414.73
735.999	3422.41
736.339	3417.44
736.68	3435.07
737.021	3412.92
737.361	3383.99
737.702	3422.18
738.042	3431
738.383	3466.7
738.723	3459.92
739.063	3426.48
739.404	3418.12
739.744	3501.28
740.084	3452.69
740.424	3438.45
740.764	3459.25
741.104	3474.16
741.444	3498.79
741.784	3502.18
742.124	3508.74
742.464	3522.07
742.804	3480.26
743.143	3477.78
743.483	3542.63
743.823	3558.45
744.162	3529.07
744.502	3558.45
744.841	3626.25
745.181	3593.03
745.52	3569.3
745.86	3627.15
746.199	3627.83
746.538	3616.3
746.877	3658.56
747.216	3681.61
747.556	3661.5
747.895	3687.26
748.234	3687.71
748.573	3715.96
748.911	3696.53
749.25	3745.11
749.589	3756.64
749.928	3764.77
750.267	3790.99
750.605	3814.04
750.944	3808.16
751.283	3833.25
751.621	3898.56
751.96	3831.89
752.298	3882.96
752.636	3911.66
752.975	3883.41
753.313	3896.97
753.651	3941.72
753.989	3933.13
754.327	3983.07
754.666	4016.29
755.004	3995.05
755.342	4034.6
755.679	4030.53
756.017	4034.6
756.355	4098.32
756.693	4060.59
757.031	4103.07
757.368	4088.61
757.706	4170.64
758.044	4159.57
758.381	4169.06
758.719	4186.91
759.056	4232.78
759.394	4224.87
759.731	4219.23
760.068	4235.95
760.405	4225.55
760.743	4244.99
761.08	4246.12
761.417	4287.02
761.754	4278.66
762.091	4254.03
762.428	4301.03
762.765	4294.25
763.102	4336.06
763.438	4371.76
763.775	4305.55
764.112	4372.22
764.449	4374.02
764.785	4389.84
765.122	4346.91
765.458	4400.46
765.795	4345.32
766.131	4374.25
766.467	4334.93
766.804	4397.53
767.14	4353.23
767.476	4330.86
767.812	4359.56
768.148	4414.47
768.485	4389.39
768.821	4419.9
769.157	4418.77
769.492	4444.08
769.828	4412.67
770.164	4327.02
770.5	4382.16
770.836	4387.13
771.171	4404.98
771.507	4351.2
771.842	4397.3
772.178	4349.17
772.513	4385.1
772.849	4340.13
773.184	4339.22
773.519	4335.15
773.855	4350.3
774.19	4301.71
774.525	4321.6
774.86	4298.77
775.195	4312.33
775.53	4324.31
775.865	4271.88
776.2	4270.07
776.535	4261.48
776.87	4253.57
777.205	4243.63
777.539	4241.37
777.874	4230.52
778.209	4195.05
778.543	4205.89
778.878	4226.23
779.212	4206.8
779.547	4173.35
779.881	4201.15
780.215	4142.17
780.55	4191.66
780.884	4140.81
781.218	4146.68
781.552	4128.38
781.886	4168.61
782.22	4109.85
782.554	4116.4
782.888	4070.53
783.222	4036.86
783.556	4044.99
783.889	4026.69
784.223	4063.52
784.557	4039.57
784.89	4043.18
785.224	3992.79
785.557	3971.32
785.891	3994.37
786.224	3947.37
786.558	3966.58
786.891	3903.75
787.224	3926.13
787.557	3923.19
787.891	3933.36
788.224	3907.59
788.557	3888.84
788.89	3873.92
789.223	3865.11
789.556	3842.96
789.888	3817.65
790.221	3822.85
790.554	3833.02
790.887	3822.4
791.219	3762.74
791.552	3796.19
791.884	3777.65
792.217	3795.51
792.549	3771.1
792.882	3755.51
793.214	3673.25
793.546	3748.05
793.879	3692.91
794.211	3676.19
794.543	3722.52
794.875	3688.62
795.207	3706.02
795.539	3637.09
795.871	3685
796.203	3653.14
796.535	3643.87
796.867	3621.95
797.198	3622.4
797.53	3620.14
797.862	3606.36
798.193	3575.85
798.525	3582.86
798.856	3567.26
799.188	3558.9
799.519	3500.83
799.85	3507.15
800.182	3515.51
800.513	3538.79
800.844	3512.35
801.175	3523.88
801.506	3505.35
801.837	3456.53
802.168	3483.65
802.499	3470.77
802.83	3449.53
803.161	3439.13
803.491	3471.67
803.822	3450.88
804.153	3406.37
804.483	3388.96
804.814	3393.26
805.145	3384.67
805.475	3413.82
805.805	3390.55
806.136	3422.18
806.466	3355.29
806.796	3354.84
807.126	3327.05
807.457	3359.59
807.787	3341.96
808.117	3329.98
808.447	3296.99
808.777	3364.56
809.107	3347.61
809.436	3294.5
809.766	3280.27
810.096	3302.41
810.426	3257.22
810.755	3237.56
811.085	3298.57
811.414	3252.7
811.744	3219.48
812.073	3218.8
812.403	3234.39
812.732	3216.31
813.061	3233.49
813.39	3160.72
813.719	3183.55
814.049	3200.49
814.378	3253.6
814.707	3197.11
815.036	3198.46
815.365	3172.25
815.693	3120.72
816.022	3140.84
816.351	3116.88
816.68	3146.49
817.008	3119.82
817.337	3105.58
817.665	3121.17
817.994	3075.98
818.322	3133.38
818.651	3078.46
818.979	3095.64
819.307	3072.81
819.636	3086.83
819.964	3044.11
820.292	3096.32
820.62	3071.68
820.948	3065.13
821.276	3118.24
821.604	3072.36
821.932	3084.79
822.259	3096.77
822.587	3072.14
822.915	3093.38
823.243	3070.55
823.57	3037.11
823.898	3081.63
824.225	3060.61
824.553	3102.42
824.88	3052.25
825.207	3058.13
825.535	3089.09
825.862	3096.32
826.189	3080.5
826.516	3031.01
826.843	3076.88
827.17	3066.26
827.497	3062.65
827.824	3101.29
828.151	3077.79
828.478	3099.48
828.805	3102.64
829.131	3090.44
829.458	3070.1
829.785	3038.01
830.111	3039.14
830.438	3075.3
830.764	3037.11
831.09	3061.74
831.417	3047.28
831.743	3052.02
832.069	3061.74
832.395	3045.7
832.722	3099.48
833.048	3060.61
833.374	3059.71
833.7	3057.45
834.026	3071.68
834.351	3052.48
834.677	3089.76
835.003	3042.31
835.329	3025.36
835.654	3052.93
835.98	3042.76
836.306	3020.16
836.631	3013.83
836.956	3062.19
837.282	3014.96
837.607	3002.31
837.932	3020.16
838.258	2989.43
838.583	3009.31
838.908	2998.01
839.233	2949.65
839.558	2961.18
839.883	2965.92
840.208	2985.13
840.533	2949.65
840.858	2954.17
841.182	2984.68
841.507	2941.07
841.832	2962.08
842.156	2932.48
842.481	2945.59
842.805	2969.77
843.13	2908.98
843.454	2910.56
843.778	2920.95
844.103	2894.06
844.427	2923.21
844.751	2902.42
845.075	2922.54
845.399	2888.41
845.723	2905.14
846.047	2866.04
846.371	2826.27
846.695	2871.69
847.019	2824.46
847.343	2829.21
847.666	2826.95
847.99	2780.17
848.313	2830.34
848.637	2749.89
848.96	2777.23
849.284	2783.56
849.607	2778.36
849.931	2758.02
850.254	2701.07
850.577	2717.57
850.9	2718.25
851.223	2723.22
851.546	2697.91
851.869	2680.73
852.192	2706.5
852.515	2670.79
852.838	2646.39
853.161	2656.78
853.483	2615.43
853.806	2671.24
854.129	2654.52
854.451	2608.19
854.774	2617.91
855.096	2617.01
855.419	2640.74
855.741	2606.84
856.063	2612.26
856.385	2559.38
856.708	2568.2
857.03	2553.96
857.352	2595.99
857.674	2566.16
857.996	2555.09
858.318	2517.12
858.64	2511.02
858.961	2514.41
859.283	2520.29
859.605	2513.96
859.926	2501.3
860.248	2483.68
860.57	2513.28
860.891	2504.02
861.212	2480.51
861.534	2496.78
861.855	2445.71
862.176	2487.29
862.498	2503.11
862.819	2493.85
863.14	2455.43
863.461	2438.48
863.782	2433.28
864.103	2430.8
864.424	2432.61
864.745	2433.74
865.065	2454.98
865.386	2417.46
865.707	2442.55
866.027	2437.13
866.348	2428.99
866.668	2426.5
866.989	2441.19
867.309	2401.42
867.63	2374.98
867.95	2409.1
868.27	2396.9
868.59	2394.41
868.91	2413.62
869.23	2384.7
869.55	2380.18
869.87	2384.02
870.19	2368.65
870.51	2370.23
870.83	2386.51
871.15	2407.97
871.469	2398.71
871.789	2363.91
872.109	2356.9
872.428	2384.47
872.748	2392.15
873.067	2347.86
873.386	2342.44
873.706	2350.12
874.025	2325.49
874.344	2336.34
874.663	2321.42
874.982	2346.28
875.301	2332.72
875.62	2349.44
875.939	2349.9
876.258	2326.85
876.577	2347.86
876.896	2309.9
877.214	2334.3
877.533	2288.43
877.852	2297.24
878.17	2300.18
878.489	2285.72
878.807	2291.59
879.125	2282.55
879.444	2319.39
879.762	2287.75
880.08	2275.32
880.398	2278.49
880.716	2277.13
881.034	2269.22
881.352	2273.74
881.67	2254.76
881.988	2248.2
882.306	2243.23
882.624	2266.28
882.941	2270.35
883.259	2241.88
883.577	2238.03
883.894	2203.23
884.212	2246.17
884.529	2232.16
884.846	2235.55
885.164	2223.57
885.481	2221.54
885.798	2214.08
886.115	2185.38
886.432	2211.82
886.75	2195.55
887.067	2222.44
887.383	2171.14
887.7	2174.76
888.017	2180.63
888.334	2146.74
888.651	2159.39
888.967	2159.39
889.284	2169.79
889.6	2136.79
889.917	2145.61
890.233	2156
890.55	2149.9
890.866	2122.78
891.182	2137.25
891.498	2137.02
891.815	2137.7
892.131	2110.35
892.447	2090.24
892.763	2139.96
893.079	2102.9
893.395	2062.67
893.71	2090.47
894.026	2080.07
894.342	2090.92
894.657	2102.67
894.973	2091.15
895.289	2090.02
895.604	2079.62
895.92	2032.62
896.235	2058.83
896.55	2069.23
896.865	2054.08
897.181	2025.16
897.496	2042.56
897.811	2021.09
898.126	2013.41
898.441	2017.02
898.756	1977.48
899.071	1966.4
899.386	1994.42
899.7	1973.41
900.015	1964.6
900.33	1962.11
900.644	1969.11
900.959	1953.75
901.273	1963.69
901.588	1972.96
901.902	1942
902.216	1925.5
902.531	1926.86
902.845	1965.95
903.159	1926.86
903.473	1943.13
903.787	1913.98
904.101	1892.28
904.415	1877.59
904.729	1879.4
905.042	1881.21
905.356	1879.17
905.67	1889.12
905.984	1895.22
906.297	1851.38
906.611	1856.8
906.924	1869.46
907.237	1895.9
907.551	1837.14
907.864	1815.67
908.177	1848.89
908.491	1815.45
908.804	1837.82
909.117	1824.49
909.43	1824.26
909.743	1762.79
910.056	1794.88
910.368	1773.19
910.681	1760.98
910.994	1778.84
911.307	1788.55
911.619	1716.01
911.932	1752.17
912.244	1796.92
912.557	1747.2
912.869	1769.12
913.181	1756.69
913.494	1735.9
913.806	1747.43
914.118	1730.48
914.43	1711.04
914.742	1704.04
915.054	1695.9
915.366	1695
915.678	1710.36
915.99	1709.01
916.302	1687.09
916.613	1671.95
916.925	1656.81
917.236	1662.46
917.548	1660.65
917.859	1654.09
918.171	1657.48
918.482	1634.66
918.794	1627.65
919.105	1623.81
919.416	1648.45
919.727	1643.7
920.038	1574.77
920.349	1589.69
920.66	1605.51
920.971	1595.57
921.282	1580.65
921.593	1591.95
921.903	1578.62
922.214	1563.7
922.525	1573.42
922.835	1535
923.146	1560.54
923.456	1559.86
923.767	1572.29
924.077	1519.86
924.387	1536.81
924.697	1527.32
925.008	1521.44
925.318	1530.71
925.628	1507.66
925.938	1523.02
926.248	1518.05
926.558	1503.14
926.867	1500.88
927.177	1500.65
927.487	1492.29
927.796	1469.02
928.106	1461.78
928.416	1488.9
928.725	1475.57
929.034	1436.25
929.344	1468.11
929.653	1443.93
929.962	1464.04
930.271	1432.86
930.581	1429.02
930.89	1402.58
931.199	1401.67
931.508	1422.24
931.817	1443.48
932.125	1390.6
932.434	1427.66
932.743	1431.73
933.051	1411.16
933.36	1409.81
933.669	1393.08
933.977	1406.42
934.286	1396.25
934.594	1407.32
934.902	1384.05
935.21	1363.93
935.519	1367.1
935.827	1358.96
936.135	1344.27
936.443	1331.17
936.751	1333.65
937.059	1327.1
937.367	1344.27
937.674	1329.81
937.982	1334.78
938.29	1321.67
938.597	1357.15
938.905	1327.78
939.213	1292.3
939.52	1301.79
939.827	1325.52
940.135	1295.23
940.442	1300.66
940.749	1307.89
941.056	1262.01
941.363	1271.73
941.67	1292.52
941.977	1278.96
942.284	1254.78
942.591	1259.98
942.898	1243.26
943.205	1236.03
943.511	1236.7
943.818	1253.88
944.125	1253.43
944.431	1232.86
944.738	1238.96
945.044	1225.86
945.35	1232.86
945.657	1237.83
945.963	1219.53
946.269	1201.23
946.575	1210.49
946.881	1216.14
947.187	1176.37
947.493	1196.93
947.799	1185.41
948.105	1181.11
948.41	1178.85
948.716	1171.4
949.022	1189.47
949.327	1196.93
949.633	1171.17
949.938	1170.49
950.244	1193.99
950.549	1155.12
950.854	1157.84
951.16	1145.63
951.465	1150.83
951.77	1137.72
952.075	1139.53
952.38	1116.26
952.685	1110.61
952.99	1097.05
953.294	1124.84
953.599	1122.13
953.904	1111.51
954.209	1124.62
954.513	1130.04
954.818	1081.45
955.122	1103.83
955.426	1105.63
955.731	1092.75
956.035	1094.34
956.339	1095.47
956.643	1103.37
956.948	1077.84
957.252	1062.47
957.556	1081.68
957.86	1067.22
958.163	1046.2
958.467	1071.96
958.771	1072.42
959.075	1047.11
959.378	1061.79
959.682	1035.58
959.985	1059.53
960.289	1039.87
960.592	1047.33
960.896	1043.94
961.199	1030.83
961.502	1051.62
961.805	1031.51
962.108	1017.95
962.411	1022.93
962.714	999.42
963.017	1000.1
963.32	1011.4
963.623	1030.38
963.926	1001.23
964.228	1011.17
964.531	998.74
964.833	975.02
965.136	992.87
965.438	991.06
965.741	972.76
966.043	980.67
966.345	972.08
966.648	976.6
966.95	973.43
967.252	962.81
967.554	949.93
967.856	981.34
968.158	956.71
968.46	966.2
968.761	963.94
969.063	946.77
969.365	941.12
969.666	950.84
969.968	944.51
970.269	921.01
970.571	950.84
970.872	934.57
971.174	930.72
971.475	938.41
971.776	930.95
972.077	921.23
972.378	935.24
972.679	925.75
972.98	927.56
973.281	913.32
973.582	907.22
973.883	921.46
974.183	900.44
974.484	889.37
974.785	906.09
975.085	888.24
975.386	904.28
975.686	872.42
975.986	879.88
976.287	891.4
976.587	878.75
976.887	885.75
977.187	879.2
977.487	864.29
977.787	847.79
978.087	867.22
978.387	863.38
978.687	856.6
978.987	855.7
979.286	851.4
979.586	870.61
979.885	850.5
980.185	854.79
980.484	842.36
980.784	854.12
981.083	850.05
981.382	838.98
981.682	824.96
981.981	829.94
982.28	834.68
982.579	828.81
982.878	822.48
983.177	815.02
983.475	826.77
983.774	805.98
984.073	825.87
984.372	834
984.67	814.34
984.969	820.44
985.267	791.74
985.566	814.79
985.864	818.86
986.162	809.6
986.461	790.39
986.759	770.95
987.057	797.62
987.355	801.46
987.653	788.13
987.951	799.88
988.249	800.33
988.547	781.35
988.844	779.54
989.142	782.25
989.44	763.72
989.737	774.12
990.035	779.09
990.332	783.61
990.63	747.68
990.927	778.41
991.224	762.82
991.521	760.79
991.819	767.79
992.116	730.5
992.413	762.82
992.71	747.9
993.006	751.75
993.303	747.68
993.6	727.57
993.897	730.28
994.193	743.16
994.49	752.2
994.787	732.99
995.083	723.27
995.379	737.28
995.676	717.85
995.972	733.67
996.268	730.96
996.565	739.54
996.861	716.49
997.157	707.23
997.453	719.43
997.749	697.51
998.044	697.06
998.34	720.33
998.636	693.67
998.932	683.72
999.227	681.69
999.523	698.87
999.818	687.34
1000.114	690.28
1000.409	686.44
1000.704	701.58
1001	699.09
1001.295	691.18
1001.59	692.09
1001.885	651.86
1002.18	676.04
1002.475	659.09
1002.77	664.52
1003.065	672.2
1003.359	662.71
1003.654	668.81
1003.949	672.88
1004.243	654.12
1004.538	650.28
1004.832	655.93
1005.127	626.78
1005.421	661.13
1005.715	653.9
1006.009	627.23
1006.304	633.33
1006.598	628.36
1006.892	655.25
1007.186	616.83
1007.48	652.54
1007.773	650.73
1008.067	639.66
1008.361	621.81
1008.655	624.52
1008.948	641.92
1009.242	614.35
1009.535	608.25
1009.829	638.3
1010.122	620.45
1010.415	632.2
1010.708	575.93
1011.001	578.64
1011.295	616.83
1011.588	613.67
1011.881	593.56
1012.173	601.02
1012.466	606.66
1012.759	587.91
1013.052	586.55
1013.344	575.93
1013.637	577.06
1013.93	567.57
1014.222	595.37
1014.514	593.78
1014.807	583.16
1015.099	594.46
1015.391	575.03
1015.683	563.95
1015.976	571.86
1016.268	581.35
1016.56	543.16
1016.851	557.85
1017.143	551.98
1017.435	559.43
1017.727	557.85
1018.018	548.14
1018.31	562.82
1018.602	550.62
1018.893	575.25
1019.185	589.26
1019.476	537.97
1019.767	557.85
1020.058	547.01
1020.35	544.75
1020.641	537.06
1020.932	537.51
1021.223	520.11
1021.514	542.94
1021.804	542.26
1022.095	520.57
1022.386	533.9
1022.677	553.33
1022.967	514.46
1023.258	547.91
1023.548	536.16
1023.839	511.3
1024.129	541.13
1024.419	492.09
1024.709	514.69
1025	531.64
1025.29	513.11
1025.58	514.24
1025.87	504.07
1026.16	506.55
1026.449	491.64
1026.739	518.08
1027.029	492.32
1027.319	509.04
1027.608	508.81
1027.898	510.4
1028.187	499.32
1028.477	474.69
1028.766	504.07
1029.055	481.7
1029.344	483.96
1029.634	493.22
1029.923	486.89
1030.212	489.61
1030.501	481.02
1030.79	474.46
1031.078	483.5
1031.367	471.98
1031.656	464.97
1031.945	485.54
1032.233	474.24
1032.522	472.21
1032.81	490.06
1033.099	490.51
1033.387	467.23
1033.675	487.12
1033.963	469.49
1034.251	470.62
1034.54	455.48
1034.828	436.95
1035.116	464.75
1035.403	454.35
1035.691	482.6
1035.979	452.09
1036.267	456.39
1036.554	453.22
1036.842	427.23
1037.129	431.98
1037.417	448.25
1037.704	445.77
1037.992	447.12
1038.279	434.69
1038.566	446.22
1038.853	446.22
1039.14	446.22
