Data from blue_surface_keyboard_FLMS001491_028.txt Node
Date: Tue Feb 07 11:12:52 GMT 2017
User: dcchb
Spectrometer: FLMS00149
Trigger mode: 0
Integration Time (sec): 2.000000E-2
Scans to average: 10
Electric dark correction enabled: true
Nonlinearity correction enabled: false
Boxcar width: 0
XAxis mode: Wavelengths
Number of Pixels in Spectrum: 2048
>>>>>Begin Spectral Data<<<<<
341.393	-21.34
341.776	-21.34
342.16	-21.34
342.543	-62.02
342.927	-40.32
343.31	-77.16
343.693	-71.06
344.077	-62.92
344.46	-76.03
344.843	-71.06
345.226	-37.84
345.61	-24.73
345.993	5.1
346.376	2.61
346.759	6.68
347.142	25.66
347.525	51.2
347.908	55.72
348.291	88.71
348.674	98.88
349.057	86.23
349.44	120.12
349.823	130.52
350.206	149.5
350.588	172.78
350.971	205.09
351.354	216.39
351.737	223.4
352.119	231.76
352.502	247.58
352.884	270.85
353.267	270.18
353.65	286.22
354.032	269.05
354.414	297.07
354.797	291.64
355.179	297.52
355.562	295.71
355.944	325.54
356.326	316.5
356.709	305.2
357.091	316.05
357.473	331.42
357.855	311.53
358.238	314.92
358.62	327.12
359.002	314.24
359.384	313.57
359.766	324.41
360.148	291.87
360.53	321.7
360.912	307.69
361.294	303.17
361.676	333.45
362.057	311.08
362.439	301.81
362.821	316.05
363.203	286.9
363.584	276.96
363.966	296.39
364.348	262.95
364.729	301.81
365.111	288.26
365.493	283.74
365.874	287.35
366.256	289.16
366.637	292.55
367.019	279.89
367.4	280.12
367.781	297.29
368.163	273.79
368.544	291.64
368.925	290.06
369.306	299.55
369.688	289.61
370.069	290.06
370.45	273.57
370.831	286.45
371.212	255.94
371.593	292.55
371.974	298.65
372.355	273.11
372.736	295.03
373.117	282.38
373.498	293.68
373.879	272.44
374.26	304.07
374.641	290.06
375.021	291.64
375.402	302.49
375.783	290.97
376.163	297.07
376.544	294.36
376.925	298.42
377.305	300.46
377.686	278.31
378.066	298.88
378.447	298.2
378.827	316.95
379.208	286.9
379.588	302.49
379.968	284.64
380.349	292.32
380.729	282.38
381.109	283.51
381.489	304.07
381.87	300.23
382.25	296.84
382.63	308.14
383.01	299.55
383.39	317.86
383.77	307.01
384.15	298.65
384.53	286
384.91	297.75
385.29	307.01
385.67	301.14
386.049	306.56
386.429	327.12
386.809	322.6
387.189	294.81
387.568	311.53
387.948	295.71
388.328	317.41
388.707	303.62
389.087	306.56
389.466	316.05
389.846	304.98
390.225	320.12
390.605	312.89
390.984	331.19
391.363	339.1
391.743	311.98
392.122	318.31
392.501	324.41
392.881	322.83
393.26	320.57
393.639	312.89
394.018	314.24
394.397	310.63
394.776	320.57
395.155	327.8
395.534	322.15
395.913	325.09
396.292	320.57
396.671	336.62
397.05	346.78
397.429	321.25
397.808	324.41
398.186	328.48
398.565	310.4
398.944	320.8
399.323	338.42
399.701	334.36
400.08	329.84
400.458	337.29
400.837	330.97
401.215	350.17
401.594	327.58
401.972	339.55
402.351	343.39
402.729	318.08
403.107	347.91
403.486	347.01
403.864	325.54
404.242	342.04
404.62	346.56
404.999	375.03
405.377	346.56
405.755	346.78
406.133	351.53
406.511	352.66
406.889	352.89
407.267	360.12
407.645	367.35
408.023	338.42
408.401	379.55
408.779	368.48
409.156	345.43
409.534	361.47
409.912	369.38
410.29	362.38
410.667	367.8
411.045	373.22
411.422	354.92
411.8	337.97
412.178	357.63
412.555	394.02
412.933	384.07
413.31	356.73
413.687	385.88
414.065	387.46
414.442	400.34
414.819	376.61
415.197	385.2
415.574	384.98
415.951	392.43
416.328	377.74
416.705	380
417.082	390.17
417.46	387.91
417.837	398.08
418.214	421.58
418.591	396.95
418.967	380.46
419.344	388.82
419.721	392.89
420.098	403.51
420.475	396.5
420.852	394.24
421.228	413.9
421.605	377.29
421.982	392.21
422.358	412.77
422.735	387.46
423.111	375.26
423.488	419.33
423.864	413.9
424.241	414.35
424.617	431.3
424.994	409.38
425.37	429.72
425.746	403.73
426.123	413
426.499	429.04
426.875	433.34
427.251	426.1
427.627	424.07
428.003	454.13
428.379	437.4
428.756	450.06
429.132	445.99
429.507	441.47
429.883	446.22
430.259	450.74
430.635	439.89
431.011	457.52
431.387	448.93
431.763	448.93
432.138	461.58
432.514	464.3
432.89	458.87
433.265	443.28
433.641	465.88
434.016	480.34
434.392	462.26
434.767	461.58
435.143	480.57
435.518	490.74
435.894	493.9
436.269	484.41
436.644	474.92
437.02	484.63
437.395	476.27
437.77	480.34
438.145	504.07
438.52	478.76
438.895	488.25
439.271	500.23
439.646	510.17
440.021	504.29
440.395	499.77
440.77	498.87
441.145	515.59
441.52	521.7
441.895	491.87
442.27	527.12
442.645	530.06
443.019	539.77
443.394	528.93
443.769	533.22
444.143	511.3
444.518	528.47
444.892	530.96
445.267	535.71
445.641	529.6
446.016	537.29
446.39	550.4
446.764	517.18
447.139	551.07
447.513	521.7
447.887	546.1
448.262	547.91
448.636	516.95
449.01	557.63
449.384	540.45
449.758	560.11
450.132	550.62
450.506	549.27
450.88	550.62
451.254	549.49
451.628	542.26
452.002	572.09
452.376	580.68
452.75	568.93
453.123	564.41
453.497	577.97
453.871	588.13
454.244	590.17
454.618	588.13
454.992	591.3
455.365	579.09
455.739	597.63
456.112	587.46
456.486	605.53
456.859	621.58
457.232	598.53
457.606	635.59
457.979	616.61
458.352	628.36
458.725	617.06
459.099	607.34
459.472	630.17
459.845	640.11
460.218	630.17
460.591	620.9
460.964	642.6
461.337	644.86
461.71	658.87
462.083	655.03
462.456	648.47
462.829	660.9
463.201	666.1
463.574	660.45
463.947	677.85
464.32	670.84
464.692	692.99
465.065	679.21
465.438	695.25
465.81	687.11
466.183	698.64
466.555	704.06
466.928	709.49
467.3	704.29
467.672	725.76
468.045	727.11
468.417	758.53
468.789	744.06
469.161	740.45
469.534	747.23
469.906	754.23
470.278	743.16
470.65	740.67
471.022	780.67
471.394	779.32
471.766	756.72
472.138	762.59
472.51	774.8
472.882	793.55
473.253	813.44
473.625	789.48
473.997	825.64
474.369	816.6
474.74	840.33
475.112	828.58
475.484	819.99
475.855	849.6
476.227	831.07
476.598	860.44
476.97	895.02
477.341	873.32
477.713	903.83
478.084	899.54
478.455	903.83
478.827	927.56
479.198	926.66
479.569	918.75
479.94	941.12
480.311	969.37
480.682	970.72
481.053	968.69
481.424	1008.91
481.795	973.66
482.166	963.94
482.537	1005.98
482.908	1024.28
483.279	1006.65
483.65	1011.63
484.021	1034.22
484.391	1015.24
484.762	1048.24
485.133	1053.21
485.503	1032.42
485.874	1063.38
486.244	1072.87
486.615	1098.4
486.985	1099.31
487.356	1104.96
487.726	1088.69
488.097	1128.46
488.467	1124.17
488.837	1111.28
489.207	1166.88
489.578	1159.87
489.948	1162.58
490.318	1157.61
490.688	1158.51
491.058	1166.88
491.428	1187.89
491.798	1198.29
492.168	1184.5
492.538	1232.86
492.908	1209.36
493.278	1222.92
493.648	1224.28
494.017	1219.08
494.387	1226.31
494.757	1206.2
495.126	1202.36
495.496	1229.25
495.866	1232.19
496.235	1259.3
496.605	1262.01
496.974	1301.11
497.344	1305.63
497.713	1267.66
498.082	1290.04
498.452	1296.82
498.821	1255.46
499.19	1296.36
499.559	1300.21
499.928	1306.53
500.298	1287.1
500.667	1315.35
501.036	1314.89
501.405	1325.97
501.774	1295.69
502.143	1308.57
502.512	1316.7
502.88	1316.02
503.249	1323.26
503.618	1316.7
503.987	1330.71
504.356	1337.72
504.724	1353.31
505.093	1316.7
505.462	1309.47
505.83	1328.45
506.199	1361.45
506.567	1378.62
506.936	1349.47
507.304	1346.31
507.672	1342.92
508.041	1382.92
508.409	1359.64
508.777	1386.31
509.145	1367.77
509.514	1370.71
509.882	1373.65
510.25	1355.35
510.618	1386.76
510.986	1394.67
511.354	1409.36
511.722	1387.89
512.09	1393.54
512.458	1404.61
512.826	1388.34
513.193	1425.4
513.561	1424.72
513.929	1387.44
514.297	1388.34
514.664	1426.3
515.032	1418.85
515.4	1404.38
515.767	1422.24
516.135	1413.65
516.502	1412.97
516.869	1433.99
517.237	1452.74
517.604	1405.74
517.972	1443.48
518.339	1423.82
518.706	1417.49
519.073	1439.19
519.44	1450.94
519.808	1470.37
520.175	1455.46
520.542	1441.45
520.909	1443.48
521.276	1464.04
521.643	1450.48
522.009	1464.27
522.376	1452.07
522.743	1478.51
523.11	1462.69
523.477	1480.77
523.843	1472.4
524.21	1501.1
524.577	1537.04
524.943	1479.64
525.31	1488.45
525.676	1509.92
526.043	1499.97
526.409	1494.1
526.776	1555.11
527.142	1520.99
527.508	1514.89
527.874	1506.75
528.241	1544.72
528.607	1541.1
528.973	1522.8
529.339	1548.33
529.705	1563.25
530.071	1534.32
530.437	1560.76
530.803	1540.65
531.169	1555.34
531.535	1550.37
531.901	1587.43
532.267	1568.67
532.632	1548.56
532.998	1561.89
533.364	1585.4
533.73	1561.44
534.095	1561.44
534.461	1589.24
534.826	1595.34
535.192	1569.8
535.557	1627.43
535.923	1561.44
536.288	1580.65
536.653	1592.63
537.019	1572.52
537.384	1617.94
537.749	1571.39
538.114	1587.43
538.479	1608.22
538.845	1586.75
539.21	1573.87
539.575	1609.35
539.94	1575.68
540.305	1611.38
540.67	1589.92
541.034	1608.22
541.399	1618.39
541.764	1605.96
542.129	1622.01
542.494	1626.3
542.858	1637.82
543.223	1622.68
543.587	1604.15
543.952	1573.65
544.316	1568.67
544.681	1593.53
545.045	1604.6
545.41	1612.29
545.774	1604.83
546.138	1615.23
546.503	1634.89
546.867	1598.5
547.231	1609.8
547.595	1624.49
547.959	1616.81
548.324	1648.22
548.688	1626.53
549.052	1605.73
549.416	1626.3
549.779	1649.8
550.143	1644.38
550.507	1641.67
550.871	1639.41
551.235	1642.12
551.599	1668.56
551.962	1652.74
552.326	1619.97
552.689	1647.99
553.053	1621.78
553.417	1630.37
553.78	1661.78
554.143	1627.65
554.507	1658.61
554.87	1661.78
555.234	1666.3
555.597	1627.88
555.96	1639.86
556.323	1640.99
556.686	1647.54
557.05	1651.61
557.413	1660.2
557.776	1666.52
558.139	1683.7
558.502	1661.78
558.865	1653.19
559.228	1643.25
559.59	1659.74
559.953	1694.55
560.316	1653.19
560.679	1676.92
561.041	1685.51
561.404	1702.46
561.767	1680.53
562.129	1690.25
562.492	1688.67
562.854	1663.13
563.217	1696.81
563.579	1706.07
563.941	1709.46
564.304	1712.85
564.666	1710.36
565.028	1694.32
565.39	1713.53
565.753	1742.23
566.115	1702.46
566.477	1677.82
566.839	1709.91
567.201	1753.75
567.563	1738.39
567.925	1751.49
568.287	1749.01
568.648	1728.67
569.01	1755.79
569.372	1736.35
569.734	1759.85
570.095	1766.41
570.457	1719.86
570.819	1765.05
571.18	1760.08
571.542	1739.74
571.903	1742.91
572.265	1773.19
572.626	1767.76
572.987	1772.28
573.349	1788.1
573.71	1767.31
574.071	1752.62
574.432	1784.26
574.794	1785.39
575.155	1777.26
575.516	1759.4
575.877	1801.44
576.238	1771.83
576.599	1798.05
576.96	1791.72
577.32	1794.66
577.681	1807.76
578.042	1801.66
578.403	1789.46
578.763	1812.51
579.124	1830.36
579.485	1827.65
579.845	1821.32
580.206	1822.23
580.566	1800.08
580.927	1808.67
581.287	1816.8
581.648	1821.32
582.008	1827.88
582.368	1847.31
582.728	1827.65
583.089	1794.43
583.449	1837.14
583.809	1824.26
584.169	1796.92
584.529	1834.66
584.889	1853.19
585.249	1829.68
585.609	1811.6
585.969	1827.65
586.329	1822
586.688	1820.64
587.048	1833.75
587.408	1818.38
587.768	1849.57
588.127	1806.41
588.487	1805.96
588.846	1854.77
589.206	1859.29
589.565	1841.66
589.925	1854.99
590.284	1851.38
590.643	1817.25
591.003	1855.67
591.362	1840.08
591.721	1856.8
592.08	1883.92
592.44	1880.76
592.799	1843.47
593.158	1833.75
593.517	1850.7
593.876	1864.03
594.235	1846.63
594.593	1843.47
594.952	1820.19
595.311	1848.89
595.67	1874.2
596.029	1909.68
596.387	1875.78
596.746	1866.29
597.104	1909
597.463	1865.61
597.822	1864.03
598.18	1876.69
598.538	1853.86
598.897	1911.04
599.255	1871.94
599.613	1892.05
599.972	1867.65
600.33	1873.75
600.688	1880.76
601.046	1879.63
601.404	1902.45
601.762	1877.59
602.12	1901.09
602.478	1879.63
602.836	1893.18
603.194	1877.82
603.552	1881.43
603.91	1892.28
604.268	1911.94
604.625	1899.74
604.983	1898.38
605.341	1886.63
605.698	1871.94
606.056	1912.39
606.413	1925.73
606.771	1920.3
607.128	1921.88
607.485	1917.36
607.843	1919.4
608.2	1894.09
608.557	1937.03
608.914	1904.26
609.272	1916.91
609.629	1936.12
609.986	1922.79
610.343	1937.7
610.7	1933.18
611.057	1922.79
611.414	1947.87
611.771	1948.32
612.127	1932.28
612.484	1971.6
612.841	1955.78
613.198	1968.21
613.554	1946.74
613.911	1961.88
614.267	1938.61
614.624	1964.14
614.98	1969.57
615.337	1981.54
615.693	1974.99
616.05	1987.42
616.406	1944.93
616.762	1963.01
617.118	1949.45
617.475	1967.31
617.831	2003.01
618.187	1985.84
618.543	1951.71
618.899	1989.91
619.255	1992.84
619.611	2005.95
619.967	1998.94
620.323	2027.64
620.678	1989.23
621.034	2000.53
621.39	1991.26
621.746	1986.97
622.101	2022.67
622.457	2003.69
622.812	2005.72
623.168	2035.55
623.523	2014.31
623.879	2015.89
624.234	2017.93
624.589	2023.58
624.945	2031.49
625.3	2016.8
625.655	2015.44
626.01	2011.83
626.365	2052.5
626.72	2023.35
627.075	2047.08
627.43	2027.42
627.785	2053.18
628.14	2024.71
628.495	2020.64
628.85	2003.24
629.205	2039.4
629.559	2057.25
629.914	2025.61
630.269	2081.43
630.623	2090.92
630.978	2066.51
631.332	2057.02
631.687	2071.49
632.041	2070.36
632.396	2051.15
632.75	2079.17
633.104	2033.97
633.459	2083.91
633.813	2050.24
634.167	2063.58
634.521	2125.27
634.875	2111.94
635.229	2080.52
635.583	2074.87
635.937	2084.14
636.291	2095.67
636.645	2063.8
636.999	2097.25
637.352	2106.51
637.706	2087.3
638.06	2074.42
638.413	2132.05
638.767	2151.48
639.121	2120.07
639.474	2141.31
639.828	2130.69
640.181	2139.51
640.534	2162.56
640.888	2119.85
641.241	2114.87
641.594	2169.79
641.947	2177.7
642.301	2165.49
642.654	2171.37
643.007	2189
643.36	2182.22
643.713	2171.37
644.066	2176.34
644.419	2193.52
644.771	2209.11
645.124	2191.03
645.477	2176.12
645.83	2176.79
646.182	2184.48
646.535	2177.47
646.888	2216.79
647.24	2174.08
647.593	2252.05
647.945	2194.65
648.298	2210.01
648.65	2223.12
649.002	2207.98
649.355	2234.87
649.707	2229
650.059	2234.42
650.411	2255.89
650.763	2271.93
651.115	2361.42
651.467	2303.57
651.819	2317.58
652.171	2359.61
652.523	2342.21
652.875	2353.96
653.227	2325.94
653.578	2369.78
653.93	2380.63
654.282	2389.89
654.633	2344.02
654.985	2403.91
655.337	2364.58
655.688	2407.07
656.039	2413.17
656.391	2417.46
656.742	2439.39
657.094	2449.1
657.445	2477.12
657.796	2462.89
658.147	2484.13
658.498	2436
658.849	2437.8
659.2	2484.13
659.551	2520.06
659.902	2529.1
660.253	2537.01
660.604	2542.89
660.955	2532.49
661.306	2565.26
661.656	2603.67
662.007	2556.44
662.358	2583.34
662.708	2587.18
663.059	2577.91
663.409	2624.69
663.76	2654.97
664.11	2685.03
664.461	2678.93
664.811	2684.35
665.161	2680.06
665.511	2694.97
665.862	2680.73
666.212	2719.83
666.562	2712.37
666.912	2706.72
667.262	2745.59
667.612	2753.28
667.962	2764.12
668.312	2745.82
668.662	2776.1
669.011	2773.84
669.361	2772.03
669.711	2809.32
670.06	2835.98
670.41	2839.37
670.76	2857
671.109	2874.63
671.459	2873.95
671.808	2876.66
672.157	2895.19
672.507	2894.29
672.856	2901.52
673.205	2907.17
673.554	2928.64
673.904	2940.39
674.253	2948.75
674.602	2968.18
674.951	2960.73
675.3	2929.32
675.649	2935.42
675.998	2997.56
676.346	2986.26
676.695	2988.52
677.044	2994.17
677.393	3017.45
677.741	3031.01
678.09	3031.23
678.438	3004.79
678.787	3052.25
679.135	3077.11
679.484	3063.1
679.832	3044.57
680.181	3098.12
680.529	3084.11
680.877	3058.13
681.225	3139.71
681.573	3122.08
681.922	3094.96
682.27	3128.18
682.618	3133.38
682.966	3118.46
683.314	3142.19
683.661	3177.9
684.009	3105.36
684.357	3143.55
684.705	3129.08
685.053	3185.81
685.4	3202.98
685.748	3185.81
686.095	3188.07
686.443	3153.72
686.79	3180.61
687.138	3197.11
687.485	3191.23
687.832	3214.05
688.18	3253.37
688.527	3208.4
688.874	3207.05
689.221	3214.28
689.568	3217.22
689.915	3190.1
690.262	3243.21
690.609	3211.12
690.956	3276.2
691.303	3226.26
691.65	3231.91
691.997	3219.7
692.344	3207.5
692.69	3227.39
693.037	3242.53
693.383	3257.44
693.73	3243.66
694.077	3200.27
694.423	3256.99
694.769	3249.99
695.116	3235.52
695.462	3230.55
695.808	3205.92
696.155	3218.8
696.501	3233.94
696.847	3221.74
697.193	3199.14
697.539	3218.12
697.885	3252.24
698.231	3196.43
698.577	3229.87
698.923	3211.34
699.269	3212.47
699.614	3228.29
699.96	3236.2
700.306	3198.91
700.651	3171.57
700.997	3160.27
701.342	3200.72
701.688	3221.74
702.033	3219.7
702.379	3201.62
702.724	3196.65
703.069	3181.96
703.415	3162.08
703.76	3188.07
704.105	3165.69
704.45	3161.85
704.795	3133.15
705.14	3137.9
705.485	3184.22
705.83	3102.64
706.175	3144.23
706.52	3143.55
706.865	3100.16
707.209	3113.72
707.554	3113.49
707.899	3128.86
708.243	3102.87
708.588	3126.15
708.932	3131.12
709.277	3085.92
709.621	3109.2
709.966	3077.79
710.31	3141.29
710.654	3042.31
710.998	3093.38
711.342	3132.02
711.687	3122.08
712.031	3135.41
712.375	3080.72
712.719	3050.44
713.063	3070.33
713.407	3095.64
713.75	3080.05
714.094	3072.36
714.438	3078.01
714.782	3061.29
715.125	3063.55
715.469	3068.07
715.812	3062.87
716.156	3054.74
716.499	3047.96
716.843	3068.07
717.186	3040.5
717.53	3061.97
717.873	3068.52
718.216	3089.99
718.559	3096.54
718.902	3065.36
719.246	3127.73
719.589	3071.01
719.932	3082.08
720.275	3064
720.617	3085.92
720.96	3058.35
721.303	3082.53
721.646	3065.81
721.989	3050.67
722.331	3082.08
722.674	3047.28
723.016	3063.32
723.359	3070.33
723.701	3101.51
724.044	3058.58
724.386	3028.3
724.729	3053.61
725.071	3074.62
725.413	3054.74
725.755	3057.67
726.097	3050.44
726.439	3067.39
726.782	3066.26
727.124	3106.94
727.465	3084.57
727.807	3080.05
728.149	3078.24
728.491	3074.85
728.833	3074.62
729.175	3073.94
729.516	3049.31
729.858	3095.86
730.199	3099.93
730.541	3076.88
730.882	3119.82
731.224	3079.59
731.565	3082.98
731.906	3067.84
732.248	3124.34
732.589	3058.58
732.93	3086.6
733.271	3062.42
733.612	3140.38
733.953	3114.4
734.294	3074.17
734.635	3109.88
734.976	3136.54
735.317	3127.73
735.658	3093.83
735.999	3107.39
736.339	3122.98
736.68	3150.33
737.021	3138.58
737.361	3140.16
737.702	3186.48
738.042	3178.12
738.383	3124.34
738.723	3192.59
739.063	3172.02
739.404	3204.34
739.744	3185.35
740.084	3198.46
740.424	3193.26
740.764	3186.26
741.104	3233.71
741.444	3220.38
741.784	3231.91
742.124	3236.2
742.464	3259.02
742.804	3270.55
743.143	3269.65
743.483	3257.89
743.823	3317.1
744.162	3279.36
744.502	3324.11
744.841	3311.45
745.181	3329.08
745.52	3337.44
745.86	3363.88
746.199	3370.89
746.538	3374.95
746.877	3436.65
747.216	3416.31
747.556	3416.53
747.895	3457.66
748.234	3434.84
748.573	3464.67
748.911	3442.07
749.25	3524.33
749.589	3515.06
749.928	3539.47
750.267	3570.65
750.605	3572.69
750.944	3581.95
751.283	3536.98
751.621	3620.82
751.96	3638.45
752.298	3666.92
752.636	3650.88
752.975	3690.43
753.313	3700.14
753.651	3732.46
753.989	3716.41
754.327	3813.13
754.666	3807.48
755.004	3802.74
755.342	3789.86
755.679	3871.44
756.017	3853.13
756.355	3886.13
756.693	3880.03
757.031	3935.39
757.368	3935.39
757.706	3945.79
758.044	3938.1
758.381	3997.08
758.719	3977.88
759.056	4009.51
759.394	4025.11
759.731	4056.07
760.068	4056.97
760.405	4078.44
760.743	4045.67
761.08	4121.15
761.417	4106.69
761.754	4167.93
762.091	4132.22
762.428	4163.86
762.765	4150.07
763.102	4197.98
763.438	4209.28
763.775	4198.21
764.112	4205.44
764.449	4215.38
764.785	4214.93
765.122	4231.88
765.458	4185.55
765.795	4232.33
766.131	4246.57
766.467	4239.34
766.804	4239.79
767.14	4257.42
767.476	4274.14
767.812	4266.46
768.148	4255.61
768.485	4186.01
768.821	4251.31
769.157	4233.69
769.492	4231.43
769.828	4283.4
770.164	4224.2
770.5	4283.4
770.836	4239.11
771.171	4226
771.507	4246.34
771.842	4226.46
772.178	4228.49
772.513	4229.17
772.849	4218.55
773.184	4231.43
773.519	4251.77
773.855	4138.1
774.19	4184.88
774.525	4241.6
774.86	4189.17
775.195	4176.97
775.53	4190.53
775.865	4188.72
776.2	4138.78
776.535	4098.1
776.87	4148.72
777.205	4138.1
777.539	4107.36
777.874	4102.39
778.209	4083.41
778.543	4090.64
778.878	4068.49
779.212	4121.83
779.547	4045.67
779.881	4067.59
780.215	4019.91
780.55	4037.08
780.884	4043.18
781.218	3982.17
781.552	4032.34
781.886	4013.58
782.22	4000.25
782.554	3977.88
782.888	3929.29
783.222	3941.94
783.556	3927.26
783.889	3927.71
784.223	3909.18
784.557	3900.59
784.89	3886.58
785.224	3887.03
785.557	3872.79
785.891	3873.7
786.224	3899.46
786.558	3851.1
786.891	3842.74
787.224	3833.92
787.557	3790.31
787.891	3796.41
788.224	3819.01
788.557	3807.03
788.89	3783.08
789.223	3782.17
789.556	3733.59
789.888	3770.42
790.221	3718
790.554	3742.63
790.887	3724.1
791.219	3715.28
791.552	3680.48
791.884	3701.95
792.217	3662.18
792.549	3696.53
792.882	3654.27
793.214	3635.74
793.546	3671.89
793.879	3604.33
794.211	3603.65
794.543	3620.6
794.875	3559.81
795.207	3628.51
795.539	3612.91
795.871	3588.96
796.203	3547.6
796.535	3572.46
796.867	3539.47
797.198	3570.43
797.53	3544.67
797.862	3476.87
798.193	3570.65
798.525	3494.5
798.856	3505.57
799.188	3482.75
799.519	3465.35
799.85	3454.5
800.182	3436.42
800.513	3424.67
800.844	3434.61
801.175	3434.61
801.506	3420.38
801.837	3451.34
802.168	3382.19
802.499	3448.85
802.83	3383.77
803.161	3412.01
803.491	3361.17
803.822	3375.86
804.153	3379.93
804.483	3330.66
804.814	3327.5
805.145	3343.77
805.475	3330.66
805.805	3290.21
806.136	3340.6
806.466	3316.65
806.796	3303.09
807.126	3248.63
807.457	3256.99
807.787	3268.06
808.117	3278.91
808.447	3245.92
808.777	3229.42
809.107	3254.05
809.436	3234.62
809.766	3211.57
810.096	3229.87
810.426	3198.91
810.755	3211.57
811.085	3193.72
811.414	3164.56
811.744	3195.07
812.073	3161.4
812.403	3165.02
812.732	3143.77
813.061	3131.34
813.39	3131.12
813.719	3151
814.049	3120.95
814.378	3121.85
814.707	3107.16
815.036	3113.72
815.365	3109.88
815.693	3067.62
816.022	3068.97
816.351	3081.4
816.68	3059.26
817.008	3094.28
817.337	3073.04
817.665	3037.11
817.994	3095.41
818.322	3075.07
818.651	3038.47
818.979	3023.32
819.307	3052.25
819.636	3045.24
819.964	3031.91
820.292	2991.23
820.62	2991.91
820.948	2994.62
821.276	3012.7
821.604	3049.99
821.932	2987.39
822.259	2975.19
822.587	2995.3
822.915	3012.03
823.243	3009.99
823.57	2975.19
823.898	2965.92
824.225	2978.81
824.553	2980.84
824.88	3015.42
825.207	3008.86
825.535	2996.66
825.862	2996.43
826.189	2975.87
826.516	3000.73
826.843	3020.84
827.17	2994.17
827.497	3022.65
827.824	3041.63
828.151	3041.86
828.478	3016.54
828.805	3013.38
829.131	2986.49
829.458	2994.62
829.785	2975.64
830.111	3005.25
830.438	3022.19
830.764	2968.18
831.09	2971.57
831.417	2996.43
831.743	2969.99
832.069	2991.69
832.395	2974.51
832.722	2977.9
833.048	2995.98
833.374	2986.94
833.7	2991.01
834.026	2975.64
834.351	2984
834.677	2964.12
835.003	2974.74
835.329	2972.7
835.654	2912.14
835.98	2947.85
836.306	2957.34
836.631	2964.57
836.956	2965.47
837.282	2933.38
837.607	2948.07
837.932	2941.97
838.258	2914.85
838.583	2964.34
838.908	2889.32
839.233	2902.65
839.558	2904.91
839.883	2910.79
840.208	2881.41
840.533	2885.02
840.858	2900.16
841.182	2903.78
841.507	2876.89
841.832	2882.31
842.156	2879.37
842.481	2887.06
842.805	2866.27
843.13	2875.98
843.454	2845.93
843.778	2822.88
844.103	2855.87
844.427	2827.85
844.751	2830.34
845.075	2843.22
845.399	2801.64
845.723	2814.74
846.047	2781.07
846.371	2791.69
846.695	2825.82
847.019	2772.03
847.343	2786.27
847.666	2757.34
847.99	2697.01
848.313	2747.17
848.637	2718.47
848.96	2729.55
849.284	2714.41
849.607	2693.84
849.931	2715.99
850.254	2689.77
850.577	2681.86
850.9	2686.84
851.223	2677.57
851.546	2628.08
851.869	2645.03
852.192	2637.12
852.515	2619.95
852.838	2598.48
853.161	2607.52
853.483	2598.7
853.806	2580.85
854.129	2584.69
854.451	2602.32
854.774	2603
855.096	2588.76
855.419	2567.29
855.741	2555.31
856.063	2504.69
856.385	2530.23
856.708	2539.27
857.03	2492.04
857.352	2492.72
857.674	2494.52
857.996	2484.13
858.318	2481.19
858.64	2467.18
858.961	2500.85
859.283	2457.92
859.605	2475.32
859.926	2486.62
860.248	2455.66
860.57	2462.21
860.891	2451.36
861.212	2456.56
861.534	2400.29
861.855	2475.77
862.176	2457.24
862.498	2449.33
862.819	2441.19
863.14	2445.94
863.461	2433.74
863.782	2411.36
864.103	2390.35
864.424	2412.49
864.745	2419.72
865.065	2387.41
865.386	2421.76
865.707	2383.79
866.027	2355.09
866.348	2408.65
866.668	2396.22
866.989	2415.88
867.309	2364.13
867.63	2365.49
867.95	2346.96
868.27	2346.51
868.59	2356.9
868.91	2386.73
869.23	2337.24
869.55	2338.14
869.87	2336.34
870.19	2346.05
870.51	2316.9
870.83	2329.78
871.15	2323.91
871.469	2350.12
871.789	2336.34
872.109	2317.35
872.428	2339.05
872.748	2329.11
873.067	2300.18
873.386	2313.06
873.706	2301.99
874.025	2294.3
874.344	2317.81
874.663	2299.05
874.982	2312.38
875.301	2338.37
875.62	2270.58
875.939	2274.64
876.258	2311.48
876.577	2296.56
876.896	2306.06
877.214	2293.4
877.533	2246.17
877.852	2278.94
878.17	2286.39
878.489	2273.51
878.807	2278.94
879.125	2245.04
879.444	2252.72
879.762	2258.82
880.08	2244.81
880.398	2250.01
880.716	2242.1
881.034	2238.94
881.352	2259.5
881.67	2220.18
881.988	2221.76
882.306	2226.96
882.624	2195.1
882.941	2221.99
883.259	2214.76
883.577	2216.11
883.894	2189.45
884.212	2188.77
884.529	2207.98
884.846	2202.78
885.164	2203.01
885.481	2198.04
885.798	2182.89
886.115	2170.01
886.432	2175.21
886.75	2160.97
887.067	2190.35
887.383	2158.94
887.7	2178.83
888.017	2150.81
888.334	2177.02
888.651	2147.42
888.967	2126.85
889.284	2141.77
889.6	2082.78
889.917	2094.08
890.233	2107.87
890.55	2099.51
890.866	2090.24
891.182	2104.03
891.498	2124.14
891.815	2106.29
892.131	2073.29
892.447	2046.85
892.763	2054.08
893.079	2069.45
893.395	2056.57
893.71	2042.11
894.026	2062.22
894.342	2054.99
894.657	2051.6
894.973	2034.42
895.289	2048.21
895.604	2065.61
895.92	2042.33
896.235	1997.14
896.55	2010.7
896.865	2020.41
897.181	2013.86
897.496	2035.1
897.811	1983.35
898.126	1981.54
898.441	1995.55
898.756	1979.74
899.071	1952.84
899.386	2005.27
899.7	1956.69
900.015	1939.96
900.33	1926.86
900.644	1920.08
900.959	1933.41
901.273	1942.67
901.588	1916.69
901.902	1888.44
902.216	1928.89
902.531	1901.77
902.845	1924.14
903.159	1906.74
903.473	1894.77
903.787	1883.02
904.101	1885.95
904.415	1868.78
904.729	1894.09
905.042	1864.94
905.356	1844.15
905.67	1826.29
905.984	1852.73
906.297	1863.58
906.611	1826.75
906.924	1819.74
907.237	1820.64
907.551	1821.32
907.864	1819.29
908.177	1801.89
908.491	1812.06
908.804	1820.19
909.117	1759.18
909.43	1783.36
909.743	1769.8
910.056	1775.22
910.368	1744.71
910.681	1730.03
910.994	1772.06
911.307	1756.01
911.619	1726.64
911.932	1755.56
912.244	1752.85
912.557	1695.22
912.869	1730.93
913.181	1707.88
913.494	1688.44
913.806	1668.56
914.118	1688.9
914.43	1695.68
914.742	1673.98
915.054	1665.17
915.366	1668.33
915.678	1649.58
915.99	1672.85
916.302	1652.51
916.613	1626.3
916.925	1656.58
917.236	1656.13
917.548	1609.8
917.859	1648.67
918.171	1626.98
918.482	1590.14
918.794	1605.06
919.105	1612.06
919.416	1598.73
919.727	1605.96
920.038	1582.01
920.349	1583.14
920.66	1581.33
920.971	1574.1
921.282	1602.57
921.593	1567.32
921.903	1538.62
922.214	1545.85
922.525	1525.28
922.835	1537.49
923.146	1534.78
923.456	1548.56
923.767	1525.74
924.077	1530.71
924.387	1526.41
924.697	1493.42
925.008	1478.51
925.318	1505.62
925.628	1469.02
925.938	1519.41
926.248	1477.83
926.558	1486.87
926.867	1461.78
927.177	1467.21
927.487	1430.15
927.796	1439.19
928.106	1458.85
928.416	1460.65
928.725	1461.33
929.034	1484.83
929.344	1450.26
929.653	1455.46
929.962	1443.25
930.271	1424.72
930.581	1416.81
930.89	1430.82
931.199	1413.2
931.508	1423.82
931.817	1408.9
932.125	1389.7
932.434	1386.98
932.743	1369.58
933.051	1364.16
933.36	1374.55
933.669	1373.2
933.977	1361.45
934.286	1374.55
934.594	1362.58
934.902	1365.06
935.21	1343.37
935.519	1341.33
935.827	1349.24
936.135	1340.43
936.443	1325.52
936.751	1368.45
937.059	1325.29
937.367	1320.32
937.674	1322.13
937.982	1331.17
938.29	1293.65
938.597	1318.06
938.905	1292.52
939.213	1262.92
939.52	1311.51
939.827	1299.98
940.135	1298.62
940.442	1269.92
940.749	1293.88
941.056	1282.13
941.363	1261.11
941.67	1253.65
941.977	1248.68
942.284	1266.76
942.591	1245.52
942.898	1248.46
943.205	1260.43
943.511	1258.85
943.818	1248.46
944.125	1235.35
944.431	1222.69
944.738	1203.49
945.044	1208.91
945.35	1230.6
945.657	1210.94
945.963	1204.84
946.269	1208.68
946.575	1224.05
946.881	1187.21
947.187	1180.44
947.493	1204.62
947.799	1193.77
948.105	1176.14
948.41	1181.79
948.716	1164.62
949.022	1165.29
949.327	1146.99
949.633	1134.11
949.938	1155.58
950.244	1166.2
950.549	1154.67
950.854	1148.12
951.16	1142.92
951.465	1119.19
951.77	1123.71
952.075	1124.62
952.38	1146.31
952.685	1133.88
952.99	1100.66
953.294	1126.2
953.599	1121.68
953.904	1100.66
954.209	1095.01
954.513	1102.02
954.818	1102.02
955.122	1100.66
955.426	1097.05
955.731	1085.07
956.035	1067.9
956.339	1052.75
956.643	1084.39
956.948	1083.49
957.252	1071.74
957.556	1069.03
957.86	1044.17
958.163	1061.34
958.467	1056.6
958.771	1086.2
959.075	1044.85
959.378	1036.03
959.682	1056.6
959.985	1055.01
960.289	1024.05
960.592	1024.05
960.896	1044.85
961.199	1012.53
961.502	1020.89
961.805	1008.91
962.108	1015.47
962.411	999.42
962.714	1004.39
963.017	1001.91
963.32	1021.12
963.623	1013.43
963.926	992.87
964.228	968.92
964.531	998.29
964.833	993.32
965.136	987.22
965.438	998.29
965.741	960.55
966.043	979.08
966.345	998.97
966.648	970.05
966.95	965.07
967.252	957.16
967.554	968.24
967.856	956.94
968.158	931.85
968.46	950.16
968.761	939.31
969.063	934.34
969.365	939.54
969.666	934.57
969.968	921.46
970.269	928.24
970.571	936.83
970.872	934.79
971.174	924.85
971.475	916.04
971.776	946.54
972.077	932.31
972.378	905.87
972.679	902.48
972.98	922.14
973.281	897.05
973.582	907.9
973.883	917.17
974.183	912.42
974.484	882.14
974.785	896.15
975.085	867.22
975.386	889.82
975.686	896.83
975.986	876.94
976.287	893.21
976.587	870.61
976.887	865.42
977.187	898.86
977.487	907.22
977.787	871.06
978.087	872.65
978.387	849.6
978.687	854.34
978.987	868.35
979.286	868.8
979.586	852.08
979.885	843.04
980.185	831.97
980.484	822.93
980.784	839.65
981.083	853.66
981.382	854.79
981.682	852.76
981.981	825.64
982.28	814.12
982.579	820.44
982.878	840.78
983.177	828.35
983.475	830.84
983.774	780.67
984.073	785.42
984.372	812.76
984.67	792.65
984.969	796.49
985.267	803.95
985.566	808.69
985.864	784.29
986.162	791.29
986.461	784.06
986.759	757.17
987.057	800.56
987.355	806.43
987.653	781.8
987.951	807.79
988.249	783.61
988.547	770.05
988.844	774.57
989.142	791.97
989.44	769.37
989.737	771.18
990.035	748.36
990.332	756.49
990.63	753.78
990.927	751.52
991.224	761.69
991.521	764.85
991.819	744.97
992.116	763.04
992.413	724.85
992.71	739.32
993.006	767.11
993.303	750.16
993.6	724.63
993.897	731.41
994.193	744.97
994.49	731.18
994.787	730.5
995.083	757.4
995.379	719.2
995.676	716.49
995.972	729.15
996.268	738.64
996.565	740.45
996.861	709.71
997.157	729.15
997.453	717.17
997.749	702.03
998.044	719.66
998.34	693.44
998.636	678.75
998.932	708.36
999.227	684.4
999.523	695.02
999.818	698.64
1000.114	694.8
1000.409	681.47
1000.704	655.03
1001	698.87
1001.295	672.43
1001.59	690.28
1001.885	664.06
1002.18	684.18
1002.475	682.14
1002.77	666.55
1003.065	635.36
1003.359	676.95
1003.654	663.39
1003.949	658.64
1004.243	675.14
1004.538	660.67
1004.832	624.29
1005.127	646.89
1005.421	649.38
1005.715	651.18
1006.009	647.57
1006.304	642.37
1006.598	618.64
1006.892	651.18
1007.186	617.51
1007.48	623.16
1007.773	619.55
1008.067	589.72
1008.361	634.46
1008.655	622.71
1008.948	618.19
1009.242	611.64
1009.535	632.2
1009.829	620.68
1010.122	617.29
1010.415	610.73
1010.708	610.05
1011.001	587.91
1011.295	583.84
1011.588	598.98
1011.881	591.52
1012.173	603.95
1012.466	603.95
1012.759	594.46
1013.052	615.93
1013.344	590.62
1013.637	594.24
1013.93	591.98
1014.222	593.33
1014.514	583.61
1014.807	579.32
1015.099	596.04
1015.391	569.83
1015.683	583.61
1015.976	581.13
1016.268	545.2
1016.56	561.47
1016.851	551.53
1017.143	568.25
1017.435	550.4
1017.727	560.56
1018.018	563.73
1018.31	528.25
1018.602	558.76
1018.893	563.95
1019.185	569.6
1019.476	538.42
1019.767	573.67
1020.058	549.72
1020.35	556.27
1020.641	528.25
1020.932	533.9
1021.223	544.07
1021.514	535.48
1021.804	547.91
1022.095	529.38
1022.386	523.28
1022.677	531.64
1022.967	541.81
1023.258	516.72
1023.548	520.11
1023.839	517.63
1024.129	542.26
1024.419	536.84
1024.709	511.07
1025	513.79
1025.29	519.89
1025.58	530.28
1025.87	504.29
1026.16	499.55
1026.449	528.7
1026.739	523.96
1027.029	503.16
1027.319	507.46
1027.608	493.9
1027.898	516.95
1028.187	507.91
1028.477	497.74
1028.766	498.42
1029.055	489.83
1029.344	492.77
1029.634	492.32
1029.923	479.21
1030.212	477.85
1030.501	490.96
1030.79	495.71
1031.078	478.31
1031.367	497.97
1031.656	471.98
1031.945	504.52
1032.233	464.07
1032.522	484.41
1032.81	491.41
1033.099	493.67
1033.387	482.15
1033.675	483.05
1033.963	475.59
1034.251	446.22
1034.54	455.03
1034.828	477.85
1035.116	482.6
1035.403	462.71
1035.691	438.76
1035.979	466.1
1036.267	470.62
1036.554	457.74
1036.842	451.41
1037.129	465.2
1037.417	466.78
1037.704	449.83
1037.992	460.68
1038.279	457.29
1038.566	470.85
1038.853	470.85
1039.14	470.85
