Data from blue_shiny_book_FLMS001491_00069.txt Node
Date: Wed Feb 08 15:27:22 GMT 2017
User: dcchb
Spectrometer: FLMS00149
Trigger mode: 0
Integration Time (sec): 2.000000E-2
Scans to average: 10
Electric dark correction enabled: true
Nonlinearity correction enabled: false
Boxcar width: 0
XAxis mode: Wavelengths
Number of Pixels in Spectrum: 2048
>>>>>Begin Spectral Data<<<<<
341.393	-6.45
341.776	-6.45
342.16	-6.45
342.543	-50.97
342.927	-83.74
343.31	-61.37
343.693	-82.61
344.077	-82.16
344.46	-62.05
344.843	-45.55
345.226	-35.38
345.61	-39.45
345.993	-14.59
346.376	-25.89
346.759	8.46
347.142	18.18
347.525	68.12
347.908	57.95
348.291	70.83
348.674	104.28
349.057	121.23
349.44	119.42
349.823	135.24
350.206	163.94
350.588	208.45
350.971	233.99
351.354	222.01
351.737	248.45
352.119	273.09
352.502	266.08
352.884	297.27
353.267	291.16
353.65	294.55
354.032	317.38
354.414	342.01
354.797	336.81
355.179	327.77
355.562	340.65
355.944	365.29
356.326	344.27
356.709	365.51
357.091	351.73
357.473	362.12
357.855	365.96
358.238	361.45
358.62	361.45
359.002	369.35
359.384	377.72
359.766	362.35
360.148	343.82
360.53	350.15
360.912	371.84
361.294	355.8
361.676	357.6
362.057	352.18
362.439	352.86
362.821	349.24
363.203	349.69
363.584	354.89
363.966	358.06
364.348	332.75
364.729	327.55
365.111	342.69
365.493	338.17
365.874	330.26
366.256	352.63
366.637	341.11
367.019	309.02
367.4	332.52
367.781	355.8
368.163	345.85
368.544	344.72
368.925	342.24
369.306	332.75
369.688	326.64
370.069	352.86
370.45	355.57
370.831	336.14
371.212	336.59
371.593	355.57
371.974	367.32
372.355	329.81
372.736	356.93
373.117	363.71
373.498	350.37
373.879	353.54
374.26	354.44
374.641	356.7
375.021	363.71
375.402	343.59
375.783	349.24
376.163	383.59
376.544	384.5
376.925	361.67
377.305	360.32
377.686	364.84
378.066	372.97
378.447	390.37
378.827	349.69
379.208	372.52
379.588	371.16
379.968	397.38
380.349	376.59
380.729	416.36
381.109	395.57
381.489	372.52
381.87	410.71
382.25	407.55
382.63	405.29
383.01	405.06
383.39	419.3
383.77	407.77
384.15	425.62
384.53	415
384.91	422.01
385.29	434.66
385.67	439.18
386.049	447.32
386.429	437.6
386.809	453.19
387.189	451.39
387.568	454.78
387.948	457.26
388.328	460.88
388.707	454.32
389.087	455.68
389.466	469.24
389.846	481.89
390.225	475.79
390.605	489.35
390.984	484.38
391.363	488.45
391.743	515.79
392.122	490.71
392.501	505.17
392.881	520.99
393.26	530.93
393.639	510.37
394.018	525.06
394.397	513.53
394.776	553.98
395.155	541.1
395.534	572.74
395.913	549.24
396.292	587.2
396.671	546.07
397.05	569.58
397.429	567.54
397.808	561.67
398.186	561.44
398.565	584.72
398.944	597.37
399.323	599.63
399.701	604.83
400.08	614.55
400.458	613.42
400.837	629.23
401.215	635.34
401.594	641.89
401.972	633.98
402.351	630.14
402.729	649.35
403.107	665.62
403.486	680.08
403.864	679.86
404.242	676.01
404.62	689.8
404.999	730.93
405.377	721.89
405.755	712.62
406.133	724.37
406.511	721.89
406.889	733.64
407.267	772.06
407.645	759.17
408.023	762.34
408.401	805.95
408.779	810.25
409.156	797.37
409.534	819.06
409.912	830.81
410.29	840.53
410.667	862.68
411.045	863.13
411.422	866.52
411.8	883.92
412.178	907.42
412.555	916.23
412.933	968.89
413.31	937.02
413.687	932.73
414.065	950.81
414.442	969.34
414.819	983.58
415.197	1006.4
415.574	1001.88
415.951	1024.03
416.328	1068.32
416.705	1081.2
417.082	1084.36
417.46	1101.76
417.837	1123.69
418.214	1118.94
418.591	1142.44
418.967	1123.91
419.344	1140.18
419.721	1168.2
420.098	1177.02
420.475	1191.03
420.852	1175.21
421.228	1191.48
421.605	1205.26
421.982	1252.72
422.358	1230.35
422.735	1256.34
423.111	1263.12
423.488	1318.48
423.864	1307.64
424.241	1310.57
424.617	1354.19
424.994	1384.24
425.37	1357.13
425.746	1377.24
426.123	1402.1
426.499	1413.62
426.875	1414.75
427.251	1482.77
427.627	1522.77
428.003	1486.61
428.379	1546.5
428.756	1533.39
429.132	1582.2
429.507	1590.57
429.883	1645.93
430.259	1666.27
430.635	1692.26
431.011	1683.22
431.387	1734.29
431.763	1744.69
432.138	1740.84
432.514	1776.78
432.89	1820.62
433.265	1840.73
433.641	1855.87
434.016	1924.57
434.392	1960.5
434.767	1974.74
435.143	1991.46
435.518	2004.79
435.894	2043.66
436.269	2103.55
436.644	2132.47
437.02	2137.22
437.395	2142.19
437.77	2150.78
438.145	2198.91
438.52	2224.22
438.895	2245.92
439.271	2272.81
439.646	2302.64
440.021	2383.77
440.395	2382.18
440.77	2357.1
441.145	2398.23
441.52	2449.75
441.895	2422.63
442.27	2450.2
442.645	2413.14
443.019	2491.78
443.394	2462.41
443.769	2542.86
444.143	2554.38
444.518	2594.83
444.892	2604.1
445.267	2621.5
445.641	2694.94
446.016	2710.31
446.39	2674.6
446.764	2726.13
447.139	2704.43
447.513	2771.78
447.887	2763.64
448.262	2779.23
448.636	2797.31
449.01	2830.98
449.384	2875.5
449.758	2901.49
450.132	2940.13
450.506	2979
450.88	2973.58
451.254	2994.37
451.628	3064.43
452.002	3081.15
452.376	3131.99
452.75	3187.81
453.123	3127.02
453.497	3182.61
453.871	3266.68
454.244	3315.72
454.618	3379.22
454.992	3415.6
455.365	3448.14
455.739	3517.29
456.112	3557.52
456.486	3627.8
456.859	3653.56
457.232	3741.92
457.606	3698.98
457.979	3722.26
458.352	3787.34
458.725	3877.96
459.099	3917.96
459.472	3990.05
459.845	4033.44
460.218	4082.25
460.591	4132.19
460.964	4147.33
461.337	4271.85
461.71	4316.82
462.083	4418.74
462.456	4398.4
462.829	4448.8
463.201	4523.14
463.574	4517.04
463.947	4626.64
464.32	4700.09
464.692	4730.14
465.065	4802.46
465.438	4844.27
465.81	4904.6
466.183	4984.37
466.555	5071.83
466.928	5148.44
467.3	5141.21
467.672	5261.2
468.045	5459.39
468.417	5438.83
468.789	5457.36
469.161	5531.7
469.534	5585.71
469.906	5742.09
470.278	5771.47
470.65	5857.12
471.022	5940.73
471.394	6051.92
471.766	6110.45
472.138	6218.01
472.51	6364
472.882	6509.98
473.253	6513.83
473.625	6689.19
473.997	6780.49
474.369	6821.84
474.74	6924.44
475.112	7021.16
475.484	7172.34
475.855	7246.46
476.227	7333.24
476.598	7524.65
476.97	7548.37
477.341	7812.77
477.713	7928.48
478.084	7974.13
478.455	8259.09
478.827	8294.34
479.198	8568.69
479.569	8624.73
479.94	8854.33
480.311	8859.3
480.682	9128.67
481.053	9265.39
481.424	9392.17
481.795	9493.41
482.166	9672.39
482.537	9770.46
482.908	10045.71
483.279	10160.06
483.65	10377.45
484.021	10553.72
484.391	10689.31
484.762	10751.68
485.133	10935.86
485.503	11159.58
485.874	11370.87
486.244	11439.35
486.615	11746.46
486.985	11825.1
487.356	12022.16
487.726	12129.95
488.097	12385.31
488.467	12439.09
488.837	12747.33
489.207	12854.68
489.578	13058.74
489.948	13177.15
490.318	13483.81
490.688	13555
491.058	13783.69
491.428	13882.22
491.798	14167.41
492.168	14463
492.538	14459.83
492.908	14595.87
493.278	14862.76
493.648	14850.56
494.017	15065.47
494.387	15286.93
494.757	15449.41
495.126	15577.54
495.496	15639.69
495.866	15853.92
496.235	15987.25
496.605	16134.14
496.974	16277.64
497.344	16441.02
497.713	16568.25
498.082	16735.93
498.452	16871.52
498.821	16928.02
499.19	17034.68
499.559	17175.47
499.928	17317.16
500.298	17320.77
500.667	17552.18
501.036	17578.39
501.405	17858.39
501.774	17979.97
502.143	18125.72
502.512	18284.14
502.88	18556.9
503.249	18425.83
503.618	18612.72
503.987	18730.45
504.356	18869.89
504.724	18937
505.093	18995.08
505.462	19152.14
505.83	19309.2
506.199	19408.85
506.567	19638.68
506.936	19715.29
507.304	19987.82
507.672	20141.26
508.041	20193.92
508.409	20399.56
508.777	20535.83
509.145	20747.12
509.514	20795.71
509.882	20953.45
510.25	20967.68
510.618	21199.99
510.986	21202.03
511.354	21442.25
511.722	21654.22
512.09	21751.84
512.458	21786.87
512.826	21997.94
513.193	22078.39
513.561	22339.17
513.929	22409.23
514.297	22649.67
514.664	22858.48
515.032	22937.57
515.4	23163.78
515.767	23206.27
516.135	23474.28
516.502	23413.27
516.869	23798.8
517.237	23922.63
517.604	23860.49
517.972	24131.44
518.339	24217.32
518.706	24229.74
519.073	24456.86
519.44	24678.77
519.808	24973.91
520.175	25045.99
520.542	25301.81
520.909	25529.15
521.276	25518.75
521.643	25801
522.009	26020.21
522.376	26241.22
522.743	26348.78
523.11	26715.78
523.477	26916.23
523.843	26980.41
524.21	27254.3
524.577	27600.73
524.943	27625.59
525.31	27693.83
525.676	27888.41
526.043	27961.4
526.409	28210.88
526.776	28605
527.142	28740.13
527.508	28952.56
527.874	29201.36
528.241	29291.76
528.607	29542.6
528.973	29802.03
529.339	29796.83
529.705	30169.93
530.071	30419.86
530.437	30517.49
530.803	30701.21
531.169	30960.19
531.535	30823.02
531.901	30913.41
532.267	31048.55
532.632	31344.59
532.998	31413.28
533.364	31598.14
533.73	31710.23
534.095	31884.46
534.461	31971.69
534.826	32067.73
535.192	32506.81
535.557	32654.61
535.923	32738.9
536.288	32890.31
536.653	33124.88
537.019	33058.66
537.384	33355.38
537.749	33492.1
538.114	33434.25
538.479	33474.25
538.845	33702.04
539.21	33533
539.575	33714.47
539.94	33739.55
540.305	33973.22
540.67	33810.74
541.034	34046.66
541.399	34133.89
541.764	34235.58
542.129	34367.78
542.494	34461.79
542.858	34755.8
543.223	34948.33
543.587	34994.88
543.952	35056.8
544.316	35208.44
544.681	35390.13
545.045	35545.15
545.41	35780.4
545.774	35685.71
546.138	35628.09
546.503	35662.89
546.867	35693.85
547.231	35848.87
547.595	35870.57
547.959	35986.5
548.324	35981.53
548.688	36056.55
549.052	36103.33
549.416	36214.97
549.779	36190.33
550.143	36291.35
550.507	36555.75
550.871	36769.3
551.235	36785.8
551.599	37166.35
551.962	37281.38
552.326	37365.67
552.689	37579.45
553.053	37469.17
553.417	37578.09
553.78	37961.13
554.143	37705.55
554.507	38115.71
554.87	37940.8
555.234	38315.25
555.597	37926.11
555.96	38063.5
556.323	38103.28
556.686	38338.3
557.05	38670.49
557.413	38464.85
557.776	38638.63
558.139	38814.45
558.502	38914.78
558.865	39092.4
559.228	39314.77
559.59	39443.58
559.953	39638.83
560.316	40085.82
560.679	39960.18
561.041	40366.27
561.404	40564.46
561.767	40709.31
562.129	40628.64
562.492	40963.77
562.854	40821.62
563.217	40907.5
563.579	40849.42
563.941	41051.9
564.304	41150.66
564.666	41394.26
565.028	41257.32
565.39	41322.4
565.753	41561.27
566.115	41684.65
566.477	41904.76
566.839	41953.8
567.201	42305.88
567.563	42403.96
567.925	42767.79
568.287	42867.22
568.648	43092.75
569.01	43383.59
569.372	43593.53
569.734	43432.86
570.095	43751.94
570.457	43803.92
570.819	43865.39
571.18	43760.3
571.542	44034.2
571.903	44024.03
572.265	44046.85
572.626	44003.69
572.987	44005.04
573.349	44120.52
573.71	44321.87
574.071	44219.28
574.432	44461.08
574.794	44673.95
575.155	44611.13
575.516	44606.16
575.877	44737.45
576.238	45062.42
576.599	45182.19
576.96	45384.44
577.32	45487.72
577.681	45663.76
578.042	45819.91
578.403	45962.05
578.763	46103.75
579.124	45981.94
579.485	46091.77
579.845	46205.89
580.206	46121.37
580.566	46010.41
580.927	46003.41
581.287	46198.21
581.648	45891.32
582.008	46052.22
582.368	45974.26
582.728	46035.95
583.089	45965.9
583.449	45894.03
583.809	45996.86
584.169	46166.34
584.529	46152.78
584.889	46508.93
585.249	46245.21
585.609	46167.25
585.969	46615.14
586.329	46589.83
586.688	46687.01
587.048	46742.6
587.408	46722.03
587.768	46929.03
588.127	46882.26
588.487	46773.11
588.846	47078.18
589.206	46803.84
589.565	46725.42
589.925	46848.13
590.284	46576.28
590.643	46564.3
591.003	46632.55
591.362	46805.42
591.721	46497.18
592.08	46475.49
592.44	46592.55
592.799	46558.87
593.158	46515.26
593.517	46590.51
593.876	46719.77
594.235	46715.93
594.593	46877.51
594.952	46905.08
595.311	46889.04
595.67	46943.27
596.029	47192.53
596.387	47480.88
596.746	47432.98
597.104	47276.82
597.463	47330.61
597.822	47509.81
598.18	47376.25
598.538	47505.52
598.897	47488.57
599.255	47100.33
599.613	47608.56
599.972	47303.49
600.33	47206.99
600.688	47020.11
601.046	47132.42
601.404	47248.35
601.762	46962.03
602.12	47313.21
602.478	47331.74
602.836	47456.03
603.194	47188.46
603.552	47430.04
603.91	47262.58
604.268	47524.5
604.625	47629.35
604.983	47785.74
605.341	47530.83
605.698	47820.76
606.056	47818.5
606.413	48044.03
606.771	48105.05
607.128	48197.48
607.485	48065.73
607.843	48339.39
608.2	48454.42
608.557	48390.24
608.914	48140.53
609.272	48301.88
609.629	48342.56
609.986	48280.86
610.343	48079.96
610.7	48265.95
611.057	48113.64
611.414	48090.81
611.771	48253.29
612.127	48214.65
612.484	48164.26
612.841	48338.49
613.198	48255.1
613.554	48312.73
613.911	48627.75
614.267	48671.59
614.624	48589.1
614.98	48823.45
615.337	49098.47
615.693	48989.77
616.05	49097.34
616.406	49164.91
616.762	49127.39
617.118	49169.2
617.475	49329.2
617.831	49349.99
618.187	49459.14
618.543	49494.62
618.899	49565.8
619.255	49382.3
619.611	49314.96
619.967	49275.41
620.323	49366.26
620.678	49132.59
621.034	49195.42
621.39	49174.63
621.746	48999.04
622.101	49372.13
622.457	49009.66
622.812	49099.37
623.168	49241.97
623.523	49061.63
623.879	49218.24
624.234	49055.53
624.589	49318.35
624.945	49378.24
625.3	49395.64
625.655	49369.87
626.01	49425.01
626.365	49378.69
626.72	49528.51
627.075	49607.83
627.43	49714.72
627.785	49727.83
628.14	49659.13
628.495	49723.31
628.85	49723.54
629.205	49631.79
629.559	49624.33
629.914	49512.47
630.269	49517.89
630.623	49362.42
630.978	49116.55
631.332	49211.91
631.687	49222.76
632.041	48986.61
632.396	49079.94
632.75	48918.13
633.104	48827.97
633.459	48623.45
633.813	48703.23
634.167	48632.27
634.521	48660.06
634.875	48559.95
635.229	48550.46
635.583	48377.58
635.937	48532.83
636.291	48516.79
636.645	48547.75
636.999	48562.66
637.352	48706.16
637.706	48638.82
638.06	48782.55
638.413	48724.47
638.767	48619.84
639.121	48561.99
639.474	48489.67
639.828	48534.64
640.181	48509.11
640.534	48488.32
640.888	48253.75
641.241	48112.73
641.594	48112.05
641.947	48099.17
642.301	48071.15
642.654	48038.61
643.007	47979.85
643.36	47752.06
643.713	47617.38
644.066	47892.4
644.419	47633.87
644.771	47563.59
645.124	47377.38
645.477	47332.41
645.83	47068.01
646.182	46673.9
646.535	46400.23
646.888	46227.58
647.24	45885.22
647.593	46169.05
647.945	45909.85
648.298	45866.01
648.65	45896.97
649.002	45955.05
649.355	46164.53
649.707	46215.38
650.059	46769.04
650.411	47246.99
650.763	47189.37
651.115	47577.6
651.467	47446.53
651.819	47411.51
652.171	47334.22
652.523	47198.86
652.875	47119.09
653.227	46825.99
653.578	47274.56
653.93	47077.05
654.282	46792.77
654.633	46604.3
654.985	46593.68
655.337	46490.4
655.688	46528.14
656.039	46647.69
656.391	46340.12
656.742	46338.77
657.094	46311.88
657.445	46433.91
657.796	46330.63
658.147	46413.79
658.498	46406.11
658.849	46430.97
659.2	46424.41
659.551	46331.31
659.902	46658.99
660.253	46582.83
660.604	46711.64
660.955	46491.31
661.306	46704.18
661.656	46496.5
662.007	46622.38
662.358	46704.41
662.708	46731.3
663.059	46616.73
663.409	46329.95
663.76	46778.76
664.11	46575.82
664.461	46514.58
664.811	46460.8
665.161	46391.87
665.511	46187.81
665.862	46240.01
666.212	46425.32
666.562	46157.98
666.912	46059.23
667.262	46111.2
667.612	46039.34
667.962	45997.31
668.312	45695.85
668.662	45886.35
669.011	45957.53
669.361	45719.57
669.711	45800.93
670.06	45750.99
670.41	45653.81
670.76	45716.64
671.109	45804.32
671.459	45718.67
671.808	45691.33
672.157	45819.69
672.507	45482.97
672.856	45688.39
673.205	45687.49
673.554	45823.75
673.904	45841.15
674.253	46167.02
674.602	45955.5
674.951	45337.66
675.3	45152.58
675.649	45907.14
675.998	45776.97
676.346	45594.61
676.695	45768.84
677.044	45581.5
677.393	45564.1
677.741	45480.94
678.09	45139.93
678.438	45029.65
678.787	44980.16
679.135	44769.32
679.484	44695.87
679.832	44835.53
680.181	44403.68
680.529	44604.8
680.877	44249.56
681.225	44338.37
681.573	44582.88
681.922	44137.24
682.27	44170.46
682.618	44282.32
682.966	43969.34
683.314	43967.76
683.661	43905.84
684.009	43871.49
684.357	43839.85
684.705	43806.63
685.053	43812.96
685.4	44029.22
685.748	43888.21
686.095	43773.64
686.443	43698.38
686.79	43675.33
687.138	43848.66
687.485	43852.05
687.832	43708.78
688.18	43686.86
688.527	43478.5
688.874	43238.96
689.221	43241.67
689.568	43019.31
689.915	42977.27
690.262	43072.41
690.609	42796.49
690.956	42622.03
691.303	42549.04
691.65	42302.04
691.997	42257.52
692.344	41784.99
692.69	41848.26
693.037	41745.44
693.383	41273.36
693.73	41360.37
694.077	41060.71
694.423	41071.11
694.769	40895.29
695.116	40610.1
695.462	40546.83
695.808	40566.26
696.155	40591.8
696.501	40331.92
696.847	40403.56
697.193	40125.15
697.539	40351.58
697.885	39968.99
698.231	39999.5
698.577	40071.81
698.923	40041.98
699.269	39935.32
699.614	39783.23
699.96	39880.86
700.306	39785.27
700.651	39713.86
700.997	39563.8
701.342	39406.75
701.688	39467.54
702.033	39403.13
702.379	39348.67
702.724	39254.66
703.069	39340.53
703.415	38846.54
703.76	38849.92
704.105	38760.44
704.45	38520.67
704.795	38196.38
705.14	38064.86
705.485	37900.35
705.83	37747.81
706.175	37713.91
706.52	37519.79
706.865	37190.08
707.209	37234.15
707.554	37033.02
707.899	36937.88
708.243	36729.3
708.588	36762.3
708.932	36647.95
709.277	36614.73
709.621	36578.8
709.966	36262.42
710.31	36532.92
710.654	36238.02
710.998	36321.4
711.342	36418.35
711.687	36328.86
712.031	36159.6
712.375	36125.7
712.719	36300.61
713.063	36158.92
713.407	36278.69
713.75	36252.93
714.094	36358.46
714.438	36213.38
714.782	36214.06
715.125	36147.4
715.469	36238.24
715.812	36211.12
716.156	35894.75
716.499	35772.94
716.843	35721.42
717.186	35368.66
717.53	35529.11
717.873	35353.29
718.216	35332.96
718.559	35078.27
718.902	34847.77
719.246	35011.16
719.589	34943.36
719.932	34728.9
720.275	34629.47
720.617	34534.11
720.96	34360.1
721.303	34334.34
721.646	34370.95
721.989	34053.21
722.331	34091.86
722.674	34031.29
723.016	33974.8
723.359	33858.42
723.701	33914.24
724.044	33822.26
724.386	33575.04
724.729	33915.59
725.071	33834.46
725.413	33867.46
725.755	33939.55
726.097	33838.98
726.439	33703.85
726.782	33705.88
727.124	34036.49
727.465	33824.29
727.807	33903.61
728.149	33791.53
728.491	33904.29
728.833	33972.99
729.175	33773.22
729.516	33823.39
729.858	33795.14
730.199	33899.55
730.541	33976.83
730.882	33738.19
731.224	33830.62
731.565	33611.64
731.906	33591.98
732.248	33455.49
732.589	33360.58
732.93	33291.88
733.271	33380.01
733.612	33316.74
733.953	33271.09
734.294	33118.78
734.635	32927.59
734.976	32977.08
735.317	32848.27
735.658	32697.09
735.999	32786.13
736.339	32712.23
736.68	32854.15
737.021	32672.23
737.361	32535.06
737.702	32780.03
738.042	32627.26
738.383	32581.84
738.723	32573.03
739.063	32487.83
739.404	32639.01
739.744	32543.42
740.084	32580.71
740.424	32608.96
740.764	32672.69
741.104	32759.46
741.444	32685.34
741.784	32580.03
742.124	32877.88
742.464	32882.17
742.804	33010.08
743.143	32988.16
743.483	33105.9
743.823	32880.59
744.162	33057.53
744.502	33067.25
744.841	32916.75
745.181	33136.85
745.52	32857.77
745.86	33031.32
746.199	33035.61
746.538	33034.48
746.877	33145.22
747.216	33221.6
747.556	32990.19
747.895	33034.94
748.234	32774.83
748.573	32672.46
748.911	32674.49
749.25	32649.64
749.589	32656.42
749.928	32596.53
750.267	32644.89
750.605	32587.26
750.944	32591.33
751.283	32556.3
751.621	32681.5
751.96	32383.2
752.298	32367.16
752.636	32495.74
752.975	32353.82
753.313	32247.61
753.651	32441.73
753.989	32259.14
754.327	32183.21
754.666	32127.84
755.004	32314.73
755.342	32397.89
755.679	32308.63
756.017	32364.45
756.355	32539.58
756.693	32481.96
757.031	32620.03
757.368	32536.42
757.706	32664.32
758.044	32445.35
758.381	32542.75
758.719	32534.84
759.056	32635.85
759.394	32676.98
759.731	32493.48
760.068	32695.74
760.405	32585.46
760.743	32445.57
761.08	32639.47
761.417	32615.06
761.754	32653.03
762.091	32596.08
762.428	32465.23
762.765	32380.72
763.102	32506.81
763.438	32208.52
763.775	32092.59
764.112	32150.89
764.449	32178.91
764.785	32041.74
765.122	31795.65
765.458	31789.77
765.795	31628.65
766.131	31626.16
766.467	31582.77
766.804	31371.03
767.14	31239.28
767.476	31308.43
767.812	31187.75
768.148	31200.18
768.485	31014.2
768.821	30922.45
769.157	30854.43
769.492	30783.47
769.828	30719.07
770.164	30570.37
770.5	30594.32
770.836	30493.76
771.171	30359.3
771.507	30238.63
771.842	30183.49
772.178	30198.85
772.513	30062.59
772.849	30021.91
773.184	29991.63
773.519	30101
773.855	29876.83
774.19	29813.55
774.525	29834.79
774.86	29832.53
775.195	29648.36
775.53	29612.2
775.865	29559.1
776.2	29460.57
776.535	29257.18
776.87	29353.68
777.205	29259.44
777.539	29058.09
777.874	29215.83
778.209	28913.91
778.543	28843.18
778.878	28788.49
779.212	28745.33
779.547	28586.92
779.881	28698.33
780.215	28482.29
780.55	28429.41
780.884	28294.5
781.218	28132.24
781.552	28118.68
781.886	27881.85
782.22	27688.86
782.554	27538.13
782.888	27345.14
783.222	27206.62
783.556	27091.59
783.889	27082.1
784.223	26908.09
784.557	26880.3
784.89	26832.61
785.224	26644.82
785.557	26504.49
785.891	26453.87
786.224	26367.54
786.558	26323.02
786.891	26106.53
787.224	25956.7
787.557	25857.5
787.891	25934.11
788.224	25929.59
788.557	25817.95
788.89	25698.18
789.223	25709.71
789.556	25627.45
789.888	25643.04
790.221	25476.72
790.554	25340.45
790.887	25323.73
791.219	25251.41
791.552	25309.94
791.884	25189.27
792.217	24923.29
792.549	25006.67
792.882	24960.12
793.214	24866.34
793.546	24898.2
793.879	24685.78
794.211	24580.47
794.543	24818.43
794.875	24578.44
795.207	24628.83
795.539	24526.01
795.871	24382.51
796.203	24217.32
796.535	24086.92
796.867	24094.15
797.198	24004.89
797.53	23957.66
797.862	23759.93
798.193	23698.68
798.525	23616.43
798.856	23622.3
799.188	23382.76
799.519	23203.1
799.85	23126.27
800.182	23089.21
800.513	23071.58
800.844	22916.56
801.175	23026.84
801.506	22946.61
801.837	22751.82
802.168	22770.8
802.499	22718.15
802.83	22551.37
803.161	22577.81
803.491	22609.9
803.822	22427.31
804.153	22328.1
804.483	22162.68
804.814	21977.83
805.145	22030.03
805.475	22025.51
805.805	21925.4
806.136	21867.77
806.466	21861.67
806.796	21842.01
807.126	21600.66
807.457	21667.1
807.787	21620.77
808.117	21571.06
808.447	21534.9
808.777	21540.55
809.107	21352.08
809.436	21413.55
809.766	21421.68
810.096	21354.34
810.426	21282.25
810.755	21255.36
811.085	21098.98
811.414	21163.16
811.744	21001.35
812.073	21027.57
812.403	21022.14
812.732	20871.64
813.061	20922.03
813.39	20840.23
813.719	20812.88
814.049	20797.52
814.378	20841.58
814.707	20656.05
815.036	20723.4
815.365	20548.03
815.693	20468.04
816.022	20369.51
816.351	20291.32
816.68	20247.93
817.008	20221.94
817.337	19988.27
817.665	19922.96
817.994	19995.05
818.322	20011.78
818.651	19838.9
818.979	19845.9
819.307	19865.34
819.636	19850.42
819.964	19765.91
820.292	19666.25
820.62	19657.21
820.948	19639.36
821.276	19639.58
821.604	19483.88
821.932	19551.22
822.259	19521.39
822.587	19594.39
822.915	19492.02
823.243	19604.56
823.57	19415.18
823.898	19559.36
824.225	19395.97
824.553	19326.82
824.88	19449.08
825.207	19515.07
825.535	19439.59
825.862	19504.22
826.189	19404.33
826.516	19541.73
826.843	19614.27
827.17	19553.48
827.497	19503.99
827.824	19482.75
828.151	19514.16
828.478	19447.72
828.805	19580.37
829.131	19489.76
829.458	19546.48
829.785	19441.17
830.111	19451.79
830.438	19643.88
830.764	19607.49
831.09	19602.75
831.417	19469.64
831.743	19614.27
832.069	19489.3
832.395	19502.18
832.722	19557.32
833.048	19550.77
833.374	19506.03
833.7	19521.85
834.026	19411.34
834.351	19443.2
834.677	19376.54
835.003	19489.3
835.329	19418.8
835.654	19346.26
835.98	19308.52
836.306	19341.51
836.631	19215.19
836.956	19202.76
837.282	19314.85
837.607	19136.09
837.932	19105.59
838.258	19001.63
838.583	18915.99
838.908	18843.45
839.233	18891.81
839.558	18854.29
839.883	18779.27
840.208	18607.07
840.533	18638.03
840.858	18668.76
841.182	18619.04
841.507	18577.69
841.832	18436.9
842.156	18472.16
842.481	18430.8
842.805	18302.44
843.13	18197.59
843.454	18156.91
843.778	18171.37
844.103	18074.65
844.427	18007.31
844.751	17992.85
845.075	17986.07
845.399	17929.12
845.723	17860.87
846.047	17903.81
846.371	17743.36
846.695	17810.03
847.019	17665.62
847.343	17634.44
847.666	17533.88
847.99	17580.43
848.313	17483.71
848.637	17388.79
848.96	17533.2
849.284	17455.01
849.607	17196.93
849.931	17188.12
850.254	17055.7
850.577	16952.87
850.9	16916.72
851.223	16866.1
851.546	16735.03
851.869	16796.49
852.192	16817.28
852.515	16541.13
852.838	16613.45
853.161	16622.94
853.483	16478.76
853.806	16426.56
854.129	16435.82
854.451	16353.57
854.774	16234.25
855.096	16220.92
855.419	16242.61
855.741	16116.74
856.063	16037.87
856.385	16124.65
856.708	15934.82
857.03	15846.24
857.352	15774.37
857.674	15856.86
857.996	15748.61
858.318	15640.59
858.64	15637.2
858.961	15563.53
859.283	15566.24
859.605	15444.21
859.926	15432.91
860.248	15362.86
860.57	15318.11
860.891	15333.26
861.212	15230.88
861.534	15216.87
861.855	15094.62
862.176	15118.57
862.498	15056.65
862.819	14969.2
863.14	14965.58
863.461	14823.21
863.782	14853.27
864.103	14873.38
864.424	14794.74
864.745	14807.62
865.065	14745.47
865.386	14745.02
865.707	14757.68
866.027	14737.11
866.348	14702.31
866.668	14632.48
866.989	14628.87
867.309	14480.17
867.63	14559.72
867.95	14573.05
868.27	14494.18
868.59	14569.66
868.91	14557
869.23	14567.17
869.55	14513.84
869.87	14541.41
870.19	14450.11
870.51	14419.38
870.83	14591.58
871.15	14373.51
871.469	14375.31
871.789	14464.35
872.109	14403.34
872.428	14334.19
872.748	14455.99
873.067	14373.73
873.386	14402.66
873.706	14403.79
874.025	14394.52
874.344	14312.72
874.663	14363.11
874.982	14154.53
875.301	14309.33
875.62	14190.01
875.939	14143.68
876.258	14131.48
876.577	14145.94
876.896	14084.47
877.214	14007.87
877.533	14017.36
877.852	14075.66
878.17	14004.48
878.489	13990.01
878.807	13927.64
879.125	13939.62
879.444	13958.15
879.762	13847.19
880.08	13897.81
880.398	13702.11
880.716	13731.49
881.034	13672.06
881.352	13682
881.67	13642.68
881.988	13514.32
882.306	13492.4
882.624	13434.32
882.941	13385.96
883.259	13395.68
883.577	13266.87
883.894	13285.17
884.212	13264.16
884.529	13192.75
884.846	13154.78
885.164	13144.39
885.481	13122.24
885.798	13031.85
886.115	12982.58
886.432	12970.38
886.75	12954.79
887.067	12997.5
887.383	12954.11
887.7	12940.78
888.017	12849.7
888.334	12859.2
888.651	12776.94
888.967	12771.29
889.284	12737.17
889.6	12719.76
889.917	12663.27
890.233	12697.17
890.55	12696.04
890.866	12672.76
891.182	12687.22
891.498	12620.78
891.815	12666.21
892.131	12508.7
892.447	12565.19
892.763	12477.51
893.079	12489.26
893.395	12365.42
893.71	12335.82
894.026	12375.37
894.342	12386.21
894.657	12323.39
894.973	12317.52
895.289	12219.44
895.604	12263.96
895.92	12132.44
896.235	12048.6
896.55	12119.33
896.865	12082.95
897.181	12022.61
897.496	12020.35
897.811	11926.11
898.126	11911.2
898.441	11875.72
898.756	11821.48
899.071	11800.01
899.386	11776.51
899.7	11744.65
900.015	11628.27
900.33	11570.87
900.644	11549.85
900.959	11527.93
901.273	11507.59
901.588	11362.29
901.902	11285.23
902.216	11278.45
902.531	11341.04
902.845	11233.02
903.159	11110.32
903.473	11045.23
903.787	11025.57
904.101	10964.56
904.415	10935.4
904.729	10839.59
905.042	10770.66
905.356	10696.31
905.67	10752.13
905.984	10656.54
906.297	10675.75
906.611	10652.93
906.924	10568.86
907.237	10492.93
907.551	10444.12
907.864	10461.74
908.177	10365.93
908.491	10377.68
908.804	10339.26
909.117	10252.48
909.43	10158.93
909.743	10105.37
910.056	10106.5
910.368	10165.48
910.681	10032.83
910.994	10006.39
911.307	9970.46
911.619	9912.38
911.932	9884.13
912.244	9863.34
912.557	9821.54
912.869	9826.96
913.181	9792.61
913.494	9779.95
913.806	9662.67
914.118	9683.23
914.43	9693.86
914.742	9684.36
915.054	9561.43
915.366	9621.09
915.678	9617.47
915.99	9498.61
916.302	9449.79
916.613	9397.59
916.925	9407.76
917.236	9461.77
917.548	9335.22
917.859	9403.02
918.171	9279.63
918.482	9322.57
918.794	9235.79
919.105	9276.24
919.416	9180.42
919.727	9178.84
920.038	9193.76
920.349	9073.76
920.66	9063.59
920.971	9039.86
921.282	9045.06
921.593	8928.68
921.903	8897.27
922.214	8858.17
922.525	8837.38
922.835	8724.39
923.146	8747.44
923.456	8721.45
923.767	8697.27
924.077	8674.45
924.387	8616.37
924.697	8565.07
925.008	8465.41
925.318	8514.68
925.628	8405.75
925.938	8255.02
926.248	8270.39
926.558	8207.79
926.867	8231.07
927.177	8144.07
927.487	8097.06
927.796	8071.07
928.106	8023.62
928.416	7968.93
928.725	7967.12
929.034	7806.67
929.344	7873.79
929.653	7754.25
929.962	7757.18
930.271	7714.02
930.581	7608.03
930.89	7626.79
931.199	7633.12
931.508	7517.87
931.817	7573.01
932.125	7491.88
932.434	7507.02
932.743	7386.35
933.051	7391.32
933.36	7387.48
933.669	7253.24
933.977	7272.45
934.286	7246.46
934.594	7218.44
934.902	7188.38
935.21	7144.09
935.519	7178.67
935.827	7141.61
936.135	7121.49
936.443	7134.37
936.751	7098.9
937.059	7093.92
937.367	7093.92
937.674	7019.8
937.982	7021.38
938.29	6994.94
938.597	6985.23
938.905	6922.63
939.213	6921.05
939.52	6889.86
939.827	6890.54
940.135	6865.23
940.442	6805.57
940.749	6826.13
941.056	6854.16
941.363	6683.31
941.67	6742.07
941.977	6680.38
942.284	6651.22
942.591	6662.3
942.898	6683.76
943.205	6653.48
943.511	6602.19
943.818	6534.62
944.125	6411
944.431	6499.36
944.738	6453.04
945.044	6455.97
945.35	6458.01
945.657	6336.43
945.963	6394.28
946.269	6344.34
946.575	6379.14
946.881	6327.39
947.187	6289.88
947.493	6205.81
947.799	6152.48
948.105	6167.39
948.41	6072.26
948.716	6093.72
949.022	6056.89
949.327	6011.01
949.633	5947.74
949.938	6001.3
950.244	5924.46
950.549	5855.76
950.854	5898.93
951.16	5865.03
951.465	5816.67
951.77	5776.9
952.075	5762.89
952.38	5679.05
952.685	5760.63
952.99	5640.4
953.294	5582.55
953.599	5579.16
953.904	5596.56
954.209	5532.83
954.513	5488.32
954.818	5463.01
955.122	5450.58
955.426	5411.93
955.731	5372.84
956.035	5394.53
956.339	5335.55
956.643	5316.57
956.948	5325.83
957.252	5312.28
957.556	5228.21
957.86	5224.14
958.163	5236.35
958.467	5196.35
958.771	5199.96
959.075	5173.97
959.378	5105.5
959.682	5091.94
959.985	5115.67
960.289	5093.07
960.592	5086.52
960.896	5041.32
961.199	5037.71
961.502	5012.17
961.805	5002.45
962.108	4936.01
962.411	4974.21
962.714	4935.56
963.017	4919.74
963.32	4958.39
963.623	4899.86
963.926	4915.9
964.228	4874.32
964.531	4828.9
964.833	4830.71
965.136	4790.26
965.438	4811.05
965.741	4801.78
966.043	4780.09
966.345	4717.26
966.648	4691.95
966.95	4738.28
967.252	4675.23
967.554	4639.75
967.856	4635.23
968.158	4676.36
968.46	4616.02
968.761	4619.19
969.063	4541.45
969.365	4523.82
969.666	4561.33
969.968	4503.94
970.269	4512.52
970.571	4468
970.872	4466.87
971.174	4439.3
971.475	4481.56
971.776	4430.26
972.077	4384.39
972.378	4329.48
972.679	4322.92
972.98	4310.72
973.281	4309.14
973.582	4279.08
973.883	4258.52
974.183	4228.46
974.484	4196.6
974.785	4159.76
975.085	4195.47
975.386	4180.55
975.686	4129.03
975.986	4117.5
976.287	4077.73
976.587	4084.51
976.887	3991.86
977.187	4005.19
977.487	4007.23
977.787	3965.19
978.087	3935.36
978.387	3932.2
978.687	3894.91
978.987	3886.78
979.286	3853.33
979.586	3849.94
979.885	3845.87
980.185	3808.81
980.484	3803.16
980.784	3710.06
981.083	3699.66
981.382	3746.67
981.682	3686.78
981.981	3672.09
982.28	3688.14
982.579	3676.61
982.878	3658.53
983.177	3590.29
983.475	3620.34
983.774	3592.55
984.073	3579.67
984.372	3549.84
984.67	3554.13
984.969	3558.42
985.267	3536.96
985.566	3476.84
985.864	3471.87
986.162	3505.32
986.461	3499.44
986.759	3429.39
987.057	3425.77
987.355	3459.67
987.653	3430.74
987.951	3419.67
988.249	3392.33
988.547	3421.48
988.844	3371.08
989.142	3342.61
989.44	3337.86
989.737	3282.95
990.035	3287.02
990.332	3292.67
990.63	3285.66
990.927	3267.81
991.224	3266.91
991.521	3245.21
991.819	3232.33
992.116	3222.16
992.413	3226
992.71	3181.48
993.006	3184.65
993.303	3174.7
993.6	3191.88
993.897	3134.48
994.193	3137.64
994.49	3134.71
994.787	3129.51
995.083	3075.95
995.379	3084.54
995.676	3035.5
995.972	3053.13
996.268	3043.63
996.565	3002.05
996.861	3028.27
997.157	2988.04
997.453	2952.56
997.749	2985.78
998.044	2920.93
998.34	2939
998.636	2939.68
998.932	2897.42
999.227	2861.72
999.523	2882.28
999.818	2817.43
1000.114	2790.08
1000.409	2807.71
1000.704	2798.22
1001	2754.6
1001.295	2776.07
1001.59	2741.04
1001.885	2706.92
1002.18	2687.03
1002.475	2699.01
1002.77	2654.27
1003.065	2638.22
1003.359	2660.82
1003.654	2639.58
1003.949	2609.07
1004.243	2555.96
1004.538	2545.34
1004.832	2560.48
1005.127	2568.62
1005.421	2535.63
1005.715	2536.08
1006.009	2487.72
1006.304	2499.92
1006.598	2440.03
1006.892	2483.2
1007.186	2401.62
1007.48	2417.44
1007.773	2373.37
1008.067	2359.13
1008.361	2317.1
1008.655	2350.32
1008.948	2336.31
1009.242	2330.66
1009.535	2295.18
1009.829	2300.83
1010.122	2242.98
1010.415	2260.6
1010.708	2273.49
1011.001	2215.41
1011.295	2212.24
1011.588	2193.49
1011.881	2218.57
1012.173	2193.94
1012.466	2216.99
1012.759	2169.08
1013.052	2172.47
1013.344	2137.9
1013.637	2125.92
1013.93	2113.04
1014.222	2130.66
1014.514	2146.94
1014.807	2105.81
1015.099	2076.88
1015.391	2064.45
1015.683	2059.25
1015.976	2068.29
1016.268	2024.68
1016.56	2020.84
1016.851	2006.6
1017.143	2042.76
1017.435	1977.45
1017.727	2042.53
1018.018	2031.68
1018.31	1979.26
1018.602	1956.88
1018.893	1957.11
1019.185	1937.9
1019.476	1926.15
1019.767	1920.95
1020.058	1942.42
1020.35	1889.54
1020.641	1915.98
1020.932	1868.75
1021.223	1869.43
1021.514	1841.41
1021.804	1805.48
1022.095	1819.71
1022.386	1841.86
1022.677	1794.4
1022.967	1802.99
1023.258	1757.57
1023.548	1765.48
1023.839	1744.69
1024.129	1747.17
1024.419	1725.03
1024.709	1710.79
1025	1711.92
1025.29	1690.45
1025.58	1679.83
1025.87	1680.05
1026.16	1657
1026.449	1668.76
1026.739	1629.89
1027.029	1604.58
1027.319	1620.4
1027.608	1599.83
1027.898	1589.66
1028.187	1585.14
1028.477	1570.23
1028.766	1572.03
1029.055	1526.61
1029.344	1528.65
1029.634	1528.87
1029.923	1538.14
1030.212	1501.08
1030.501	1498.36
1030.79	1476.9
1031.078	1455.88
1031.367	1442.77
1031.656	1421.3
1031.945	1421.76
1032.233	1419.04
1032.522	1436.45
1032.81	1412.27
1033.099	1377.69
1033.387	1369.1
1033.675	1374.53
1033.963	1373.4
1034.251	1358.26
1034.54	1344.24
1034.828	1346.73
1035.116	1318.48
1035.403	1306.05
1035.691	1315.77
1035.979	1305.15
1036.267	1294.3
1036.554	1271.48
1036.842	1271.7
1037.129	1273.06
1037.417	1255.21
1037.704	1261.53
1037.992	1223.57
1038.279	1234.64
1038.566	1214.3
1038.853	1214.3
1039.14	1214.3
