Data from blue_shiny_book_FLMS001491_00091.txt Node
Date: Wed Feb 08 15:27:47 GMT 2017
User: dcchb
Spectrometer: FLMS00149
Trigger mode: 0
Integration Time (sec): 2.000000E-2
Scans to average: 10
Electric dark correction enabled: true
Nonlinearity correction enabled: false
Boxcar width: 0
XAxis mode: Wavelengths
Number of Pixels in Spectrum: 2048
>>>>>Begin Spectral Data<<<<<
341.393	-13.25
341.776	-13.25
342.16	-13.25
342.543	-68.84
342.927	-60.7
343.31	-84.66
343.693	-62.96
344.077	-64.77
344.46	-55.73
344.843	-49.18
345.226	-48.05
345.61	-22.06
345.993	-29.29
346.376	5.96
346.759	17.03
347.142	20.65
347.525	36.92
347.908	50.93
348.291	79.4
348.674	93.64
349.057	112.17
349.44	126.41
349.823	139.97
350.206	168.67
350.588	176.13
350.971	226.07
351.354	243.92
351.737	234.2
352.119	261.32
352.502	278.95
352.884	275.78
353.267	297.7
353.65	290.25
354.032	310.81
354.414	287.53
354.797	325.73
355.179	319.85
355.562	321.21
355.944	328.44
356.326	342.67
356.709	348.1
357.091	348.32
357.473	356.01
357.855	338.15
358.238	343.35
358.62	349.91
359.002	354.88
359.384	351.04
359.766	351.04
360.148	358.27
360.53	340.41
360.912	337.03
361.294	322.79
361.676	323.47
362.057	339.96
362.439	331.15
362.821	331.6
363.203	340.64
363.584	311.04
363.966	320.3
364.348	305.16
364.729	332.96
365.111	328.89
365.493	330.47
365.874	323.47
366.256	318.27
366.637	326.86
367.019	327.08
367.4	297.93
367.781	325.05
368.163	324.37
368.544	337.03
368.925	326.63
369.306	324.14
369.688	323.01
370.069	324.37
370.45	312.62
370.831	323.92
371.212	317.36
371.593	323.92
371.974	322.56
372.355	336.8
372.736	325.27
373.117	328.44
373.498	330.02
373.879	320.08
374.26	311.49
374.641	309
375.021	316.01
375.402	334.54
375.783	342.67
376.163	343.13
376.544	320.98
376.925	341.09
377.305	333.86
377.686	368.66
378.066	339.06
378.447	355.78
378.827	342
379.208	342.67
379.588	339.74
379.968	327.76
380.349	357.59
380.729	350.81
381.109	351.26
381.489	345.39
381.87	366.18
382.25	364.59
382.63	374.09
383.01	363.24
383.39	384.26
383.77	358.49
384.15	386.29
384.53	391.49
384.91	376.12
385.29	382.67
385.67	380.87
386.049	412.5
386.429	398.49
386.809	386.74
387.189	403.24
387.568	382.45
387.948	408.44
388.328	393.52
388.707	402.33
389.087	389.45
389.466	413.63
389.846	413.63
390.225	416.8
390.605	421.09
390.984	438.27
391.363	425.61
391.743	451.82
392.122	418.83
392.501	424.93
392.881	450.24
393.26	457.47
393.639	459.73
394.018	454.54
394.397	444.59
394.776	460.64
395.155	430.36
395.534	468.55
395.913	469.9
396.292	471.03
396.671	476.68
397.05	464.25
397.429	478.72
397.808	477.59
398.186	461.99
398.565	477.13
398.944	483.01
399.323	483.01
399.701	490.69
400.08	512.16
400.458	510.35
400.837	492.05
401.215	512.84
401.594	488.43
401.972	514.42
402.351	517.36
402.729	549.9
403.107	537.92
403.486	528.21
403.864	528.43
404.242	536.79
404.62	541.54
404.999	574.08
405.377	591.93
405.755	584.48
406.133	551.48
406.511	578.15
406.889	601.42
407.267	603.91
407.645	614.98
408.023	628.77
408.401	626.28
408.779	594.65
409.156	643.68
409.534	641.65
409.912	640.75
410.29	652.95
410.667	680.29
411.045	669.9
411.422	670.8
411.8	672.16
412.178	685.94
412.555	701.31
412.933	723
413.31	736.79
413.687	762.1
414.065	745.83
414.442	740.4
414.819	748.77
415.197	755.09
415.574	768.43
415.951	791.25
416.328	800.74
416.705	817.92
417.082	790.12
417.46	810.01
417.837	833.51
418.214	838.93
418.591	852.72
418.967	837.35
419.344	841.42
419.721	862.21
420.098	875.09
420.475	868.99
420.852	864.02
421.228	881.64
421.605	914.64
421.982	922.77
422.358	924.13
422.735	952.83
423.111	931.36
423.488	978.82
423.864	949.66
424.241	977.69
424.617	993.96
424.994	1015.88
425.37	1014.07
425.746	1010.45
426.123	1039.38
426.499	1035.54
426.875	1059.27
427.251	1070.57
427.627	1095.42
428.003	1100.62
428.379	1125.7
428.756	1129.09
429.132	1140.85
429.507	1151.92
429.883	1144.46
430.259	1151.24
430.635	1195.08
431.011	1216.55
431.387	1236.21
431.763	1247.06
432.138	1272.82
432.514	1287.06
432.89	1282.99
433.265	1325.93
433.641	1324.12
434.016	1345.36
434.392	1376.77
434.767	1391.46
435.143	1411.12
435.518	1416.54
435.894	1427.17
436.269	1425.81
436.644	1483.44
437.02	1497.67
437.395	1515.07
437.77	1529.54
438.145	1553.94
438.52	1550.78
438.895	1546.03
439.271	1597.56
439.646	1640.72
440.021	1650.21
440.395	1636.88
440.77	1643.21
441.145	1652.7
441.52	1740.38
441.895	1726.59
442.27	1722.07
442.645	1691.57
443.019	1738.8
443.394	1733.15
443.769	1800.72
444.143	1765.01
444.518	1790.09
444.892	1792.58
445.267	1823.77
445.641	1826.25
446.016	1851.34
446.39	1887.27
446.764	1885.23
447.139	1886.81
447.513	1883.2
447.887	1913.71
448.262	1922.07
448.636	1928.17
449.01	1971.33
449.384	1972.24
449.758	1984.21
450.132	2029.64
450.506	2019.69
450.88	2016.75
451.254	2078.67
451.628	2110.54
452.002	2107.83
452.376	2134.72
452.75	2151.44
453.123	2119.8
453.497	2176.75
453.871	2191.21
454.244	2245.45
454.618	2285.45
454.992	2330.64
455.365	2324.32
455.739	2387.82
456.112	2378.33
456.486	2432.11
456.859	2430.08
457.232	2508.27
457.606	2499
457.979	2567.25
458.352	2577.19
458.725	2614.25
459.099	2656.74
459.472	2701.26
459.845	2724.98
460.218	2746.45
460.591	2729.5
460.964	2757.75
461.337	2848.6
461.71	2899.44
462.083	2970.4
462.456	2959.55
462.829	2963.4
463.201	3005.88
463.574	3045.2
463.947	3065.09
464.32	3171.75
464.692	3145.09
465.065	3207.46
465.438	3244.52
465.81	3274.12
466.183	3325.87
466.555	3416.72
466.928	3402.93
467.3	3451.75
467.672	3523.38
468.045	3578.75
468.417	3620.1
468.789	3592.08
469.161	3641.8
469.534	3739.65
469.906	3812.41
470.278	3829.81
470.65	3890.38
471.022	3908.91
471.394	4025.06
471.766	4032.3
472.138	4115.23
472.51	4192.97
472.882	4282.01
473.253	4306.41
473.625	4373.76
473.997	4436.8
474.369	4540.53
474.74	4503.47
475.112	4608.33
475.484	4674.99
475.855	4811.71
476.227	4834.76
476.598	4949.79
476.97	4987.98
477.341	5090.35
477.713	5209.67
478.084	5282.88
478.455	5356.33
478.827	5448.76
479.198	5595.64
479.569	5631.58
479.94	5745.47
480.311	5776.88
480.682	5928.74
481.053	6028.17
481.424	6121.96
481.795	6221.39
482.166	6330.09
482.537	6374.15
482.908	6539.57
483.279	6579.57
483.65	6735.5
484.021	6875.84
484.391	6941.82
484.762	7006
485.133	7091.42
485.503	7177.07
485.874	7357.63
486.244	7440.12
486.615	7550.85
486.985	7615.7
487.356	7735.47
487.726	7862.48
488.097	8018.63
488.467	8044.62
488.837	8229.25
489.207	8307.89
489.578	8486.87
489.948	8551.05
490.318	8680.53
490.688	8722.12
491.058	8923.69
491.428	9072.39
491.798	9126.4
492.168	9375.66
492.538	9375.43
492.908	9457.24
493.278	9616.56
493.648	9614.52
494.017	9678.47
494.387	9732.48
494.757	9869.66
495.126	9947.39
495.496	10063.32
495.866	10116.65
496.235	10320.94
496.605	10440.49
496.974	10405.46
497.344	10673.7
497.713	10700.14
498.082	10787.15
498.452	10882.28
498.821	10886.35
499.19	10993.47
499.559	11105.33
499.928	11115.5
500.298	11232.33
500.667	11283.18
501.036	11295.61
501.405	11434.36
501.774	11544.19
502.143	11552.1
502.512	11690.4
502.88	11821.47
503.249	11815.82
503.618	11946.44
503.987	12086.77
504.356	12158.64
504.724	12284.28
505.093	12331.51
505.462	12360.66
505.83	12372.87
506.199	12421.68
506.567	12531.96
506.936	12525.86
507.304	12734.44
507.672	12790.03
508.041	12920.42
508.409	12958.16
508.777	13025.96
509.145	13151.15
509.514	13329.9
509.882	13419.17
510.25	13557.47
510.618	13594.08
510.986	13717.46
511.354	13804.69
511.722	13978.7
512.09	14051.24
512.458	14022.09
512.826	14208.3
513.193	14181.63
513.561	14167.85
513.929	14315.19
514.297	14462.76
514.664	14528.06
515.032	14488.07
515.4	14707.95
515.767	14950.65
516.135	14966.47
516.502	14860.26
516.869	15269.29
517.237	15300.25
517.604	15376.18
517.972	15568.94
518.339	15631.76
518.706	15718.32
519.073	15804.87
519.44	15721.25
519.808	16006.9
520.175	15880.12
520.542	16128.47
520.909	16128.47
521.276	16191.98
521.643	16331.63
522.009	16455.92
522.376	16665.41
522.743	16765.75
523.11	16887.55
523.477	17093.19
523.843	17249.8
524.21	17490.92
524.577	17607.31
524.943	17757.81
525.31	17885.49
525.676	17990.35
526.043	18137.01
526.409	18125.03
526.776	18260.85
527.142	18297.91
527.508	18462.88
527.874	18493.84
528.241	18600.5
528.607	18528.86
528.973	18751.68
529.339	18817.67
529.705	19017.21
530.071	19218.34
530.437	19345.79
530.803	19546.01
531.169	19844.99
531.535	19756.18
531.901	19848.15
532.267	20115.26
532.632	20251.08
532.998	20185.77
533.364	20309.16
533.73	20452.2
534.095	20515.25
534.461	20580.79
534.826	20580.56
535.192	20632.76
535.557	20732.42
535.923	20656.04
536.288	20847.67
536.653	20931.96
537.019	20822.81
537.384	20985.52
537.749	21217.38
538.114	21306.87
538.479	21457.37
538.845	21585.51
539.21	21590.25
539.575	21764.94
539.94	21790.92
540.305	22023.01
540.67	21887.87
541.034	22007.64
541.399	22157.69
541.764	22072.27
542.129	22151.37
542.494	22076.79
542.858	22294.64
543.223	22212.83
543.587	22301.65
543.952	22320.85
544.316	22329.67
544.681	22367.18
545.045	22502.09
545.41	22675.65
545.774	22590
546.138	22668.87
546.503	22853.27
546.867	22865.25
547.231	23240.15
547.595	23176.2
547.959	23237.67
548.324	23235.41
548.688	23365.35
549.052	23584.32
549.416	23575.96
549.779	23552.01
550.143	23403.31
550.507	23506.36
550.871	23538
551.235	23478.34
551.599	23680.59
551.962	23593.59
552.326	23635.85
552.689	23768.05
553.053	23681.72
553.417	23743.42
553.78	24148.6
554.143	24024.76
554.507	24318.09
554.87	24309.95
555.234	24653.9
555.597	24529.84
555.96	24741.58
556.323	24884.63
556.686	24806.44
557.05	24947.68
557.413	24985.42
557.776	24977.96
558.139	25150.84
558.502	25042.59
558.865	25109.93
559.228	25076.49
559.59	25207.33
559.953	25148.8
560.316	25444.16
560.679	25469.47
561.041	25671.73
561.404	25729.13
561.767	25835.34
562.129	25810.93
562.492	26176.8
562.854	26167.98
563.217	26247.98
563.579	26478.71
563.941	26696.33
564.304	26831.24
564.666	27005.02
565.028	26934.07
565.39	27146.49
565.753	27188.3
566.115	27206.38
566.477	27366.82
566.839	27169.09
567.201	27398.01
567.563	27376.31
567.925	27463.32
568.287	27503.32
568.648	27477.78
569.01	27565.91
569.372	27653.82
569.734	27592.35
570.095	27941.04
570.457	27978.33
570.819	27913.93
571.18	28153.92
571.542	28405.67
571.903	28457.64
572.265	28640.01
572.626	28715.04
572.987	28806.56
573.349	28986.67
573.71	29109.15
574.071	29044.97
574.432	29237.51
574.794	29323.83
575.155	29188.02
575.516	29145.08
575.877	29225.53
576.238	29258.07
576.599	29280.9
576.96	29162.26
577.32	29353.89
577.681	29424.17
578.042	29477.73
578.403	29404.06
578.763	29529.48
579.124	29531.51
579.485	29796.14
579.845	29911.16
580.206	29884.72
580.566	29998.62
580.927	30002.91
581.287	30272.28
581.648	30242.91
582.008	30439.74
582.368	30277.25
582.728	30500.53
583.089	30512.5
583.449	30425.27
583.809	30367.87
584.169	30434.54
584.529	30394.09
584.889	30557.47
585.249	30356.35
585.609	30215.34
585.969	30481.54
586.329	30335.56
586.688	30234.77
587.048	30246.52
587.408	30269.8
587.768	30321.77
588.127	30198.39
588.487	30339.17
588.846	30607.19
589.206	30448.78
589.565	30369.68
589.925	30749.78
590.284	30440.41
590.643	30707.98
591.003	30870.23
591.362	30931.47
591.721	30966.28
592.08	31121.75
592.44	31150.45
592.799	31118.59
593.158	31022.55
593.517	31016.44
593.876	30986.39
594.235	30975.54
594.593	30960.63
594.952	30920.85
595.311	30787.3
595.67	30957.24
596.029	31109.1
596.387	31007.41
596.746	31013.73
597.104	30774.87
597.463	30710.92
597.822	30899.84
598.18	30937.35
598.538	30849.22
598.897	31055.77
599.255	30837.01
599.613	31437.22
599.972	31284.01
600.33	31353.61
600.688	31289.21
601.046	31593.15
601.404	31613.49
601.762	31613.49
602.12	31618.24
602.478	31613.94
602.836	31666.6
603.194	31604.9
603.552	31611.68
603.91	31572.36
604.268	31665.24
604.625	31412.59
604.983	31505.47
605.341	31324.46
605.698	31394.51
606.056	31505.02
606.413	31482.19
606.771	31593.38
607.128	31606.49
607.485	31452.82
607.843	31646.26
608.2	31750.21
608.557	31959.7
608.914	31735.75
609.272	32090.09
609.629	31983.2
609.986	32206.92
610.343	31943.2
610.7	32229.52
611.057	32383.64
611.414	32446.69
611.771	32371.44
612.127	32568.95
612.484	32601.04
612.841	32589.96
613.198	32514.03
613.554	32587.25
613.911	32853.91
614.267	32709.73
614.624	32509.96
614.98	32645.78
615.337	32770.75
615.693	32626.12
616.05	32586.8
616.406	32784.99
616.762	32551.55
617.118	32553.35
617.475	32517.65
617.831	32559.45
618.187	32603.07
618.543	32691.65
618.899	32921.25
619.255	32801.48
619.611	32936.62
619.967	33059.1
620.323	33026.79
620.678	33029.5
621.034	33055.71
621.39	33207.12
621.746	33139.1
622.101	33510.62
622.457	33248.48
622.812	33495.93
623.168	33393.11
623.523	33347.91
623.879	33541.58
624.234	33217.97
624.589	33389.49
624.945	33383.16
625.3	33421.35
625.655	33444.86
626.01	33329.38
626.365	33314.91
626.72	33338.19
627.075	33246.22
627.43	33135.48
627.785	33072.21
628.14	33086.9
628.495	33160.12
628.85	33058.88
629.205	32693.91
629.559	33018.65
629.914	32924.19
630.269	32916.96
630.623	32960.35
630.978	33027.01
631.332	33111.53
631.687	33146.78
632.041	33055.71
632.396	33111.08
632.75	33098.65
633.104	33218.19
633.459	33101.81
633.813	33024.3
634.167	33067.92
634.521	32971.87
634.875	33129.61
635.229	32953.34
635.583	32908.82
635.937	33012.78
636.291	32833.8
636.645	32870.86
636.999	32611.43
637.352	32717.87
637.706	32649.62
638.06	32549.96
638.413	32606.69
638.767	32453.24
639.121	32383.64
639.474	32182.97
639.828	32174.83
640.181	32299.8
640.534	32190.2
640.888	31952.92
641.241	31910.88
641.594	32027.04
641.947	32122.86
642.301	32098.9
642.654	32106.36
643.007	32255.73
643.36	32189.29
643.713	32205.57
644.066	32280.14
644.419	32196.75
644.771	32119.47
645.124	32067.72
645.477	32124.21
645.83	31889.42
646.182	31691.45
646.535	31382.54
646.888	31269.32
647.24	30954.07
647.593	31076.33
647.945	30943.23
648.298	30767.19
648.65	30721.54
649.002	30675.66
649.355	30880.63
649.707	30732.38
650.059	31094.41
650.411	31481.06
650.763	31439.26
651.115	31590.21
651.467	31403.33
651.819	31379.15
652.171	31253.27
652.523	31204.01
652.875	31239.94
653.227	31171.92
653.578	31466.83
653.93	31403.78
654.282	31308.64
654.633	31215.99
654.985	31304.8
655.337	31497.34
655.688	31401.07
656.039	31434.96
656.391	31349.77
656.742	31502.08
657.094	31709.99
657.445	31668.4
657.796	31707.05
658.147	31488.75
658.498	31515.19
658.849	31588.41
659.2	31609.65
659.551	31448.3
659.902	31545.7
660.253	31480.84
660.604	31559.48
660.955	31297.79
661.306	31242.88
661.656	31169.66
662.007	31223.44
662.358	30980.06
662.708	31093.05
663.059	31149.77
663.409	30771.48
663.76	31010.79
664.11	30854.64
664.461	30932.83
664.811	30799.5
665.161	30801.99
665.511	30797.24
665.862	30905.71
666.212	30985.03
666.562	30962.21
666.912	30917.92
667.262	31136.89
667.612	31046.27
667.962	31192.94
668.312	31199.72
668.662	31371.69
669.011	31362.65
669.361	31376.21
669.711	31373.5
670.06	31215.31
670.41	31197.68
670.76	31093.96
671.109	31328.75
671.459	31242.2
671.808	31067.74
672.157	31097.12
672.507	30904.36
672.856	30966.73
673.205	30929.89
673.554	30814.19
673.904	30687.19
674.253	30870.23
674.602	30574.65
674.951	30168.33
675.3	29963.59
675.649	30518.38
675.998	30430.02
676.346	30269.12
676.695	30359.29
677.044	30110.71
677.393	30094.66
677.741	30166.98
678.09	30256.01
678.438	30158.61
678.787	30091.04
679.135	30193.42
679.484	29870.03
679.832	30203.36
680.181	30035.23
680.529	30175.79
680.877	30277.71
681.225	30288.78
681.573	30429.79
681.922	30250.14
682.27	30147.99
682.618	30208.56
682.966	30104.6
683.314	30180.76
683.661	30105.51
684.009	29940.54
684.357	29764.73
684.705	29867.55
685.053	29779.19
685.4	29605.86
685.748	29510.95
686.095	29369.93
686.443	29315.47
686.79	29298.07
687.138	29269.15
687.485	29184.63
687.832	29018.08
688.18	28938.31
688.527	28654.47
688.874	28673.23
689.221	28530.41
689.568	28532.67
689.915	28433.91
690.262	28353.01
690.609	28363.63
690.956	28199.34
691.303	28138.1
691.65	28021.95
691.997	28169.51
692.344	27811.1
692.69	27969.52
693.037	27835.51
693.383	27654.95
693.73	27848.62
694.077	27759.13
694.423	27857.43
694.769	27686.59
695.116	27577.89
695.462	27488.4
695.808	27570.43
696.155	27666.7
696.501	27466.03
696.847	27479.36
697.193	27227.17
697.539	27283.66
697.885	27111.46
698.231	26865.82
698.577	26901.07
698.923	26831.7
699.269	26751.47
699.614	26587.41
699.96	26463.8
700.306	26436
700.651	26251.15
700.997	26042.56
701.342	25957.14
701.688	25773.42
702.033	25791.05
702.379	25708.56
702.724	25432.18
703.069	25618.62
703.415	25313.77
703.76	25252.98
704.105	25341.11
704.45	25260.21
704.795	25093.89
705.14	25071.29
705.485	25041.23
705.83	24958.75
706.175	24954.23
706.52	24982.03
706.865	24957.17
707.209	25100.44
707.554	25017.73
707.899	25081.01
708.243	24863.16
708.588	24895.25
708.932	24818.64
709.277	24824.29
709.621	24976.83
709.966	24765.54
710.31	24783.61
710.654	24494.13
710.998	24589.95
711.342	24526.22
711.687	24533.68
712.031	24248.71
712.375	24277.86
712.719	24244.42
713.063	24093.69
713.407	24224.53
713.75	24015.27
714.094	23905.9
714.438	23758.78
714.782	23706.81
715.125	23561.05
715.469	23533.48
715.812	23410.54
716.156	23357.66
716.499	23179.36
716.843	23245.58
717.186	23182.53
717.53	23297.33
717.873	23233.37
718.216	23091
718.559	23073.15
718.902	22901.86
719.246	23065.47
719.589	22968.07
719.932	23100.27
720.275	23083.32
720.617	22969.42
720.96	23008.29
721.303	22958.13
721.646	23102.08
721.989	23059.14
722.331	23176.2
722.674	23091.91
723.016	23224.56
723.359	23137.33
723.701	23185.46
724.044	23049.2
724.386	22881.74
724.729	22994.96
725.071	22934.62
725.413	22993.83
725.755	22954.28
726.097	22808.07
726.439	22781.18
726.782	22670.45
727.124	22731.92
727.465	22552.26
727.807	22533.96
728.149	22511.13
728.491	22486.95
728.833	22465.48
729.175	22447.63
729.516	22317.92
729.858	22381.64
730.199	22448.53
730.541	22441.98
730.882	22365.15
731.224	22324.47
731.565	22142.78
731.906	22204.92
732.248	22165.15
732.589	22088.32
732.93	21970.13
733.271	22107.07
733.612	22182.55
733.953	22283.11
734.294	22087.19
734.635	22099.62
734.976	22248.77
735.317	22059.17
735.658	22217.13
735.999	22295.32
736.339	22251.93
736.68	22394.3
737.021	22314.07
737.361	22195.43
737.702	22327.18
738.042	22322.89
738.383	22307.07
738.723	22374.41
739.063	22381.87
739.404	22449.44
739.744	22491.47
740.084	22500.06
740.424	22577.34
740.764	22421.42
741.104	22558.81
741.444	22388.42
741.784	22321.31
742.124	22364.02
742.464	22357.91
742.804	22332.6
743.143	22375.54
743.483	22289.22
743.823	22227.97
744.162	22203.79
744.502	22244.7
744.841	22198.37
745.181	22304.81
745.52	22201.31
745.86	22249.9
746.199	22162.44
746.538	22162.44
746.877	22221.42
747.216	22288.76
747.556	22215.77
747.895	22259.84
748.234	22233.17
748.573	22282.44
748.911	22357.46
749.25	22392.04
749.589	22299.16
749.928	22401.98
750.267	22473.17
750.605	22428.65
750.944	22480.85
751.283	22585.03
751.621	22581.19
751.96	22530.79
752.298	22786.6
752.636	22651.92
752.975	22686.49
753.313	22691.01
753.651	22800.84
753.989	22775.53
754.327	22796.32
754.666	22918.13
755.004	22995.19
755.342	22969.42
755.679	22980.27
756.017	22960.61
756.355	23030.89
756.693	23041.51
757.031	23054.39
757.368	23085.81
757.706	23035.64
758.044	22986.82
758.381	23007.16
758.719	22929.88
759.056	23133.26
759.394	22935.75
759.731	22818.47
760.068	22825.93
760.405	22900.5
760.743	22805.13
761.08	22911.35
761.417	22716.32
761.754	22830.22
762.091	22851.24
762.428	22827.51
762.765	22581.64
763.102	22711.13
763.438	22467.97
763.775	22557.23
764.112	22674.97
764.449	22586.38
764.785	22670.9
765.122	22450.57
765.458	22484.69
765.795	22660.73
766.131	22513.84
766.467	22561.75
766.804	22468.65
767.14	22467.97
767.476	22510.68
767.812	22399.04
768.148	22571.47
768.485	22472.26
768.821	22390.68
769.157	22298.03
769.492	22312.72
769.828	22357.01
770.164	22174.42
770.5	22184.81
770.836	22303.45
771.171	22178.48
771.507	22209.67
771.842	22121.99
772.178	22086.96
772.513	21997.92
772.849	21966.06
773.184	21829.79
773.519	21894.65
773.855	21723.58
774.19	21603.13
774.525	21693.3
774.86	21621.21
775.195	21526.3
775.53	21466.64
775.865	21474.32
776.2	21250.83
776.535	21117.72
776.87	21053.54
777.205	20999.08
777.539	20954.34
777.874	20925.64
778.209	20828.24
778.543	20749.82
778.878	20629.6
779.212	20669.15
779.547	20478.42
779.881	20485.2
780.215	20347.12
780.55	20346.22
780.884	20214.02
781.218	20284.52
781.552	20160.68
781.886	20021.03
782.22	19968.6
782.554	19853.57
782.888	19760.24
783.222	19797.08
783.556	19735.39
783.889	19668.27
784.223	19592.34
784.557	19511.89
784.89	19550.53
785.224	19427.37
785.557	19348.73
785.891	19341.72
786.224	19354.6
786.558	19397.99
786.891	19113.03
787.224	19182.18
787.557	19020.38
787.891	19068.28
788.224	19015.63
788.557	19113.03
788.89	19020.83
789.223	19028.28
789.556	18786.03
789.888	18840.95
790.221	18787.39
790.554	18613.15
790.887	18637.56
791.219	18509.65
791.552	18561.86
791.884	18465.81
792.217	18298.59
792.549	18220.17
792.882	18116.67
793.214	18093.17
793.546	18110.79
793.879	18002.32
794.211	18061.53
794.543	17957.35
794.875	17861.08
795.207	17841.42
795.539	17609.34
795.871	17685.5
796.203	17528.21
796.535	17394.88
796.867	17310.14
797.198	17332.96
797.53	17275.56
797.862	17191.72
798.193	17262
798.525	17049.81
798.856	17185.4
799.188	16998.51
799.519	16940.2
799.85	16768.91
800.182	16867.21
800.513	16843.26
800.844	16664.51
801.175	16764.84
801.506	16740.44
801.837	16650.72
802.168	16627.22
802.499	16563.72
802.83	16494.57
803.161	16423.38
803.491	16398.3
803.822	16442.36
804.153	16390.39
804.483	16341.8
804.814	16255.48
805.145	16271.3
805.475	16340.45
805.805	16252.09
806.136	16241.92
806.466	16296.15
806.796	16242.14
807.126	16098.87
807.457	16083.5
807.787	16056.84
808.117	16009.61
808.447	15949.72
808.777	16041.92
809.107	15888.25
809.436	15846.67
809.766	15871.76
810.096	15820.01
810.426	15775.04
810.755	15796.28
811.085	15639.67
811.414	15705.43
811.744	15553.57
812.073	15529.85
812.403	15510.41
812.732	15361.49
813.061	15357.2
813.39	15285.56
813.719	15107.03
814.049	15295.05
814.378	15162.4
814.707	15092.8
815.036	15087.15
815.365	15089.18
815.693	14802.86
816.022	14876.08
816.351	14793.14
816.68	14810.09
817.008	14747.04
817.337	14582.3
817.665	14537.33
817.994	14615.29
818.322	14559.7
818.651	14458.46
818.979	14475.18
819.307	14593.15
819.636	14447.84
819.964	14362.64
820.292	14478.8
820.62	14484.45
820.948	14383.89
821.276	14573.49
821.604	14462.3
821.932	14512.47
822.259	14492.36
822.587	14539.36
822.915	14362.87
823.243	14560.15
823.57	14511.34
823.898	14548.4
824.225	14402.64
824.553	14506.14
824.88	14565.35
825.207	14600.15
825.535	14587.27
825.862	14514.28
826.189	14553.37
826.516	14627.95
826.843	14681.96
827.17	14584.56
827.497	14606.25
827.824	14592.24
828.151	14636.54
828.478	14574.39
828.805	14748.62
829.131	14560.38
829.458	14562.64
829.785	14408.07
830.111	14477.44
830.438	14580.49
830.764	14487.39
831.09	14571.68
831.417	14450.55
831.743	14483.55
832.069	14452.81
832.395	14404.23
832.722	14516.99
833.048	14396.09
833.374	14392.7
833.7	14340.95
834.026	14243.33
834.351	14239.26
834.677	14268.18
835.003	14202.42
835.329	14185.93
835.654	14095.76
835.98	14077
836.306	14121.07
836.631	13957.23
836.956	14000.39
837.282	14048.75
837.607	13902.32
837.932	13886.05
838.258	13959.27
838.583	13855.77
838.908	13868.42
839.233	13891.24
839.558	13891.47
839.883	13818.93
840.208	13760.4
840.533	13758.14
840.858	13794.3
841.182	13770.57
841.507	13848.53
841.832	13770.57
842.156	13683.11
842.481	13688.31
842.805	13750.91
843.13	13590.01
843.454	13700.74
843.778	13660.06
844.103	13620.29
844.427	13610.57
844.751	13572.38
845.075	13545.49
845.399	13479.05
845.723	13469.11
846.047	13505.27
846.371	13308.89
846.695	13460.07
847.019	13348.21
847.343	13303.01
847.666	13117.48
847.99	13150.7
848.313	13147.99
848.637	13046.52
848.96	13016.92
849.284	12884.94
849.607	12889.01
849.931	12795.91
850.254	12752.29
850.577	12630.94
850.9	12550.72
851.223	12513.65
851.546	12462.36
851.869	12355.01
852.192	12536.93
852.515	12264.17
852.838	12223.27
853.161	12213.55
853.483	12160.44
853.806	11994.8
854.129	12079.54
854.451	12049.94
854.774	11954.57
855.096	11887.68
855.419	11816.27
855.741	11738.08
856.063	11668.93
856.385	11651.76
856.708	11651.53
857.03	11656.73
857.352	11595.94
857.674	11567.69
857.996	11546.67
858.318	11472.33
858.64	11488.6
858.961	11487.69
859.283	11459.9
859.605	11379.45
859.926	11363.18
860.248	11277.75
860.57	11213.12
860.891	11354.59
861.212	11226.23
861.534	11291.31
861.855	11275.27
862.176	11346.91
862.498	11277.98
862.819	11246.34
863.14	11229.62
863.461	11205.21
863.782	11215.84
864.103	11229.17
864.424	11156.18
864.745	11184.65
865.065	11164.31
865.386	11180.13
865.707	11120.24
866.027	11162.05
866.348	11107.82
866.668	11105.1
866.989	11040.47
867.309	11035.73
867.63	11136.06
867.95	11075.95
868.27	10979.23
868.59	11056.07
868.91	11035.95
869.23	11005.45
869.55	10964.54
869.87	10995.5
870.19	10978.55
870.51	10941.27
870.83	10925.22
871.15	10813.81
871.469	10791.44
871.789	10843.19
872.109	10772.91
872.428	10732.46
872.748	10627.38
873.067	10688.62
873.386	10655.62
873.706	10694.72
874.025	10596.87
874.344	10614.72
874.663	10517.55
874.982	10551.45
875.301	10544.44
875.62	10511.9
875.939	10402.3
876.258	10369.53
876.577	10296.54
876.896	10422.18
877.214	10273.49
877.533	10339.93
877.852	10280.72
878.17	10294.73
878.489	10323.66
878.807	10357.1
879.125	10269.42
879.444	10229.19
879.762	10166.82
880.08	10209.76
880.398	10064.9
880.716	10017.45
881.034	10002.99
881.352	10053.83
881.67	10012.93
881.988	10026.26
882.306	10024.45
882.624	10021.29
882.941	9952.82
883.259	9968.18
883.577	9972.93
883.894	9989.88
884.212	10087.28
884.529	9979.48
884.846	9912.59
885.164	9903.55
885.481	9937.45
885.798	9926.15
886.115	9878.24
886.432	9923.89
886.75	9838.47
887.067	9888.19
887.383	9853.16
887.7	9905.14
888.017	9774.07
888.334	9871.69
888.651	9748.53
888.967	9792.14
889.284	9738.13
889.6	9739.26
889.917	9638.02
890.233	9655.65
890.55	9626.95
890.866	9603.45
891.182	9569.32
891.498	9567.52
891.815	9498.14
892.131	9520.51
892.447	9509.44
892.763	9438.03
893.079	9358.48
893.395	9356.22
893.71	9292.5
894.026	9211.59
894.342	9204.59
894.657	9097.92
894.973	9174.31
895.289	9137.02
895.604	9010.7
895.92	9052.5
896.235	8930.25
896.55	8969.57
896.865	8908.33
897.181	8778.39
897.496	8872.39
897.811	8827.65
898.126	8719.4
898.441	8751.27
898.756	8671.04
899.071	8612.74
899.386	8630.14
899.7	8590.59
900.015	8512.63
900.33	8435.57
900.644	8445.06
900.959	8473.08
901.273	8435.34
901.588	8423.14
901.902	8340.43
902.216	8341.33
902.531	8341.56
902.845	8326.42
903.159	8220.21
903.473	8176.59
903.787	8175.24
904.101	8122.36
904.415	8209.59
904.729	8083.26
905.042	8079.65
905.356	8127.33
905.67	8144.73
905.984	8115.58
906.297	8033.32
906.611	7993.09
906.924	7972.08
907.237	8048.46
907.551	7933.89
907.864	7939.99
908.177	7958.97
908.491	7890.27
908.804	7808.02
909.117	7827.68
909.43	7778.19
909.743	7755.36
910.056	7765.76
910.368	7732.31
910.681	7734.34
910.994	7710.39
911.307	7687.57
911.619	7568.93
911.932	7595.59
912.244	7521.24
912.557	7506.78
912.869	7515.14
913.181	7441.7
913.494	7446.44
913.806	7393.56
914.118	7402.15
914.43	7344.98
914.742	7403.28
915.054	7312.89
915.366	7339.78
915.678	7174.59
915.99	7209.16
916.302	7135.72
916.613	7149.05
916.925	7140.24
917.236	7025.21
917.548	6999.45
917.859	7040.13
918.171	6944.08
918.482	6891.2
918.794	6869.06
919.105	6808.49
919.416	6716.07
919.727	6722.17
920.038	6732.11
920.349	6698.89
920.66	6606.46
920.971	6592.68
921.282	6620.25
921.593	6571.44
921.903	6511.78
922.214	6545.22
922.525	6471.33
922.835	6420.03
923.146	6372.12
923.456	6379.8
923.767	6374.83
924.077	6309.3
924.387	6331.22
924.697	6265.46
925.008	6248.73
925.318	6247.83
925.628	6211.22
925.938	6188.85
926.248	6128.06
926.558	6135.06
926.867	6097.55
927.177	6135.06
927.487	6127.38
927.796	6010.1
928.106	5975.52
928.416	6053.94
928.725	5987.27
929.034	5947.5
929.344	5980.72
929.653	5940.72
929.962	5872.47
930.271	5873.6
930.581	5886.94
930.89	5859.37
931.199	5806.71
931.508	5825.47
931.817	5801.97
932.125	5754.74
932.434	5766.71
932.743	5673.38
933.051	5696.21
933.36	5723.55
933.669	5637.45
933.977	5610.56
934.286	5653.72
934.594	5685.13
934.902	5548.87
935.21	5599.71
935.519	5524.23
935.827	5519.49
936.135	5531.24
936.443	5493.27
936.751	5497.34
937.059	5486.95
937.367	5430.9
937.674	5392.03
937.982	5376.21
938.29	5308.42
938.597	5364.46
938.905	5299.83
939.213	5260.51
939.52	5210.12
939.827	5170.34
940.135	5161.76
940.442	5155.43
940.749	5172.15
941.056	5152.72
941.363	5089.89
941.67	5015.77
941.977	5031.59
942.284	4973.06
942.591	4994.3
942.898	4923.57
943.205	4937.13
943.511	4931.03
943.818	4890.35
944.125	4825.27
944.431	4861.43
944.738	4847.41
945.044	4735.33
945.35	4712.73
945.657	4733.07
945.963	4719.96
946.269	4650.58
946.575	4673.18
946.881	4629.34
947.187	4602
947.493	4579.4
947.799	4537.37
948.105	4592.51
948.41	4517.03
948.716	4520.64
949.022	4499.18
949.327	4490.59
949.633	4438.39
949.938	4446.75
950.244	4468.67
950.549	4387.09
950.854	4376.69
951.16	4376.47
951.465	4343.93
951.77	4345.28
952.075	4292.4
952.38	4318.62
952.685	4299.63
952.99	4265.96
953.294	4301.67
953.599	4241.56
953.904	4245.17
954.209	4216.25
954.513	4267.32
954.818	4209.69
955.122	4235.91
955.426	4190.71
955.731	4189.58
956.035	4137.6
956.339	4121.11
956.643	4114.33
956.948	4091.05
957.252	4100.54
957.556	4123.82
957.86	4112.07
958.163	4031.39
958.467	4028.68
958.771	4042.46
959.075	4045.18
959.378	4025.74
959.682	4023.71
959.985	4014.22
960.289	4004.73
960.592	3924.95
960.896	3938.96
961.199	3944.39
961.502	3916.14
961.805	3912.07
962.108	3848.8
962.411	3863.26
962.714	3827.55
963.017	3813.32
963.32	3825.29
963.623	3773.54
963.926	3755.69
964.228	3764.05
964.531	3734
964.833	3726.09
965.136	3683.83
965.438	3700.33
965.741	3637.73
966.043	3619.2
966.345	3634.57
966.648	3566.77
966.95	3582.14
967.252	3545.98
967.554	3524.29
967.856	3505.3
968.158	3495.81
968.46	3496.72
968.761	3511.18
969.063	3459.88
969.365	3438.64
969.666	3394.12
969.968	3384.4
970.269	3397.74
970.571	3358.41
970.872	3303.27
971.174	3352.99
971.475	3338.98
971.776	3306.44
972.077	3328.13
972.378	3260.79
972.679	3256.5
972.98	3305.99
973.281	3232.09
973.582	3234.8
973.883	3181.02
974.183	3193.22
974.484	3185.09
974.785	3143.05
975.085	3158.87
975.386	3130.4
975.686	3113.45
975.986	3085.43
976.287	3137.18
976.587	3066.22
976.887	3052.89
977.187	3069.83
977.487	3059.21
977.787	3052.66
978.087	3021.47
978.387	2989.38
978.687	3027.35
978.987	2986.67
979.286	2973.79
979.586	2974.02
979.885	2977.86
980.185	2936.05
980.484	2935.37
980.784	2920.69
981.083	2940.57
981.382	2927.47
981.682	2906.67
981.981	2869.16
982.28	2873
982.579	2858.99
982.878	2906.67
983.177	2853.57
983.475	2825.32
983.774	2847.02
984.073	2826
984.372	2795.72
984.67	2815.38
984.969	2816.06
985.267	2818.09
985.566	2795.04
985.864	2736.96
986.162	2758.43
986.461	2719.34
986.759	2722.05
987.057	2720.24
987.355	2727.02
987.653	2728.15
987.951	2641.15
988.249	2656.74
988.547	2675.72
988.844	2619.9
989.142	2613.12
989.44	2592.56
989.737	2597.08
990.035	2614.03
990.332	2580.81
990.63	2563.63
990.927	2572.9
991.224	2529.28
991.521	2547.81
991.819	2491.09
992.116	2512.11
992.413	2459.68
992.71	2490.87
993.006	2456.74
993.303	2399.12
993.6	2440.92
993.897	2402.73
994.193	2422.85
994.49	2393.69
994.787	2343.75
995.083	2350.76
995.379	2360.7
995.676	2334.71
995.972	2303.75
996.268	2327.03
996.565	2294.71
996.861	2288.39
997.157	2265.34
997.453	2245.45
997.749	2236.86
998.044	2235.51
998.34	2236.41
998.636	2236.41
998.932	2209.29
999.227	2184.21
999.523	2195.51
999.818	2188.5
1000.114	2163.42
1000.409	2115.96
1000.704	2099.24
1001	2122.74
1001.295	2065.34
1001.59	2100.59
1001.885	2108.96
1002.18	2069.63
1002.475	2053.82
1002.77	2041.39
1003.065	2053.14
1003.359	2058.79
1003.654	2035.51
1003.949	2028.96
1004.243	2003.2
1004.538	2046.13
1004.832	2018.56
1005.127	1990.09
1005.421	1962.07
1005.715	1951.9
1006.009	1970.88
1006.304	1967.94
1006.598	1942.18
1006.892	1898.79
1007.186	1907.15
1007.48	1863.99
1007.773	1891.11
1008.067	1872.13
1008.361	1859.7
1008.655	1855.63
1008.948	1844.33
1009.242	1883.65
1009.535	1847.95
1009.829	1826.48
1010.122	1850.88
1010.415	1804.11
1010.708	1814.27
1011.001	1800.04
1011.295	1804.33
1011.588	1790.32
1011.881	1779.92
1012.173	1776.99
1012.466	1747.61
1012.759	1759.13
1013.052	1744.45
1013.344	1725.01
1013.637	1739.93
1013.93	1691.79
1014.222	1707.16
1014.514	1704.22
1014.807	1690.21
1015.099	1677.55
1015.391	1641.4
1015.683	1654.73
1015.976	1653.83
1016.268	1627.39
1016.56	1641.4
1016.851	1611.79
1017.143	1590.55
1017.435	1585.35
1017.727	1590.78
1018.018	1605.47
1018.31	1565.47
1018.602	1551
1018.893	1551.91
1019.185	1523.21
1019.476	1501.97
1019.767	1535.86
1020.058	1506.26
1020.35	1490.44
1020.641	1467.39
1020.932	1475.75
1021.223	1468.29
1021.514	1479.59
1021.804	1450.44
1022.095	1447.96
1022.386	1437.56
1022.677	1426.49
1022.967	1419.93
1023.258	1417.9
1023.548	1377
1023.839	1388.07
1024.129	1386.94
1024.419	1357.34
1024.709	1344.23
1025	1332.03
1025.29	1323.67
1025.58	1334.96
1025.87	1287.96
1026.16	1329.09
1026.449	1318.24
1026.739	1305.14
1027.029	1298.36
1027.319	1273.95
1027.608	1286.38
1027.898	1261.52
1028.187	1241.63
1028.477	1230.79
1028.766	1221.3
1029.055	1209.09
1029.344	1215.87
1029.634	1176.33
1029.923	1216.1
1030.212	1212.03
1030.501	1185.36
1030.79	1159.15
1031.078	1189.21
1031.367	1186.27
1031.656	1171.81
1031.945	1159.6
1032.233	1148.76
1032.522	1120.96
1032.81	1102.88
1033.099	1133.16
1033.387	1116.44
1033.675	1119.6
1033.963	1101.75
1034.251	1093.16
1034.54	1100.85
1034.828	1112.82
1035.116	1062.2
1035.403	1065.82
1035.691	1083.9
1035.979	1052.03
1036.267	1046.16
1036.554	1027.18
1036.842	1042.32
1037.129	1035.09
1037.417	1066.5
1037.704	1021.98
1037.992	1018.36
1038.279	1019.04
1038.566	994.41
1038.853	994.41
1039.14	994.41
