Data from blue_shiny_book_FLMS001491_00039.txt Node
Date: Wed Feb 08 15:26:53 GMT 2017
User: dcchb
Spectrometer: FLMS00149
Trigger mode: 0
Integration Time (sec): 2.000000E-2
Scans to average: 10
Electric dark correction enabled: true
Nonlinearity correction enabled: false
Boxcar width: 0
XAxis mode: Wavelengths
Number of Pixels in Spectrum: 2048
>>>>>Begin Spectral Data<<<<<
341.393	-20.24
341.776	-20.24
342.16	-20.24
342.543	-56.4
342.927	-81.93
343.31	-64.53
343.693	-71.76
344.077	-64.31
344.46	-70.41
344.843	-69.5
345.226	-36.74
345.61	-19.79
345.993	-27.92
346.376	-10.97
346.759	24.28
347.142	22.25
347.525	58.63
347.908	50.72
348.291	80.55
348.674	101.11
349.057	98.4
349.44	106.54
349.823	136.82
350.206	177.72
350.588	217.95
350.971	203.94
351.354	222.47
351.737	230.6
352.119	230.6
352.502	257.27
352.884	280.32
353.267	297.49
353.65	305.18
354.032	292.97
354.414	316.47
354.797	306.53
355.179	320.32
355.562	344.5
355.944	325.97
356.326	344.72
356.709	340.43
357.091	331.84
357.473	342.01
357.855	334.33
358.238	333.65
358.62	342.46
359.002	345.17
359.384	346.08
359.766	359.86
360.148	348.11
360.53	343.59
360.912	340.43
361.294	335.91
361.676	363.93
362.057	322.8
362.439	324.61
362.821	336.36
363.203	339.98
363.584	334.78
363.966	320.09
364.348	324.16
364.729	344.5
365.111	342.69
365.493	327.77
365.874	332.75
366.256	329.36
366.637	331.84
367.019	319.19
367.4	321.45
367.781	324.84
368.163	326.64
368.544	320.77
368.925	339.3
369.306	351.28
369.688	350.37
370.069	335.01
370.45	331.39
370.831	328.68
371.212	339.98
371.593	340.43
371.974	344.72
372.355	321.9
372.736	326.87
373.117	344.27
373.498	329.58
373.879	327.77
374.26	332.75
374.641	327.1
375.021	342.24
375.402	357.6
375.783	347.89
376.163	363.25
376.544	345.17
376.925	335.68
377.305	344.5
377.686	360.99
378.066	344.72
378.447	358.73
378.827	361.22
379.208	364.84
379.588	372.07
379.968	349.92
380.349	350.6
380.729	394.66
381.109	370.71
381.489	369.35
381.87	369.35
382.25	386.08
382.63	374.55
383.01	397.6
383.39	399.64
383.77	397.38
384.15	403.25
384.53	400.31
384.91	402.12
385.29	403.7
385.67	395.34
386.049	376.13
386.429	411.84
386.809	420.65
387.189	440.54
387.568	416.13
387.948	430.14
388.328	431.73
388.707	405.74
389.087	436.25
389.466	419.52
389.846	447.32
390.225	416.81
390.605	462.01
390.984	425.17
391.363	439.64
391.743	448.45
392.122	447.32
392.501	464.49
392.881	478.96
393.26	438.28
393.639	509.01
394.018	471.95
394.397	473.98
394.776	480.99
395.155	503.59
395.534	493.42
395.913	487.54
396.292	495
396.671	505.17
397.05	485.06
397.429	517.83
397.808	521.22
398.186	530.71
398.565	539.29
398.944	540.2
399.323	518.96
399.701	539.52
400.08	531.16
400.458	542.91
400.837	551.95
401.215	550.37
401.594	559.63
401.972	557.6
402.351	563.93
402.729	572.74
403.107	582.23
403.486	618.39
403.864	602.12
404.242	609.57
404.62	608.9
404.999	628.33
405.377	601.44
405.755	629.01
406.133	637.14
406.511	664.04
406.889	653.42
407.267	669.01
407.645	657.71
408.023	698.61
408.401	692.06
408.779	673.98
409.156	725.73
409.534	696.35
409.912	712.4
410.29	732.96
410.667	754.43
411.045	722.79
411.422	757.82
411.8	765.5
412.178	790.59
412.555	812.96
412.933	809.57
413.31	809.57
413.687	843.47
414.065	834.2
414.442	824.26
414.819	846.86
415.197	865.61
415.574	873.97
415.951	876.91
416.328	880.53
416.705	903.13
417.082	919.4
417.46	942
417.837	944.93
418.214	950.13
418.591	996.23
418.967	984.71
419.344	981.32
419.721	995.78
420.098	974.76
420.475	1025.16
420.852	1017.47
421.228	1016.34
421.605	1041.43
421.982	1069.68
422.358	1039.39
422.735	1059.73
423.111	1089.11
423.488	1105.83
423.864	1117.36
424.241	1144.25
424.617	1135.44
424.994	1141.99
425.37	1173.85
425.746	1193.74
426.123	1220.18
426.499	1187.41
426.875	1224.02
427.251	1237.58
427.627	1256.56
428.003	1252.5
428.379	1299.05
428.756	1287.75
429.132	1298.14
429.507	1337.01
429.883	1347.86
430.259	1399.16
430.635	1389.89
431.011	1404.13
431.387	1435.54
431.763	1448.65
432.138	1461.08
432.514	1497.91
432.89	1504.01
433.265	1541.98
433.641	1567.74
434.016	1587.85
434.392	1620.4
434.767	1636.67
435.143	1652.03
435.518	1662.65
435.894	1705.82
436.269	1709.88
436.644	1747.4
437.02	1767.74
437.395	1751.47
437.77	1789.43
438.145	1803.89
438.52	1858.81
438.895	1849.99
439.271	1866.49
439.646	1901.29
440.021	1942.65
440.395	1958.47
440.77	1956.21
441.145	1992.59
441.52	2028.52
441.895	2023.77
442.27	2055.41
442.645	2016.09
443.019	2087.95
443.394	2044.79
443.769	2070.78
444.143	2117.11
444.518	2120.27
444.892	2147.16
445.267	2138.35
445.641	2179.93
446.016	2194.39
446.39	2190.78
446.764	2237.1
447.139	2275.29
447.513	2266.03
447.887	2297.89
448.262	2312.35
448.636	2312.13
449.01	2316.65
449.384	2380.83
449.758	2396.42
450.132	2402.07
450.506	2434.84
450.88	2471.22
451.254	2455.18
451.628	2519.13
452.002	2527.49
452.376	2531.78
452.75	2599.8
453.123	2604.32
453.497	2657.66
453.871	2662.18
454.244	2722.97
454.618	2740.82
454.992	2756.86
455.365	2771.55
455.739	2848.61
456.112	2863.53
456.486	2942.85
456.859	2950.08
457.232	2985.56
457.606	2998.66
457.979	3016.74
458.352	3098.32
458.725	3140.13
459.099	3164.99
459.472	3230.07
459.845	3273.46
460.218	3290.63
460.591	3376.96
460.964	3384.19
461.337	3460.8
461.71	3463.74
462.083	3545.32
462.456	3586.67
462.829	3589.61
463.201	3665.31
463.574	3691.98
463.947	3748.02
464.32	3824.63
464.692	3886.55
465.065	3891.75
465.438	3971.52
465.81	4029.15
466.183	4044.96
466.555	4104.62
466.928	4164.96
467.3	4165.41
467.672	4270.5
468.045	4344.84
468.417	4345.75
468.789	4409.02
469.161	4433.88
469.534	4511.84
469.906	4579.87
470.278	4627.1
470.65	4710.71
471.022	4796.13
471.394	4894.66
471.766	4979.85
472.138	5017.59
472.51	5115.22
472.882	5192.05
473.253	5216.23
473.625	5292.16
473.997	5449.67
474.369	5438.15
474.74	5514.3
475.112	5656.67
475.484	5714.52
475.855	5824.58
476.227	5930.34
476.598	6035.65
476.97	6144.34
477.341	6251.69
477.713	6405.58
478.084	6396.31
478.455	6601.28
478.827	6639.47
479.198	6837.21
479.569	6856.42
479.94	7009.41
480.311	7084.66
480.682	7284.88
481.053	7405.78
481.424	7523.29
481.795	7620.92
482.166	7800.57
482.537	7871.08
482.908	8076.04
483.279	8205.53
483.65	8230.16
484.021	8476.03
484.391	8589.48
484.762	8640.55
485.133	8747.21
485.503	8855.91
485.874	9025.17
486.244	9161.21
486.615	9248.9
486.985	9456.35
487.356	9658.83
487.726	9684.59
488.097	9942.21
488.467	10023.56
488.837	10268.76
489.207	10295.42
489.578	10503.55
489.948	10589.88
490.318	10718.24
490.688	10801.85
491.058	10958.45
491.428	11078.68
491.798	11224.44
492.168	11444.32
492.538	11447.71
492.908	11539.23
493.278	11691.99
493.648	11727.02
494.017	11930.63
494.387	12079.78
494.757	12225.54
495.126	12473.9
495.496	12500.56
495.866	12679.54
496.235	12755.47
496.605	12948.01
496.974	12954.56
497.344	13110.94
497.713	13141
498.082	13228.9
498.452	13338.28
498.821	13420.31
499.19	13452.63
499.559	13655.56
499.928	13628.22
500.298	13790.02
500.667	13946.17
501.036	13946.62
501.405	14256
501.774	14336.9
502.143	14468.42
502.512	14561.52
502.88	14641.07
503.249	14676.32
503.618	14749.09
503.987	14863.66
504.356	14917.67
504.724	14994.96
505.093	15038.12
505.462	15143.88
505.83	15256.19
506.199	15330.32
506.567	15601.95
506.936	15557.66
507.304	15737.09
507.672	15863.64
508.041	16001.49
508.409	16193.35
508.777	16316.96
509.145	16384.07
509.514	16505.43
509.882	16637.18
510.25	16535.48
510.618	16844.4
510.986	16841.69
511.354	16945.19
511.722	17044.62
512.09	17130.27
512.458	17154.45
512.826	17291.85
513.193	17505.18
513.561	17554.21
513.929	17713.98
514.297	17788.78
514.664	18045.5
515.032	18150.58
515.4	18367.53
515.767	18588.54
516.135	18627.86
516.502	18530.91
516.869	18898.59
517.237	18940.84
517.604	18866.72
517.972	19092.25
518.339	19228.52
518.706	19205.47
519.073	19263.55
519.44	19497.21
519.808	19605.46
520.175	19607.04
520.542	19836.41
520.909	20050.65
521.276	20225.78
521.643	20471.65
522.009	20591.2
522.376	20832.32
522.743	20886.33
523.11	21170.62
523.477	21356.6
523.843	21471.85
524.21	21669.13
524.577	21826.64
524.943	21823.25
525.31	21837.49
525.676	22149.57
526.043	22205.39
526.409	22205.39
526.776	22524.03
527.142	22606.96
527.508	22690.8
527.874	22817.58
528.241	23084.69
528.607	23303.67
528.973	23563.32
529.339	23605.35
529.705	23831.11
530.071	24048.28
530.437	24171.67
530.803	24468.38
531.169	24526.01
531.535	24402.62
531.901	24515.84
532.267	24612.33
532.632	24788.6
532.998	24806.9
533.364	25006.67
533.73	24947.01
534.095	25121.92
534.461	25145.2
534.826	25347.91
535.192	25563.95
535.557	25702.47
535.923	25882.13
536.288	25831.74
536.653	26061.33
537.019	26106.53
537.384	26357.37
537.749	26397.14
538.114	26575.67
538.479	26555.78
538.845	26675.1
539.21	26646.18
539.575	26727.98
539.94	26791.71
540.305	26983.8
540.67	26752.39
541.034	26888.88
541.399	27017.02
541.764	27012.95
542.129	27055.21
542.494	27287.29
542.858	27295.2
543.223	27347.63
543.587	27584.91
543.952	27769.31
544.316	27869.87
544.681	27978.12
545.045	28118.46
545.41	28363.19
545.774	28304.44
546.138	28262.41
546.503	28363.19
546.867	28367.71
547.231	28470.76
547.595	28566.58
547.959	28622.17
548.324	28597.31
548.688	28585.56
549.052	28709.4
549.416	28701.94
549.779	28626.46
550.143	28722.51
550.507	28904.2
550.871	29087.92
551.235	29011.31
551.599	29375.82
551.962	29522.94
552.326	29394.81
552.689	29658.08
553.053	29660.56
553.417	29789.82
553.78	30216.71
554.143	30133.77
554.507	30106.88
554.87	30298.96
555.234	30520.43
555.597	30166.99
555.96	30245.63
556.323	30429.58
556.686	30419.19
557.05	30490.14
557.413	30705.96
557.776	30715.9
558.139	30826.86
558.502	30915.22
558.865	30888.78
559.228	31211.93
559.59	31221.65
559.953	31357.69
560.316	31693.95
560.679	31666.38
561.041	31957
561.404	32119.48
561.767	32290.32
562.129	32207.61
562.492	32523.76
562.854	32521.28
563.217	32468.17
563.579	32608.51
563.941	32745.45
564.304	32811.89
564.666	32899.12
565.028	32871.55
565.39	33077.87
565.753	33203.97
566.115	33204.65
566.477	33400.8
566.839	33478.31
567.201	33670.63
567.563	33601.02
567.925	33930.28
568.287	33982.71
568.648	34121.24
569.01	34262.7
569.372	34505.18
569.734	34245.3
570.095	34779.52
570.457	34954.43
570.819	34899.97
571.18	34808
571.542	35065.17
571.903	35158.5
572.265	35236.46
572.626	35397.59
572.987	35283.69
573.349	35443.46
573.71	35561.88
574.071	35623.57
574.432	35711.48
574.794	35719.39
575.155	35836.44
575.516	35563.01
575.877	35878.03
576.238	36127.28
576.599	36224.23
576.96	36148.53
577.32	36277.11
577.681	36583.32
578.042	36707.16
578.403	36640.04
578.763	36783.09
579.124	36853.82
579.485	37048.16
579.845	37071.67
580.206	36977.66
580.566	37052.91
580.927	37111.89
581.287	37067.15
581.648	36976.08
582.008	37240.25
582.368	37098.78
582.728	37134.26
583.089	37034.15
583.449	37049.29
583.809	37072.12
584.169	37229.18
584.529	37133.13
584.889	37373.81
585.249	37320.93
585.609	37169.07
585.969	37406.12
586.329	37345.56
586.688	37270.53
587.048	37332.68
587.408	37336.52
587.768	37479.11
588.127	37582.39
588.487	37561.82
588.846	37884.75
589.206	37474.82
589.565	37530.86
589.925	37642.5
590.284	37566.57
590.643	37571.99
591.003	37667.36
591.362	37763.85
591.721	37630.97
592.08	37479.11
592.44	37691.54
592.799	37778.31
593.158	37586.46
593.517	37627.36
593.876	37682.5
594.235	37626
594.593	37702.84
594.952	37928.37
595.311	37776.73
595.67	37734.02
596.029	38008.82
596.387	37928.37
596.746	38225.76
597.104	37979.21
597.463	38049.49
597.822	38200.22
598.18	38159.55
598.538	38163.16
598.897	38340.79
599.255	38082.94
599.613	38614
599.972	38281.35
600.33	38264.86
600.688	38326.77
601.046	38399.77
601.404	38450.61
601.762	38237.74
602.12	38619.42
602.478	38538.75
602.836	38389.15
603.194	38226.21
603.552	38366.1
603.91	38132.43
604.268	38330.62
604.625	38246.78
604.983	38406.55
605.341	38268.02
605.698	38520.89
606.056	38508.46
606.413	38700.78
606.771	38851.51
607.128	38814.67
607.485	38733.77
607.843	38867.1
608.2	39032.52
608.557	39101.67
608.914	38880.88
609.272	39181.89
609.629	39260.08
609.986	39400.64
610.343	39116.81
610.7	39295.34
611.057	39403.36
611.414	39174.66
611.771	39285.39
612.127	39541.21
612.484	39337.82
612.841	39510.7
613.198	39354.32
613.554	39301.44
613.911	39513.86
614.267	39523.81
614.624	39470.93
614.98	39541.88
615.337	39730.58
615.693	39723.57
616.05	39632.05
616.406	39969.67
616.762	39777.36
617.118	39866.4
617.475	39866.4
617.831	39936.22
618.187	40036.11
618.543	40040.18
618.899	40368.3
619.255	40265.71
619.611	40265.25
619.967	40326.72
620.323	40412.6
620.678	40119.95
621.034	40154.3
621.39	40253.73
621.746	40201.08
622.101	40501.18
622.457	40209.21
622.812	40193.39
623.168	40346.83
623.523	40298.25
623.879	40296.21
624.234	40011.25
624.589	40203.79
624.945	40331.02
625.3	40271.81
625.655	40183.68
626.01	40295.76
626.365	40287.18
626.72	40189.78
627.075	40321.3
627.43	40272.03
627.785	40200.62
628.14	40096.67
628.495	40251.92
628.85	40191.81
629.205	40198.59
629.559	40480.16
629.914	40218.02
630.269	40224.8
630.623	40334.41
630.978	40094.64
631.332	40362.43
631.687	40278.59
632.041	40281.3
632.396	40338.02
632.75	40122.89
633.104	40015.54
633.459	39886.73
633.813	39886.51
634.167	39723.35
634.521	39577.59
634.875	39722.22
635.229	39816.23
635.583	39659.17
635.937	39430.47
636.291	39499.4
636.645	39481.77
636.999	39324.04
637.352	39551.15
637.706	39263.25
638.06	39458.04
638.413	39290.59
638.767	39280.87
639.121	39276.58
639.474	39001.33
639.828	38954.55
640.181	39110.03
640.534	39050.6
640.888	38918.85
641.241	39033.42
641.594	39035.46
641.947	39120.65
642.301	39189.58
642.654	39205.17
643.007	39126.53
643.36	39020.32
643.713	38769.47
644.066	39063.03
644.419	38821
644.771	38808.8
645.124	38602.7
645.477	38446.77
645.83	38193.67
646.182	37998.42
646.535	37619
646.888	37362.05
647.24	37100.59
647.593	37223.98
647.945	37033.93
648.298	36860.15
648.65	36865.12
649.002	36828.28
649.355	37035.74
649.707	37230.08
650.059	37513.01
650.411	38014.24
650.763	38012.21
651.115	38303.05
651.467	38149.6
651.819	38115.03
652.171	38046.56
652.523	37922.72
652.875	37946.45
653.227	37996.39
653.578	38177.17
653.93	38024.41
654.282	37889.5
654.633	37798.43
654.985	37664.87
655.337	37870.29
655.688	37785.77
656.039	37774.92
656.391	37533.12
656.742	37614.48
657.094	37734.47
657.445	37803.17
657.796	37696.73
658.147	37452.22
658.498	37551.43
658.849	37656.06
659.2	37388.27
659.551	37480.47
659.902	37571.31
660.253	37386.23
660.604	37504.65
660.955	37486.12
661.306	37656.51
661.656	37337.2
662.007	37507.14
662.358	37293.13
662.708	37443.86
663.059	37469.17
663.409	37153.02
663.76	37591.2
664.11	37505.55
664.461	37530.41
664.811	37503.52
665.161	37416.29
665.511	37527.25
665.862	37598.43
666.212	37718.88
666.562	37607.25
666.912	37556.85
667.262	37421.49
667.612	37446.57
667.962	37511.2
668.312	37395.05
668.662	37482.73
669.011	37386.69
669.361	37470.07
669.711	37294.71
670.06	37064.89
670.41	36987.15
670.76	37055.4
671.109	37087.49
671.459	36836.19
671.808	36851.33
672.157	37049.07
672.507	36776.98
672.856	36923.65
673.205	36880.94
673.554	36969.07
673.904	36824.22
674.253	37068.95
674.602	36794.61
674.951	36371.57
675.3	36311.69
675.649	36853.37
675.998	36674.61
676.346	36762.97
676.695	36876.19
677.044	36594.39
677.393	36694.28
677.741	36622.86
678.09	36553.94
678.438	36545.35
678.787	36489.08
679.135	36449.31
679.484	36270.11
679.832	36499.03
680.181	36061.07
680.529	36287.05
680.877	36104.91
681.225	36118.92
681.573	36243.67
681.922	35998.25
682.27	35769.1
682.618	35933.39
682.966	35783.34
683.314	35716.67
683.661	35675.77
684.009	35300.19
684.357	35202.11
684.705	35147.88
685.053	35281.43
685.4	35316.46
685.748	35080.98
686.095	35010.93
686.443	34968.67
686.79	35075.56
687.138	35052.28
687.485	35028.33
687.832	34927.54
688.18	34942.68
688.527	34718.28
688.874	34556.48
689.221	34485.07
689.568	34556.48
689.915	34561.45
690.262	34506.54
690.609	34371.85
690.956	34348.12
691.303	34318.29
691.65	34028.13
691.997	34132.76
692.344	33731.19
692.69	33655.49
693.037	33818.42
693.383	33314.48
693.73	33479.22
694.077	33264.08
694.423	33215.04
694.769	33001.04
695.116	32876.07
695.462	32765.11
695.808	32853.25
696.155	32854.38
696.501	32620.26
696.847	32438.79
697.193	32356.31
697.539	32471.11
697.885	32342.53
698.231	32186.6
698.577	32182.3
698.923	32062.31
699.269	31982.76
699.614	31825.93
699.96	31896.66
700.306	31767.63
700.651	31672.26
700.997	31370.57
701.342	31452.38
701.688	31214.42
702.033	31339.39
702.379	31376
702.724	31233.4
703.069	31264.14
703.415	30796.58
703.76	30929.46
704.105	30774.66
704.45	30719.74
704.795	30594.55
705.14	30402.01
705.485	30394.78
705.83	30298.74
706.175	30416.93
706.52	30234.33
706.865	29974
707.209	30021.23
707.554	29911.4
707.899	29836.6
708.243	29593.9
708.588	29574.01
708.932	29301.25
709.277	29513.9
709.621	29389.16
709.966	29373.79
710.31	29416.27
710.654	29122.72
710.998	29109.39
711.342	29226.68
711.687	29127.02
712.031	28893.35
712.375	28900.58
712.719	28797.31
713.063	28867.14
713.407	28840.24
713.75	28714.82
714.094	28836.4
714.438	28611.1
714.782	28814.03
715.125	28619.23
715.469	28730.64
715.812	28474.6
716.156	28292.91
716.499	28358
716.843	28365.91
717.186	28237.1
717.53	28205.68
717.873	28240.26
718.216	28199.36
718.559	28035.97
718.902	27838.24
719.246	28074.61
719.589	27967.73
719.932	27938.12
720.275	27885.69
720.617	27789.2
720.96	27590.11
721.303	27546.72
721.646	27628.3
721.989	27639.6
722.331	27614.51
722.674	27524.12
723.016	27571.13
723.359	27494.07
723.701	27501.75
724.044	27273.28
724.386	27255.2
724.729	27506.04
725.071	27251.36
725.413	27236.44
725.755	27202.77
726.097	27241.19
726.439	27095.21
726.782	27147.41
727.124	27074.64
727.465	27085.94
727.807	26929.11
728.149	26939.96
728.491	26902.44
728.833	26996
729.175	26914.65
729.516	26816.79
729.858	26821.99
730.199	27009.78
730.541	26985.38
730.882	26947.41
731.224	27008.43
731.565	26756.01
731.906	26947.41
732.248	27003.46
732.589	26762.11
732.93	26721.43
733.271	26717.59
733.612	26793.74
733.953	26824.03
734.294	26605.28
734.635	26631.49
734.976	26641.43
735.317	26469.46
735.658	26530.47
735.999	26587.87
736.339	26554.88
736.68	26586.52
737.021	26576.8
737.361	26329.8
737.702	26631.94
738.042	26488.44
738.383	26527.08
738.723	26567.08
739.063	26509.01
739.404	26688.21
739.744	26407.09
740.084	26505.39
740.424	26511.94
740.764	26400.08
741.104	26527.31
741.444	26378.16
741.784	26472.4
742.124	26422.45
742.464	26440.08
742.804	26513.98
743.143	26509.91
743.483	26555.56
743.823	26519.18
744.162	26508.33
744.502	26608.89
744.841	26527.31
745.181	26711.94
745.52	26529.34
745.86	26604.37
746.199	26708.32
746.538	26540.19
746.877	26739.06
747.216	26803.91
747.556	26744.25
747.895	26671.49
748.234	26637.82
748.573	26699.74
748.911	26741.99
749.25	26821.99
749.589	26641.21
749.928	26701.77
750.267	26764.59
750.605	26768.89
750.944	26831.71
751.283	26702.9
751.621	26894.53
751.96	26685.05
752.298	26762.79
752.636	26800.07
752.975	26711.26
753.313	26797.81
753.651	26930.92
753.989	26758.27
754.327	26600.53
754.666	26692.96
755.004	26786.97
755.342	26951.48
755.679	26991.25
756.017	26811.82
756.355	26875.32
756.693	26863.8
757.031	26909
757.368	26891.6
757.706	26867.19
758.044	26748.55
758.381	26829
758.719	26819.05
759.056	26873.52
759.394	26831.71
759.731	26768.43
760.068	26892.95
760.405	26892.05
760.743	26719.17
761.08	26885.04
761.417	26734.31
761.754	26659.51
762.091	26957.81
762.428	26840.3
762.765	26711.94
763.102	26811.15
763.438	26603.69
763.775	26617.03
764.112	26684.59
764.449	26641.21
764.785	26649.79
765.122	26464.26
765.458	26383.13
765.795	26468.33
766.131	26443.92
766.467	26396.01
766.804	26416.58
767.14	26246.64
767.476	26432.85
767.812	26297.94
768.148	26200.09
768.485	26126.19
768.821	25938.85
769.157	25955.57
769.492	25825.86
769.828	25849.59
770.164	25775.69
770.5	25702.25
770.836	25653.89
771.171	25537.96
771.507	25476.04
771.842	25304.74
772.178	25431.07
772.513	25333.9
772.849	25266.78
773.184	25131.87
773.519	25095.03
773.855	24910.86
774.19	24977.3
774.525	24895.04
774.86	24903.62
775.195	24887.35
775.53	24743.4
775.865	24755.83
776.2	24648.72
776.535	24679.68
776.87	24466.57
777.205	24422.28
777.539	24351.55
777.874	24350.87
778.209	24218.22
778.543	24173.02
778.878	23895.29
779.212	23882.63
779.547	23723.09
779.881	23913.82
780.215	23672.24
780.55	23842.64
780.884	23617.33
781.218	23534.62
781.552	23548.86
781.886	23431.12
782.22	23278.58
782.554	23129.43
782.888	23023.45
783.222	22910.68
783.556	22955.43
783.889	22837.01
784.223	22823.45
784.557	22644.02
784.89	22628.2
785.224	22470.47
785.557	22372.17
785.891	22344.82
786.224	22210.14
786.558	22293.52
786.891	22019.63
787.224	21900.09
787.557	21880.88
787.891	21950.93
788.224	21904.16
788.557	21887.21
788.89	21818.28
789.223	21851.28
789.556	21660.32
789.888	21516.37
790.221	21510.95
790.554	21341.91
790.887	21362.25
791.219	21245.87
791.552	21141.69
791.884	21144.85
792.217	20992.99
792.549	20815.82
792.882	20881.58
793.214	20734.02
793.546	20883.17
793.879	20778.31
794.211	20626.22
794.543	20720.01
794.875	20511.65
795.207	20684.75
795.539	20505.77
795.871	20336.29
796.203	20181.49
796.535	20139.68
796.867	20218.78
797.198	20217.87
797.53	20113.47
797.862	20030.53
798.193	20059.23
798.525	19875.96
798.856	19936.3
799.188	19781.73
799.519	19730.88
799.85	19627.61
800.182	19613.37
800.513	19541.73
800.844	19393.94
801.175	19508.06
801.506	19432.13
801.837	19316.2
802.168	19313.49
802.499	19188.07
802.83	19051.8
803.161	19012.48
803.491	18970.22
803.822	19007.51
804.153	18887.29
804.483	18699.49
804.814	18652.72
805.145	18721.19
805.475	18683.9
805.805	18606.84
806.136	18588.31
806.466	18519.84
806.796	18447.52
807.126	18261.31
807.457	18229.45
807.787	18264.25
808.117	18278.04
808.447	18154.2
808.777	18137.7
809.107	18028.1
809.436	18062.67
809.766	18007.31
810.096	18055.22
810.426	17918.27
810.755	18016.8
811.085	17909.23
811.414	17812.51
811.744	17671.95
812.073	17731.61
812.403	17694.32
812.732	17587.66
813.061	17579.52
813.39	17488.9
813.719	17411.62
814.049	17614.32
814.378	17457.04
814.707	17378.4
815.036	17343.6
815.365	17307.21
815.693	17179.08
816.022	17226.76
816.351	17189.25
816.68	17011.4
817.008	17083.72
817.337	16864.29
817.665	16888.47
817.994	17014.34
818.322	16901.8
818.651	16819.09
818.979	16699.77
819.307	16811.41
819.636	16743.84
819.964	16621.36
820.292	16692.32
820.62	16641.24
820.948	16586.1
821.276	16651.86
821.604	16525.09
821.932	16614.58
822.259	16625.2
822.587	16430.63
822.915	16570.06
823.243	16615.93
823.57	16486.9
823.898	16456.16
824.225	16446.45
824.553	16465.2
824.88	16443.51
825.207	16573
825.535	16558.31
825.862	16514.69
826.189	16449.84
826.516	16504.07
826.843	16563.96
827.17	16540.45
827.497	16565.76
827.824	16504.52
828.151	16398.76
828.478	16448.25
828.805	16533.9
829.131	16418.65
829.458	16342.72
829.785	16326
830.111	16393.11
830.438	16478.99
830.764	16496.16
831.09	16505.88
831.417	16359.89
831.743	16442.6
832.069	16499.1
832.395	16457.97
832.722	16543.84
833.048	16495.71
833.374	16417.97
833.7	16415.03
834.026	16405.09
834.351	16397.63
834.677	16422.94
835.003	16441.47
835.329	16363.28
835.654	16377.07
835.98	16342.72
836.306	16402.38
836.631	16291.87
836.956	16255.04
837.282	16300.46
837.607	16172.55
837.932	16112.44
838.258	16167.58
838.583	16058.21
838.908	15961.49
839.233	16056.63
839.558	15964.88
839.883	15970.3
840.208	15891.88
840.533	15843.07
840.858	15873.13
841.182	15840.81
841.507	15843.75
841.832	15617.09
842.156	15714.71
842.481	15654.83
842.805	15578.22
843.13	15547.49
843.454	15521.72
843.778	15425
844.103	15425.23
844.427	15396.08
844.751	15375.51
845.075	15326.02
845.399	15351.11
845.723	15211
846.047	15136.88
846.371	15056.2
846.695	15078.8
847.019	14945.92
847.343	14930.55
847.666	14865.02
847.99	14745.93
848.313	14733.72
848.637	14748.41
848.96	14723.1
849.284	14652.82
849.607	14551.58
849.931	14512.26
850.254	14388.87
850.577	14338.03
850.9	14215.32
851.223	14189.78
851.546	14139.84
851.869	14131.03
852.192	14155.43
852.515	14007.19
852.838	14059.39
853.161	14074.08
853.483	13878.83
853.806	13919.96
854.129	13844.93
854.451	13739.4
854.774	13782.34
855.096	13681.77
855.419	13542.57
855.741	13613.3
856.063	13499.18
856.385	13480.42
856.708	13391.16
857.03	13479.74
857.352	13435.68
857.674	13382.57
857.996	13319.97
858.318	13265.06
858.64	13285.4
858.961	13257.38
859.283	13197.94
859.605	13070.26
859.926	13164.72
860.248	13023.49
860.57	13042.02
860.891	12990.27
861.212	12984.62
861.534	12918.4
861.855	12889.93
862.176	12863.49
862.498	12809.03
862.819	12825.07
863.14	12658.75
863.461	12698.75
863.782	12660.78
864.103	12703.49
864.424	12705.75
864.745	12676.38
865.065	12570.39
865.386	12578.98
865.707	12567.45
866.027	12503.05
866.348	12498.98
866.668	12521.8
866.989	12478.87
867.309	12331.53
867.63	12455.14
867.95	12443.16
868.27	12360.9
868.59	12414.01
868.91	12345.99
869.23	12337.85
869.55	12214.92
869.87	12315.03
870.19	12248.82
870.51	12239.78
870.83	12228.25
871.15	12176.5
871.469	12185.77
871.789	12169.95
872.109	12160.01
872.428	12100.8
872.748	12157.52
873.067	12101.93
873.386	12086.56
873.706	12104.19
874.025	12113
874.344	12068.71
874.663	12087.24
874.982	12135.82
875.301	11987.13
875.62	11983.06
875.939	11902.61
876.258	11970.86
876.577	11891.09
876.896	11912.78
877.214	11840.69
877.533	11860.58
877.852	11861.93
878.17	11940.12
878.489	11853.12
878.807	11835.72
879.125	11769.96
879.444	11754.37
879.762	11702.16
880.08	11718.89
880.398	11666.01
880.716	11653.13
881.034	11587.82
881.352	11576.97
881.67	11570.19
881.988	11546.69
882.306	11466.24
882.624	11459.46
882.941	11341.72
883.259	11412.23
883.577	11304.43
883.894	11358.67
884.212	11331.78
884.529	11295.4
884.846	11273.7
885.164	11223.31
885.481	11167.49
885.798	11218.33
886.115	11133.59
886.432	11114.61
886.75	11127.72
887.067	11084.1
887.383	11061.28
887.7	11059.92
888.017	10995.06
888.334	11004.1
888.651	10885.91
888.967	10918.68
889.284	10896.54
889.6	10878
889.917	10768.86
890.233	10832.58
890.55	10735.18
890.866	10781.51
891.182	10696.77
891.498	10760.04
891.815	10677.78
892.131	10673.26
892.447	10661.06
892.763	10569.09
893.079	10575.41
893.395	10537.67
893.71	10501.29
894.026	10520.27
894.342	10487.96
894.657	10431.46
894.973	10408.41
895.289	10399.15
895.604	10367.28
895.92	10273.28
896.235	10274.63
896.55	10321.41
896.865	10271.69
897.181	10275.76
897.496	10180.62
897.811	10149.44
898.126	10111.7
898.441	10146.27
898.756	10004.58
899.071	9992.6
899.386	9997.58
899.7	9854.08
900.015	9846.39
900.33	9768.43
900.644	9827.64
900.959	9768.88
901.273	9722.33
901.588	9647.08
901.902	9649.79
902.216	9648.88
902.531	9610.69
902.845	9543.8
903.159	9558.94
903.473	9453.18
903.787	9491.6
904.101	9388.55
904.415	9319.85
904.729	9360.53
905.042	9264.49
905.356	9230.59
905.67	9157.6
905.984	9239.4
906.297	9145.17
906.611	9116.24
906.924	9066.3
907.237	8974.78
907.551	8974.1
907.864	8933.88
908.177	8825.63
908.491	8825.4
908.804	8771.62
909.117	8813.65
909.43	8693.43
909.743	8663.15
910.056	8660.21
910.368	8681.68
910.681	8606.65
910.994	8586.09
911.307	8583.83
911.619	8462.7
911.932	8451.18
912.244	8447.56
912.557	8446.88
912.869	8437.17
913.181	8341.57
913.494	8339.99
913.806	8325.3
914.118	8302.71
914.43	8257.73
914.742	8155.36
915.054	8127.79
915.366	8187.91
915.678	8051.86
915.99	8039.89
916.302	8091.64
916.613	7976.84
916.925	8077.4
917.236	7988.14
917.548	7928.93
917.859	7941.13
918.171	7888.03
918.482	7837.41
918.794	7829.27
919.105	7754.7
919.416	7758.54
919.727	7738.2
920.038	7746.11
920.349	7672.89
920.66	7607.36
920.971	7634.7
921.282	7651.42
921.593	7487.81
921.903	7529.39
922.214	7515.61
922.525	7508.15
922.835	7455.04
923.146	7389.28
923.456	7357.19
923.767	7316.06
924.077	7313.8
924.387	7255.05
924.697	7272
925.008	7209.17
925.318	7196.07
925.628	7063.19
925.938	7113.13
926.248	7083.98
926.558	6986.81
926.867	6980.25
927.177	6958.79
927.487	6933.48
927.796	6886.47
928.106	6848.96
928.416	6839.02
928.725	6773.25
929.034	6726.93
929.344	6787.72
929.653	6744.1
929.962	6679.02
930.271	6651.22
930.581	6608.96
930.89	6632.24
931.199	6546.82
931.508	6542.53
931.817	6511.34
932.125	6470.21
932.434	6475.86
932.743	6432.7
933.051	6431.57
933.36	6385.02
933.669	6279.26
933.977	6292.36
934.286	6267.05
934.594	6254.62
934.902	6194.74
935.21	6145.02
935.519	6114.97
935.827	6185.7
936.135	6157.45
936.443	6076.55
936.751	6121.97
937.059	6119.26
937.367	6102.99
937.674	6054.4
937.982	5935.76
938.29	5954.29
938.597	6023.67
938.905	5964.46
939.213	5933.28
939.52	5906.38
939.827	5950.45
940.135	5834.07
940.442	5831.58
940.749	5832.26
941.056	5851.24
941.363	5789.1
941.67	5783.45
941.977	5721.98
942.284	5672.72
942.591	5639.27
942.898	5645.83
943.205	5654.19
943.511	5610.8
943.818	5596.11
944.125	5500.29
944.431	5560.86
944.738	5513.63
945.044	5448.54
945.35	5449.9
945.657	5418.04
945.963	5353.86
946.269	5385.04
946.575	5373.97
946.881	5335.78
947.187	5302.33
947.493	5313.63
947.799	5264.14
948.105	5257.36
948.41	5221.66
948.716	5223.92
949.022	5210.58
949.327	5190.47
949.633	5084.48
949.938	5117.7
950.244	5097.37
950.549	5057.59
950.854	5009.91
951.16	4986.86
951.465	4979.63
951.77	4969.69
952.075	4900.08
952.38	4973.3
952.685	4859.41
952.99	4843.14
953.294	4896.02
953.599	4793.19
953.904	4774.21
954.209	4756.81
954.513	4795.68
954.818	4718.84
955.122	4758.62
955.426	4689.69
955.731	4683.14
956.035	4671.61
956.339	4616.7
956.643	4627.55
956.948	4569.47
957.252	4595.91
957.556	4542.13
957.86	4514.1
958.163	4523.14
958.467	4494.9
958.771	4472.3
959.075	4499.87
959.378	4449.7
959.682	4462.81
959.985	4400.89
960.289	4379.42
960.592	4397.95
960.896	4373.32
961.199	4363.6
961.502	4356.82
961.805	4332.19
962.108	4256.94
962.411	4272.98
962.714	4243.83
963.017	4306.2
963.32	4256.26
963.623	4197.95
963.926	4227.33
964.228	4224.17
964.531	4177.84
964.833	4168.58
965.136	4131.29
965.438	4100.1
965.741	4101.46
966.043	4098.52
966.345	4054.68
966.648	4020.78
966.95	4029.15
967.252	4028.24
967.554	4041.57
967.856	4002.71
968.158	3967
968.46	3951.63
968.761	3934.46
969.063	3943.72
969.365	3917.96
969.666	3866.66
969.968	3859.88
970.269	3865.53
970.571	3850.62
970.872	3779.43
971.174	3811.3
971.475	3837.74
971.776	3778.76
972.077	3780.34
972.378	3741.7
972.679	3748.93
972.98	3773.78
973.281	3712.77
973.582	3689.27
973.883	3683.39
974.183	3610.85
974.484	3645.88
974.785	3640.91
975.085	3590.96
975.386	3585.09
975.686	3555.03
975.986	3501.7
976.287	3555.71
976.587	3491.31
976.887	3488.37
977.187	3480.01
977.487	3474.36
977.787	3433.68
978.087	3393.68
978.387	3401.82
978.687	3383.29
978.987	3394.59
979.286	3357.75
979.586	3371.54
979.885	3343.74
980.185	3288.15
980.484	3278.66
980.784	3309.16
981.083	3266
981.382	3224.87
981.682	3213.12
981.981	3195.27
982.28	3223.52
982.579	3159.11
982.878	3179.68
983.177	3206.34
983.475	3170.41
983.774	3147.36
984.073	3113.01
984.372	3119.11
984.67	3091.99
984.969	3092.22
985.267	3077.76
985.566	3108.72
985.864	3063.75
986.162	3049.51
986.461	2989.17
986.759	3007.93
987.057	2981.04
987.355	2977.87
987.653	2946.01
987.951	2940.13
988.249	2949.4
988.547	2915.5
988.844	2939.68
989.142	2907.37
989.44	2881.61
989.737	2893.58
990.035	2853.36
990.332	2868.95
990.63	2829.18
990.927	2848.16
991.224	2816.07
991.521	2825.34
991.819	2798.9
992.116	2822.62
992.413	2803.64
992.71	2776.3
993.006	2736.07
993.303	2747.82
993.6	2758.67
993.897	2721.84
994.193	2728.61
994.49	2652.46
994.787	2702.85
995.083	2636.19
995.379	2668.96
995.676	2641.84
995.972	2576.75
996.268	2577.21
996.565	2590.54
996.861	2603.87
997.157	2568.39
997.453	2565.23
997.749	2526.59
998.044	2530.43
998.34	2529.3
998.636	2467.15
998.932	2536.08
999.227	2448.4
999.523	2463.08
999.818	2451.79
1000.114	2417.21
1000.409	2421.5
1000.704	2394.84
1001	2421.28
1001.295	2376.53
1001.59	2399.81
1001.885	2398.91
1002.18	2368.4
1002.475	2340.6
1002.77	2283.43
1003.065	2296.76
1003.359	2278.46
1003.654	2266.48
1003.949	2273.94
1004.243	2249.98
1004.538	2245.46
1004.832	2267.38
1005.127	2218.12
1005.421	2226.71
1005.715	2141.51
1006.009	2200.72
1006.304	2191.45
1006.598	2183.09
1006.892	2147.84
1007.186	2143.77
1007.48	2115.3
1007.773	2080.27
1008.067	2095.41
1008.361	2086.15
1008.655	2051.12
1008.948	2050.67
1009.242	2026.49
1009.535	2028.75
1009.829	2012.48
1010.122	2007.96
1010.415	1983.1
1010.708	1967.05
1011.001	1955.98
1011.295	1943.78
1011.588	1986.26
1011.881	1960.5
1012.173	1932.03
1012.466	1942.42
1012.759	1900.61
1013.052	1909.2
1013.344	1950.33
1013.637	1894.06
1013.93	1901.07
1014.222	1839.37
1014.514	1850.45
1014.807	1853.84
1015.099	1854.29
1015.391	1831.46
1015.683	1787.17
1015.976	1795.98
1016.268	1798.24
1016.56	1806.61
1016.851	1797.11
1017.143	1795.53
1017.435	1782.65
1017.727	1721.64
1018.018	1732.71
1018.31	1752.82
1018.602	1696.33
1018.893	1713.05
1019.185	1684.35
1019.476	1696.1
1019.767	1669.43
1020.058	1678.47
1020.35	1656.1
1020.641	1648.64
1020.932	1632.82
1021.223	1631.47
1021.514	1618.59
1021.804	1627.63
1022.095	1608.87
1022.386	1586.05
1022.677	1592.6
1022.967	1564.8
1023.258	1551.02
1023.548	1558.48
1023.839	1546.27
1024.129	1530.45
1024.419	1507.4
1024.709	1517.35
1025	1511.92
1025.29	1466.5
1025.58	1485.48
1025.87	1470.12
1026.16	1470.57
1026.449	1461.3
1026.739	1448.42
1027.029	1421.53
1027.319	1423.34
1027.608	1411.36
1027.898	1404.58
1028.187	1385.15
1028.477	1374.53
1028.766	1371.81
1029.055	1377.46
1029.344	1348.54
1029.634	1335.43
1029.923	1336.33
1030.212	1308.09
1030.501	1325.94
1030.79	1318.93
1031.078	1287.75
1031.367	1296.79
1031.656	1276.68
1031.945	1282.1
1032.233	1266.28
1032.522	1270.12
1032.81	1260.86
1033.099	1261.53
1033.387	1269.9
1033.675	1206.85
1033.963	1221.76
1034.251	1193.97
1034.54	1209.78
1034.828	1202.1
1035.116	1165.94
1035.403	1188.77
1035.691	1152.38
1035.979	1136.11
1036.267	1149
1036.554	1148.77
1036.842	1124.14
1037.129	1120.3
1037.417	1106.06
1037.704	1092.27
1037.992	1109.9
1038.279	1080.97
1038.566	1100.41
1038.853	1100.41
1039.14	1100.41
