Data from blue_clamp_base_FLMS001491_00004.txt Node
Date: Wed Feb 08 15:15:28 GMT 2017
User: dcchb
Spectrometer: FLMS00149
Trigger mode: 0
Integration Time (sec): 2.000000E-2
Scans to average: 10
Electric dark correction enabled: true
Nonlinearity correction enabled: false
Boxcar width: 0
XAxis mode: Wavelengths
Number of Pixels in Spectrum: 2048
>>>>>Begin Spectral Data<<<<<
341.393	0.52
341.776	0.52
342.16	0.52
342.543	-56.2
342.927	-59.59
343.31	-77.67
343.693	-65.01
344.077	-69.53
344.46	-64.79
344.843	-47.61
345.226	-41.96
345.61	-32.92
345.993	-21.17
346.376	-9.87
346.759	10.24
347.142	14.53
347.525	29.22
347.908	69.67
348.291	75.77
348.674	96.57
349.057	134.53
349.44	133.85
349.823	142.89
350.206	164.59
350.588	193.29
350.971	215.43
351.354	212.49
351.737	231.7
352.119	234.87
352.502	262.21
352.884	243.91
353.267	281.42
353.65	279.84
354.032	290.01
354.414	289.55
354.797	303.34
355.179	330.68
355.562	312.83
355.944	322.1
356.326	339.27
356.709	305.37
357.091	347.63
357.473	346.5
357.855	318.03
358.238	328.42
358.62	351.02
359.002	348.31
359.384	330.68
359.766	334.53
360.148	332.72
360.53	334.07
360.912	325.49
361.294	327.29
361.676	324.58
362.057	326.39
362.439	339.5
362.821	327.75
363.203	318.25
363.584	286.62
363.966	309.89
364.348	310.8
364.729	309.67
365.111	304.47
365.493	302.21
365.874	309.67
366.256	288.42
366.637	304.92
367.019	316.45
367.4	313.28
367.781	309.67
368.163	310.8
368.544	308.54
368.925	294.98
369.306	334.53
369.688	295.66
370.069	311.93
370.45	315.54
370.831	314.19
371.212	304.7
371.593	316.45
371.974	301.98
372.355	316.22
372.736	293.62
373.117	318.71
373.498	303.79
373.879	308.31
374.26	317.35
374.641	324.81
375.021	299.72
375.402	311.47
375.783	315.99
376.163	325.71
376.544	323
376.925	327.07
377.305	325.26
377.686	328.42
378.066	322.55
378.447	323.9
378.827	323.68
379.208	339.95
379.588	334.07
379.968	344.02
380.349	324.13
380.729	333.4
381.109	317.12
381.489	330.01
381.87	346.05
382.25	334.3
382.63	344.02
383.01	334.75
383.39	341.76
383.77	340.4
384.15	320.74
384.53	350.57
384.91	351.02
385.29	345.6
385.67	373.85
386.049	358.48
386.429	339.5
386.809	349.44
387.189	344.24
387.568	368.65
387.948	349.21
388.328	347.63
388.707	335.88
389.087	361.42
389.466	387.18
389.846	364.35
390.225	377.91
390.605	367.97
390.984	376.11
391.363	373.85
391.743	397.12
392.122	361.19
392.501	395.09
392.881	407.52
393.26	401.19
393.639	381.98
394.018	399.38
394.397	394.41
394.776	417.01
395.155	392.83
395.534	394.41
395.913	397.57
396.292	403.45
396.671	430.57
397.05	415.65
397.429	400.96
397.808	437.8
398.186	451.13
398.565	419.27
398.944	448.65
399.323	438.48
399.701	452.94
400.08	434.18
400.458	472.37
400.837	485.03
401.215	475.09
401.594	447.74
401.972	491.36
402.351	475.09
402.729	509.44
403.107	502.88
403.486	506.95
403.864	498.59
404.242	494.07
404.62	500.62
404.999	501.3
405.377	509.89
405.755	537.23
406.133	522.09
406.511	534.52
406.889	551.24
407.267	535.2
407.645	559.15
408.023	542.2
408.401	562.32
408.779	580.39
409.156	564.58
409.534	580.17
409.912	578.36
410.29	595.31
410.667	597.12
411.045	587.4
411.422	603.67
411.8	639.83
412.178	616.1
412.555	645.7
412.933	645.48
413.31	616.1
413.687	661.3
414.065	656.78
414.442	694.29
414.819	657.45
415.197	650.45
415.574	689.32
415.951	695.87
416.328	707.4
416.705	716.89
417.082	725.48
417.46	735.64
417.837	716.21
418.214	711.69
418.591	723.22
418.967	755.98
419.344	730.45
419.721	739.26
420.098	767.28
420.475	767.73
420.852	760.28
421.228	789.43
421.605	792.37
421.982	783.55
422.358	824.91
422.735	819.03
423.111	804.8
423.488	808.18
423.864	814.06
424.241	835.3
424.617	852.93
424.994	882.76
425.37	854.96
425.746	848.64
426.123	853.61
426.499	888.41
426.875	899.26
427.251	878.69
427.627	935.41
428.003	930.89
428.379	962.31
428.756	949.88
429.132	966.15
429.507	963.66
429.883	981.51
430.259	1001.4
430.635	1025.35
431.011	1026.48
431.387	1046.37
431.763	1045.01
432.138	1055.41
432.514	1086.37
432.89	1092.47
433.265	1096.09
433.641	1115.75
434.016	1136.09
434.392	1145.13
434.767	1164.79
435.143	1180.6
435.518	1141.51
435.894	1179.25
436.269	1203.2
436.644	1234.84
437.02	1243.88
437.395	1252.02
437.77	1275.07
438.145	1271
438.52	1287.72
438.895	1302.86
439.271	1306.02
439.646	1318.23
440.021	1340.83
440.395	1373.59
440.77	1344.89
441.145	1353.71
441.52	1414.72
441.895	1392.12
442.27	1390.09
442.645	1407.72
443.019	1444.78
443.394	1439.35
443.769	1449.98
444.143	1441.39
444.518	1499.69
444.892	1493.14
445.267	1479.81
445.641	1506.02
446.016	1537.21
446.39	1534.04
446.764	1561.16
447.139	1546.02
447.513	1568.16
447.887	1582.63
448.262	1590.09
448.636	1611.55
449.01	1609.97
449.384	1606.58
449.758	1633.93
450.132	1665.79
450.506	1652.23
450.88	1689.29
451.254	1659.91
451.628	1679.57
452.002	1710.53
452.376	1752.11
452.75	1772.91
453.123	1761.61
453.497	1804.32
453.871	1819.68
454.244	1833.47
454.618	1837.76
454.992	1882.51
455.365	1856.97
455.739	1909.4
456.112	1946.01
456.486	1969.96
456.859	1973.35
457.232	1995.72
457.606	1985.78
457.979	2037.76
458.352	2017.42
458.725	2060.58
459.099	2071.2
459.472	2104.87
459.845	2132.67
460.218	2148.26
460.591	2167.7
460.964	2182.84
461.337	2205.66
461.71	2236.17
462.083	2275.04
462.456	2289.73
462.829	2290.18
463.201	2349.39
463.574	2329.95
463.947	2360.91
464.32	2415.6
464.692	2428.03
465.065	2457.18
465.438	2476.39
465.81	2490.85
466.183	2505.99
466.555	2578.53
466.928	2603.62
467.3	2594.8
467.672	2607.69
468.045	2676.84
468.417	2684.52
468.789	2723.16
469.161	2719.55
469.534	2781.92
469.906	2816.95
470.278	2842.03
470.65	2898.98
471.022	2936.26
471.394	2966.55
471.766	2959.99
472.138	2986.88
472.51	3047
472.882	3107.33
473.253	3145.3
473.625	3127.9
473.997	3196.82
474.369	3211.29
474.74	3249.7
475.112	3329.93
475.484	3367.44
475.855	3416.25
476.227	3423.71
476.598	3506.65
476.97	3485.85
477.341	3625.51
477.713	3602.01
478.084	3669.8
478.455	3713.87
478.827	3770.37
479.198	3838.16
479.569	3842.46
479.94	3925.84
480.311	3943.92
480.682	4059.17
481.053	4106.18
481.424	4174.65
481.795	4177.59
482.166	4239.51
482.537	4257.13
482.908	4336
483.279	4333.74
483.65	4407.41
484.021	4480.18
484.391	4481.08
484.762	4565.37
485.133	4612.83
485.503	4594.98
485.874	4700.06
486.244	4656.22
486.615	4785.71
486.985	4817.35
487.356	4851.24
487.726	4902.31
488.097	4950.45
488.467	5012.82
488.837	5047.85
489.207	5082.42
489.578	5118.81
489.948	5129.88
490.318	5228.86
490.688	5218.69
491.058	5252.14
491.428	5342.53
491.798	5362.42
492.168	5427.27
492.538	5483.77
492.908	5464.11
493.278	5512.47
493.648	5491.45
494.017	5546.14
494.387	5583.2
494.757	5568.29
495.126	5633.59
495.496	5629.08
495.866	5662.75
496.235	5695.97
496.605	5720.82
496.974	5742.74
497.344	5807.83
497.713	5769.18
498.082	5819.35
498.452	5815.96
498.821	5883.76
499.19	5859.13
499.559	5879.92
499.928	5936.19
500.298	5974.83
500.667	5929.63
501.036	5932.12
501.405	5976.18
501.774	5976.86
502.143	5995.17
502.512	6045.79
502.88	6042.85
503.249	6048.95
503.618	6115.39
503.987	6095.28
504.356	6083.53
504.724	6176.63
505.093	6175.73
505.462	6161.04
505.83	6171.66
506.199	6248.27
506.567	6224.99
506.936	6225.67
507.304	6261.15
507.672	6313.8
508.041	6316.29
508.409	6312.67
508.777	6363.29
509.145	6392.22
509.514	6391.77
509.882	6421.37
510.25	6406
510.618	6455.49
510.986	6406.68
511.354	6513.35
511.722	6539.11
512.09	6532.78
512.458	6521.71
512.826	6563.74
513.193	6585.66
513.561	6558.32
513.929	6639.44
514.297	6640.57
514.664	6724.64
515.032	6620.69
515.4	6707.92
515.767	6712.89
516.135	6700.23
516.502	6682.38
516.869	6781.14
517.237	6752.89
517.604	6748.37
517.972	6792.89
518.339	6857.97
518.706	6812.09
519.073	6824.98
519.44	6880.12
519.808	6913.34
520.175	6902.49
520.542	6922.15
520.909	6958.31
521.276	6915.59
521.643	6993.79
522.009	7010.28
522.376	7012.54
522.743	7081.01
523.11	7116.49
523.477	7122.6
523.843	7215.25
524.21	7228.81
524.577	7222.71
524.943	7273.1
525.31	7304.06
525.676	7335.92
526.043	7389.25
526.409	7404.85
526.776	7442.59
527.142	7417.73
527.508	7429.03
527.874	7510.38
528.241	7473.55
528.607	7509.03
528.973	7558.97
529.339	7570.49
529.705	7618.63
530.071	7652.3
530.437	7647.1
530.803	7695.69
531.169	7796.48
531.535	7776.82
531.901	7725.52
532.267	7719.42
532.632	7826.98
532.998	7854.78
533.364	7828.34
533.73	7862.24
534.095	7874.67
534.461	7944.27
534.826	7973.19
535.192	7985.85
535.557	8020.88
535.923	8032.85
536.288	8030.37
536.653	8093.42
537.019	8007.77
537.384	8119.86
537.749	8140.2
538.114	8141.1
538.479	8205.73
538.845	8156.47
539.21	8134.09
539.575	8209.57
539.94	8219.97
540.305	8231.49
540.67	8233.07
541.034	8233.07
541.399	8295.45
541.764	8286.86
542.129	8303.13
542.494	8337.25
542.858	8370.7
543.223	8308.1
543.587	8429
543.952	8438.27
544.316	8449.79
544.681	8411.83
545.045	8477.81
545.41	8464.03
545.774	8553.74
546.138	8492.05
546.503	8471.71
546.867	8516.46
547.231	8594.42
547.595	8591.71
547.959	8651.37
548.324	8619.73
548.688	8593.74
549.052	8639.84
549.416	8650.92
549.779	8619.5
550.143	8664.7
550.507	8669.45
550.871	8719.62
551.235	8752.38
551.599	8717.58
551.962	8828.54
552.326	8794.19
552.689	8813.4
553.053	8712.84
553.417	8803.23
553.78	8892.94
554.143	8820.86
554.507	8951.7
554.87	8893.62
555.234	8957.8
555.597	8865.6
555.96	8925.26
556.323	8936.33
556.686	8904.02
557.05	9012.49
557.413	8994.18
557.776	8952.6
558.139	9019.49
558.502	9020.85
558.865	9053.62
559.228	9011.81
559.59	9104.69
559.953	9119.38
560.316	9199.6
560.679	9172.71
561.041	9197.12
561.404	9244.57
561.767	9272.14
562.129	9261.75
562.492	9337.45
562.854	9357.79
563.217	9313.27
563.579	9333.84
563.941	9391.46
564.304	9395.3
564.666	9395.08
565.028	9484.57
565.39	9435.75
565.753	9541.74
566.115	9608.63
566.477	9566.82
566.839	9601.85
567.201	9673.49
567.563	9629.42
567.925	9669.65
568.287	9742.87
568.648	9738.35
569.01	9803.65
569.372	9831
569.734	9771.57
570.095	9814.5
570.457	9912.35
570.819	9911
571.18	9913.93
571.542	10015.17
571.903	9938.11
572.265	10039.81
572.626	10069.64
572.987	10105.57
573.349	10118
573.71	10136.53
574.071	10115.28
574.432	10188.73
574.794	10228.95
575.155	10245.45
575.516	10180.82
575.877	10301.27
576.238	10245.9
576.599	10295.85
576.96	10338.1
577.32	10306.24
577.681	10334.94
578.042	10395.73
578.403	10458.1
578.763	10450.19
579.124	10443.19
579.485	10515.73
579.845	10564.31
580.206	10524.31
580.566	10489.96
580.927	10513.47
581.287	10514.14
581.648	10522.28
582.008	10558.66
582.368	10553.69
582.728	10548.27
583.089	10624.42
583.449	10555.5
583.809	10508.72
584.169	10663.29
584.529	10621.49
584.889	10713.69
585.249	10651.77
585.609	10617.87
585.969	10706.91
586.329	10633.92
586.688	10669.62
587.048	10592.33
587.408	10669.85
587.768	10655.84
588.127	10647.7
588.487	10629.4
588.846	10692.44
589.206	10605.67
589.565	10763.4
589.925	10666.46
590.284	10787.36
590.643	10772.44
591.003	10786
591.362	10754.59
591.721	10752.1
592.08	10803.4
592.44	10746.45
592.799	10862.38
593.158	10800.92
593.517	10765.44
593.876	10813.8
594.235	10822.16
594.593	10726.34
594.952	10842.5
595.311	10757.98
595.67	10842.05
596.029	10846.11
596.387	10824.42
596.746	10915.49
597.104	10841.37
597.463	10878.65
597.822	10887.24
598.18	10854.02
598.538	10868.94
598.897	10904.87
599.255	10835.72
599.613	10942.61
599.972	10892.67
600.33	10983.28
600.688	10929.05
601.046	10960.91
601.404	10985.54
601.762	11010.18
602.12	11052.44
602.478	11064.86
602.836	10985.77
603.194	11008.14
603.552	10930.4
603.91	10962.04
604.268	10979.22
604.625	10959.1
604.983	11068.48
605.341	10909.61
605.698	11037.75
606.056	11054.7
606.413	11049.95
606.771	11122.04
607.128	11066.22
607.485	11034.81
607.843	11085.43
608.2	11092.89
608.557	11234.13
608.914	11136.05
609.272	11156.39
609.629	11147.57
609.986	11160.68
610.343	11141.7
610.7	11252.2
611.057	11162.71
611.414	11154.35
611.771	11217.63
612.127	11221.47
612.484	11237.97
612.841	11207.69
613.198	11329.94
613.554	11272.99
613.911	11331.52
614.267	11368.13
614.624	11273.67
614.98	11292.2
615.337	11388.47
615.693	11411.3
616.05	11430.73
616.406	11404.97
616.762	11385.99
617.118	11395.25
617.475	11389.83
617.831	11445.87
618.187	11427.79
618.543	11453.55
618.899	11450.39
619.255	11469.6
619.611	11436.83
619.967	11524.74
620.323	11484.06
620.678	11435.25
621.034	11512.99
621.39	11529.03
621.746	11536.04
622.101	11626.21
622.457	11547.11
622.812	11635.47
623.168	11619.65
623.523	11603.61
623.879	11670.05
624.234	11600.9
624.589	11573.55
624.945	11542.14
625.3	11648.35
625.655	11671.4
626.01	11672.98
626.365	11738.97
626.72	11689.25
627.075	11646.54
627.43	11604.74
627.785	11682.25
628.14	11672.98
628.495	11706.66
628.85	11773.32
629.205	11763.6
629.559	11784.62
629.914	11765.86
630.269	11783.26
630.623	11698.75
630.978	11754.11
631.332	11814
631.687	11778.52
632.041	11858.52
632.396	11759.99
632.75	11835.69
633.104	11844.28
633.459	11881.11
633.813	11810.16
634.167	11852.64
634.521	11939.42
634.875	11867.56
635.229	11809.03
635.583	11872.07
635.937	11858.52
636.291	11835.47
636.645	11953.88
636.999	11809.7
637.352	11965.63
637.706	11857.16
638.06	11922.24
638.413	11959.08
638.767	11875.46
639.121	11948.23
639.474	11839.53
639.828	11923.82
640.181	12008.57
640.534	11935.8
640.888	11901.9
641.241	11980.77
641.594	11916.37
641.947	11924.5
642.301	11966.76
642.654	12042.24
643.007	12021.22
643.36	12019.64
643.713	11978.51
644.066	12074.1
644.419	12039.53
644.771	12030.49
645.124	11968.57
645.477	11952.3
645.83	11871.4
646.182	11804.73
646.535	11750.5
646.888	11804.28
647.24	11764.96
647.593	11851.06
647.945	11828.69
648.298	11807.67
648.65	11820.1
649.002	11813.77
649.355	11766.99
649.707	11852.87
650.059	11945.07
650.411	12098.06
650.763	12167.43
651.115	12311.61
651.467	12305.28
651.819	12280.88
652.171	12240.65
652.523	12350.93
652.875	12202.46
653.227	12222.57
653.578	12369.91
653.93	12336.24
654.282	12286.98
654.633	12349.35
654.985	12291.72
655.337	12377.82
655.688	12445.39
656.039	12431.61
656.391	12283.36
656.742	12459.4
657.094	12463.92
657.445	12519.29
657.796	12430.7
658.147	12366.53
658.498	12375.79
658.849	12478.39
659.2	12475
659.551	12451.72
659.902	12473.87
660.253	12446.75
660.604	12443.36
660.955	12409.69
661.306	12500.08
661.656	12566.97
662.007	12549.57
662.358	12494.43
662.708	12523.36
663.059	12574.2
663.409	12436.58
663.76	12590.7
664.11	12572.4
664.461	12520.87
664.811	12495.34
665.161	12543.47
665.511	12530.14
665.862	12564.94
666.212	12556.35
666.562	12556.35
666.912	12528.55
667.262	12490.59
667.612	12580.08
667.962	12554.09
668.312	12509.8
668.662	12552.96
669.011	12469.8
669.361	12477.26
669.711	12445.17
670.06	12426.64
670.41	12389.12
670.76	12426.18
671.109	12407.43
671.459	12412.85
671.808	12346.86
672.157	12331.72
672.507	12197.26
672.856	12257.83
673.205	12237.71
673.554	12298.96
673.904	12247.66
674.253	12242.01
674.602	12222.8
674.951	12097.15
675.3	12018.51
675.649	12217.83
675.998	12181.22
676.346	12176.47
676.695	12193.87
677.044	12023.71
677.393	12057.83
677.741	12061.45
678.09	11983.94
678.438	11989.81
678.787	12010.38
679.135	11974.67
679.484	11945.75
679.832	11924.5
680.181	11815.81
680.529	11902.13
680.877	11966.76
681.225	11814.45
681.573	11809.25
681.922	11754.11
682.27	11816.48
682.618	11747.11
682.966	11689.03
683.314	11682.02
683.661	11722.25
684.009	11592.31
684.357	11497.62
684.705	11544.4
685.053	11515.02
685.4	11600.67
685.748	11456.04
686.095	11485.64
686.443	11531.07
686.79	11475.7
687.138	11469.37
687.485	11489.49
687.832	11353.67
688.18	11407.91
688.527	11366.33
688.874	11326.33
689.221	11319.77
689.568	11249.27
689.915	11313.9
690.262	11293.56
690.609	11315.93
690.956	11201.81
691.303	11221.02
691.65	11179.89
691.997	11256.27
692.344	11153
692.69	11085.43
693.037	11120.68
693.383	11100.57
693.73	11087.24
694.077	11046.56
694.423	11079.78
694.769	11030.74
695.116	11049.27
695.462	10967.92
695.808	10934.92
696.155	11014.24
696.501	10961.36
696.847	10942.16
697.193	10908.71
697.539	10988.48
697.885	10848.6
698.231	10841.14
698.577	10890.18
698.923	10829.39
699.269	10774.93
699.614	10794.59
699.96	10706
700.306	10694.48
700.651	10672.33
700.997	10705.33
701.342	10690.41
701.688	10660.58
702.033	10678.21
702.379	10674.14
702.724	10618.55
703.069	10676.63
703.415	10613.58
703.76	10538.32
704.105	10605.67
704.45	10571.09
704.795	10532
705.14	10571.09
705.485	10543.52
705.83	10527.03
706.175	10447.93
706.52	10424.43
706.865	10502.17
707.209	10552.34
707.554	10461.26
707.899	10526.8
708.243	10417.65
708.588	10455.16
708.932	10367.71
709.277	10404.32
709.621	10385.33
709.966	10309.86
710.31	10337.88
710.654	10319.12
710.998	10317.54
711.342	10371.1
711.687	10367.26
712.031	10321.16
712.375	10277.31
712.719	10254.04
713.063	10291.78
713.407	10279.57
713.75	10266.24
714.094	10264.43
714.438	10286.35
714.782	10353.7
715.125	10307.82
715.469	10198.9
715.812	10200.93
716.156	10215.17
716.499	10274.15
716.843	10351.66
717.186	10182.63
717.53	10268.28
717.873	10251.55
718.216	10251.33
718.559	10186.47
718.902	10144.66
719.246	10222.85
719.589	10188.28
719.932	10143.76
720.275	10180.82
720.617	10143.08
720.96	10152.57
721.303	10144.44
721.646	10183.53
721.989	10057.66
722.331	10172.23
722.674	10156.19
723.016	10198.9
723.359	10132.23
723.701	10139.01
724.044	10062.4
724.386	10066.47
724.729	10134.04
725.071	10170.65
725.413	10191.22
725.755	10102.4
726.097	10115.96
726.439	10093.59
726.782	10092.46
727.124	10175.17
727.465	10142.18
727.807	10093.36
728.149	10083.87
728.491	10177.2
728.833	10149.63
729.175	10078.68
729.516	10106.02
729.858	10128.39
730.199	10155.96
730.541	10144.66
730.882	10122.52
731.224	10113.7
731.565	10139.47
731.906	10161.39
732.248	10225.79
732.589	10132.91
732.93	10139.01
733.271	10171.1
733.612	10232.12
733.953	10171.55
734.294	10209.52
734.635	10107.83
734.976	10176.75
735.317	10209.97
735.658	10242.51
735.999	10257.2
736.339	10284.32
736.68	10254.94
737.021	10230.99
737.361	10285
737.702	10364.09
738.042	10326.35
738.383	10314.38
738.723	10308.73
739.063	10325.45
739.404	10458.55
739.744	10373.58
740.084	10361.61
740.424	10386.01
740.764	10393.02
741.104	10430.3
741.444	10436.41
741.784	10510.98
742.124	10487.48
742.464	10493.13
742.804	10559.34
743.143	10483.41
743.483	10547.14
743.823	10563.63
744.162	10680.69
744.502	10692.67
744.841	10613.8
745.181	10717.3
745.52	10619
745.86	10714.37
746.199	10752.1
746.538	10760.47
746.877	10828.26
747.216	10871.42
747.556	10788.94
747.895	10898.99
748.234	10909.16
748.573	10981.48
748.911	10928.37
749.25	10990.06
749.589	10961.36
749.928	10960.46
750.267	11082.72
750.605	11022.15
750.944	11034.58
751.283	11124.07
751.621	11074.36
751.96	11051.08
752.298	11199.32
752.636	11205.2
752.975	11244.52
753.313	11268.25
753.651	11357.51
753.989	11356.61
754.327	11304.63
754.666	11313.22
755.004	11414.01
755.342	11389.83
755.679	11372.65
756.017	11480.9
756.355	11477.73
756.693	11500.33
757.031	11578.3
757.368	11508.47
757.706	11560.44
758.044	11584.17
758.381	11519.32
758.719	11613.55
759.056	11647
759.394	11667.33
759.731	11640.67
760.068	11678.18
760.405	11603.38
760.743	11678.18
761.08	11716.37
761.417	11675.24
761.754	11718.41
762.091	11705.53
762.428	11794.11
762.765	11722.47
763.102	11895.13
763.438	11794.11
763.775	11786.65
764.112	11830.49
764.449	11889.7
764.785	11799.99
765.122	11720.89
765.458	11870.94
765.795	11799.08
766.131	11916.82
766.467	11860.1
766.804	11845.41
767.14	11868.23
767.476	11908.01
767.812	11890.61
768.148	11941.9
768.485	11874.79
768.821	11875.01
769.157	11860.1
769.492	11881.79
769.828	11981.68
770.164	11846.09
770.5	11856.26
770.836	11884.5
771.171	11918.85
771.507	11911.17
771.842	11860.32
772.178	11800.66
772.513	11943.94
772.849	11846.31
773.184	11899.87
773.519	11923.15
773.855	11830.72
774.19	11819.19
774.525	11904.62
774.86	11923.37
775.195	11889.93
775.53	11894.45
775.865	11871.17
776.2	11863.94
776.535	11796.82
776.87	11806.09
777.205	11837.05
777.539	11734.45
777.874	11840.89
778.209	11770.61
778.543	11797.27
778.878	11779.87
779.212	11811.51
779.547	11707.56
779.881	11786.65
780.215	11784.62
780.55	11785.3
780.884	11694.68
781.218	11768.57
781.552	11797.95
781.886	11726.77
782.22	11710.05
782.554	11696.71
782.888	11605.87
783.222	11721.57
783.556	11549.82
783.889	11670.27
784.223	11550.5
784.557	11590.5
784.89	11602.03
785.224	11600.22
785.557	11448.36
785.891	11583.95
786.224	11518.41
786.558	11591.86
786.891	11527.68
787.224	11521.12
787.557	11509.6
787.891	11463.27
788.224	11457.17
788.557	11513.21
788.89	11495.81
789.223	11511.63
789.556	11385.31
789.888	11475.93
790.221	11465.31
790.554	11354.12
790.887	11431.63
791.219	11376.27
791.552	11319.32
791.884	11242.26
792.217	11277.97
792.549	11362.48
792.882	11246.55
793.214	11228.25
793.546	11265.76
793.879	11194.58
794.211	11159.78
794.543	11218.76
794.875	11254.46
795.207	11233.45
795.539	11201.81
795.871	11190.74
796.203	11139.21
796.535	11120
796.867	11127.91
797.198	11076.39
797.53	11130.4
797.862	11068.71
798.193	11090.85
798.525	11070.06
798.856	11117.97
799.188	10975.6
799.519	10923.85
799.85	11038.65
800.182	10978.09
800.513	10964.75
800.844	10917.3
801.175	10968.82
801.506	10978.09
801.837	10914.13
802.168	10908.03
802.499	10878.43
802.83	10866.9
803.161	10816.96
803.491	10823.97
803.822	10785.78
804.153	10793.46
804.483	10790.75
804.814	10724.76
805.145	10736.51
805.475	10726.12
805.805	10692.9
806.136	10696.29
806.466	10703.07
806.796	10699.68
807.126	10630.07
807.457	10684.76
807.787	10643.18
808.117	10645.44
808.447	10598.44
808.777	10669.39
809.107	10614.93
809.436	10605.22
809.766	10545.56
810.096	10527.03
810.426	10547.36
810.755	10520.25
811.085	10490.42
811.414	10526.8
811.744	10420.36
812.073	10436.86
812.403	10446.35
812.732	10421.49
813.061	10454.71
813.39	10319.35
813.719	10340.59
814.049	10397.99
814.378	10318.67
814.707	10348.05
815.036	10320.25
815.365	10301.72
815.693	10233.93
816.022	10265.11
816.351	10127.04
816.68	10150.31
817.008	10212.23
817.337	10094.04
817.665	10160.71
817.994	10149.86
818.322	10070.31
818.651	10080.03
818.979	10046.81
819.307	10147.37
819.636	10079.35
819.964	10001.84
820.292	10121.16
820.62	10077.55
820.948	9941.96
821.276	10082.29
821.604	10038
821.932	10059.69
822.259	10074.38
822.587	10071.9
822.915	10112.57
823.243	10081.16
823.57	10061.05
823.898	10078
824.225	10049.07
824.553	10087.49
824.88	10013.82
825.207	10112.35
825.535	10054.27
825.862	10079.13
826.189	10092.91
826.516	10122.06
826.843	10123.87
827.17	10193.02
827.497	10147.15
827.824	10153.48
828.151	10214.27
828.478	10114.61
828.805	10195.28
829.131	10125.23
829.458	10147.83
829.785	10124.1
830.111	10145.79
830.438	10148.5
830.764	10130.88
831.09	10150.54
831.417	10076.19
831.743	10194.38
832.069	10151.22
832.395	10223.98
832.722	10205.23
833.048	10160.48
833.374	10152.12
833.7	10128.62
834.026	10185.11
834.351	10151.89
834.677	10066.02
835.003	10068.28
835.329	10168.84
835.654	10155.74
835.98	10101.27
836.306	10186.02
836.631	10036.64
836.956	10139.69
837.282	10118
837.607	10114.83
837.932	10045
838.258	10065.12
838.583	9997.1
838.908	10091.78
839.233	9987.38
839.558	10019.24
839.883	9991.22
840.208	9985.57
840.533	9904.89
840.858	9926.82
841.182	9910.09
841.507	9987.38
841.832	9876.2
842.156	9911.45
842.481	9871.68
842.805	9838.68
843.13	9828.51
843.454	9831.68
843.778	9826.03
844.103	9824.9
844.427	9780.83
844.751	9756.65
845.075	9712.13
845.399	9730.89
845.723	9684.56
846.047	9698.57
846.371	9615.64
846.695	9607.95
847.019	9543.1
847.343	9545.13
847.666	9416.32
847.99	9385.81
848.313	9496.32
848.637	9320.73
848.96	9349.43
849.284	9316.44
849.607	9291.13
849.931	9235.99
850.254	9215.87
850.577	9153.05
850.9	9097.68
851.223	9062.43
851.546	9067.18
851.869	8997.57
852.192	9041.41
852.515	8913.51
852.838	8939.72
853.161	8861.76
853.483	8942.66
853.806	8864.7
854.129	8792.61
854.451	8753.29
854.774	8806.62
855.096	8808.88
855.419	8706.73
855.741	8703.34
856.063	8635.55
856.385	8713.97
856.708	8624.25
857.03	8622.22
857.352	8561.43
857.674	8557.81
857.996	8525.5
858.318	8513.52
858.64	8476.23
858.961	8477.36
859.283	8442.56
859.605	8452.28
859.926	8424.71
860.248	8457.48
860.57	8361.66
860.891	8440.98
861.212	8359.62
861.534	8310.81
861.855	8353.07
862.176	8349.68
862.498	8346.07
862.819	8355.33
863.14	8323.69
863.461	8265.62
863.782	8295.9
864.103	8280.3
864.424	8235.56
864.745	8176.58
865.065	8139.52
865.386	8163.92
865.707	8172.29
866.027	8140.65
866.348	8157.6
866.668	8164.38
866.989	8086.86
867.309	8083.93
867.63	8073.3
867.95	8040.54
868.27	8026.3
868.59	8045.28
868.91	8055.23
869.23	8042.8
869.55	7992.63
869.87	8008.45
870.19	7975.23
870.51	8019.29
870.83	8008.22
871.15	7907.21
871.469	7852.29
871.789	7981.78
872.109	7969.8
872.428	7904.72
872.748	7863.14
873.067	7925.96
873.386	7869.69
873.706	7920.09
874.025	7841.67
874.344	7833.54
874.663	7834.67
874.982	7797.15
875.301	7837.38
875.62	7725.52
875.939	7745.18
876.258	7799.41
876.577	7765.97
876.896	7778.62
877.214	7690.94
877.533	7729.58
877.852	7656.14
878.17	7702.69
878.489	7705.4
878.807	7680.09
879.125	7672.86
879.444	7647.78
879.762	7633.54
880.08	7738.17
880.398	7575.69
880.716	7622.47
881.034	7592.87
881.352	7579.53
881.67	7528.46
881.988	7530.04
882.306	7483.04
882.624	7496.14
882.941	7546.09
883.259	7453.43
883.577	7435.13
883.894	7453.43
884.212	7434.45
884.529	7421.12
884.846	7412.31
885.164	7369.82
885.481	7386.32
885.798	7371.63
886.115	7301.12
886.432	7310.84
886.75	7335.02
887.067	7318.97
887.383	7287.34
887.7	7275.59
888.017	7248.92
888.334	7210.5
888.651	7244.63
888.967	7202.59
889.284	7131.86
889.6	7147.23
889.917	7098.87
890.233	7113.78
890.55	7092.77
890.866	7071.07
891.182	7047.12
891.498	7030.85
891.815	7035.37
892.131	7019.55
892.447	6978.42
892.763	6916.5
893.079	6933.67
893.395	6860.46
893.71	6916.5
894.026	6897.74
894.342	6843.28
894.657	6861.59
894.973	6827.91
895.289	6805.77
895.604	6752.66
895.92	6760.34
896.235	6733.9
896.55	6737.75
896.865	6690.29
897.181	6697.75
897.496	6661.36
897.811	6602.61
898.126	6604.42
898.441	6585.21
898.756	6558.99
899.071	6546.34
899.386	6520.13
899.7	6474.48
900.015	6427.02
900.33	6377.76
900.644	6400.81
900.959	6410.52
901.273	6397.64
901.588	6373.91
901.902	6268.15
902.216	6290.53
902.531	6327.59
902.845	6318.32
903.159	6226.35
903.473	6198.78
903.787	6228.61
904.101	6208.27
904.415	6214.14
904.729	6193.35
905.042	6143.41
905.356	6152
905.67	6076.07
905.984	6100.02
906.297	6105.67
906.611	5982.74
906.924	6029.29
907.237	5972.79
907.551	5998.56
907.864	5933.7
908.177	5937.54
908.491	5952.68
908.804	5888.28
909.117	5850.31
909.43	5830.2
909.743	5810.99
910.056	5797.43
910.368	5723.76
910.681	5776.87
910.994	5686.25
911.307	5689.41
911.619	5617.55
911.932	5682.86
912.244	5610.54
912.557	5623.2
912.869	5647.83
913.181	5604.22
913.494	5531
913.806	5524.22
914.118	5513.15
914.43	5506.82
914.742	5490.32
915.054	5404.22
915.366	5404.45
915.678	5393.15
915.99	5361.74
916.302	5331.46
916.613	5288.07
916.925	5273.15
917.236	5260.27
917.548	5254.85
917.859	5251.46
918.171	5225.24
918.482	5229.99
918.794	5171.23
919.105	5206.04
919.416	5150.9
919.727	5113.83
920.038	5125.36
920.349	5068.41
920.66	5055.53
920.971	5076.77
921.282	5009.43
921.593	4989.32
921.903	4976.21
922.214	4937.12
922.525	4925.14
922.835	4942.77
923.146	4913.16
923.456	4913.16
923.767	4829.77
924.077	4820.96
924.387	4809.21
924.697	4732.15
925.008	4758.59
925.318	4744.35
925.628	4684.92
925.938	4717.46
926.248	4652.15
926.558	4688.31
926.867	4656.45
927.177	4608.99
927.487	4597.46
927.796	4580.52
928.106	4545.26
928.416	4553.85
928.725	4545.26
929.034	4491.7
929.344	4501.65
929.653	4487.18
929.962	4447.86
930.271	4447.19
930.581	4413.06
930.89	4402.21
931.199	4351.14
931.508	4369.22
931.817	4373.29
932.125	4319.73
932.434	4359.05
932.743	4305.04
933.051	4291.48
933.36	4270.92
933.669	4239.51
933.977	4221.2
934.286	4212.39
934.594	4200.64
934.902	4168.1
935.21	4187.76
935.519	4140.98
935.827	4138.49
936.135	4104.6
936.443	4103.24
936.751	4073.18
937.059	4066.18
937.367	4081.32
937.674	4073.64
937.982	4077.48
938.29	3975.56
938.597	3980.98
938.905	3986.63
939.213	3943.24
939.52	3955.22
939.827	3943.7
940.135	3902.34
940.442	3862.57
940.749	3874.09
941.056	3886.3
941.363	3865.28
941.67	3837.03
941.977	3759.75
942.284	3812.4
942.591	3840.2
942.898	3743.7
943.205	3764.27
943.511	3749.8
943.818	3763.14
944.125	3684.72
944.431	3701.22
944.738	3707.09
945.044	3664.16
945.35	3626.19
945.657	3623.93
945.963	3565.85
946.269	3558.4
946.575	3625.29
946.881	3569.47
947.187	3615.79
947.493	3553.42
947.799	3532.41
948.105	3471.17
948.41	3500.09
948.716	3488.34
949.022	3442.24
949.327	3466.19
949.633	3409.02
949.938	3428.91
950.244	3411.96
950.549	3381.68
950.854	3388.46
951.16	3361.11
951.465	3374.9
951.77	3356.59
952.075	3351.39
952.38	3342.36
952.685	3305.52
952.99	3265.97
953.294	3304.84
953.599	3257.84
953.904	3242.92
954.209	3243.38
954.513	3240.21
954.818	3233.88
955.122	3218.97
955.426	3195.24
955.731	3148.46
956.035	3157.95
956.339	3097.62
956.643	3138.29
956.948	3123.6
957.252	3094.9
957.556	3104.85
957.86	3076.83
958.163	3078.41
958.467	3027.11
958.771	3007.22
959.075	3027.79
959.378	3015.58
959.682	2989.37
959.985	2999.31
960.289	2961.57
960.592	2937.39
960.896	2910.28
961.199	2956.83
961.502	2917.51
961.805	2936.04
962.108	2910.5
962.411	2935.13
962.714	2874.57
963.017	2844.74
963.32	2877.51
963.623	2814.91
963.926	2849.26
964.228	2795.03
964.531	2788.47
964.833	2808.36
965.136	2760.22
965.438	2757.51
965.741	2766.55
966.043	2743.28
966.345	2743.28
966.648	2725.42
966.95	2712.09
967.252	2698.76
967.554	2694.24
967.856	2691.75
968.158	2659.89
968.46	2651.75
968.761	2621.7
969.063	2650.4
969.365	2606.1
969.666	2647.01
969.968	2607.69
970.269	2590.28
970.571	2573.11
970.872	2530.4
971.174	2515.03
971.475	2571.98
971.776	2544.64
972.077	2558.42
972.378	2522.26
972.679	2501.93
972.98	2504.64
973.281	2492.66
973.582	2465.54
973.883	2451.31
974.183	2456.96
974.484	2442.04
974.785	2476.84
975.085	2440.23
975.386	2401.82
975.686	2405.43
975.986	2400.01
976.287	2403.17
976.587	2356.39
976.887	2379.22
977.187	2388.03
977.487	2365.21
977.787	2311.65
978.087	2350.52
978.387	2325.21
978.687	2299.67
978.987	2309.61
979.286	2300.8
979.586	2320.46
979.885	2302.61
980.185	2268.71
980.484	2258.99
980.784	2245.89
981.083	2252.67
981.382	2200.46
981.682	2208.37
981.981	2175.38
982.28	2169.96
982.579	2193.01
982.878	2155.49
983.177	2168.83
983.475	2175.38
983.774	2176.51
984.073	2128.6
984.372	2136.29
984.67	2099.9
984.969	2094.7
985.267	2068.49
985.566	2110.07
985.864	2096.74
986.162	2093.12
986.461	2080.24
986.759	2061.94
987.057	2050.19
987.355	2069.39
987.653	2079.34
987.951	2001.6
988.249	1964.31
988.547	1992.33
988.844	2009.28
989.142	1977.42
989.44	1989.17
989.737	1957.76
990.035	1940.81
990.332	1941.94
990.63	1939.91
990.927	1910.75
991.224	1941.49
991.521	1921.83
991.819	1910.08
992.116	1903.98
992.413	1905.33
992.71	1892.22
993.006	1871.66
993.303	1860.36
993.6	1843.19
993.897	1845.45
994.193	1842.96
994.49	1844.32
994.787	1815.39
995.083	1817.65
995.379	1817.42
995.676	1784.43
995.972	1806.12
996.268	1795.73
996.565	1772.68
996.861	1784.2
997.157	1743.53
997.453	1762.51
997.749	1757.31
998.044	1773.58
998.34	1754.83
998.636	1699.91
998.932	1725.45
999.227	1720.93
999.523	1722.74
999.818	1662.63
1000.114	1674.38
1000.409	1682.74
1000.704	1658.56
1001	1661.72
1001.295	1654.94
1001.59	1662.85
1001.885	1627.82
1002.18	1631.89
1002.475	1595.28
1002.77	1591.89
1003.065	1572.91
1003.359	1606.13
1003.654	1575.4
1003.949	1574.94
1004.243	1572.23
1004.538	1557.77
1004.832	1542.63
1005.127	1523.19
1005.421	1553.25
1005.715	1541.72
1006.009	1527.49
1006.304	1515.51
1006.598	1486.13
1006.892	1455.63
1007.186	1452.24
1007.48	1483.87
1007.773	1456.08
1008.067	1437.55
1008.361	1473.03
1008.655	1448.62
1008.948	1442.52
1009.242	1438.9
1009.535	1440.26
1009.829	1431.45
1010.122	1398.68
1010.415	1414.95
1010.708	1416.08
1011.001	1388.96
1011.295	1370.66
1011.588	1361.16
1011.881	1387.6
1012.173	1357.78
1012.466	1343.09
1012.759	1358
1013.052	1331.11
1013.344	1351.45
1013.637	1298.57
1013.93	1323.43
1014.222	1316.19
1014.514	1299.7
1014.807	1284.1
1015.099	1265.8
1015.391	1245.69
1015.683	1275.29
1015.976	1275.29
1016.268	1281.62
1016.56	1238.46
1016.851	1255.18
1017.143	1241.17
1017.435	1223.77
1017.727	1205.91
1018.018	1227.83
1018.31	1186.48
1018.602	1183.54
1018.893	1171.57
1019.185	1192.13
1019.476	1150.32
1019.767	1189.42
1020.058	1167.27
1020.35	1153.94
1020.641	1151.68
1020.932	1140.61
1021.223	1122.3
1021.514	1152.81
1021.804	1130.66
1022.095	1100.38
1022.386	1108.74
1022.677	1101.74
1022.967	1080.49
1023.258	1071
1023.548	1078.69
1023.839	1062.87
1024.129	1062.64
1024.419	1067.39
1024.709	1081.4
1025	1034.85
1025.29	1056.09
1025.58	1048.86
1025.87	1017.67
1026.16	1029.87
1026.449	1049.99
1026.739	988.97
1027.029	1012.25
1027.319	996.2
1027.608	999.37
1027.898	1010.44
1028.187	988.52
1028.477	995.07
1028.766	980.61
1029.055	958.24
1029.344	955.98
1029.634	957.56
1029.923	969.99
1030.212	962.31
1030.501	949.42
1030.79	916.66
1031.078	922.98
1031.367	904.23
1031.656	917.56
1031.945	908.52
1032.233	907.62
1032.522	914.85
1032.81	918.24
1033.099	879.82
1033.387	912.14
1033.675	894.06
1033.963	873.27
1034.251	870.1
1034.54	865.58
1034.828	877.11
1035.116	860.61
1035.403	863.32
1035.691	853.61
1035.979	831.69
1036.267	835.75
1036.554	836.21
1036.842	849.31
1037.129	828.52
1037.417	820.39
1037.704	814.96
1037.992	799.6
1038.279	816.77
1038.566	795.76
1038.853	795.76
1039.14	795.76
