Data from blue_chair_FLMS001491_00071.txt Node
Date: Wed Feb 08 10:31:44 GMT 2017
User: dcchb
Spectrometer: FLMS00149
Trigger mode: 0
Integration Time (sec): 2.000000E-2
Scans to average: 10
Electric dark correction enabled: true
Nonlinearity correction enabled: false
Boxcar width: 0
XAxis mode: Wavelengths
Number of Pixels in Spectrum: 2048
>>>>>Begin Spectral Data<<<<<
341.393	-27.29
341.776	-27.29
342.16	-27.29
342.543	-86.72
342.927	-84.46
343.31	-58.47
343.693	-61.18
344.077	-62.31
344.46	-61.18
344.843	-59.83
345.226	-63.9
345.61	-31.81
345.993	-21.41
346.376	-10.34
346.759	7.74
347.142	20.17
347.525	38.25
347.908	68.76
348.291	91.58
348.674	84.57
349.057	119.38
349.44	121.86
349.823	146.95
350.206	142.88
350.588	193.27
350.971	188.07
351.354	220.39
351.737	217
352.119	229.65
352.502	223.55
352.884	226.72
353.267	232.59
353.65	247.28
354.032	252.48
354.414	258.81
354.797	282.08
355.179	273.04
355.562	264.68
355.944	292.03
356.326	278.24
356.709	303.55
357.091	291.12
357.473	294.51
357.855	289.99
358.238	318.01
358.62	312.14
359.002	302.2
359.384	312.14
359.766	309.2
360.148	296.55
360.53	308.97
360.912	298.58
361.294	296.55
361.676	310.1
362.057	296.55
362.439	299.94
362.821	293.16
363.203	295.42
363.584	263.55
363.966	283.21
364.348	296.77
364.729	280.28
365.111	297.68
365.493	280.95
365.874	286.38
366.256	279.15
366.637	268.98
367.019	286.83
367.4	298.13
367.781	297.68
368.163	289.31
368.544	292.48
368.925	278.69
369.306	292.03
369.688	256.09
370.069	297.45
370.45	257.68
370.831	282.99
371.212	274.85
371.593	287.51
371.974	281.63
372.355	268.75
372.736	256.09
373.117	280.5
373.498	292.7
373.879	273.72
374.26	278.92
374.641	295.42
375.021	274.4
375.402	278.24
375.783	286.38
376.163	282.53
376.544	274.85
376.925	279.37
377.305	271.91
377.686	277.79
378.066	273.5
378.447	282.53
378.827	285.92
379.208	282.08
379.588	278.24
379.968	294.51
380.349	285.02
380.729	287.51
381.109	293.38
381.489	283.89
381.87	302.65
382.25	297.22
382.63	299.26
383.01	299.48
383.39	292.48
383.77	275.76
384.15	290.9
384.53	292.25
384.91	301.97
385.29	272.59
385.67	280.73
386.049	304.68
386.429	290.44
386.809	315.08
387.189	283.21
387.568	306.26
387.948	297.45
388.328	301.74
388.707	295.19
389.087	299.26
389.466	308.3
389.846	297.45
390.225	300.61
390.605	319.14
390.984	299.03
391.363	303.1
391.743	320.5
392.122	301.74
392.501	298.58
392.881	323.66
393.26	313.95
393.639	311.01
394.018	291.57
394.397	313.49
394.776	323.66
395.155	318.01
395.534	306.94
395.913	337.9
396.292	323.44
396.671	319.37
397.05	302.42
397.429	319.82
397.808	308.75
398.186	323.89
398.565	303.55
398.944	309.43
399.323	310.56
399.701	336.77
400.08	331.12
400.458	334.28
400.837	341.06
401.215	325.7
401.594	341.52
401.972	325.47
402.351	316.21
402.729	345.13
403.107	327.51
403.486	336.32
403.864	323.21
404.242	348.52
404.62	340.16
404.999	323.21
405.377	346.26
405.755	332.48
406.133	327.28
406.511	324.12
406.889	341.06
407.267	343.55
407.645	348.52
408.023	360.72
408.401	345.58
408.779	346.71
409.156	372.48
409.534	358.69
409.912	377.22
410.29	339.48
410.667	355.08
411.045	341.52
411.422	350.78
411.8	366.6
412.178	367.96
412.555	366.6
412.933	373.38
413.31	378.13
413.687	379.03
414.065	373.61
414.442	364.57
414.819	370.44
415.197	374.51
415.574	373.15
415.951	389.42
416.328	375.64
416.705	380.16
417.082	379.93
417.46	371.8
417.837	393.49
418.214	384.68
418.591	370.89
418.967	400.72
419.344	390.78
419.721	371.8
420.098	377.9
420.475	397.79
420.852	393.04
421.228	404.79
421.605	402.31
421.982	392.81
422.358	414.51
422.735	414.28
423.111	405.7
423.488	421.97
423.864	414.28
424.241	402.53
424.617	423.1
424.994	424
425.37	423.32
425.746	428.07
426.123	424
426.499	446.6
426.875	435.98
427.251	433.72
427.627	453.38
428.003	436.43
428.379	437.11
428.756	455.64
429.132	440.95
429.507	447.05
429.883	453.6
430.259	423.1
430.635	449.31
431.011	479.59
431.387	467.84
431.763	490.89
432.138	478.01
432.514	466.26
432.89	474.17
433.265	471.91
433.641	484.79
434.016	508.74
434.392	474.39
434.767	490.89
435.143	498.12
435.518	497.22
435.894	523.66
436.269	511.91
436.644	517.56
437.02	534.05
437.395	547.16
437.77	541.74
438.145	523.43
438.52	537.9
438.895	536.31
439.271	562.75
439.646	562.98
440.021	571.11
440.395	569.99
440.77	559.59
441.145	562.98
441.52	569.53
441.895	590.55
442.27	586.26
442.645	608.4
443.019	579.93
443.394	599.36
443.769	590.32
444.143	590.32
444.518	597.1
444.892	609.08
445.267	592.36
445.641	618.12
446.016	610.21
446.39	612.47
446.764	639.14
447.139	632.58
447.513	616.31
447.887	621.96
448.262	646.59
448.636	621.74
449.01	615.18
449.384	628.97
449.758	648.85
450.132	646.82
450.506	665.8
450.88	640.27
451.254	657.67
451.628	659.25
452.002	688.63
452.376	656.99
452.75	669.64
453.123	697.89
453.497	698.8
453.871	672.13
454.244	707.38
454.618	702.86
454.992	717.33
455.365	721.39
455.739	695.63
456.112	719.81
456.486	705.8
456.859	736.08
457.232	738.79
457.606	725.24
457.979	707.16
458.352	755.06
458.725	743.99
459.099	745.57
459.472	797.1
459.845	764.78
460.218	769.08
460.591	765.23
460.964	759.58
461.337	769.3
461.71	774.27
462.083	809.98
462.456	817.44
462.829	802.07
463.201	813.82
463.574	825.12
463.947	802.97
464.32	830.77
464.692	840.71
465.065	817.66
465.438	843.65
465.81	821.05
466.183	888.39
466.555	836.87
466.928	845.68
467.3	858.11
467.672	889.3
468.045	884.78
468.417	851.33
468.789	895.85
469.161	908.51
469.534	899.47
469.906	924.1
470.278	928.85
470.65	919.35
471.022	903.54
471.394	925.23
471.766	946.7
472.138	938.11
472.51	925.68
472.882	951.44
473.253	954.16
473.625	979.01
473.997	989.86
474.369	980.82
474.74	999.58
475.112	1003.42
475.484	1000.93
475.855	1029.41
476.227	1012.01
476.598	1043.42
476.97	1024.21
477.341	1073.02
477.713	1033.25
478.084	1083.42
478.455	1081.38
478.827	1108.05
479.198	1130.42
479.569	1087.26
479.94	1105.56
480.311	1135.85
480.682	1132
481.053	1122.29
481.424	1161.16
481.795	1135.17
482.166	1178.56
482.537	1165.9
482.908	1200.93
483.279	1214.26
483.65	1202.28
484.021	1209.29
484.391	1225.11
484.762	1231.89
485.133	1235.73
485.503	1230.98
485.874	1249.29
486.244	1240.48
486.615	1277.31
486.985	1248.39
487.356	1276.63
487.726	1287.93
488.097	1272.34
488.467	1310.08
488.837	1288.38
489.207	1316.86
489.578	1316.41
489.948	1326.35
490.318	1304.43
490.688	1330.19
491.058	1341.94
491.428	1317.76
491.798	1319.8
492.168	1329.29
492.538	1339.46
492.908	1304.43
493.278	1358.21
493.648	1336.74
494.017	1369.51
494.387	1354.15
494.757	1370.42
495.126	1360.25
495.496	1375.61
495.866	1364.09
496.235	1381.49
496.605	1360.7
496.974	1370.64
497.344	1375.39
497.713	1382.39
498.082	1376.52
498.452	1379.91
498.821	1372.22
499.19	1377.2
499.559	1383.52
499.928	1368.38
500.298	1358.44
500.667	1375.16
501.036	1379.23
501.405	1381.04
501.774	1353.47
502.143	1353.02
502.512	1369.74
502.88	1351.43
503.249	1355.95
503.618	1390.3
503.987	1362.51
504.356	1374.26
504.724	1341.72
505.093	1367.7
505.462	1366.8
505.83	1331.77
506.199	1320.93
506.567	1334.94
506.936	1338.33
507.304	1393.92
507.672	1356.63
508.041	1333.81
508.409	1354.6
508.777	1360.92
509.145	1357.99
509.514	1353.02
509.882	1353.02
510.25	1319.12
510.618	1312.34
510.986	1337.42
511.354	1336.52
511.722	1341.94
512.09	1341.04
512.458	1318.44
512.826	1319.34
513.193	1323.86
513.561	1334.71
513.929	1324.09
514.297	1339.23
514.664	1317.54
515.032	1305.33
515.4	1335.16
515.767	1308.27
516.135	1327.71
516.502	1325.45
516.869	1329.29
517.237	1291.77
517.604	1274.15
517.972	1297.2
518.339	1326.8
518.706	1314.6
519.073	1308.04
519.44	1274.6
519.808	1288.61
520.175	1271.21
520.542	1288.84
520.909	1269.85
521.276	1264.88
521.643	1255.39
522.009	1274.15
522.376	1261.27
522.743	1305.56
523.11	1265.11
523.477	1250.42
523.843	1279.57
524.21	1276.41
524.577	1270.53
524.943	1259.68
525.31	1273.24
525.676	1238.44
526.043	1263.53
526.409	1235.28
526.776	1253.36
527.142	1281.6
527.508	1273.24
527.874	1287.71
528.241	1247.93
528.607	1251.55
528.973	1240.25
529.339	1254.49
529.705	1247.26
530.071	1240.25
530.437	1253.58
530.803	1270.76
531.169	1286.58
531.535	1241.38
531.901	1261.49
532.267	1257.2
532.632	1241.61
532.998	1227.82
533.364	1230.98
533.73	1267.14
534.095	1259.68
534.461	1264.43
534.826	1247.71
535.192	1261.72
535.557	1244.09
535.923	1235.96
536.288	1224.43
536.653	1219.23
537.019	1252.68
537.384	1234.37
537.749	1239.35
538.114	1227.82
538.479	1235.96
538.845	1224.21
539.21	1217.65
539.575	1216.52
539.94	1259.23
540.305	1215.17
540.67	1241.61
541.034	1245.22
541.399	1237.31
541.764	1228.95
542.129	1217.2
542.494	1212.45
542.858	1226.01
543.223	1207.71
543.587	1242.28
543.952	1231.89
544.316	1211.78
544.681	1217.43
545.045	1216.52
545.41	1204.32
545.774	1228.5
546.138	1195.73
546.503	1164.77
546.867	1184.21
547.231	1205.9
547.595	1196.64
547.959	1196.41
548.324	1187.82
548.688	1213.58
549.052	1178.1
549.416	1182.17
549.779	1201.61
550.143	1166.35
550.507	1202.96
550.871	1167.48
551.235	1194.38
551.599	1196.64
551.962	1146.47
552.326	1174.94
552.689	1179.01
553.053	1169.97
553.417	1181.49
553.78	1185.56
554.143	1201.15
554.507	1166.13
554.87	1155.96
555.234	1167.48
555.597	1176.07
555.96	1154.6
556.323	1171.78
556.686	1159.35
557.05	1170.2
557.413	1162.51
557.776	1132.68
558.139	1166.81
558.502	1183.98
558.865	1161.61
559.228	1183.08
559.59	1184.43
559.953	1165.68
560.316	1175.39
560.679	1176.75
561.041	1176.3
561.404	1156.18
561.767	1200.48
562.129	1208.39
562.492	1183.98
562.854	1148.5
563.217	1161.61
563.579	1171.78
563.941	1181.72
564.304	1184.66
564.666	1199.35
565.028	1197.31
565.39	1186.92
565.753	1183.08
566.115	1171.55
566.477	1168.39
566.839	1202.06
567.201	1174.49
567.563	1183.53
567.925	1206.13
568.287	1198.9
568.648	1188.05
569.01	1216.3
569.372	1209.06
569.734	1221.72
570.095	1198.44
570.457	1189.63
570.819	1197.99
571.18	1246.58
571.542	1209.29
571.903	1219.01
572.265	1223.3
572.626	1241.83
572.987	1228.95
573.349	1247.71
573.71	1233.7
574.071	1237.31
574.432	1236.86
574.794	1246.8
575.155	1220.36
575.516	1256.52
575.877	1251.77
576.238	1273.02
576.599	1256.29
576.96	1239.35
577.32	1234.37
577.681	1247.93
578.042	1266.46
578.403	1250.87
578.763	1247.48
579.124	1263.75
579.485	1276.41
579.845	1276.86
580.206	1273.24
580.566	1277.54
580.927	1301.49
581.287	1290.64
581.648	1278.44
582.008	1301.72
582.368	1301.49
582.728	1310.53
583.089	1293.58
583.449	1293.58
583.809	1274.37
584.169	1298.55
584.529	1293.13
584.889	1333.35
585.249	1304.88
585.609	1309.4
585.969	1305.11
586.329	1313.02
586.688	1316.41
587.048	1308.72
587.408	1293.58
587.768	1309.17
588.127	1324.99
588.487	1325.22
588.846	1315.28
589.206	1327.93
589.565	1306.46
589.925	1326.58
590.284	1315.95
590.643	1326.8
591.003	1318.67
591.362	1302.62
591.721	1289.74
592.08	1319.12
592.44	1312.34
592.799	1298.1
593.158	1343.98
593.517	1323.64
593.876	1314.37
594.235	1328.16
594.593	1279.57
594.952	1319.57
595.311	1299.23
595.67	1323.64
596.029	1324.99
596.387	1324.09
596.746	1329.29
597.104	1320.7
597.463	1316.18
597.822	1315.05
598.18	1321.6
598.538	1315.5
598.897	1314.37
599.255	1314.37
599.613	1309.63
599.972	1320.93
600.33	1315.73
600.688	1294.03
601.046	1325.9
601.404	1328.16
601.762	1296.52
602.12	1316.41
602.478	1290.87
602.836	1299.01
603.194	1310.53
603.552	1281.83
603.91	1310.08
604.268	1314.6
604.625	1308.95
604.983	1304.88
605.341	1296.75
605.698	1314.37
606.056	1315.95
606.413	1315.28
606.771	1332
607.128	1321.38
607.485	1309.63
607.843	1315.28
608.2	1311.43
608.557	1327.48
608.914	1310.53
609.272	1311.66
609.629	1327.48
609.986	1341.26
610.343	1348.27
610.7	1315.28
611.057	1324.09
611.414	1322.73
611.771	1315.73
612.127	1334.48
612.484	1316.86
612.841	1344.2
613.198	1327.03
613.554	1332.68
613.911	1332.9
614.267	1333.13
614.624	1325.45
614.98	1357.53
615.337	1335.16
615.693	1307.37
616.05	1293.36
616.406	1322.06
616.762	1344.65
617.118	1337.42
617.475	1351.66
617.831	1324.99
618.187	1346.69
618.543	1320.47
618.899	1341.26
619.255	1320.7
619.611	1336.29
619.967	1348.5
620.323	1331.32
620.678	1343.52
621.034	1355.5
621.39	1346.69
621.746	1334.03
622.101	1366.8
622.457	1362.05
622.812	1337.42
623.168	1336.07
623.523	1349.85
623.879	1357.08
624.234	1377.42
624.589	1340.13
624.945	1330.19
625.3	1350.53
625.655	1333.81
626.01	1353.69
626.365	1361.6
626.72	1360.7
627.075	1358.21
627.43	1354.82
627.785	1342.62
628.14	1371.77
628.495	1358.89
628.85	1350.98
629.205	1347.14
629.559	1324.54
629.914	1362.05
630.269	1337.2
630.623	1359.12
630.978	1361.15
631.332	1353.02
631.687	1371.77
632.041	1331.09
632.396	1364.09
632.75	1340.13
633.104	1333.35
633.459	1310.98
633.813	1344.43
634.167	1350.08
634.521	1346.01
634.875	1336.74
635.229	1325.9
635.583	1357.99
635.937	1354.82
636.291	1359.34
636.645	1350.53
636.999	1332.45
637.352	1339
637.706	1327.93
638.06	1366.12
638.413	1352.79
638.767	1340.81
639.121	1371.55
639.474	1348.04
639.828	1354.15
640.181	1353.24
640.534	1387.82
640.888	1334.03
641.241	1352.34
641.594	1356.41
641.947	1362.96
642.301	1365.9
642.654	1356.63
643.007	1344.2
643.36	1310.3
643.713	1351.21
644.066	1356.18
644.419	1326.58
644.771	1328.84
645.124	1329.51
645.477	1332.68
645.83	1340.13
646.182	1347.82
646.535	1282.28
646.888	1339.46
647.24	1367.25
647.593	1352.79
647.945	1345.11
648.298	1318.21
648.65	1323.86
649.002	1337.65
649.355	1344.2
649.707	1350.76
650.059	1340.36
650.411	1352.79
650.763	1350.98
651.115	1363.86
651.467	1400.02
651.819	1378.1
652.171	1393.24
652.523	1392.11
652.875	1391.43
653.227	1393.01
653.578	1418.1
653.93	1373.13
654.282	1384.43
654.633	1354.15
654.985	1400.47
655.337	1398.66
655.688	1401.15
656.039	1383.97
656.391	1391.88
656.742	1383.07
657.094	1402.51
657.445	1410.19
657.796	1388.72
658.147	1372.9
658.498	1391.21
658.849	1400.47
659.2	1408.38
659.551	1404.54
659.902	1399.57
660.253	1403.41
660.604	1413.35
660.955	1385.78
661.306	1421.04
661.656	1396.18
662.007	1420.81
662.358	1407.93
662.708	1416.52
663.059	1399.34
663.409	1411.77
663.76	1389.85
664.11	1395.95
664.461	1412.22
664.811	1402.73
665.161	1407.48
665.511	1416.52
665.862	1415.16
666.212	1401.83
666.562	1401.38
666.912	1410.64
667.262	1407.48
667.612	1420.36
667.962	1396.86
668.312	1426.46
668.662	1427.82
669.011	1437.08
669.361	1413.13
669.711	1409.74
670.06	1415.39
670.41	1390.08
670.76	1407.93
671.109	1386.23
671.459	1389.62
671.808	1395.27
672.157	1402.73
672.507	1397.99
672.856	1375.39
673.205	1402.05
673.554	1416.97
673.904	1384.43
674.253	1405.67
674.602	1391.88
674.951	1367.7
675.3	1357.53
675.649	1393.47
675.998	1410.87
676.346	1393.47
676.695	1341.72
677.044	1384.43
677.393	1346.24
677.741	1368.83
678.09	1345.33
678.438	1351.66
678.787	1376.74
679.135	1359.34
679.484	1349.4
679.832	1370.87
680.181	1352.34
680.529	1358.44
680.877	1338.78
681.225	1369.29
681.573	1312.34
681.922	1324.99
682.27	1339.68
682.618	1347.59
682.966	1341.94
683.314	1328.38
683.661	1315.28
684.009	1348.72
684.357	1324.77
684.705	1327.03
685.053	1317.99
685.4	1324.99
685.748	1305.78
686.095	1311.43
686.443	1300.81
686.79	1302.85
687.138	1309.17
687.485	1294.26
687.832	1303.98
688.18	1308.72
688.527	1305.11
688.874	1296.75
689.221	1263.98
689.568	1304.43
689.915	1271.89
690.262	1272.57
690.609	1278.21
690.956	1261.27
691.303	1276.86
691.65	1281.6
691.997	1272.11
692.344	1276.18
692.69	1250.87
693.037	1277.76
693.383	1249.52
693.73	1245.67
694.077	1237.09
694.423	1249.29
694.769	1247.71
695.116	1229.85
695.462	1242.51
695.808	1228.27
696.155	1233.7
696.501	1234.6
696.847	1225.11
697.193	1247.03
697.539	1230.53
697.885	1220.14
698.231	1223.3
698.577	1202.28
698.923	1217.2
699.269	1221.72
699.614	1223.3
699.96	1220.36
700.306	1214.26
700.651	1190.99
700.997	1208.84
701.342	1195.05
701.688	1195.73
702.033	1224.88
702.379	1214.04
702.724	1181.27
703.069	1221.95
703.415	1199.8
703.76	1203.64
704.105	1155.28
704.45	1200.25
704.795	1182.85
705.14	1172.23
705.485	1197.99
705.83	1195.51
706.175	1181.95
706.52	1178.33
706.865	1175.17
707.209	1177.88
707.554	1186.69
707.899	1174.71
708.243	1184.66
708.588	1176.97
708.932	1191.44
709.277	1160.25
709.621	1172.91
709.966	1172.68
710.31	1183.98
710.654	1172.91
710.998	1176.97
711.342	1204.09
711.687	1209.06
712.031	1199.8
712.375	1182.17
712.719	1179.69
713.063	1198.44
713.407	1198.9
713.75	1195.05
714.094	1203.64
714.438	1183.08
714.782	1191.66
715.125	1195.05
715.469	1214.71
715.812	1185.34
716.156	1196.86
716.499	1204.77
716.843	1214.26
717.186	1207.48
717.53	1211.78
717.873	1229.85
718.216	1200.7
718.559	1225.34
718.902	1207.26
719.246	1219.69
719.589	1202.74
719.932	1203.64
720.275	1210.65
720.617	1199.8
720.96	1217.88
721.303	1238.67
721.646	1233.47
721.989	1238.22
722.331	1252
722.674	1236.41
723.016	1277.99
723.359	1242.28
723.701	1255.39
724.044	1262.62
724.386	1245
724.729	1267.82
725.071	1279.12
725.413	1290.42
725.755	1292.9
726.097	1300.14
726.439	1261.27
726.782	1290.19
727.124	1303.3
727.465	1292
727.807	1298.78
728.149	1300.81
728.491	1318.44
728.833	1294.71
729.175	1309.4
729.516	1327.25
729.858	1338.33
730.199	1340.13
730.541	1334.94
730.882	1346.46
731.224	1367.48
731.565	1359.34
731.906	1369.74
732.248	1351.89
732.589	1378.55
732.93	1397.99
733.271	1391.66
733.612	1379
733.953	1417.87
734.294	1396.4
734.635	1423.52
734.976	1405.44
735.317	1415.84
735.658	1446.35
735.999	1461.26
736.339	1438.44
736.68	1432.56
737.021	1479.34
737.361	1475.27
737.702	1481.83
738.042	1484.54
738.383	1474.14
738.723	1527.25
739.063	1535.61
739.404	1546.68
739.744	1547.59
740.084	1567.92
740.424	1550.3
740.764	1575.83
741.104	1611.99
741.444	1614.7
741.784	1609.51
742.124	1664.19
742.464	1627.58
742.804	1649.05
743.143	1684.53
743.483	1722.05
743.823	1702.84
744.162	1727.47
744.502	1759.78
744.841	1731.99
745.181	1781.03
745.52	1814.7
745.86	1830.52
746.199	1818.77
746.538	1865.54
746.877	1881.14
747.216	1921.59
747.556	1934.47
747.895	1988.93
748.234	1974.24
748.573	2030.74
748.911	1977.41
749.25	2047.01
749.589	2090.4
749.928	2105.76
750.267	2148.7
750.605	2164.75
750.944	2186.44
751.283	2244.74
751.621	2254.23
751.96	2308.24
752.298	2377.4
752.636	2396.83
752.975	2419.88
753.313	2461.23
753.651	2495.36
753.989	2529.71
754.327	2561.57
754.666	2548.69
755.004	2621
755.342	2690.61
755.679	2767.44
756.017	2758.63
756.355	2851.05
756.693	2864.84
757.031	2908.23
757.368	2933.99
757.706	3009.47
758.044	3013.76
758.381	3061.22
758.719	3126.3
759.056	3182.57
759.394	3197.26
759.731	3234.32
760.068	3274.09
760.405	3286.52
760.743	3332.4
761.08	3390.02
761.417	3468.67
761.754	3495.33
762.091	3504.37
762.428	3587.53
762.765	3619.85
763.102	3674.76
763.438	3673.18
763.775	3741.65
764.112	3791.6
764.449	3834.31
764.785	3830.92
765.122	3923.8
765.458	3919.5
765.795	3991.82
766.131	3996.79
766.467	4005.37
766.804	4080.63
767.14	4145.26
767.476	4124.24
767.812	4143.22
768.148	4219.83
768.485	4205.14
768.821	4224.35
769.157	4294.63
769.492	4285.37
769.828	4325.14
770.164	4301.41
770.5	4396.55
770.836	4443.78
771.171	4451.01
771.507	4452.82
771.842	4451.46
772.178	4484.91
772.513	4520.62
772.849	4510.22
773.184	4537.56
773.519	4554.96
773.855	4585.92
774.19	4616.43
774.525	4595.19
774.86	4621.63
775.195	4671.12
775.53	4639.71
775.865	4647.84
776.2	4684.23
776.535	4616.88
776.87	4743.43
777.205	4665.92
777.539	4665.47
777.874	4702.08
778.209	4683.78
778.543	4693.94
778.878	4686.94
779.212	4721.97
779.547	4735.07
779.881	4750.89
780.215	4698.46
780.55	4815.3
780.884	4742.76
781.218	4804
781.552	4811.23
781.886	4791.57
782.22	4770.33
782.554	4785.69
782.888	4742.53
783.222	4700.27
783.556	4756.32
783.889	4747.5
784.223	4750.21
784.557	4764.23
784.89	4752.93
785.224	4764.68
785.557	4761.51
785.891	4736.43
786.224	4741.63
786.558	4777.33
786.891	4707.5
787.224	4764.23
787.557	4747.73
787.891	4775.07
788.224	4740.04
788.557	4740.72
788.89	4756.32
789.223	4774.85
789.556	4705.47
789.888	4759.25
790.221	4674.74
790.554	4710.22
790.887	4681.29
791.219	4709.31
791.552	4731.68
791.884	4728.07
792.217	4686.71
792.549	4673.61
792.882	4637.9
793.214	4635.87
793.546	4704.79
793.879	4662.76
794.211	4644.68
794.543	4657.79
794.875	4627.73
795.207	4620.05
795.539	4660.72
795.871	4651.23
796.203	4639.48
796.535	4625.25
796.867	4634.74
797.198	4634.96
797.53	4608.75
797.862	4608.75
798.193	4575.3
798.525	4530.56
798.856	4581.63
799.188	4554.06
799.519	4531.69
799.85	4539.15
800.182	4531.91
800.513	4511.58
800.844	4477.9
801.175	4536.66
801.506	4482.2
801.837	4527.17
802.168	4502.54
802.499	4469.54
802.83	4424.35
803.161	4491.92
803.491	4448.08
803.822	4440.17
804.153	4438.36
804.483	4392.94
804.814	4395.87
805.145	4423.44
805.475	4427.28
805.805	4400.62
806.136	4382.99
806.466	4400.17
806.796	4413.95
807.126	4331.02
807.457	4321.07
807.787	4401.3
808.117	4345.25
808.447	4322.65
808.777	4358.13
809.107	4354.07
809.436	4286.5
809.766	4326.95
810.096	4272.49
810.426	4325.82
810.755	4278.36
811.085	4272.71
811.414	4319.04
811.744	4282.66
812.073	4250.57
812.403	4310.68
812.732	4221.64
813.061	4239.49
813.39	4197.91
813.719	4182.32
814.049	4252.6
814.378	4206.27
814.707	4227.52
815.036	4199.95
815.365	4197.46
815.693	4166.27
816.022	4150
816.351	4177.12
816.68	4146.61
817.008	4128.99
817.337	4131.93
817.665	4111.81
817.994	4168.99
818.322	4135.54
818.651	4083.34
818.979	4101.64
819.307	4141.64
819.636	4136.44
819.964	4076.56
820.292	4089.44
820.62	4096.22
820.948	4117.24
821.276	4143
821.604	4116.56
821.932	4095.09
822.259	4103.9
822.587	4106.16
822.915	4093.96
823.243	4117.91
823.57	4105.03
823.898	4123.79
824.225	4131.93
824.553	4068.42
824.88	4077.46
825.207	4140.96
825.535	4090.57
825.862	4119.95
826.189	4127.63
826.516	4159.95
826.843	4086.28
827.17	4121.53
827.497	4096.67
827.824	4106.84
828.151	4074.75
828.478	4117.01
828.805	4110.91
829.131	4138.03
829.458	4141.87
829.785	4133.51
830.111	4117.46
830.438	4156.56
830.764	4129.21
831.09	4099.16
831.417	4116.33
831.743	4165.6
832.069	4124.69
832.395	4133.51
832.722	4147.07
833.048	4057.58
833.374	4114.3
833.7	4097.58
834.026	4098.48
834.351	4091.7
834.677	4157.91
835.003	4102.55
835.329	4140.06
835.654	4100.06
835.98	4044.92
836.306	4075.2
836.631	4090.12
836.956	4075.66
837.282	4090.34
837.607	4025.26
837.932	4079.5
838.258	4103.45
838.583	4060.29
838.908	4047.41
839.233	4043.34
839.558	4042.21
839.883	4006.05
840.208	4054.19
840.533	4028.43
840.858	3990.01
841.182	4008.09
841.507	3992.04
841.832	4000.86
842.156	3961.31
842.481	3974.42
842.805	3955.43
843.13	3955.21
843.454	3917.69
843.778	3924.25
844.103	3966.28
844.427	3928.54
844.751	3940.74
845.075	3885.6
845.399	3901.65
845.723	3890.58
846.047	3876.79
846.371	3843.8
846.695	3837.92
847.019	3820.97
847.343	3847.41
847.666	3790.24
847.99	3755.44
848.313	3776
848.637	3726.51
848.96	3722.22
849.284	3710.69
849.607	3741.65
849.931	3651.94
850.254	3698.49
850.577	3658.72
850.9	3647.19
851.223	3637.47
851.546	3634.99
851.869	3598.61
852.192	3625.72
852.515	3582.34
852.838	3626.85
853.161	3576.46
853.483	3594.31
853.806	3542.11
854.129	3555.22
854.451	3540.98
854.774	3510.47
855.096	3478.61
855.419	3467.76
855.741	3498.95
856.063	3486.52
856.385	3504.6
856.708	3468.44
857.03	3449.91
857.352	3460.53
857.674	3462.56
857.996	3410.14
858.318	3403.58
858.64	3383.47
858.961	3377.14
859.283	3430.7
859.605	3387.54
859.926	3384.37
860.248	3358.39
860.57	3398.39
860.891	3366.3
861.212	3348.44
861.534	3321.33
861.855	3344.38
862.176	3323.81
862.498	3313.64
862.819	3291.27
863.14	3317.94
863.461	3293.98
863.782	3312.96
864.103	3310.48
864.424	3323.36
864.745	3345.73
865.065	3305.51
865.386	3273.87
865.707	3258.5
866.027	3249.01
866.348	3216.02
866.668	3227.32
866.989	3217.82
867.309	3245.85
867.63	3248.11
867.95	3254.89
868.27	3217.37
868.59	3232.06
868.91	3253.3
869.23	3211.27
869.55	3205.17
869.87	3218.95
870.19	3168.56
870.51	3173.31
870.83	3186.19
871.15	3192.29
871.469	3185.28
871.789	3161.56
872.109	3211.5
872.428	3161.56
872.748	3175.34
873.067	3152.29
873.386	3178.05
873.706	3156.36
874.025	3126.53
874.344	3121.56
874.663	3130.14
874.982	3082.24
875.301	3136.02
875.62	3090.6
875.939	3074.78
876.258	3123.14
876.577	3115.45
876.896	3066.42
877.214	3079.75
877.533	3068.45
877.852	3072.07
878.17	3084.27
878.489	3104.16
878.807	3076.59
879.125	3050.82
879.444	3053.54
879.762	3020.99
880.08	3052.41
880.398	3022.8
880.716	3040.2
881.034	3006.31
881.352	3026.19
881.67	3004.5
881.988	3024.38
882.306	2980.54
882.624	2982.58
882.941	2951.39
883.259	2970.37
883.577	2982.35
883.894	2972.63
884.212	2980.54
884.529	2966.53
884.846	2936.48
885.164	2934.44
885.481	2947.55
885.798	2924.95
886.115	2929.02
886.432	2894.22
886.75	2893.31
887.067	2896.25
887.383	2922.69
887.7	2884.95
888.017	2888.34
888.334	2872.3
888.651	2889.7
888.967	2880.21
889.284	2864.84
889.6	2846.08
889.917	2827.55
890.233	2799.53
890.55	2832.07
890.866	2798.4
891.182	2777.38
891.498	2827.78
891.815	2773.54
892.131	2774.9
892.447	2776.71
892.763	2742.58
893.079	2766.31
893.395	2725.63
893.71	2767.22
894.026	2733.54
894.342	2686.31
894.657	2716.37
894.973	2717.73
895.289	2733.09
895.604	2699.65
895.92	2691.74
896.235	2667.56
896.55	2692.87
896.865	2677.95
897.181	2623.26
897.496	2647.44
897.811	2625.52
898.126	2599.08
898.441	2616.94
898.756	2623.49
899.071	2593.43
899.386	2600.44
899.7	2564.06
900.015	2576.94
900.33	2542.14
900.644	2527
900.959	2555.02
901.273	2527.67
901.588	2512.08
901.902	2510.05
902.216	2489.48
902.531	2500.1
902.845	2466.88
903.159	2485.64
903.473	2496.49
903.787	2437.96
904.101	2427.34
904.415	2448.81
904.729	2425.98
905.042	2407.22
905.356	2415.36
905.67	2405.87
905.984	2410.84
906.297	2405.42
906.611	2405.87
906.924	2373.33
907.237	2361.8
907.551	2294.91
907.864	2362.48
908.177	2343.27
908.491	2328.36
908.804	2339.43
909.117	2317.28
909.43	2285.65
909.743	2270.28
910.056	2258.53
910.368	2270.51
910.681	2290.39
910.994	2283.61
911.307	2259.88
911.619	2233.22
911.932	2240
912.244	2226.66
912.557	2230.96
912.869	2211.3
913.181	2167.46
913.494	2199.09
913.806	2195.03
914.118	2131.98
914.43	2139.66
914.742	2162.03
915.054	2188.25
915.366	2124.07
915.678	2145.31
915.99	2101.7
916.302	2103.05
916.613	2127.23
916.925	2091.98
917.236	2122.49
917.548	2085.43
917.859	2072.77
918.171	2098.98
918.482	2049.72
918.794	2049.72
919.105	2082.26
919.416	2038.65
919.727	2026.22
920.038	2016.5
920.349	2020.34
920.66	2009.27
920.971	2018.53
921.282	1981.02
921.593	1997.52
921.903	1962.04
922.214	1984.19
922.525	1989.83
922.835	1948.48
923.146	1934.02
923.456	1946.9
923.767	1951.64
924.077	1916.62
924.387	1923.17
924.697	1929.5
925.008	1938.31
925.318	1926.11
925.628	1895.37
925.938	1905.77
926.248	1891.98
926.558	1882.72
926.867	1841.36
927.177	1894.7
927.487	1879.78
927.796	1867.13
928.106	1844.75
928.416	1857.41
928.725	1832.55
929.034	1816.73
929.344	1829.84
929.653	1846.56
929.962	1844.3
930.271	1795.04
930.581	1807.69
930.89	1783.06
931.199	1793.46
931.508	1777.41
931.817	1786.9
932.125	1748.26
932.434	1761.37
932.743	1748.03
933.051	1753.23
933.36	1721.82
933.669	1760.46
933.977	1735.38
934.286	1731.08
934.594	1713.23
934.902	1696.28
935.21	1694.02
935.519	1670.97
935.827	1687.47
936.135	1685.66
936.443	1692.44
936.751	1662.61
937.059	1656.74
937.367	1651.31
937.674	1669.62
937.982	1633.91
938.29	1635.49
938.597	1608.15
938.905	1634.14
939.213	1613.57
939.52	1610.18
939.827	1614.25
940.135	1604.53
940.442	1584.2
940.749	1600.01
941.056	1591.43
941.363	1583.29
941.67	1594.14
941.977	1540.13
942.284	1564.31
942.591	1538.55
942.898	1553.91
943.205	1542.61
943.511	1511.66
943.818	1561.82
944.125	1517.53
944.431	1537.64
944.738	1537.64
945.044	1523.41
945.35	1476.4
945.657	1503.29
945.963	1503.75
946.269	1493.35
946.575	1494.03
946.881	1506.23
947.187	1489.28
947.493	1476.63
947.799	1499
948.105	1463.29
948.41	1454.26
948.716	1440.47
949.022	1468.27
949.327	1456.52
949.633	1399.79
949.938	1466.91
950.244	1428.72
950.549	1412.9
950.854	1430.98
951.16	1370.87
951.465	1400.25
951.77	1394.14
952.075	1401.15
952.38	1366.57
952.685	1395.73
952.99	1368.16
953.294	1365.44
953.599	1375.84
953.904	1352.56
954.209	1368.61
954.513	1376.07
954.818	1365.44
955.122	1359.57
955.426	1336.97
955.731	1324.54
956.035	1337.2
956.339	1298.33
956.643	1320.47
956.948	1312.11
957.252	1300.59
957.556	1311.66
957.86	1294.71
958.163	1283.86
958.467	1305.33
958.771	1300.14
959.075	1288.16
959.378	1290.87
959.682	1272.11
959.985	1275.5
960.289	1259.91
960.592	1265.11
960.896	1238.67
961.199	1276.86
961.502	1252.45
961.805	1230.98
962.108	1233.02
962.411	1240.7
962.714	1239.8
963.017	1239.8
963.32	1232.34
963.623	1260.14
963.926	1216.07
964.228	1203.19
964.531	1223.53
964.833	1196.18
965.136	1199.35
965.438	1170.87
965.741	1200.02
966.043	1139.69
966.345	1169.07
966.648	1155.05
966.95	1176.07
967.252	1148.05
967.554	1180.59
967.856	1173.81
968.158	1125.22
968.46	1175.84
968.761	1158.67
969.063	1150.53
969.365	1152.57
969.666	1133.81
969.968	1086.13
970.269	1134.72
970.571	1132.23
970.872	1108.73
971.174	1117.99
971.475	1103.08
971.776	1110.99
972.077	1095.62
972.378	1108.28
972.679	1080.48
972.98	1082.74
973.281	1089.29
973.582	1079.35
973.883	1083.42
974.183	1073.47
974.484	1080.48
974.785	1071.21
975.085	1062.18
975.386	1062.63
975.686	1069.63
975.986	1053.14
976.287	1047.03
976.587	1035.51
976.887	1038.67
977.187	1022.85
977.487	1027.6
977.787	1030.31
978.087	1011.1
978.387	1040.26
978.687	1023.31
978.987	1022.85
979.286	1012.01
979.586	1016.98
979.885	1022.18
980.185	1014.72
980.484	996.19
980.784	1019.46
981.083	1025.11
981.382	973.36
981.682	990.99
981.981	970.88
982.28	966.81
982.579	995.51
982.878	976.3
983.177	974.04
983.475	964.32
983.774	950.99
984.073	944.21
984.372	959.58
984.67	959.81
984.969	948.05
985.267	963.2
985.566	929.52
985.864	928.85
986.162	939.01
986.461	951.44
986.759	925.46
987.057	925.91
987.355	928.62
987.653	915.51
987.951	922.07
988.249	888.39
988.547	912.35
988.844	917.09
989.142	907.38
989.44	899.69
989.737	902.41
990.035	888.39
990.332	883.88
990.63	871.67
990.927	881.39
991.224	878.68
991.521	857.89
991.819	870.32
992.116	863.54
992.413	870.09
992.71	861.95
993.006	870.99
993.303	866.02
993.6	874.38
993.897	875.97
994.193	853.14
994.49	866.47
994.787	840.49
995.083	850.43
995.379	848.62
995.676	853.14
995.972	850.43
996.268	814.5
996.565	833.25
996.861	808.85
997.157	808.85
997.453	813.59
997.749	808.17
998.044	819.47
998.34	792.35
998.636	808.62
998.932	791.67
999.227	790.09
999.523	792.35
999.818	810.2
1000.114	790.09
1000.409	791.67
1000.704	785.57
1001	779.25
1001.295	779.7
1001.59	769.98
1001.885	770.21
1002.18	768.17
1002.475	764.56
1002.77	782.41
1003.065	769.98
1003.359	763.2
1003.654	760.71
1003.949	733.6
1004.243	756.19
1004.538	743.54
1004.832	756.87
1005.127	756.87
1005.421	738.12
1005.715	757.78
1006.009	752.35
1006.304	705.35
1006.598	735.63
1006.892	717.78
1007.186	726.82
1007.48	718.46
1007.773	715.07
1008.067	712.81
1008.361	695.86
1008.655	696.99
1008.948	705.35
1009.242	699.02
1009.535	699.47
1009.829	696.31
1010.122	697.67
1010.415	660.38
1010.708	683.43
1011.001	680.94
1011.295	664.9
1011.588	673.03
1011.881	666.93
1012.173	681.85
1012.466	663.32
1012.759	663.09
1013.052	654.28
1013.344	659.93
1013.637	674.39
1013.93	656.99
1014.222	658.8
1014.514	636.65
1014.807	638.91
1015.099	643.88
1015.391	661.28
1015.683	657.44
1015.976	652.24
1016.268	639.36
1016.56	629.42
1016.851	629.64
1017.143	640.49
1017.435	629.42
1017.727	623.54
1018.018	620.38
1018.31	632.13
1018.602	622.41
1018.893	621.96
1019.185	621.96
1019.476	648.85
1019.767	601.62
1020.058	590.55
1020.35	583.77
1020.641	613.37
1020.932	613.37
1021.223	597.78
1021.514	600.04
1021.804	592.13
1022.095	617.67
1022.386	587.16
1022.677	566.82
1022.967	592.81
1023.258	582.87
1023.548	583.09
1023.839	572.02
1024.129	561.85
1024.419	570.44
1024.709	563.88
1025	550.1
1025.29	570.89
1025.58	555.97
1025.87	547.84
1026.16	548.06
1026.449	573.15
1026.739	545.35
1027.029	544.9
1027.319	545.13
1027.608	538.12
1027.898	565.47
1028.187	543.55
1028.477	542.19
1028.766	536.54
1029.055	534.05
1029.344	537.22
1029.634	529.31
1029.923	520.49
1030.212	500.61
1030.501	547.84
1030.79	512.36
1031.078	505.58
1031.367	517.78
1031.656	508.29
1031.945	501.74
1032.233	517.33
1032.522	524.34
1032.81	503.32
1033.099	510.33
1033.387	489.76
1033.675	510.55
1033.963	502.42
1034.251	504
1034.54	508.52
1034.828	492.47
1035.116	485.69
1035.403	500.61
1035.691	467.16
1035.979	492.02
1036.267	490.67
1036.554	479.37
1036.842	492.92
1037.129	483.89
1037.417	494.73
1037.704	493.6
1037.992	482.08
1038.279	459.71
1038.566	488.41
1038.853	488.41
1039.14	488.41
