Data from blue_chair_FLMS001491_00093.txt Node
Date: Wed Feb 08 10:32:18 GMT 2017
User: dcchb
Spectrometer: FLMS00149
Trigger mode: 0
Integration Time (sec): 2.000000E-2
Scans to average: 10
Electric dark correction enabled: true
Nonlinearity correction enabled: false
Boxcar width: 0
XAxis mode: Wavelengths
Number of Pixels in Spectrum: 2048
>>>>>Begin Spectral Data<<<<<
341.393	-23.22
341.776	-23.22
342.16	-23.22
342.543	-53.73
342.927	-72.26
343.31	-76.78
343.693	-69.09
344.077	-41.07
344.46	-67.51
344.843	-38.59
345.226	-35.65
345.61	-30.68
345.993	-23.45
346.376	-21.41
346.759	8.87
347.142	17.01
347.525	24.46
347.908	67.63
348.291	92.26
348.674	85.93
349.057	108.08
349.44	139.04
349.823	139.49
350.206	163.22
350.588	159.6
350.971	185.81
351.354	214.97
351.737	213.38
352.119	228.07
352.502	229.43
352.884	239.6
353.267	259.48
353.65	266.49
354.032	275.76
354.414	280.28
354.797	300.16
355.179	292.93
355.562	280.28
355.944	300.61
356.326	301.74
356.709	336.32
357.091	306.72
357.473	311.01
357.855	312.36
358.238	317.34
358.62	306.26
359.002	327.73
359.384	318.69
359.766	311.91
360.148	299.03
360.53	315.98
360.912	316.21
361.294	319.82
361.676	300.61
362.057	300.39
362.439	306.72
362.821	303.1
363.203	324.57
363.584	290.44
363.966	300.39
364.348	304.46
364.729	287.05
365.111	304.91
365.493	296.55
365.874	305.13
366.256	285.47
366.637	288.86
367.019	278.47
367.4	257.9
367.781	292.25
368.163	300.61
368.544	292.48
368.925	298.58
369.306	302.87
369.688	277.79
370.069	300.39
370.45	276.89
370.831	286.38
371.212	286.15
371.593	265.36
371.974	282.31
372.355	278.69
372.736	292.03
373.117	302.87
373.498	288.64
373.879	287.96
374.26	267.85
374.641	294.96
375.021	285.92
375.402	299.94
375.783	305.36
376.163	280.73
376.544	288.18
376.925	287.05
377.305	292.7
377.686	291.35
378.066	291.57
378.447	303.1
378.827	283.44
379.208	276.89
379.588	304.23
379.968	285.7
380.349	313.49
380.729	294.74
381.109	300.84
381.489	305.13
381.87	312.14
382.25	294.06
382.63	278.47
383.01	286.38
383.39	287.05
383.77	301.29
384.15	295.42
384.53	289.31
384.91	265.13
385.29	325.02
385.67	306.94
386.049	313.49
386.429	300.39
386.809	313.95
387.189	295.19
387.568	313.72
387.948	291.57
388.328	301.29
388.707	307.17
389.087	317.11
389.466	296.09
389.846	303.33
390.225	321.4
390.605	324.34
390.984	312.59
391.363	302.65
391.743	313.72
392.122	313.27
392.501	316.66
392.881	313.95
393.26	324.79
393.639	315.08
394.018	305.36
394.397	331.12
394.776	333.61
395.155	320.5
395.534	330.44
395.913	331.8
396.292	324.57
396.671	332.25
397.05	329.54
397.429	333.61
397.808	319.6
398.186	330.9
398.565	333.16
398.944	327.28
399.323	319.14
399.701	350.78
400.08	344
400.458	326.38
400.837	339.71
401.215	330.44
401.594	328.64
401.972	360.27
402.351	350.56
402.729	351.91
403.107	346.94
403.486	356.66
403.864	343.55
404.242	352.82
404.62	365.02
404.999	343.78
405.377	367.73
405.755	350.1
406.133	366.83
406.511	339.26
406.889	359.6
407.267	341.97
407.645	357.34
408.023	387.62
408.401	363.66
408.779	367.73
409.156	381.52
409.534	373.61
409.912	384.91
410.29	376.09
410.667	377
411.045	376.09
411.422	399.59
411.8	373.83
412.178	381.97
412.555	385.36
412.933	382.42
413.31	385.58
413.687	396.66
414.065	412.02
414.442	393.94
414.819	413.38
415.197	415.19
415.574	395.75
415.951	389.42
416.328	392.14
416.705	425.13
417.082	412.93
417.46	415.86
417.837	388.97
418.214	420.16
418.591	401.18
418.967	390.55
419.344	429.42
419.721	417.45
420.098	407.5
420.475	418.35
420.852	431.23
421.228	420.16
421.605	417.45
421.982	414.28
422.358	436.66
422.735	426.71
423.111	418.8
423.488	457.67
423.864	432.36
424.241	459.93
424.617	439.14
424.994	452.7
425.37	439.59
425.746	433.04
426.123	453.15
426.499	467.61
426.875	437.56
427.251	468.29
427.627	473.26
428.003	466.71
428.379	452.02
428.756	475.07
429.132	498.12
429.507	500.61
429.883	468.97
430.259	484.11
430.635	474.17
431.011	508.52
431.387	505.13
431.763	495.41
432.138	504.9
432.514	496.09
432.89	522.75
433.265	522.75
433.641	516.43
434.016	520.72
434.392	528.63
434.767	546.26
435.143	545.8
435.518	554.62
435.894	555.07
436.269	553.26
436.644	581.51
437.02	593.26
437.395	580.38
437.77	584.45
438.145	579.48
438.52	592.36
438.895	604.33
439.271	601.17
439.646	604.79
440.021	596.42
440.395	603.2
440.77	622.64
441.145	607.05
441.52	653.15
441.895	671.45
442.27	637.78
442.645	649.3
443.019	657.89
443.394	645.46
443.769	677.55
444.143	658.57
444.518	665.35
444.892	661.28
445.267	708.74
445.641	697.21
446.016	684.78
446.39	676.65
446.764	705.57
447.139	699.47
447.513	703.99
447.887	702.86
448.262	693.37
448.636	729.08
449.01	705.57
449.384	708.29
449.758	711
450.132	737.44
450.506	752.81
450.88	726.37
451.254	742.86
451.628	733.82
452.002	739.92
452.376	754.39
452.75	742.41
453.123	781.73
453.497	791.22
453.871	788.28
454.244	819.24
454.618	773.6
454.992	797.78
455.365	764.33
455.739	804.56
456.112	802.97
456.486	830.32
456.859	816.76
457.232	844.55
457.606	838.23
457.979	852.69
458.352	864.67
458.725	874.16
459.099	882.52
459.472	899.24
459.845	883.88
460.218	883.42
460.591	874.61
460.964	890.2
461.337	908.51
461.71	932.46
462.083	911.22
462.456	920.03
462.829	928.17
463.201	935.4
463.574	940.6
463.947	936.53
464.32	952.8
464.692	959.35
465.065	976.53
465.438	993.7
465.81	974.49
466.183	1012.01
466.555	1001.61
466.928	1006.58
467.3	1005.91
467.672	1027.37
468.045	1057.2
468.417	1038.45
468.789	1034.15
469.161	1015.85
469.534	1052.23
469.906	1081.38
470.278	1084.77
470.65	1074.38
471.022	1120.48
471.394	1101.95
471.766	1129.97
472.138	1125
472.51	1129.97
472.882	1153.02
473.253	1153.02
473.625	1147.6
473.997	1182.4
474.369	1204.09
474.74	1215.39
475.112	1234.15
475.484	1223.98
475.855	1252.23
476.227	1245.9
476.598	1287.03
476.97	1256.75
477.341	1286.35
477.713	1315.73
478.084	1300.81
478.455	1317.08
478.827	1362.96
479.198	1350.53
479.569	1354.82
479.94	1386.01
480.311	1366.12
480.682	1403.64
481.053	1403.64
481.424	1448.83
481.795	1433.47
482.166	1451.09
482.537	1453.8
482.908	1494.93
483.279	1485.67
483.65	1494.93
484.021	1549.85
484.391	1543.74
484.762	1547.59
485.133	1554.14
485.503	1560.24
485.874	1575.61
486.244	1605.44
486.615	1640.47
486.985	1625.78
487.356	1626.91
487.726	1637.53
488.097	1658.54
488.467	1668.26
488.837	1683.85
489.207	1687.47
489.578	1720.46
489.948	1687.47
490.318	1719.11
490.688	1738.99
491.058	1719.56
491.428	1751.42
491.798	1753.91
492.168	1778.99
492.538	1807.92
492.908	1802.49
493.278	1787.13
493.648	1817.41
494.017	1785.55
494.387	1832.78
494.757	1841.82
495.126	1811.31
495.496	1807.92
495.866	1803.85
496.235	1819.22
496.605	1818.31
496.974	1844.53
497.344	1847.92
497.713	1863.06
498.082	1827.13
498.452	1846.56
498.821	1827.13
499.19	1839.78
499.559	1853.12
499.928	1866.45
500.298	1887.01
500.667	1886.33
501.036	1895.6
501.405	1858.76
501.774	1841.59
502.143	1877.52
502.512	1864.19
502.88	1875.49
503.249	1868.71
503.618	1869.16
503.987	1887.69
504.356	1869.84
504.724	1885.43
505.093	1865.54
505.462	1870.74
505.83	1861.02
506.199	1879.78
506.567	1915.26
506.936	1874.81
507.304	1910.29
507.672	1882.94
508.041	1876.84
508.409	1896.96
508.777	1878.43
509.145	1864.87
509.514	1856.28
509.882	1869.61
510.25	1858.76
510.618	1871.42
510.986	1856.05
511.354	1872.1
511.722	1858.76
512.09	1874.58
512.458	1878.88
512.826	1881.36
513.193	1894.02
513.561	1870.06
513.929	1870.06
514.297	1866.22
514.664	1898.31
515.032	1858.09
515.4	1843.17
515.767	1858.09
516.135	1891.08
516.502	1850.4
516.869	1842.04
517.237	1864.41
517.604	1851.53
517.972	1860.35
518.339	1859.44
518.706	1830.97
519.073	1846.56
519.44	1844.08
519.808	1832.55
520.175	1814.02
520.542	1803.62
520.909	1842.04
521.276	1825.77
521.643	1809.27
522.009	1807.24
522.376	1860.8
522.743	1816.96
523.11	1792.55
523.477	1801.37
523.843	1812.66
524.21	1802.27
524.577	1831.19
524.943	1813.79
525.31	1821.7
525.676	1788.94
526.043	1815.15
526.409	1795.04
526.776	1824.19
527.142	1769.95
527.508	1816.73
527.874	1790.74
528.241	1795.49
528.607	1786.68
528.973	1792.33
529.339	1792.33
529.705	1812.44
530.071	1794.13
530.437	1805.66
530.803	1788.26
531.169	1764.53
531.535	1773.12
531.901	1765.89
532.267	1766.79
532.632	1773.8
532.998	1754.59
533.364	1768.37
533.73	1766.79
534.095	1770.18
534.461	1740.8
534.826	1724.98
535.192	1748.94
535.557	1748.49
535.923	1740.35
536.288	1753.23
536.653	1720.24
537.019	1741.48
537.384	1726.79
537.749	1725.89
538.114	1726.79
538.479	1706.68
538.845	1694.93
539.21	1693.57
539.575	1723.18
539.94	1691.31
540.305	1708.71
540.67	1702.61
541.034	1658.54
541.399	1666.45
541.764	1681.37
542.129	1656.06
542.494	1668.49
542.858	1650.63
543.223	1642.73
543.587	1640.92
543.952	1634.59
544.316	1635.72
544.681	1624.42
545.045	1610.41
545.41	1633.91
545.774	1621.26
546.138	1600.92
546.503	1584.65
546.867	1614.48
547.231	1611.31
547.595	1601.37
547.959	1568.15
548.324	1596.4
548.688	1557.53
549.052	1601.37
549.416	1581.48
549.779	1546.46
550.143	1513.24
550.507	1543.07
550.871	1553.69
551.235	1535.38
551.599	1535.61
551.962	1534.03
552.326	1553.46
552.689	1534.03
553.053	1527.7
553.417	1522.05
553.78	1513.91
554.143	1517.08
554.507	1503.52
554.87	1501.26
555.234	1492.67
555.597	1470.98
555.96	1502.39
556.323	1490.86
556.686	1488.6
557.05	1517.3
557.413	1475.5
557.776	1448.61
558.139	1476.4
558.502	1484.99
558.865	1465.55
559.228	1488.6
559.59	1483.41
559.953	1468.49
560.316	1464.65
560.679	1449.06
561.041	1467.36
561.404	1457.65
561.767	1465.78
562.129	1473.01
562.492	1474.59
562.854	1438.44
563.217	1470.98
563.579	1470.07
563.941	1487.48
564.304	1459.68
564.666	1445.22
565.028	1470.07
565.39	1454.71
565.753	1456.74
566.115	1496.51
566.477	1479.11
566.839	1475.72
567.201	1478.66
567.563	1486.57
567.925	1496.06
568.287	1460.58
568.648	1499.9
569.01	1489.73
569.372	1502.39
569.734	1484.54
570.095	1495.61
570.457	1505.55
570.819	1499.68
571.18	1482.96
571.542	1486.35
571.903	1467.14
572.265	1496.29
572.626	1520.69
572.987	1509.62
573.349	1529.73
573.71	1530.86
574.071	1521.37
574.432	1546
574.794	1530.64
575.155	1550.3
575.516	1541.71
575.877	1538.32
576.238	1550.07
576.599	1523.63
576.96	1535.16
577.32	1520.92
577.681	1559.56
578.042	1549.17
578.403	1555.04
578.763	1561.15
579.124	1561.82
579.485	1597.75
579.845	1561.37
580.206	1565.21
580.566	1580.81
580.927	1570.41
581.287	1595.72
581.648	1573.8
582.008	1552.78
582.368	1581.71
582.728	1586.46
583.089	1592.11
583.449	1603.18
583.809	1610.18
584.169	1615.38
584.529	1593.01
584.889	1598.43
585.249	1604.99
585.609	1559.79
585.969	1599.79
586.329	1593.69
586.688	1620.8
587.048	1592.56
587.408	1609.96
587.768	1583.74
588.127	1594.14
588.487	1593.23
588.846	1589.85
589.206	1627.13
589.565	1595.04
589.925	1609.73
590.284	1589.85
590.643	1582.16
591.003	1599.34
591.362	1600.47
591.721	1600.92
592.08	1586
592.44	1613.12
592.799	1601.6
593.158	1594.82
593.517	1577.42
593.876	1615.16
594.235	1597.98
594.593	1609.73
594.952	1589.85
595.311	1594.82
595.67	1586.23
596.029	1623.06
596.387	1590.3
596.746	1604.53
597.104	1624.19
597.463	1610.18
597.822	1596.62
598.18	1572.9
598.538	1572.44
598.897	1602.5
599.255	1551.65
599.613	1604.53
599.972	1591.88
600.33	1589.85
600.688	1592.78
601.046	1570.18
601.404	1586.68
601.762	1599.79
602.12	1612.44
602.478	1601.37
602.836	1596.62
603.194	1576.29
603.552	1582.61
603.91	1539.45
604.268	1569.05
604.625	1609.51
604.983	1577.42
605.341	1570.41
605.698	1584.2
606.056	1606.34
606.413	1597.75
606.771	1592.56
607.128	1592.56
607.485	1579.9
607.843	1586
608.2	1595.04
608.557	1602.95
608.914	1615.16
609.272	1607.92
609.629	1594.14
609.986	1595.95
610.343	1600.01
610.7	1611.54
611.057	1621.93
611.414	1615.83
611.771	1590.52
612.127	1597.98
612.484	1597.75
612.841	1616.51
613.198	1606.57
613.554	1621.48
613.911	1599.34
614.267	1627.13
614.624	1594.14
614.98	1594.59
615.337	1620.8
615.693	1593.69
616.05	1619
616.406	1617.42
616.762	1601.82
617.118	1623.06
617.475	1608.6
617.831	1614.48
618.187	1619
618.543	1619
618.899	1624.42
619.255	1642.27
619.611	1635.27
619.967	1596.17
620.323	1612.44
620.678	1614.48
621.034	1636.4
621.39	1629.84
621.746	1614.25
622.101	1655.15
622.457	1658.32
622.812	1616.74
623.168	1616.96
623.523	1627.81
623.879	1637.75
624.234	1593.23
624.589	1635.49
624.945	1611.54
625.3	1641.6
625.655	1634.59
626.01	1631.88
626.365	1645.44
626.72	1606.12
627.075	1644.31
627.43	1626.45
627.785	1595.49
628.14	1621.03
628.495	1659
628.85	1638.21
629.205	1613.12
629.559	1648.83
629.914	1642.05
630.269	1614.7
630.623	1641.14
630.978	1605.89
631.332	1609.05
631.687	1639.34
632.041	1639.34
632.396	1640.01
632.75	1602.05
633.104	1626
633.459	1635.49
633.813	1628.26
634.167	1643.4
634.521	1648.6
634.875	1618.09
635.229	1571.77
635.583	1605.44
635.937	1620.8
636.291	1661.71
636.645	1646.57
636.999	1632.56
637.352	1644.31
637.706	1599.56
638.06	1643.4
638.413	1606.57
638.767	1615.61
639.121	1615.83
639.474	1616.96
639.828	1606.12
640.181	1620.8
640.534	1627.13
640.888	1635.72
641.241	1618.77
641.594	1588.94
641.947	1643.86
642.301	1611.99
642.654	1612.67
643.007	1593.69
643.36	1618.55
643.713	1605.21
644.066	1621.03
644.419	1587.59
644.771	1598.88
645.124	1601.82
645.477	1578.55
645.83	1604.31
646.182	1606.79
646.535	1586
646.888	1598.43
647.24	1606.57
647.593	1592.11
647.945	1596.17
648.298	1601.37
648.65	1574.25
649.002	1576.06
649.355	1604.53
649.707	1606.12
650.059	1566.79
650.411	1590.98
650.763	1618.77
651.115	1633.91
651.467	1626.68
651.819	1620.35
652.171	1670.52
652.523	1621.48
652.875	1627.13
653.227	1641.37
653.578	1622.39
653.93	1632.33
654.282	1633.01
654.633	1612.9
654.985	1635.27
655.337	1646.57
655.688	1645.89
656.039	1641.6
656.391	1666.45
656.742	1652.44
657.094	1636.85
657.445	1646.11
657.796	1642.5
658.147	1634.59
658.498	1651.76
658.849	1624.42
659.2	1642.27
659.551	1618.55
659.902	1653.57
660.253	1630.75
660.604	1660.35
660.955	1654.7
661.306	1639.56
661.656	1650.63
662.007	1647.92
662.358	1661.26
662.708	1658.77
663.059	1649.96
663.409	1668.94
663.76	1659.9
664.11	1681.14
664.461	1682.72
664.811	1642.05
665.161	1660.8
665.511	1649.5
665.862	1671.2
666.212	1650.18
666.562	1649.05
666.912	1673.91
667.262	1666.45
667.612	1644.76
667.962	1648.83
668.312	1647.02
668.662	1653.35
669.011	1656.06
669.361	1637.53
669.711	1650.86
670.06	1645.44
670.41	1648.6
670.76	1640.24
671.109	1667.58
671.459	1627.58
671.808	1662.16
672.157	1636.17
672.507	1619.45
672.856	1630.97
673.205	1603.63
673.554	1638.43
673.904	1612.22
674.253	1631.88
674.602	1640.92
674.951	1616.06
675.3	1623.52
675.649	1629.39
675.998	1617.42
676.346	1614.25
676.695	1634.14
677.044	1625.1
677.393	1632.1
677.741	1632.56
678.09	1607.7
678.438	1600.47
678.787	1591.65
679.135	1602.27
679.484	1582.84
679.832	1588.26
680.181	1583.97
680.529	1582.61
680.877	1581.26
681.225	1560.92
681.573	1583.74
681.922	1564.76
682.27	1591.43
682.618	1604.53
682.966	1562.95
683.314	1590.98
683.661	1585.78
684.009	1569.28
684.357	1580.58
684.705	1575.38
685.053	1573.35
685.4	1575.61
685.748	1557.53
686.095	1555.5
686.443	1543.97
686.79	1538.32
687.138	1551.88
687.485	1548.49
687.832	1552.11
688.18	1534.03
688.527	1523.63
688.874	1496.29
689.221	1495.61
689.568	1496.97
689.915	1502.84
690.262	1530.19
690.609	1519.34
690.956	1494.48
691.303	1477.98
691.65	1499.45
691.997	1489.06
692.344	1492.67
692.69	1482.28
693.037	1485.89
693.383	1480.7
693.73	1482.05
694.077	1472.79
694.423	1466.23
694.769	1469.17
695.116	1480.47
695.462	1454.03
695.808	1470.3
696.155	1469.62
696.501	1442.73
696.847	1440.7
697.193	1458.32
697.539	1465.33
697.885	1435.95
698.231	1396.63
698.577	1440.02
698.923	1426.01
699.269	1397.31
699.614	1442.96
699.96	1432.79
700.306	1414.03
700.651	1434.37
700.997	1374.03
701.342	1388.04
701.688	1418.1
702.033	1386.01
702.379	1401.6
702.724	1397.31
703.069	1416.74
703.415	1382.62
703.76	1385.1
704.105	1390.98
704.45	1404.31
704.795	1407.25
705.14	1388.27
705.485	1389.4
705.83	1385.33
706.175	1377.42
706.52	1399.57
706.865	1402.05
707.209	1387.59
707.554	1368.83
707.899	1358.44
708.243	1348.04
708.588	1355.28
708.932	1369.96
709.277	1357.08
709.621	1364.54
709.966	1366.57
710.31	1370.19
710.654	1390.98
710.998	1360.25
711.342	1367.48
711.687	1368.38
712.031	1380.59
712.375	1368.83
712.719	1370.64
713.063	1368.83
713.407	1384.43
713.75	1370.19
714.094	1381.72
714.438	1390.08
714.782	1385.78
715.125	1363.86
715.469	1398.44
715.812	1387.14
716.156	1382.84
716.499	1388.49
716.843	1404.54
717.186	1383.97
717.53	1382.62
717.873	1406.8
718.216	1425.56
718.559	1402.28
718.902	1369.74
719.246	1432.11
719.589	1407.25
719.932	1434.82
720.275	1410.41
720.617	1401.83
720.96	1390.3
721.303	1449.28
721.646	1441.83
721.989	1398.44
722.331	1431.88
722.674	1430.98
723.016	1446.8
723.359	1447.02
723.701	1426.23
724.044	1428.95
724.386	1441.83
724.729	1461.26
725.071	1447.93
725.413	1462.39
725.755	1466.46
726.097	1438.66
726.439	1511.2
726.782	1448.15
727.124	1482.73
727.465	1485.89
727.807	1489.96
728.149	1477.31
728.491	1472.56
728.833	1466.01
729.175	1459.45
729.516	1474.59
729.858	1501.49
730.199	1505.78
730.541	1493.58
730.882	1504.2
731.224	1504.2
731.565	1536.29
731.906	1545.33
732.248	1573.8
732.589	1545.55
732.93	1555.27
733.271	1543.97
733.612	1581.94
733.953	1563.18
734.294	1607.7
734.635	1607.7
734.976	1622.39
735.317	1600.01
735.658	1592.11
735.999	1636.17
736.339	1634.59
736.68	1648.37
737.021	1624.87
737.361	1671.42
737.702	1675.04
738.042	1689.28
738.383	1675.27
738.723	1691.76
739.063	1684.98
739.404	1733.57
739.744	1715.94
740.084	1751.87
740.424	1749.39
740.764	1784.19
741.104	1775.38
741.444	1756.39
741.784	1798.2
742.124	1813.12
742.464	1812.21
742.804	1834.81
743.143	1843.62
743.483	1858.99
743.823	1883.85
744.162	1900.12
744.502	1928.82
744.841	1943.51
745.181	1997.07
745.52	2009.5
745.86	2049.72
746.199	2034.58
746.538	2058.31
746.877	2105.09
747.216	2100.79
747.556	2143.95
747.895	2150.73
748.234	2209.94
748.573	2224.86
748.911	2255.36
749.25	2287.68
749.589	2293.33
749.928	2320.45
750.267	2339.2
750.605	2441.57
750.944	2432.08
751.283	2446.55
751.621	2510.95
751.96	2544.17
752.298	2543.49
752.636	2616.03
752.975	2658.07
753.313	2703.94
753.651	2738.74
753.989	2777.16
754.327	2814.45
754.666	2843.37
755.004	2895.8
755.342	2948.91
755.679	2987.1
756.017	3019.86
756.355	3103.7
756.693	3124.72
757.031	3192.74
757.368	3234.55
757.706	3285.17
758.044	3318.61
758.381	3376.01
758.719	3421.44
759.056	3453.98
759.394	3512.05
759.731	3556.57
760.068	3609
760.405	3607.42
760.743	3713.63
761.08	3719.28
761.417	3763.57
761.754	3839.96
762.091	3870.24
762.428	3942.1
762.765	3971.93
763.102	3987.97
763.438	4078.59
763.775	4078.14
764.112	4107.97
764.449	4167.18
764.785	4242.2
765.122	4306.16
765.458	4276.55
765.795	4323.78
766.131	4364.24
766.467	4454.18
766.804	4459.37
767.14	4505.93
767.476	4496.44
767.812	4522.65
768.148	4572.59
768.485	4627.05
768.821	4633.61
769.157	4713.6
769.492	4749.99
769.828	4716.09
770.164	4767.16
770.5	4784.11
770.836	4825.47
771.171	4803.77
771.507	4891.68
771.842	4900.94
772.178	4888.74
772.513	4905.24
772.849	4919.93
773.184	4931.9
773.519	5015.07
773.855	5018.46
774.19	4994.5
774.525	5049.42
774.86	4993.82
775.195	5052.35
775.53	5089.64
775.865	5126.02
776.2	5123.09
776.535	5102.52
776.87	5124.67
777.205	5147.04
777.539	5154.72
777.874	5170.99
778.209	5143.65
778.543	5137.32
778.878	5172.12
779.212	5124.22
779.547	5139.58
779.881	5230.43
780.215	5233.14
780.55	5190.88
780.884	5222.29
781.218	5222.74
781.552	5251.44
781.886	5246.25
782.22	5158.79
782.554	5277.43
782.888	5214.16
783.222	5171.45
783.556	5132.12
783.889	5184.55
784.223	5152.24
784.557	5200.6
784.89	5222.52
785.224	5238.79
785.557	5181.39
785.891	5206.25
786.224	5178.23
786.558	5232.69
786.891	5203.76
787.224	5189.75
787.557	5239.01
787.891	5177.77
788.224	5192.46
788.557	5219.58
788.89	5224.55
789.223	5160.37
789.556	5132.12
789.888	5168.28
790.221	5126.48
790.554	5145.91
790.887	5109.98
791.219	5189.07
791.552	5147.94
791.884	5129.41
792.217	5114.72
792.549	5033.6
792.882	5127.15
793.214	5156.76
793.546	5148.62
793.879	5076.99
794.211	5107.27
794.543	5083.76
794.875	5095.29
795.207	5081.05
795.539	5042.41
795.871	5100.26
796.203	5088.74
796.535	4992.69
796.867	5000.15
797.198	5025.46
797.53	5013.48
797.862	4996.08
798.193	5015.74
798.525	5020.49
798.856	4982.07
799.188	4948.85
799.519	4968.06
799.85	4952.47
800.182	4917.22
800.513	4980.94
800.844	4888.06
801.175	4995.41
801.506	4972.58
801.837	4925.12
802.168	4879.02
802.499	4894.17
802.83	4859.59
803.161	4888.29
803.491	4895.97
803.822	4885.13
804.153	4870.89
804.483	4846.26
804.814	4842.19
805.145	4834.05
805.475	4814.39
805.805	4789.99
806.136	4842.64
806.466	4821.85
806.796	4780.72
807.126	4798.57
807.457	4780.27
807.787	4783.21
808.117	4765.58
808.447	4790.66
808.777	4766.48
809.107	4740.5
809.436	4779.59
809.766	4786.82
810.096	4731.91
810.426	4690.1
810.755	4776.65
811.085	4689.65
811.414	4718.58
811.744	4693.94
812.073	4621.18
812.403	4692.36
812.732	4664.79
813.061	4735.75
813.39	4668.18
813.719	4651.23
814.049	4634.96
814.378	4602.42
814.707	4609.43
815.036	4629.09
815.365	4635.19
815.693	4590.9
816.022	4578.24
816.351	4545.02
816.68	4512.93
817.008	4594.06
817.337	4553.84
817.665	4546.15
817.994	4554.96
818.322	4557.22
818.651	4551.12
818.979	4498.7
819.307	4566.72
819.636	4551.12
819.964	4538.69
820.292	4549.99
820.62	4563.1
820.948	4542.54
821.276	4543.89
821.604	4524.68
821.932	4548.19
822.259	4531.69
822.587	4548.19
822.915	4498.7
823.243	4547.73
823.57	4485.81
823.898	4548.64
824.225	4530.78
824.553	4502.09
824.88	4515.64
825.207	4535.53
825.535	4517.9
825.862	4539.37
826.189	4513.84
826.516	4559.26
826.843	4587.28
827.17	4572.14
827.497	4568.75
827.824	4604.68
828.151	4557.68
828.478	4554.06
828.805	4580.5
829.131	4564
829.458	4498.7
829.785	4493.72
830.111	4571.69
830.438	4546.83
830.764	4557.45
831.09	4541.86
831.417	4512.48
831.743	4542.99
832.069	4586.38
832.395	4529.65
832.722	4614.4
833.048	4581.18
833.374	4540.28
833.7	4546.83
834.026	4540.73
834.351	4533.04
834.677	4562.42
835.003	4570.33
835.329	4536.66
835.654	4542.76
835.98	4541.86
836.306	4516.32
836.631	4501.63
836.956	4530.78
837.282	4500.5
837.607	4486.27
837.932	4505.02
838.258	4491.92
838.583	4504.57
838.908	4486.94
839.233	4460.5
839.558	4480.62
839.883	4452.59
840.208	4471.35
840.533	4394.97
840.858	4465.48
841.182	4398.58
841.507	4430.9
841.832	4426.61
842.156	4378.7
842.481	4446.72
842.805	4399.94
843.13	4424.57
843.454	4415.53
843.778	4377.12
844.103	4410.79
844.427	4364.46
844.751	4369.43
845.075	4319.72
845.399	4307.06
845.723	4330.34
846.047	4350.45
846.371	4267.97
846.695	4267.74
847.019	4259.15
847.343	4216.22
847.666	4192.94
847.99	4224.58
848.313	4227.06
848.637	4225.03
848.96	4180.96
849.284	4179.61
849.607	4171.92
849.931	4144.35
850.254	4134.64
850.577	4091.47
850.9	4062.77
851.223	4104.36
851.546	4073.4
851.869	3987.07
852.192	4030.68
852.515	3980.74
852.838	3990.46
853.161	3998.37
853.483	3968.77
853.806	3994.08
854.129	3964.02
854.451	3902.78
854.774	3949.78
855.096	3921.31
855.419	3888.99
855.741	3893.97
856.063	3877.92
856.385	3870.92
856.708	3872.05
857.03	3833.4
857.352	3840.86
857.674	3850.12
857.996	3807.41
858.318	3842.44
858.64	3819.39
858.961	3791.14
859.283	3781.43
859.605	3839.28
859.926	3784.36
860.248	3782.1
860.57	3758.6
860.891	3769.22
861.212	3727.19
861.534	3765.61
861.855	3684.71
862.176	3712.95
862.498	3722.44
862.819	3732.39
863.14	3711.37
863.461	3659.85
863.782	3680.41
864.103	3696.68
864.424	3695.33
864.745	3674.99
865.065	3663.69
865.386	3684.03
865.707	3658.04
866.027	3695.1
866.348	3666.17
866.668	3653.52
866.989	3651.71
867.309	3609
867.63	3670.47
867.95	3634.31
868.27	3626.63
868.59	3608.55
868.91	3587.53
869.23	3554.77
869.55	3594.99
869.87	3572.39
870.19	3591.83
870.51	3581.88
870.83	3580.75
871.15	3546.63
871.469	3604.48
871.789	3603.35
872.109	3564.03
872.428	3537.82
872.748	3518.61
873.067	3569.68
873.386	3522.68
873.706	3556.35
874.025	3520.64
874.344	3504.6
874.663	3501.89
874.982	3492.39
875.301	3526.52
875.62	3503.02
875.939	3455.33
876.258	3465.05
876.577	3504.37
876.896	3451.72
877.214	3450.14
877.533	3472.73
877.852	3446.75
878.17	3451.04
878.489	3464.15
878.807	3443.81
879.125	3452.17
879.444	3454.88
879.762	3362.23
880.08	3453.07
880.398	3394.32
880.716	3420.98
881.034	3415.56
881.352	3386.41
881.67	3372.17
881.988	3394.77
882.306	3420.53
882.624	3398.39
882.941	3385.05
883.259	3345.28
883.577	3327.2
883.894	3334.43
884.212	3336.24
884.529	3325.39
884.846	3312.74
885.164	3339.86
885.481	3297.82
885.798	3324.71
886.115	3312.06
886.432	3272.29
886.75	3253.76
887.067	3275.22
887.383	3274.77
887.7	3266.64
888.017	3211.5
888.334	3202.23
888.651	3263.02
888.967	3215.57
889.284	3213.08
889.6	3216.92
889.917	3183.25
890.233	3170.14
890.55	3149.8
890.866	3186.19
891.182	3151.39
891.498	3142.35
891.815	3131.05
892.131	3133.76
892.447	3145.51
892.763	3108.68
893.079	3122.23
893.395	3111.39
893.71	3085.85
894.026	3100.09
894.342	3078.85
894.657	3074.78
894.973	3081.33
895.289	3021.9
895.604	3088.56
895.92	3046.98
896.235	3023.48
896.55	3021.67
896.865	3028.23
897.181	2985.97
897.496	3002.92
897.811	2954.56
898.126	3004.72
898.441	2953.65
898.756	2999.53
899.071	2924.5
899.386	2900.09
899.7	2847.44
900.015	2913.43
900.33	2889.47
900.644	2913.88
900.959	2883.37
901.273	2854.9
901.588	2846.08
901.902	2832.98
902.216	2830.49
902.531	2812.19
902.845	2806.08
903.159	2777.84
903.473	2789.36
903.787	2771.96
904.101	2766.31
904.415	2753.88
904.729	2764.5
905.042	2736.71
905.356	2734.22
905.67	2709.14
905.984	2733.09
906.297	2713.66
906.611	2704.62
906.924	2718.63
907.237	2676.6
907.551	2712.08
907.864	2648.12
908.177	2682.02
908.491	2643.38
908.804	2648.57
909.117	2634.79
909.43	2609.48
909.743	2612.42
910.056	2629.14
910.368	2614.23
910.681	2529.26
910.994	2579.88
911.307	2557.73
911.619	2514.34
911.932	2512.98
912.244	2520.67
912.557	2520.67
912.869	2513.66
913.181	2481.35
913.494	2458.52
913.806	2485.19
914.118	2452.2
914.43	2431.18
914.742	2442.7
915.054	2423.27
915.366	2417.85
915.678	2457.17
915.99	2418.98
916.302	2390.73
916.613	2428.24
916.925	2407.68
917.236	2373.33
917.548	2373.55
917.859	2415.13
918.171	2386.21
918.482	2353.21
918.794	2338.75
919.105	2328.36
919.416	2301.24
919.727	2311.41
920.038	2314.35
920.349	2298.75
920.66	2321.13
920.971	2272.09
921.282	2263.5
921.593	2238.42
921.903	2227.12
922.214	2252.2
922.525	2238.42
922.835	2222.37
923.146	2217.63
923.456	2213.56
923.767	2214.91
924.077	2222.37
924.387	2195.03
924.697	2188.47
925.008	2155.48
925.318	2175.14
925.628	2157.06
925.938	2181.02
926.248	2157.06
926.558	2125.2
926.867	2122.71
927.177	2133.33
927.487	2100.34
927.796	2127.91
928.106	2103.28
928.416	2093.79
928.725	2096.27
929.034	2071.64
929.344	2082.04
929.653	2069.15
929.962	2042.04
930.271	2057.18
930.581	2068.25
930.89	2027.12
931.199	2027.35
931.508	2028.93
931.817	2041.36
932.125	2006.56
932.434	2017.63
932.743	1998.2
933.051	1974.02
933.36	1977.41
933.669	1989.38
933.977	1976.95
934.286	1973.56
934.594	1964.3
934.902	1950.29
935.21	1932.21
935.519	1945.99
935.827	1945.99
936.135	1923.85
936.443	1939.67
936.751	1885.66
937.059	1900.35
937.367	1865.09
937.674	1875.94
937.982	1866.9
938.29	1865.54
938.597	1859.44
938.905	1845.21
939.213	1857.41
939.52	1844.53
939.827	1833.91
940.135	1823.06
940.442	1826
940.749	1811.99
941.056	1821.03
941.363	1814.7
941.67	1804.98
941.977	1769.05
942.284	1776.73
942.591	1761.37
942.898	1770.86
943.205	1770.63
943.511	1764.98
943.818	1745.77
944.125	1747.13
944.431	1717.98
944.738	1724.98
945.044	1723.18
945.35	1719.79
945.657	1700.58
945.963	1692.89
946.269	1688.83
946.575	1701.93
946.881	1694.25
947.187	1678.43
947.493	1643.4
947.799	1647.92
948.105	1644.98
948.41	1647.02
948.716	1666.68
949.022	1662.16
949.327	1651.99
949.633	1635.49
949.938	1657.41
950.244	1653.57
950.549	1625.32
950.854	1597.08
951.16	1597.08
951.465	1585.33
951.77	1595.72
952.075	1558.21
952.38	1570.86
952.685	1563.63
952.99	1548.94
953.294	1550.98
953.599	1564.54
953.904	1569.05
954.209	1540.81
954.513	1555.27
954.818	1540.58
955.122	1527.47
955.426	1517.3
955.731	1498.1
956.035	1474.59
956.339	1515.72
956.643	1476.63
956.948	1493.35
957.252	1477.08
957.556	1493.8
957.86	1464.2
958.163	1476.63
958.467	1468.72
958.771	1484.99
959.075	1447.48
959.378	1478.21
959.682	1450.41
959.985	1460.58
960.289	1432.56
960.592	1437.31
960.896	1412.45
961.199	1424.2
961.502	1413.13
961.805	1411.54
962.108	1409.51
962.411	1421.71
962.714	1381.94
963.017	1387.59
963.32	1392.56
963.623	1361.38
963.926	1402.51
964.228	1372
964.531	1388.95
964.833	1383.3
965.136	1363.18
965.438	1372.45
965.741	1348.72
966.043	1333.58
966.345	1332.9
966.648	1323.64
966.95	1351.21
967.252	1335.39
967.554	1340.59
967.856	1302.62
968.158	1299.46
968.46	1331.77
968.761	1303.98
969.063	1305.56
969.365	1293.13
969.666	1280.47
969.968	1247.03
970.269	1280.02
970.571	1279.34
970.872	1272.34
971.174	1243.19
971.475	1270.98
971.776	1267.82
972.077	1233.92
972.378	1247.48
972.679	1243.87
972.98	1209.97
973.281	1246.13
973.582	1231.44
973.883	1235.73
974.183	1202.74
974.484	1182.4
974.785	1200.02
975.085	1209.52
975.386	1214.26
975.686	1198.67
975.986	1200.02
976.287	1215.62
976.587	1169.74
976.887	1170.87
977.187	1195.96
977.487	1199.35
977.787	1181.04
978.087	1173.81
978.387	1155.05
978.687	1156.18
978.987	1165.45
979.286	1160.48
979.586	1182.17
979.885	1141.5
980.185	1123.19
980.484	1107.15
980.784	1119.35
981.083	1112.8
981.382	1112.12
981.682	1125.22
981.981	1120.03
982.28	1122.51
982.579	1082.29
982.878	1103.53
983.177	1077.77
983.475	1103.3
983.774	1123.19
984.073	1073.02
984.372	1106.02
984.67	1084.55
984.969	1065.11
985.267	1066.02
985.566	1052.23
985.864	1069.18
986.162	1059.01
986.461	1051.1
986.759	1058.56
987.057	1060.14
987.355	1015.4
987.653	1038.9
987.951	1033.93
988.249	1039.35
988.547	1030.31
988.844	1024.89
989.142	1026.24
989.44	1031.44
989.737	1012.69
990.035	1002.52
990.332	993.93
990.63	1006.58
990.927	998.67
991.224	974.49
991.521	986.7
991.819	965.45
992.116	969.07
992.413	976.98
992.71	976.3
993.006	981.73
993.303	964.1
993.6	959.13
993.897	964.78
994.193	955.51
994.49	944.89
994.787	976.53
995.083	924.55
995.379	922.29
995.676	937.21
995.972	959.58
996.268	952.12
996.565	945.57
996.861	923.2
997.157	927.49
997.453	935.63
997.749	909.19
998.044	915.06
998.34	929.75
998.636	929.98
998.932	922.07
999.227	905.57
999.523	915.96
999.818	885.91
1000.114	889.3
1000.409	860.6
1000.704	885.68
1001	873.71
1001.295	874.38
1001.59	861.95
1001.885	846.81
1002.18	852.24
1002.475	849.3
1002.77	866.25
1003.065	852.92
1003.359	866.02
1003.654	858.34
1003.949	854.05
1004.243	845.91
1004.538	825.35
1004.832	829.19
1005.127	826.02
1005.421	836.19
1005.715	796.42
1006.009	788.51
1006.304	811.56
1006.598	796.65
1006.892	819.47
1007.186	801.84
1007.48	801.39
1007.773	812.69
1008.067	813.14
1008.361	805.46
1008.655	779.92
1008.948	779.02
1009.242	781.28
1009.535	778.79
1009.829	764.56
1010.122	746.7
1010.415	791.45
1010.708	780.6
1011.001	754.61
1011.295	742.41
1011.588	768.17
1011.881	755.52
1012.173	747.61
1012.466	738.34
1012.759	749.42
1013.052	739.47
1013.344	735.4
1013.637	735.4
1013.93	743.54
1014.222	719.81
1014.514	742.86
1014.807	728.4
1015.099	720.94
1015.391	715.97
1015.683	728.17
1015.976	728.62
1016.268	698.12
1016.56	720.94
1016.851	697.21
1017.143	692.02
1017.435	668.51
1017.727	696.08
1018.018	684.33
1018.31	687.72
1018.602	689.76
1018.893	681.39
1019.185	659.93
1019.476	683.2
1019.767	667.16
1020.058	657.44
1020.35	674.62
1020.641	649.53
1020.932	672.58
1021.223	655.41
1021.514	651.34
1021.804	641.85
1022.095	643.2
1022.386	613.6
1022.677	626.93
1022.967	632.13
1023.258	643.66
1023.548	618.8
1023.839	643.43
1024.129	617.44
1024.419	621.74
1024.709	604.33
1025	611.34
1025.29	607.05
1025.58	618.35
1025.87	617.44
1026.16	616.09
1026.449	597.55
1026.739	608.63
1027.029	618.57
1027.319	596.2
1027.608	593.04
1027.898	605.92
1028.187	596.88
1028.477	566.14
1028.766	589.87
1029.055	598.68
1029.344	584.9
1029.634	557.78
1029.923	591.45
1030.212	576.09
1030.501	572.92
1030.79	577.22
1031.078	574.5
1031.367	555.97
1031.656	541.51
1031.945	566.6
1032.233	546.93
1032.522	549.87
1032.81	535.41
1033.099	548.74
1033.387	535.64
1033.675	576.99
1033.963	542.42
1034.251	543.09
1034.54	552.81
1034.828	541.06
1035.116	542.87
1035.403	550.32
1035.691	550.55
1035.979	540.83
1036.267	537.22
1036.554	532.92
1036.842	540.16
1037.129	524.79
1037.417	541.06
1037.704	523.43
1037.992	498.35
1038.279	513.04
1038.566	505.13
1038.853	505.13
1039.14	505.13
