Data from blue_shiny_book_FLMS001491_00019.txt Node
Date: Wed Feb 08 15:26:37 GMT 2017
User: dcchb
Spectrometer: FLMS00149
Trigger mode: 0
Integration Time (sec): 2.000000E-2
Scans to average: 10
Electric dark correction enabled: true
Nonlinearity correction enabled: false
Boxcar width: 0
XAxis mode: Wavelengths
Number of Pixels in Spectrum: 2048
>>>>>Begin Spectral Data<<<<<
341.393	-3.02
341.776	-3.02
342.16	-3.02
342.543	-69.69
342.927	-77.37
343.31	-63.59
343.693	-64.04
344.077	-71.27
344.46	-50.03
344.843	-62.23
345.226	-50.7
345.61	-35.11
345.993	-10.71
346.376	-18.62
346.759	31.33
347.142	30.65
347.525	38.11
347.908	63.64
348.291	71.55
348.674	95.96
349.057	95.05
349.44	137.99
349.823	148.61
350.206	162.85
350.588	200.14
350.971	237.65
351.354	250.08
351.737	259.12
352.119	265.22
352.502	295.5
352.884	279
353.267	295.73
353.65	302.73
354.032	340.02
354.414	303.41
354.797	327.36
355.179	326.01
355.562	330.75
355.944	361.04
356.326	340.7
356.709	362.39
357.091	355.84
357.473	346.57
357.855	358.1
358.238	368.27
358.62	375.72
359.002	350.64
359.384	352.67
359.766	396.51
360.148	350.19
360.53	354.03
360.912	342.96
361.294	379.34
361.676	357.42
362.057	351.32
362.439	361.26
362.821	358.1
363.203	344.31
363.584	358.55
363.966	363.3
364.348	347.48
364.729	352
365.111	331.88
365.493	366.01
365.874	336.4
366.256	347.48
366.637	348.38
367.019	343.86
367.4	353.35
367.781	352.45
368.163	350.87
368.544	372.56
368.925	343.64
369.306	358.32
369.688	362.39
370.069	364.65
370.45	346.57
370.831	364.43
371.212	360.13
371.593	363.3
371.974	369.4
372.355	365.1
372.736	370.75
373.117	389.06
373.498	366.01
373.879	369.85
374.26	366.01
374.641	359.23
375.021	380.24
375.402	382.28
375.783	386.12
376.163	386.57
376.544	382.73
376.925	374.59
377.305	390.87
377.686	400.36
378.066	398.55
378.447	400.81
378.827	368.95
379.208	395.39
379.588	401.03
379.968	388.38
380.349	415.05
380.729	414.59
381.109	408.94
381.489	416.18
381.87	439.45
382.25	434.03
382.63	419.57
383.01	436.29
383.39	428.6
383.77	438.55
384.15	446.01
384.53	449.39
384.91	459.79
385.29	475.83
385.67	442.84
386.049	457.53
386.429	469.73
386.809	457.53
387.189	474.03
387.568	470.64
387.948	486.23
388.328	491.88
388.707	513.35
389.087	513.57
389.466	513.35
389.846	499.79
390.225	528.94
390.605	533.23
390.984	514.7
391.363	533.46
391.743	537.53
392.122	544.31
392.501	561.71
392.881	548.38
393.26	543.86
393.639	557.41
394.018	587.02
394.397	562.39
394.776	585.66
395.155	601.03
395.534	594.25
395.913	574.59
396.292	615.49
396.671	608.26
397.05	632.67
397.429	621.82
397.808	635.83
398.186	654.59
398.565	646
398.944	654.59
399.323	642.38
399.701	688.48
400.08	671.99
400.458	674.25
400.837	693.23
401.215	678.54
401.594	703.4
401.972	711.76
402.351	723.06
402.729	734.59
403.107	743.85
403.486	726
403.864	756.51
404.242	744.75
404.62	770.74
404.999	789.27
405.377	808.93
405.755	790.18
406.133	778.88
406.511	807.58
406.889	814.81
407.267	834.24
407.645	820.01
408.023	867.46
408.401	867.69
408.779	874.92
409.156	912.89
409.534	922.38
409.912	942.72
410.29	919.89
410.667	928.25
411.045	963.28
411.422	983.17
411.8	984.3
412.178	1020.45
412.555	1013.45
412.933	1019.78
413.31	1057.97
413.687	1075.37
414.065	1084.86
414.442	1111.07
414.819	1089.38
415.197	1140.68
415.574	1128.02
415.951	1175.93
416.328	1143.84
416.705	1159.88
417.082	1189.04
417.46	1197.62
417.837	1236.27
418.214	1249.83
418.591	1261.8
418.967	1271.07
419.344	1288.92
419.721	1303.61
420.098	1291.86
420.475	1344.96
420.852	1310.84
421.228	1352.2
421.605	1382.25
421.982	1365.08
422.358	1389.03
422.735	1429.48
423.111	1426.09
423.488	1489.59
423.864	1465.19
424.241	1526.65
424.617	1511.97
424.994	1510.84
425.37	1503.83
425.746	1516.94
426.123	1578.86
426.499	1573.21
426.875	1611.4
427.251	1624.51
427.627	1685.75
428.003	1721.9
428.379	1723.03
428.756	1758.74
429.132	1760.55
429.507	1799.64
429.883	1801
430.259	1845.52
430.635	1864.72
431.011	1888.23
431.387	1920.99
431.763	1951.05
432.138	1977.04
432.514	2041.44
432.89	2058.62
433.265	2097.26
433.641	2148.11
434.016	2211.61
434.392	2171.61
434.767	2218.61
435.143	2187.2
435.518	2230.59
435.894	2310.14
436.269	2287.76
436.644	2340.42
437.02	2400.3
437.395	2385.84
437.77	2462.68
438.145	2471.26
438.52	2512.17
438.895	2517.14
439.271	2524.82
439.646	2577.25
440.021	2620.19
440.395	2567.08
440.77	2589.68
441.145	2657.25
441.52	2671.26
441.895	2711.93
442.27	2783.57
442.645	2782.67
443.019	2809.56
443.394	2837.58
443.769	2835.55
444.143	2821.99
444.518	2935.88
444.892	2885.04
445.267	2964.36
445.641	2946.5
446.016	2981.98
446.39	2996.22
446.764	3010.91
447.139	3043.45
447.513	3068.31
447.887	3096.56
448.262	3149.89
448.636	3162.32
449.01	3190.79
449.384	3181.53
449.758	3260.39
450.132	3262.65
450.506	3293.39
450.88	3283.9
451.254	3321.18
451.628	3364.35
452.002	3410.22
452.376	3477.79
452.75	3558.24
453.123	3562.76
453.497	3631.68
453.871	3655.41
454.244	3685.69
454.618	3748.52
454.992	3822.19
455.365	3783.54
455.739	3936.53
456.112	3938.79
456.486	3976.76
456.859	4012.24
457.232	4104.67
457.606	4138.79
457.979	4211.56
458.352	4282.51
458.725	4347.37
459.099	4417.65
459.472	4480.7
459.845	4511.21
460.218	4562.51
460.591	4604.99
460.964	4621.94
461.337	4732.9
461.71	4835.95
462.083	4824.42
462.456	4899
462.829	4978.77
463.201	5036.39
463.574	5050.63
463.947	5144.41
464.32	5294.47
464.692	5305.09
465.065	5381.02
465.438	5480.68
465.81	5500.34
466.183	5546.66
466.555	5680.67
466.928	5725.87
467.3	5766.32
467.672	5867.33
468.045	6041.34
468.417	6009.7
468.789	6101.68
469.161	6184.39
469.534	6291.5
469.906	6338.96
470.278	6493.08
470.65	6546.18
471.022	6642.68
471.394	6837.48
471.766	6832.73
472.138	6948.43
472.51	7082.44
472.882	7208.54
473.253	7325.37
473.625	7435.88
473.997	7568.76
474.369	7653.95
474.74	7808.52
475.112	7935.3
475.484	8023.89
475.855	8180.27
476.227	8254.39
476.598	8465.23
476.97	8586.36
477.341	8697.09
477.713	8833.58
478.084	8864.54
478.455	9140.69
478.827	9262.95
479.198	9561.47
479.569	9635.59
479.94	9877.85
480.311	9975.7
480.682	10138.18
481.053	10386.99
481.424	10595.57
481.795	10703.14
482.166	10853.19
482.537	10967.08
482.908	11267.87
483.279	11352.61
483.65	11521.42
484.021	11765.93
484.391	11927.06
484.762	11974.29
485.133	12290.67
485.503	12488.63
485.874	12732.91
486.244	12835.74
486.615	13138.55
486.985	13370.64
487.356	13499.9
487.726	13615.6
488.097	13884.75
488.467	13948.02
488.837	14266.88
489.207	14332.65
489.578	14738.51
489.948	14760.88
490.318	15009.24
490.688	15081.78
491.058	15350.02
491.428	15564.48
491.798	15818.26
492.168	16124.46
492.538	16253.27
492.908	16406.94
493.278	16650.55
493.648	16709.98
494.017	16885.8
494.387	16978.68
494.757	17163.08
495.126	17386.35
495.496	17463.86
495.866	17563.3
496.235	17861.14
496.605	18026.11
496.974	18096.39
497.344	18322.82
497.713	18430.39
498.082	18574.57
498.452	18970.04
498.821	19033.09
499.19	19067.44
499.559	19267.21
499.928	19413.64
500.298	19549.68
500.667	19695.44
501.036	19598.95
501.405	19975.66
501.774	19951.03
502.143	20122.78
502.512	20258.14
502.88	20475.76
503.249	20436.89
503.618	20620.84
503.987	20794.85
504.356	20979.7
504.724	21180.15
505.093	21262.18
505.462	21508.95
505.83	21675.28
506.199	21872.56
506.567	22023.52
506.936	21988.94
507.304	22231.65
507.672	22302.61
508.041	22565.42
508.409	22535.14
508.777	22777.17
509.145	22899.88
509.514	22913.66
509.882	23214.67
510.25	23254.67
510.618	23513.65
510.986	23630.25
511.354	23976.46
511.722	24163.8
512.09	24419.39
512.458	24527.86
512.826	24787.51
513.193	24860.05
513.561	24954.97
513.929	25110.22
514.297	25260.72
514.664	25311.79
515.032	25401.51
515.4	25667.94
515.767	25667.49
516.135	25973.02
516.502	25872.68
516.869	26286
517.237	26516.96
517.604	26589.95
517.972	27040.79
518.339	27176.83
518.706	27272.42
519.073	27567.55
519.44	27783.82
519.808	28151.04
520.175	27965.96
520.542	28370.47
520.909	28456.34
521.276	28472.61
521.643	28726.17
522.009	28858.14
522.376	29003.9
522.743	29262.87
523.11	29548.97
523.477	29729.53
523.843	29917.09
524.21	30325.45
524.577	30513.69
524.943	30804.08
525.31	31006.11
525.676	31488.13
526.043	31655.81
526.409	31908.45
526.776	32333.3
527.142	32353.41
527.508	32493.3
527.874	32779.84
528.241	32845.61
528.607	32838.6
528.973	33156.56
529.339	33087.63
529.705	33295.54
530.071	33425.25
530.437	33740.5
530.803	33962.41
531.169	34163.08
531.535	34159.92
531.901	34441.5
532.267	34764.88
532.632	35002.16
532.998	35316.5
533.364	35630.84
533.73	35908.35
534.095	36097.5
534.461	36149.02
534.826	36372.07
535.192	36393.99
535.557	36641.44
535.923	36441.22
536.288	36571.83
536.653	36707.88
537.019	36579.29
537.384	36729.34
537.749	36977.25
538.114	36986.51
538.479	37074.19
538.845	37341.76
539.21	37263.57
539.575	37732.93
539.94	37822.42
540.305	38250.66
540.67	38316.65
541.034	38534.72
541.399	38900.36
541.764	39007.93
542.129	39046.8
542.494	39101.26
542.858	39226.68
543.223	39236.17
543.587	39400.46
543.952	39302.61
544.316	39185.78
544.681	39190.98
545.045	39363.4
545.41	39611.98
545.774	39418.31
546.138	39534.47
546.503	39546.22
546.867	39670.74
547.231	40250.83
547.595	40273.21
547.959	40549.36
548.324	40738.96
548.688	40903.7
549.052	41078.38
549.416	41335.33
549.779	41222.33
550.143	41358.15
550.507	41508.88
550.871	41697.58
551.235	41504.59
551.599	41796.1
551.962	41703.9
552.326	41697.8
552.689	41950.45
553.053	41528.31
553.417	41674.98
553.78	42079.94
554.143	42025.02
554.507	42196.32
554.87	42371.68
555.234	42876.75
555.597	42811.44
555.96	43026.81
556.323	43443.97
556.686	43509.05
557.05	43748.37
557.413	44012.77
557.776	44222.26
558.139	44513.32
558.502	44425.19
558.865	44589.93
559.228	44599.19
559.59	44676.25
559.953	44686.88
560.316	45059.97
560.679	44825.86
561.041	45064.49
561.404	45004.83
561.767	45426.07
562.129	45249.12
562.492	45615.89
562.854	45560.75
563.217	45533.18
563.579	45854.3
563.941	46227.4
564.304	46455.87
564.666	46719.59
565.028	47022.41
565.39	47110.09
565.753	47505.78
566.115	47629.85
566.477	47850.41
566.839	48039.33
567.201	48087.92
567.563	48026.22
567.925	48253.11
568.287	48093.57
568.648	48087.01
569.01	48240
569.372	48310.74
569.734	48124.07
570.095	48353.9
570.457	48385.31
570.819	48627.11
571.18	48563.16
571.542	48767.9
571.903	48940.78
572.265	49062.13
572.626	49236.13
572.987	49454.21
573.349	49653.3
573.71	49867.98
574.071	50138.94
574.432	50187.3
574.794	50437.91
575.155	50427.97
575.516	50353.62
575.877	50481.53
576.238	50493.05
576.599	50494.41
576.96	50536.67
577.32	50502.99
577.681	50661.41
578.042	50598.13
578.403	50603.1
578.763	50608.08
579.124	50546.16
579.485	50691.92
579.845	50660.05
580.206	50700.73
580.566	50805.59
580.927	50730.11
581.287	51030.21
581.648	50947.95
582.008	51193.37
582.368	51161.96
582.728	51391.33
583.089	51472.46
583.449	51469.07
583.809	51586.36
584.169	51706.35
584.529	51564.21
584.889	51836.97
585.249	51580.71
585.609	51521.72
585.969	51733.92
586.329	51518.56
586.688	51527.37
587.048	51452.8
587.408	51263.65
587.768	51290.54
588.127	51354.27
588.487	51340.49
588.846	51300.04
589.206	51234.05
589.565	51163.99
589.925	51280.6
590.284	51321.05
590.643	51279.24
591.003	51476.53
591.362	51562.85
591.721	51612.12
592.08	51739.12
592.44	51810.08
592.799	51886.46
593.158	51952.22
593.517	51840.59
593.876	52033.58
594.235	51996.74
594.593	52013.46
594.952	52066.12
595.311	51896.18
595.67	51987.93
596.029	52048.49
596.387	52033.12
596.746	51973.92
597.104	51789.97
597.463	51752.68
597.822	51866.8
598.18	51683.08
598.538	51705
598.897	51835.39
599.255	51551.33
599.613	51922.62
599.972	51872.68
600.33	52039.9
600.688	51995.61
601.046	52105.21
601.404	52310.4
601.762	52198.32
602.12	52409.38
602.478	52434.24
602.836	52569.15
603.194	52558.08
603.552	52630.85
603.91	52448.48
604.268	52636.05
604.625	52518.99
604.983	52595.82
605.341	52378.65
605.698	52454.81
606.056	52588.81
606.413	52460
606.771	52629.49
607.128	52592.43
607.485	52249.39
607.843	52348.37
608.2	52590.4
608.557	52592.88
608.914	52469.04
609.272	52752.43
609.629	52670.62
609.986	52762.14
610.343	52531.19
610.7	52821.13
611.057	52811.86
611.414	52913.1
611.771	53039.2
612.127	53094.11
612.484	53132.08
612.841	53264.28
613.198	53202.58
613.554	53282.36
613.911	53527.55
614.267	53380.88
614.624	53479.19
614.98	53632.18
615.337	53518.28
615.693	53515.57
616.05	53422.69
616.406	53582.46
616.762	53390.83
617.118	53399.19
617.475	53356.48
617.831	53399.64
618.187	53432.18
618.543	53425.18
618.899	53529.13
619.255	53431.5
619.611	53365.74
619.967	53551.5
620.323	53545.17
620.678	53513.31
621.034	53488
621.39	53513.54
621.746	53467.89
622.101	53733.64
622.457	53621.56
622.812	53786.07
623.168	53855
623.523	53725.96
623.879	53943.36
624.234	53760.54
624.589	53939.97
624.945	54055.67
625.3	54040.75
625.655	53981.32
626.01	53976.58
626.365	53995.56
626.72	53901.32
627.075	53857.93
627.43	53884.15
627.785	53745.39
628.14	53796.01
628.495	53742.23
628.85	53669.01
629.205	53635.79
629.559	53729.58
629.914	53507.66
630.269	53489.81
630.623	53363.71
630.978	53397.38
631.332	53532.29
631.687	53552.63
632.041	53450.49
632.396	53617.94
632.75	53377.04
633.104	53520.09
633.459	53425.4
633.813	53480.77
634.167	53450.94
634.521	53402.58
634.875	53432.63
635.229	53456.14
635.583	53338.85
635.937	53469.47
636.291	53376.82
636.645	53424.73
636.999	53359.87
637.352	53349.25
637.706	53254.79
638.06	53329.81
638.413	53181.79
638.767	53060.44
639.121	53025.19
639.474	52811.41
639.828	52801.24
640.181	52668.36
640.534	52671.52
640.888	52523.96
641.241	52311.08
641.594	52519.66
641.947	52578.65
642.301	52356.96
642.654	52492.09
643.007	52523.28
643.36	52333.68
643.713	52294.13
644.066	52411.19
644.419	52300.69
644.771	52218.2
645.124	52231.08
645.477	52327.8
645.83	52079
646.182	51738.22
646.535	51630.87
646.888	51507.04
647.24	51251.9
647.593	51391.56
647.945	51371.67
648.298	51362.18
648.65	51166.93
649.002	51045.35
649.355	51209.19
649.707	51183.43
650.059	51426.81
650.411	51810.3
650.763	51867.48
651.115	52050.52
651.467	51801.27
651.819	51680.59
652.171	51682.85
652.523	51577.09
652.875	51502.74
653.227	51348.85
653.578	51585.23
653.93	51462.97
654.282	51356.53
654.633	51194.5
654.985	51339.81
655.337	51321.05
655.688	51254.61
656.039	51441.05
656.391	51175.29
656.742	51373.71
657.094	51304.78
657.445	51662.74
657.796	51611.44
658.147	51516.98
658.498	51550.2
658.849	51723.98
659.2	51682.85
659.551	51423.2
659.902	51652.79
660.253	51611.89
660.604	51715.62
660.955	51641.72
661.306	51613.25
661.656	51530.09
662.007	51472.23
662.358	51413.25
662.708	51362.18
663.059	51328.28
663.409	51139.59
663.76	51238.12
664.11	51158.34
664.461	51036.77
664.811	51034.51
665.161	50994.28
665.511	50810.1
665.862	50920.16
666.212	50923.55
666.562	50808.3
666.912	50875.64
667.262	50763.55
667.612	50964.9
667.962	51066.37
668.312	50977.33
668.662	51109.08
669.011	51168.51
669.361	51147.95
669.711	51110.66
670.06	50964.45
670.41	51067.95
670.76	51126.25
671.109	51241.51
671.459	51220.26
671.808	51145.46
672.157	51282.63
672.507	51067.05
672.856	51114.28
673.205	51079.7
673.554	51163.09
673.904	51007.39
674.253	51141.4
674.602	50952.25
674.951	50381.64
675.3	50074.08
675.649	50608.98
675.998	50402.43
676.346	50380.29
676.695	50358.14
677.044	50063.68
677.393	50123.8
677.741	50094.87
678.09	49892.16
678.438	49920.86
678.787	49805.84
679.135	49795.44
679.484	49528.56
679.832	49844.71
680.181	49760.64
680.529	49705.95
680.877	49781.88
681.225	49674.54
681.573	49898.26
681.922	49737.36
682.27	49751.83
682.618	49888.32
682.966	49788.44
683.314	49843.58
683.661	49896.68
684.009	49583.7
684.357	49791.83
684.705	49668.21
685.053	49618.05
685.4	49651.49
685.748	49457.15
686.095	49492.17
686.443	49172.41
686.79	49128.79
687.138	49202.46
687.485	49046.99
687.832	48839.99
688.18	48769.25
688.527	48600.9
688.874	48479.54
689.221	48221.47
689.568	48075.04
689.915	47933.8
690.262	47961.82
690.609	47739.9
690.956	47494.94
691.303	47435.5
691.65	47229.63
691.997	47262.4
692.344	46935.18
692.69	46939.02
693.037	46959.13
693.383	46503.33
693.73	46883.65
694.077	46623.1
694.423	46679.37
694.769	46666.48
695.116	46703.32
695.462	46580.16
695.808	46609.31
696.155	46654.28
696.501	46470.11
696.847	46515.08
697.193	46198.02
697.539	46518.92
697.885	46084.58
698.231	45951.7
698.577	46176.1
698.923	45981.98
699.269	45818.6
699.614	45465.39
699.96	45436.23
700.306	45366.18
700.651	44997.38
700.997	44951.5
701.342	44655.92
701.688	44598.97
702.033	44373.44
702.379	44323.27
702.724	44070.17
703.069	44244.63
703.415	43620.01
703.76	43620.01
704.105	43434.25
704.45	43303.18
704.795	43079.01
705.14	42848.28
705.485	42710.66
705.83	42604.22
706.175	42636.99
706.52	42514.73
706.865	42462.98
707.209	42483.32
707.554	42479.25
707.899	42573.49
708.243	42335.07
708.588	42364.45
708.932	42254.62
709.277	42136.66
709.621	42305.02
709.966	42184.79
710.31	42387.28
710.654	41990.9
710.998	42106.15
711.342	42181.63
711.687	42070
712.031	41848.98
712.375	41895.54
712.719	41841.53
713.063	41782.55
713.407	41781.42
713.75	41422.55
714.094	41667.52
714.438	41363.8
714.782	41251.94
715.125	41037.03
715.469	41056.91
715.812	40799.97
716.156	40560.88
716.499	40440.89
716.843	40314.56
717.186	40081.57
717.53	40153.89
717.873	39934.23
718.216	39769.94
718.559	39702.15
718.902	39491.53
719.246	39614.47
719.589	39439.56
719.932	39317.53
720.275	39286.11
720.617	39296.74
720.96	39209.73
721.303	39289.05
721.646	39439.78
721.989	39182.39
722.331	39305.1
722.674	39275.04
723.016	39362.27
723.359	39369.05
723.701	39541.02
724.044	39297.19
724.386	39139
724.729	39410.86
725.071	39354.59
725.413	39248.15
725.755	39357.52
726.097	39209.73
726.439	39008.16
726.782	39178.32
727.124	39252.89
727.465	39040.47
727.807	38952.11
728.149	38812.68
728.491	38672.8
728.833	38698.11
729.175	38661.05
729.516	38401.62
729.858	38351.9
730.199	38368.62
730.541	38033.04
730.882	38275.07
731.224	38313.48
731.565	37955.75
731.906	37878.47
732.248	37936.77
732.589	37782.65
732.93	37572.71
733.271	37552.6
733.612	37618.36
733.953	37654.29
734.294	37343.57
734.635	37351.25
734.976	37504.92
735.317	37297.01
735.658	37315.32
735.999	37471.02
736.339	37515.09
736.68	37521.64
737.021	37502.43
737.361	37408.88
737.702	37567.97
738.042	37563.67
738.383	37526.84
738.723	37622.65
739.063	37596.44
739.404	37750.34
739.744	37663.56
740.084	37633.05
740.424	37814.06
740.764	37776.78
741.104	37871.91
741.444	37683.44
741.784	37652.26
742.124	37699.94
742.464	37530.23
742.804	37619.94
743.143	37639.6
743.483	37558.02
743.823	37243.68
744.162	37404.58
744.502	37478.25
744.841	37113.29
745.181	37287.97
745.52	37217.47
745.86	37067.19
746.199	37039.17
746.538	37097.24
746.877	37017.7
747.216	37114.87
747.556	37034.65
747.895	36996.23
748.234	36861.77
748.573	36809.34
748.911	36772.06
749.25	36782.22
749.589	36677.82
749.928	36738.61
750.267	36890.7
750.605	36633.53
750.944	36784.94
751.283	36581.1
751.621	36902.22
751.96	36759.63
752.298	36680.53
752.636	36891.37
752.975	36802.79
753.313	36758.5
753.651	37149.22
753.989	36875.56
754.327	36893.86
754.666	36753.75
755.004	36929.57
755.342	37030.81
755.679	37123.23
756.017	37062.9
756.355	37036
756.693	37021.54
757.031	36995.33
757.368	36970.92
757.706	37003.46
758.044	36890.92
758.381	36939.96
758.719	36803.24
759.056	36968.89
759.394	36743.58
759.731	36658.16
760.068	36677.59
760.405	36563.02
760.743	36430.14
761.08	36737.48
761.417	36397.38
761.754	36332.52
762.091	36380.65
762.428	36107.89
762.765	35977.05
763.102	35938.41
763.438	35896.6
763.775	35635.14
764.112	35659.77
764.449	35683.95
764.785	35591.52
765.122	35344.75
765.458	35442.37
765.795	35304.3
766.131	35303.62
766.467	35138.43
766.804	35062.04
767.14	34916.29
767.476	35094.13
767.812	35005.1
768.148	35032.67
768.485	34826.57
768.821	34787.25
769.157	34652.34
769.492	34657.08
769.828	34607.37
770.164	34391.78
770.5	34423.87
770.836	34516.97
771.171	34272.91
771.507	34184.33
771.842	34063.65
772.178	34144.1
772.513	34002.86
772.849	33961.96
773.184	33852.13
773.519	33992.92
773.855	33657.34
774.19	33526.49
774.525	33539.15
774.86	33466.83
775.195	33391.81
775.53	33254.18
775.865	33202.88
776.2	32984.13
776.535	32790.01
776.87	32843.57
777.205	32657.36
777.539	32430.7
777.874	32369.01
778.209	32213.53
778.543	32070.71
778.878	31723.15
779.212	31774.67
779.547	31710.04
779.881	31761.34
780.215	31503.49
780.55	31482.25
780.884	31182.15
781.218	30978.31
781.552	31076.16
781.886	30911.42
782.22	30655.38
782.554	30597.3
782.888	30432.11
783.222	30298.1
783.556	30200.03
783.889	30253.36
784.223	29956.42
784.557	29949.18
784.89	29921.61
785.224	29774.73
785.557	29540.61
785.891	29667.38
786.224	29635.52
786.558	29698.8
786.891	29339.48
787.224	29318.47
787.557	29232.82
787.891	29130.22
788.224	29277.34
788.557	29055.65
788.89	29041.41
789.223	29129.32
789.556	28889.55
789.888	28803.23
790.221	28845.71
790.554	28552.84
790.887	28637.58
791.219	28419.51
791.552	28493.4
791.884	28317.14
792.217	28189.23
792.549	28121.89
792.882	28027.88
793.214	27867.66
793.546	27879.18
793.879	27713.76
794.211	27549.47
794.543	27698.62
794.875	27500.44
795.207	27533.88
795.539	27237.39
795.871	27235.58
796.203	26900.9
796.535	26895.03
796.867	26827.68
797.198	26761.92
797.53	26655.03
797.862	26487.58
798.193	26435.38
798.525	26271.99
798.856	26255.04
799.188	25864.77
799.519	25841.95
799.85	25649.64
800.182	25756.3
800.513	25738.9
800.844	25465.69
801.175	25543.88
801.506	25523.99
801.837	25441.51
802.168	25356.31
802.499	25195.64
802.83	25281.51
803.161	25247.39
803.491	25167.16
803.822	25046.49
804.153	25011.24
804.483	24754.97
804.814	24844.23
805.145	24705.71
805.475	24788.42
805.805	24616.67
806.136	24686.72
806.466	24707.06
806.796	24658.25
807.126	24477.92
807.457	24445.6
807.787	24453.28
808.117	24374.19
808.447	24338.94
808.777	24473.85
809.107	24268.2
809.436	24192.95
809.766	24179.62
810.096	24024.37
810.426	24018.94
810.755	24074.54
811.085	23841.77
811.414	23907.08
811.744	23676.81
812.073	23638.62
812.403	23684.94
812.732	23519.07
813.061	23525.17
813.39	23260.55
813.719	23152.07
814.049	23325.18
814.378	23096.48
814.707	23031.17
815.036	23126.54
815.365	22897.84
815.693	22690.62
816.022	22703.5
816.351	22651.07
816.68	22361.14
817.008	22498.08
817.337	22326.11
817.665	22273.45
817.994	22174.25
818.322	22137.86
818.651	22103.74
818.979	21944.87
819.307	22016.51
819.636	21896.74
819.964	21818.32
820.292	21878.89
820.62	21883.86
820.948	21821.94
821.276	21891.32
821.604	21717.08
821.932	21761.6
822.259	21861.49
822.587	21869.17
822.915	21781.04
823.243	21981.94
823.57	21943.52
823.898	21807.03
824.225	21716.86
824.553	21853.13
824.88	21934.03
825.207	22021.48
825.535	21979.9
825.862	22097.41
826.189	21997.53
826.516	22059.45
826.843	22197.98
827.17	22211.53
827.497	22163.4
827.824	22115.04
828.151	22164.98
828.478	22187.81
828.805	22281.14
829.131	22052.22
829.458	22114.81
829.785	22007.92
830.111	22209.73
830.438	22174.25
830.764	22134.02
831.09	22201.37
831.417	22040.47
831.743	22108.03
832.069	22226.9
832.395	22060.58
832.722	22032.78
833.048	21919.79
833.374	21898.77
833.7	21828.72
834.026	21788.72
834.351	21931.09
834.677	21821.49
835.003	21855.61
835.329	21770.42
835.654	21609.52
835.98	21565.45
836.306	21485.45
836.631	21374.72
836.956	21484.1
837.282	21362.07
837.607	21207.49
837.932	21176.99
838.258	21190.77
838.583	21100.15
838.908	20924.11
839.233	20964.79
839.558	20896.09
839.883	20831.91
840.208	20774.06
840.533	20786.04
840.858	20923.21
841.182	20847.5
841.507	20800.27
841.832	20660.84
842.156	20706.49
842.481	20706.26
842.805	20647.28
843.13	20550.56
843.454	20569.32
843.778	20400.28
844.103	20387.4
844.427	20412.26
844.751	20389.66
845.075	20362.32
845.399	20410.45
845.723	20221.3
846.047	20184.7
846.371	20055.21
846.695	20227.63
847.019	19972.05
847.343	19967.98
847.666	19857.47
847.99	19902.89
848.313	19934.31
848.637	19800.07
848.96	19822.22
849.284	19812.95
849.607	19628.55
849.931	19573.41
850.254	19326.19
850.577	19275.57
850.9	19218.39
851.223	19182.91
851.546	19075.12
851.869	18872.64
852.192	19048
852.515	18778.4
852.838	18782.7
853.161	18690.27
853.483	18538.41
853.806	18422.71
854.129	18367.34
854.451	18421.8
854.774	18311.07
855.096	18135.26
855.419	18136.39
855.741	17961.7
856.063	17904.08
856.385	17861.14
856.708	17818.2
857.03	17719.22
857.352	17664.31
857.674	17507.03
857.996	17493.24
858.318	17386.35
858.64	17413.24
858.961	17286.92
859.283	17123.08
859.605	17145.23
859.926	17254.83
860.248	17136.19
860.57	16994.95
860.891	17053.48
861.212	16944.1
861.534	16872.47
861.855	16858.46
862.176	16914.27
862.498	16866.82
862.819	16945.68
863.14	16825.69
863.461	16746.37
863.782	16771
864.103	16821.39
864.424	16738.01
864.745	16731.23
865.065	16734.62
865.386	16683.09
865.707	16668.4
866.027	16762.41
866.348	16670.21
866.668	16680.83
866.989	16540.27
867.309	16634.28
867.63	16673.38
867.95	16624.11
868.27	16557.45
868.59	16471.57
868.91	16590.67
869.23	16526.71
869.55	16451.46
869.87	16557.45
870.19	16436.77
870.51	16541.85
870.83	16405.81
871.15	16396.77
871.469	16305.48
871.789	16402.42
872.109	16316.55
872.428	16251.69
872.748	16310.67
873.067	16258.47
873.386	16252.6
873.706	16157.23
874.025	15996.33
874.344	16038.36
874.663	15999.95
874.982	16013.05
875.301	15851.93
875.62	15846.73
875.939	15719.05
876.258	15715.89
876.577	15755.43
876.896	15670.46
877.214	15653.97
877.533	15579.39
877.852	15504.14
878.17	15582.33
878.489	15497.59
878.807	15530.35
879.125	15504.14
879.444	15417.59
879.762	15318.61
880.08	15365.39
880.398	15267.99
880.716	15279.97
881.034	15179.86
881.352	15216.01
881.67	15116.58
881.988	15126.98
882.306	15042.68
882.624	14990.93
882.941	14945.06
883.259	14883.37
883.577	14930.37
883.894	14886.76
884.212	14858.06
884.529	14817.6
884.846	14832.75
885.164	14868.68
885.481	14763.59
885.798	14811.5
886.115	14685.4
886.432	14790.26
886.75	14766.08
887.067	14798.85
887.383	14669.13
887.7	14740.77
888.017	14687.89
888.334	14730.15
888.651	14666.2
888.967	14571.06
889.284	14577.16
889.6	14628.01
889.917	14555.92
890.233	14498.07
890.55	14463.04
890.866	14519.08
891.182	14440.89
891.498	14365.19
891.815	14329.93
892.131	14310.05
892.447	14233.21
892.763	14130.84
893.079	14200.22
893.395	14154.35
893.71	14053.78
894.026	14104.63
894.342	14007.91
894.657	13910.74
894.973	13908.25
895.289	13912.54
895.604	13832.55
895.92	13684.08
896.235	13738.76
896.55	13669.16
896.865	13633
897.181	13483.63
897.496	13520.69
897.811	13411.09
898.126	13298.1
898.441	13261.94
898.756	13235.27
899.071	13120.93
899.386	13136.52
899.7	13039.57
900.015	12973.81
900.33	12827.6
900.644	12791.44
900.959	12775.62
901.273	12710.32
901.588	12643.2
901.902	12567.72
902.216	12565.23
902.531	12529.98
902.845	12487.95
903.159	12293.38
903.473	12394.62
903.787	12295.41
904.101	12202.98
904.415	12221.97
904.729	12138.13
905.042	12010.9
905.356	12010.9
905.67	12017.9
905.984	11973.16
906.297	12034.4
906.611	11923.9
906.924	11863.11
907.237	11860.39
907.551	11768.87
907.864	11751.47
908.177	11758.7
908.491	11758.93
908.804	11716.9
909.117	11668.99
909.43	11656.11
909.743	11600.97
910.056	11564.81
910.368	11507.86
910.681	11507.64
910.994	11514.87
911.307	11445.72
911.619	11357.13
911.932	11389.67
912.244	11222.45
912.557	11307.41
912.869	11193.29
913.181	11238.26
913.494	11226.51
913.806	11121.43
914.118	11081.88
914.43	11027.65
914.742	11044.82
915.054	10963.02
915.366	10940.42
915.678	10874.66
915.99	10859.29
916.302	10747.66
916.613	10735.45
916.925	10733.19
917.236	10640.77
917.548	10593.08
917.859	10538.85
918.171	10564.16
918.482	10493.42
918.794	10411.62
919.105	10363.26
919.416	10158.52
919.727	10271.28
920.038	10182.47
920.349	10050.5
920.66	10059.09
920.971	10012.53
921.282	9919.43
921.593	9897.96
921.903	9731.86
922.214	9788.81
922.525	9681.47
922.835	9645.76
923.146	9573.9
923.456	9576.39
923.767	9450.74
924.077	9463.17
924.387	9472.43
924.697	9400.57
925.008	9280.12
925.318	9265.66
925.628	9268.82
925.938	9196.96
926.248	9092.33
926.558	9074.03
926.867	9031.77
927.177	9048.49
927.487	9004.88
927.796	8914.26
928.106	8885.33
928.416	8895.5
928.725	8835.16
929.034	8851.89
929.344	8815.73
929.653	8726.01
929.962	8639.69
930.271	8688.5
930.581	8579.12
930.89	8530.99
931.199	8601.95
931.508	8601.05
931.817	8581.16
932.125	8556.53
932.434	8594.94
932.743	8528.28
933.051	8393.37
933.36	8341.62
933.669	8365.8
933.977	8394.5
934.286	8376.87
934.594	8331.22
934.902	8283.31
935.21	8303.65
935.519	8257.55
935.827	8213.71
936.135	8202.64
936.443	8182.75
936.751	8186.37
937.059	8126.26
937.367	8092.58
937.674	8158.8
937.982	8091
938.29	8002.87
938.597	8003.55
938.905	7805.36
939.213	7834.29
939.52	7876.54
939.827	7890.56
940.135	7839.26
940.442	7819.37
940.749	7663.44
941.056	7634.29
941.363	7614.63
941.67	7582.77
941.977	7552.49
942.284	7480.62
942.591	7535.31
942.898	7438.82
943.205	7443.34
943.511	7358.37
943.818	7317.46
944.125	7252.15
944.431	7237.01
944.738	7205.83
945.044	7164.92
945.35	7082.21
945.657	7066.17
945.963	7011.48
946.269	6999.28
946.575	7014.42
946.881	6937.36
947.187	6947.08
947.493	6864.82
947.799	6822.33
948.105	6791.38
948.41	6698.5
948.716	6757.93
949.022	6709.8
949.327	6660.76
949.633	6576.01
949.938	6554.32
950.244	6564.71
950.549	6469.35
950.854	6433.87
951.16	6388.9
951.465	6413.98
951.77	6413.08
952.075	6381.22
952.38	6293.31
952.685	6336.02
952.99	6275.91
953.294	6265.97
953.599	6245.85
953.904	6189.58
954.209	6182.13
954.513	6201.79
954.818	6109.59
955.122	6166.76
955.426	6124.05
955.731	6059.87
956.035	6051.28
956.339	6081.56
956.643	6047.89
956.948	5953.21
957.252	6011.73
957.556	5984.84
957.86	5946.65
958.163	5938.29
958.467	5899.65
958.771	5929.48
959.075	5855.81
959.378	5841.57
959.682	5860.78
959.985	5810.84
960.289	5796.82
960.592	5724.28
960.896	5791.85
961.199	5763.83
961.502	5714.79
961.805	5667.79
962.108	5720.67
962.411	5629.37
962.714	5595.7
963.017	5593.21
963.32	5626.89
963.623	5583.27
963.926	5612.88
964.228	5536.94
964.531	5482.71
964.833	5464.18
965.136	5435.25
965.438	5404.74
965.741	5407.23
966.043	5366.1
966.345	5328.81
966.648	5310.06
966.95	5301.24
967.252	5220.34
967.554	5219.89
967.856	5192.32
968.158	5136.73
968.46	5103.51
968.761	5127.92
969.063	5047.24
969.365	5024.87
969.666	5052.21
969.968	4993.68
970.269	4957.98
970.571	4912.33
970.872	4875.04
971.174	4862.16
971.475	4870.97
971.776	4830.75
972.077	4855.38
972.378	4856.51
972.679	4782.84
972.98	4718.21
973.281	4696.51
973.582	4729.28
973.883	4660.36
974.183	4581.04
974.484	4609.29
974.785	4608.38
975.085	4574.26
975.386	4585.11
975.686	4510.76
975.986	4491.77
976.287	4456.75
976.587	4432.34
976.887	4426.69
977.187	4464.88
977.487	4400.25
977.787	4364.77
978.087	4307.15
978.387	4334.04
978.687	4315.51
978.987	4277.99
979.286	4231.44
979.586	4238
979.885	4209.3
980.185	4228.05
980.484	4212.91
980.784	4163.42
981.083	4146.7
981.382	4190.31
981.682	4117.1
981.981	4172.91
982.28	4113.03
982.579	4102.41
982.878	4111.67
983.177	4082.52
983.475	4093.59
983.774	4025.8
984.073	4008.17
984.372	4004.56
984.67	4044.33
984.969	3987.16
985.267	4008.17
985.566	3958.23
985.864	3962.52
986.162	3978.57
986.461	3931.34
986.759	3936.08
987.057	3896.76
987.355	3920.72
987.653	3904.67
987.951	3817.89
988.249	3833.03
988.547	3877.55
988.844	3788.06
989.142	3782.41
989.44	3737.22
989.737	3742.19
990.035	3737.67
990.332	3680.5
990.63	3687.5
990.927	3689.54
991.224	3629.88
991.521	3681.17
991.819	3601.85
992.116	3644.57
992.413	3601.18
992.71	3573.15
993.006	3546.49
993.303	3533.83
993.6	3521.4
993.897	3504.91
994.193	3470.11
994.49	3448.41
994.787	3436.44
995.083	3401.18
995.379	3404.8
995.676	3359.6
995.972	3361.63
996.268	3335.42
996.565	3331.13
996.861	3287.51
997.157	3292.71
997.453	3251.36
997.749	3247.06
998.044	3200.06
998.34	3221.3
998.636	3146.5
998.932	3125.48
999.227	3067.41
999.523	3143.11
999.818	3102.88
1000.114	3072.38
1000.409	3027.86
1000.704	3081.19
1001	2989.67
1001.295	2982.89
1001.59	2961.19
1001.885	2959.39
1002.18	2944.24
1002.475	2948.54
1002.77	2883
1003.065	2880.97
1003.359	2873.29
1003.654	2884.36
1003.949	2851.37
1004.243	2822.89
1004.538	2782.44
1004.832	2813.4
1005.127	2784.02
1005.421	2744.02
1005.715	2746.51
1006.009	2763.23
1006.304	2716.91
1006.598	2677.13
1006.892	2678.94
1007.186	2676.68
1007.48	2645.04
1007.773	2624.93
1008.067	2645.72
1008.361	2630.58
1008.655	2608.21
1008.948	2625.16
1009.242	2612.5
1009.535	2589.9
1009.829	2563.46
1010.122	2553.75
1010.415	2521.88
1010.708	2544.48
1011.001	2525.5
1011.295	2543.8
1011.588	2495.89
1011.881	2484.6
1012.173	2459.74
1012.466	2479.62
1012.759	2424.94
1013.052	2425.16
1013.344	2445.5
1013.637	2383.81
1013.93	2402.34
1014.222	2368.67
1014.514	2398.5
1014.807	2344.94
1015.099	2325.05
1015.391	2327.54
1015.683	2289.8
1015.976	2274.66
1016.268	2288.67
1016.56	2266.75
1016.851	2267.43
1017.143	2268.1
1017.435	2273.3
1017.727	2216.35
1018.018	2154.89
1018.31	2202.8
1018.602	2176.81
1018.893	2128.9
1019.185	2145.17
1019.476	2144.94
1019.767	2129.58
1020.058	2112.18
1020.35	2084.38
1020.641	2063.36
1020.932	2044.16
1021.223	2057.94
1021.514	2038.73
1021.804	2000.99
1022.095	1996.47
1022.386	1970.94
1022.677	1996.92
1022.967	1957.15
1023.258	1947.66
1023.548	1918.51
1023.839	1906.76
1024.129	1906.98
1024.419	1879.19
1024.709	1862.69
1025	1862.92
1025.29	1822.69
1025.58	1852.07
1025.87	1834.9
1026.16	1810.94
1026.449	1790.83
1026.739	1778.63
1027.029	1757.16
1027.319	1730.04
1027.608	1753.54
1027.898	1721.45
1028.187	1719.19
1028.477	1706.76
1028.766	1688.23
1029.055	1671.96
1029.344	1657.95
1029.634	1632.41
1029.923	1623.38
1030.212	1595.35
1030.501	1610.49
1030.79	1574.34
1031.078	1571.85
1031.367	1595.81
1031.656	1545.41
1031.945	1544.28
1032.233	1539.99
1032.522	1526.43
1032.81	1508.12
1033.099	1535.24
1033.387	1506.54
1033.675	1495.92
1033.963	1490.5
1034.251	1472.64
1034.54	1443.72
1034.828	1458.86
1035.116	1457.96
1035.403	1434.91
1035.691	1442.82
1035.979	1407.34
1036.267	1407.79
1036.554	1414.12
1036.842	1366.21
1037.129	1386.09
1037.417	1355.13
1037.704	1350.84
1037.992	1323.5
1038.279	1337.51
1038.566	1316.49
1038.853	1316.49
1039.14	1316.49
