Data from blue_chair_FLMS001491_00027.txt Node
Date: Wed Feb 08 10:30:04 GMT 2017
User: dcchb
Spectrometer: FLMS00149
Trigger mode: 0
Integration Time (sec): 2.000000E-2
Scans to average: 10
Electric dark correction enabled: true
Nonlinearity correction enabled: false
Boxcar width: 0
XAxis mode: Wavelengths
Number of Pixels in Spectrum: 2048
>>>>>Begin Spectral Data<<<<<
341.393	-19.39
341.776	-19.39
342.16	-19.39
342.543	-57.58
342.927	-72.05
343.31	-60.3
343.693	-60.75
344.077	-66.62
344.46	-86.28
344.843	-31.37
345.226	-35.89
345.61	-19.84
345.993	-30.69
346.376	-15.32
346.759	13.38
347.142	38.91
347.525	40.27
347.908	60.38
348.291	72.13
348.674	87.05
349.057	94.96
349.44	130.21
349.823	152.35
350.206	147.84
350.588	170.66
350.971	201.62
351.354	185.12
351.737	239.58
352.119	231.67
352.502	241.17
352.884	257.21
353.267	256.98
353.65	289.53
354.032	261.96
354.414	283.88
354.797	288.4
355.179	301.96
355.562	304.44
355.944	301.73
356.326	321.16
356.709	320.94
357.091	310.09
357.473	315.97
357.855	316.42
358.238	334.04
358.62	313.48
359.002	329.98
359.384	331.56
359.766	333.59
360.148	313.25
360.53	315.97
360.912	310.32
361.294	336.98
361.676	295.4
362.057	306.7
362.439	303.31
362.821	294.72
363.203	320.94
363.584	312.8
363.966	287.94
364.348	310.99
364.729	287.04
365.111	296.53
365.493	289.3
365.874	294.27
366.256	292.69
366.637	299.02
367.019	299.24
367.4	302.18
367.781	285.68
368.163	282.07
368.544	295.4
368.925	272.58
369.306	272.13
369.688	278
370.069	268.96
370.45	284.1
370.831	271.67
371.212	291.11
371.593	307.38
371.974	296.31
372.355	285.91
372.736	292.24
373.117	285.46
373.498	275.06
373.879	294.5
374.26	288.17
374.641	278
375.021	306.93
375.402	271.9
375.783	309.41
376.163	309.64
376.544	296.31
376.925	301.28
377.305	298.57
377.686	314.38
378.066	309.19
378.447	278.68
378.827	296.53
379.208	283.65
379.588	280.04
379.968	304.22
380.349	301.96
380.729	292.01
381.109	317.32
381.489	315.74
381.87	338.34
382.25	298.11
382.63	289.53
383.01	309.19
383.39	329.98
383.77	318
384.15	312.8
384.53	322.07
384.91	294.05
385.29	326.59
385.67	307.38
386.049	321.62
386.429	306.47
386.809	318.45
387.189	315.06
387.568	315.97
387.948	320.71
388.328	344.67
388.707	331.79
389.087	332.24
389.466	327.94
389.846	329.98
390.225	320.94
390.605	327.27
390.984	344.67
391.363	325.91
391.743	352.12
392.122	346.02
392.501	333.82
392.881	344.89
393.26	316.64
393.639	344.89
394.018	344.44
394.397	330.66
394.776	344.44
395.155	370.2
395.534	317.32
395.913	366.81
396.292	349.19
396.671	381.5
397.05	354.16
397.429	340.37
397.808	329.3
398.186	344.67
398.565	380.37
398.944	364.78
399.323	393.25
399.701	371.33
400.08	364.1
400.458	380.82
400.837	374.27
401.215	378.11
401.594	371.78
401.972	378.34
402.351	376.3
402.729	370.88
403.107	367.72
403.486	418.34
403.864	386.92
404.242	406.36
404.62	383.76
404.999	389.41
405.377	401.61
405.755	381.05
406.133	400.94
406.511	420.6
406.889	420.37
407.267	409.98
407.645	424.89
408.023	409.75
408.401	422.63
408.779	422.18
409.156	443.42
409.534	415.62
409.912	437.32
410.29	453.59
410.667	449.07
411.045	428.73
411.422	441.61
411.8	463.08
412.178	453.82
412.555	458.79
412.933	457.43
413.31	459.24
413.687	466.92
414.065	468.5
414.442	471.44
414.819	469.41
415.197	478.45
415.574	488.39
415.951	488.62
416.328	505.79
416.705	508.73
417.082	526.81
417.46	485.91
417.837	494.49
418.214	513.48
418.591	494.49
418.967	507.37
419.344	521.84
419.721	531.1
420.098	518.67
420.475	513.93
420.852	536.75
421.228	554.15
421.605	524.55
421.982	522.29
422.358	554.15
422.735	548.5
423.111	555.96
423.488	569.74
423.864	574.94
424.241	599.35
424.617	581.27
424.994	573.81
425.37	586.24
425.746	593.25
426.123	599.35
426.499	603.87
426.875	607.71
427.251	622.4
427.627	626.01
428.003	623.08
428.379	636.64
428.756	649.06
429.132	641.38
429.507	640.93
429.883	656.3
430.259	661.49
430.635	658.78
431.011	669.63
431.387	684.32
431.763	684.77
432.138	696.97
432.514	673.7
432.89	698.33
433.265	729.51
433.641	720.7
434.016	740.81
434.392	731.32
434.767	763.64
435.143	751.89
435.518	756.86
435.894	785.33
436.269	788.04
436.644	762.96
437.02	778.55
437.395	807.25
437.77	821.26
438.145	831.43
438.52	837.53
438.895	854.26
439.271	844.31
439.646	862.39
440.021	875.5
440.395	879.12
440.77	891.32
441.145	895.16
441.52	905.56
441.895	896.06
442.27	934.48
442.645	935.39
443.019	937.64
443.394	936.06
443.769	940.58
444.143	948.04
444.518	962.05
444.892	957.31
445.267	976.51
445.641	974.48
446.016	986.01
446.39	988.72
446.764	1000.92
447.139	1004.08
447.513	1032.78
447.887	1035.27
448.262	1002.28
448.636	1029.39
449.01	1045.66
449.384	1056.74
449.758	1077.53
450.132	1078.88
450.506	1075.04
450.88	1069.17
451.254	1103.52
451.628	1077.08
452.002	1102.39
452.376	1111.2
452.75	1112.78
453.123	1142.39
453.497	1147.36
453.871	1159.33
454.244	1167.47
454.618	1199.33
454.992	1195.94
455.365	1218.32
455.739	1222.61
456.112	1224.64
456.486	1214.25
456.859	1231.65
457.232	1258.99
457.606	1255.15
457.979	1272.78
458.352	1296.73
458.725	1307.58
459.099	1307.13
459.472	1322.04
459.845	1337.86
460.218	1333.34
460.591	1330.85
460.964	1396.39
461.337	1372.66
461.71	1389.61
462.083	1405.88
462.456	1424.64
462.829	1397.29
463.201	1437.07
463.574	1465.31
463.947	1432.32
464.32	1484.75
464.692	1504.41
465.065	1494.01
465.438	1487.23
465.81	1529.49
466.183	1524.75
466.555	1564.3
466.928	1564.97
467.3	1573.56
467.672	1612.88
468.045	1603.84
468.417	1625.08
468.789	1628.47
469.161	1621.24
469.534	1645.42
469.906	1702.82
470.278	1663.05
470.65	1724.52
471.022	1733.1
471.394	1758.41
471.766	1790.05
472.138	1788.92
472.51	1787.11
472.882	1814.23
473.253	1834.12
473.625	1841.8
473.997	1889.71
474.369	1858.75
474.74	1893.33
475.112	1928.58
475.484	1969.93
475.855	1980.1
476.227	1982.14
476.598	2010.16
476.97	1994.11
477.341	2059.65
477.713	2068.01
478.084	2077.73
478.455	2136.94
478.827	2154.79
479.198	2172.87
479.569	2160.66
479.94	2198.63
480.311	2221
480.682	2270.72
481.053	2300.09
481.424	2336.93
481.795	2331.51
482.166	2336.03
482.537	2360.66
482.908	2392.07
483.279	2396.14
483.65	2453.99
484.021	2474.78
484.391	2509.81
484.762	2470.71
485.133	2467.55
485.503	2494.89
485.874	2582.35
486.244	2560.65
486.615	2626.19
486.985	2607.66
487.356	2651.72
487.726	2649.46
488.097	2684.94
488.467	2672.97
488.837	2659.41
489.207	2714.55
489.578	2761.55
489.948	2792.29
490.318	2833.87
490.688	2768.33
491.058	2761.78
491.428	2803.81
491.798	2813.08
492.168	2877.48
492.538	2840.65
492.908	2876.58
493.278	2867.99
493.648	2884.71
494.017	2871.15
494.387	2879.29
494.757	2890.81
495.126	2898.27
495.496	2910.25
495.866	2909.8
496.235	2906.41
496.605	2941.66
496.974	2883.36
497.344	2922.45
497.713	2903.24
498.082	2896.92
498.452	2947.54
498.821	2938.04
499.19	2936.46
499.559	2888.1
499.928	2968.33
500.298	2944.37
500.667	2938.27
501.036	2947.76
501.405	2955.22
501.774	2962.22
502.143	2883.81
502.512	2958.38
502.88	2919.29
503.249	2957.93
503.618	2930.13
503.987	2929.91
504.356	2929.91
504.724	2908.44
505.093	2918.84
505.462	2899.4
505.83	2914.54
506.199	2922.68
506.567	2942.79
506.936	2896.92
507.304	2943.24
507.672	2949.12
508.041	2896.92
508.409	2919.29
508.777	2914.99
509.145	2926.52
509.514	2917.71
509.882	2915.9
510.25	2894.88
510.618	2922.23
510.986	2858.05
511.354	2900.08
511.722	2897.59
512.09	2906.63
512.458	2897.82
512.826	2839.52
513.193	2909.8
513.561	2902.56
513.929	2899.85
514.297	2945.95
514.664	2900.08
515.032	2896.46
515.4	2907.08
515.767	2873.87
516.135	2871.61
516.502	2858.95
516.869	2880.87
517.237	2921.55
517.604	2875.45
517.972	2862.11
518.339	2859.85
518.706	2829.12
519.073	2817.37
519.44	2861.44
519.808	2849.68
520.175	2801.78
520.542	2838.61
520.909	2851.94
521.276	2820.99
521.643	2814.43
522.009	2823.92
522.376	2821.89
522.743	2807.65
523.11	2799.06
523.477	2845.84
523.843	2823.24
524.21	2845.84
524.577	2865.96
524.943	2836.13
525.31	2804.94
525.676	2854.2
526.043	2821.66
526.409	2847.43
526.776	2826.18
527.142	2876.12
527.508	2852.4
527.874	2843.81
528.241	2821.21
528.607	2847.43
528.973	2871.15
529.339	2828.44
529.705	2874.54
530.071	2853.98
530.437	2831.38
530.803	2883.36
531.169	2830.93
531.535	2843.13
531.901	2870.02
532.267	2871.38
532.632	2856.46
532.998	2873.64
533.364	2872.28
533.73	2861.66
534.095	2864.83
534.461	2879.29
534.826	2890.59
535.192	2875
535.557	2863.47
535.923	2869.8
536.288	2857.37
536.653	2874.32
537.019	2853.75
537.384	2858.5
537.749	2885.16
538.114	2865.28
538.479	2850.14
538.845	2903.02
539.21	2845.84
539.575	2844.49
539.94	2849.68
540.305	2875.45
540.67	2856.92
541.034	2870.25
541.399	2881.55
541.764	2859.18
542.129	2861.44
542.494	2865.05
542.858	2872.06
543.223	2823.02
543.587	2863.92
543.952	2836.35
544.316	2852.62
544.681	2849.46
545.045	2825.73
545.41	2893.98
545.774	2849.01
546.138	2864.15
546.503	2845.17
546.867	2824.83
547.231	2851.27
547.595	2829.35
547.959	2834.09
548.324	2847.88
548.688	2842.91
549.052	2813.98
549.416	2836.58
549.779	2807.43
550.143	2850.59
550.507	2820.31
550.871	2818.05
551.235	2797.48
551.599	2833.41
551.962	2830.48
552.326	2847.43
552.689	2849.91
553.053	2856.46
553.417	2798.61
553.78	2790.7
554.143	2812.4
554.507	2820.53
554.87	2846.07
555.234	2851.94
555.597	2770.37
555.96	2809.91
556.323	2812.17
556.686	2802.45
557.05	2815.34
557.413	2793.42
557.776	2785.51
558.139	2800.19
558.502	2828.22
558.865	2797.71
559.228	2825.73
559.59	2839.97
559.953	2842.45
560.316	2857.82
560.679	2837.03
561.041	2827.54
561.404	2866.63
561.767	2844.94
562.129	2845.62
562.492	2845.62
562.854	2826.18
563.217	2832.96
563.579	2861.66
563.941	2854.88
564.304	2885.16
564.666	2871.61
565.028	2891.49
565.39	2866.41
565.753	2875.45
566.115	2912.06
566.477	2889.68
566.839	2913.64
567.201	2897.59
567.563	2925.84
567.925	2915.45
568.287	2913.19
568.648	2929.23
569.01	2935.33
569.372	2933.3
569.734	2947.31
570.095	2974.2
570.457	2959.51
570.819	2970.81
571.18	2978.72
571.542	2989.79
571.903	2983.01
572.265	2976.69
572.626	3011.26
572.987	2991.38
573.349	3032.28
573.71	3026.86
574.071	3021.43
574.432	3072.05
574.794	3078.83
575.155	3076.35
575.516	3094.42
575.877	3090.81
576.238	3079.28
576.599	3089.68
576.96	3089.45
577.32	3101.43
577.681	3079.96
578.042	3137.81
578.403	3121.99
578.763	3089
579.124	3169.45
579.485	3116.57
579.845	3189.79
580.206	3178.72
580.566	3133.97
580.927	3159.28
581.287	3150.92
581.648	3157.47
582.008	3193.18
582.368	3172.16
582.728	3153.63
583.089	3188.66
583.449	3221.2
583.809	3206.74
584.169	3197.7
584.529	3216.23
584.889	3204.25
585.249	3230.01
585.609	3211.71
585.969	3214.2
586.329	3201.31
586.688	3237.7
587.048	3192.5
587.408	3213.74
587.768	3246.74
588.127	3221.65
588.487	3218.49
588.846	3231.14
589.206	3239.28
589.565	3206.06
589.925	3246.74
590.284	3250.8
590.643	3255.1
591.003	3279.28
591.362	3277.24
591.721	3256.45
592.08	3223.23
592.44	3259.39
592.799	3228.88
593.158	3236.12
593.517	3237.7
593.876	3229.11
594.235	3191.82
594.593	3200.86
594.952	3258.49
595.311	3250.58
595.67	3230.01
596.029	3246.06
596.387	3268.66
596.746	3253.29
597.104	3219.62
597.463	3258.71
597.822	3269.11
598.18	3244.25
598.538	3232.95
598.897	3231.37
599.255	3254.65
599.613	3297.36
599.972	3243.12
600.33	3270.46
600.688	3201.54
601.046	3245.61
601.404	3256.23
601.762	3231.6
602.12	3282.44
602.478	3284.02
602.836	3241.77
603.194	3262.56
603.552	3238.83
603.91	3276.34
604.268	3244.48
604.625	3218.04
604.983	3272.27
605.341	3292.84
605.698	3272.05
606.056	3279.05
606.413	3260.3
606.771	3232.95
607.128	3285.15
607.485	3240.18
607.843	3234.08
608.2	3293.29
608.557	3275.66
608.914	3263.23
609.272	3298.49
609.629	3311.59
609.986	3296.23
610.343	3278.6
610.7	3293.52
611.057	3306.85
611.414	3280.63
611.771	3305.27
612.127	3303.68
612.484	3335.77
612.841	3302.33
613.198	3333.97
613.554	3303.46
613.911	3313.63
614.267	3329.9
614.624	3314.76
614.98	3322.89
615.337	3316.57
615.693	3332.84
616.05	3267.98
616.406	3342.33
616.762	3345.94
617.118	3331.93
617.475	3322.44
617.831	3315.44
618.187	3316.34
618.543	3349.78
618.899	3385.72
619.255	3344.59
619.611	3323.57
619.967	3369.22
620.323	3358.82
620.678	3351.37
621.034	3340.29
621.39	3308.88
621.746	3334.87
622.101	3349.78
622.457	3352.04
622.812	3331.03
623.168	3339.16
623.523	3352.5
623.879	3368.99
624.234	3383.68
624.589	3382.33
624.945	3327.41
625.3	3351.59
625.655	3375.32
626.01	3400.18
626.365	3380.29
626.72	3357.24
627.075	3354.53
627.43	3388.2
627.785	3347.75
628.14	3417.81
628.495	3378.48
628.85	3373.74
629.205	3348.65
629.559	3375.77
629.914	3353.4
630.269	3397.92
630.623	3374.87
630.978	3442.21
631.332	3400.4
631.687	3356.11
632.041	3389.33
632.396	3399.5
632.75	3419.39
633.104	3357.02
633.459	3361.76
633.813	3349.33
634.167	3432.27
634.521	3367.86
634.875	3393.63
635.229	3383.46
635.583	3393.63
635.937	3381.42
636.291	3336
636.645	3369.45
636.999	3346.62
637.352	3388.65
637.706	3355.66
638.06	3371.48
638.413	3356.56
638.767	3404.25
639.121	3397.92
639.474	3358.15
639.828	3364.25
640.181	3354.3
640.534	3385.49
640.888	3373.51
641.241	3367.64
641.594	3358.37
641.947	3362.67
642.301	3376.22
642.654	3359.73
643.007	3365.15
643.36	3336.23
643.713	3366.96
644.066	3380.97
644.419	3366.28
644.771	3323.12
645.124	3342.78
645.477	3319.73
645.83	3303.68
646.182	3348.43
646.535	3338.71
646.888	3316.11
647.24	3318.37
647.593	3307.07
647.945	3306.17
648.298	3315.21
648.65	3284.02
649.002	3284.02
649.355	3320.41
649.707	3337.58
650.059	3331.25
650.411	3381.42
650.763	3414.64
651.115	3434.08
651.467	3413.51
651.819	3439.27
652.171	3424.13
652.523	3432.95
652.875	3449.44
653.227	3438.82
653.578	3428.43
653.93	3450.8
654.282	3471.36
654.633	3423.23
654.985	3427.75
655.337	3444.25
655.688	3412.61
656.039	3485.37
656.391	3446.05
656.742	3487.18
657.094	3497.35
657.445	3494.19
657.796	3464.81
658.147	3524.7
658.498	3472.04
658.849	3505.03
659.2	3478.59
659.551	3486.5
659.902	3525.15
660.253	3517.46
660.604	3571.47
660.955	3433.17
661.306	3492.15
661.656	3498.03
662.007	3485.83
662.358	3508.2
662.708	3540.51
663.059	3515.2
663.409	3500.97
663.76	3567.41
664.11	3546.84
664.461	3521.53
664.811	3529.44
665.161	3533.06
665.511	3504.13
665.862	3527.18
666.212	3526.5
666.562	3551.81
666.912	3542.32
667.262	3517.92
667.612	3566.5
667.962	3535.54
668.312	3555.43
668.662	3546.62
669.011	3566.28
669.361	3569.67
669.711	3559.72
670.06	3582.77
670.41	3537.35
670.76	3543.23
671.109	3495.32
671.459	3499.16
671.808	3535.54
672.157	3498.26
672.507	3458.26
672.856	3513.17
673.205	3481.08
673.554	3475.88
673.904	3480.63
674.253	3561.53
674.602	3434.53
674.951	3421.65
675.3	3420.07
675.649	3462.78
675.998	3431.59
676.346	3449.67
676.695	3475.88
677.044	3414.64
677.393	3399.95
677.741	3400.18
678.09	3421.42
678.438	3418.71
678.787	3421.87
679.135	3437.24
679.484	3406.28
679.832	3411.48
680.181	3347.75
680.529	3366.28
680.877	3376.9
681.225	3321.31
681.573	3373.29
681.922	3331.25
682.27	3333.74
682.618	3354.98
682.966	3333.51
683.314	3348.65
683.661	3324.47
684.009	3275.89
684.357	3311.37
684.705	3265.04
685.053	3308.66
685.4	3282.22
685.748	3256.23
686.095	3238.83
686.443	3254.42
686.79	3242.67
687.138	3262.33
687.485	3231.82
687.832	3176.23
688.18	3207.64
688.527	3176.46
688.874	3194.99
689.221	3166.51
689.568	3161.32
689.915	3171.94
690.262	3147.98
690.609	3141.43
690.956	3147.3
691.303	3106.4
691.65	3093.75
691.997	3103.24
692.344	3057.14
692.69	3033.63
693.037	3107.76
693.383	3076.57
693.73	3051.26
694.077	3027.76
694.423	3023.47
694.769	3024.37
695.116	3033.86
695.462	3016.23
695.808	3009.45
696.155	3011.94
696.501	2986.63
696.847	2976.91
697.193	2950.02
697.539	2947.99
697.885	2937.59
698.231	2976.46
698.577	2968.1
698.923	2898.72
699.269	2949.57
699.614	2897.59
699.96	2885.62
700.306	2886.97
700.651	2891.94
700.997	2911.38
701.342	2888.33
701.688	2887.88
702.033	2875.9
702.379	2889.46
702.724	2842.91
703.069	2879.29
703.415	2838.16
703.76	2811.72
704.105	2843.81
704.45	2814.21
704.795	2830.48
705.14	2828.89
705.485	2788.9
705.83	2799.52
706.175	2805.84
706.52	2788.9
706.865	2766.52
707.209	2818.27
707.554	2845.84
707.899	2825.28
708.243	2795.45
708.588	2765.85
708.932	2750.48
709.277	2791.16
709.621	2789.57
709.966	2788.22
710.31	2790.03
710.654	2804.94
710.998	2785.51
711.342	2764.04
711.687	2779.63
712.031	2777.6
712.375	2775.11
712.719	2776.69
713.063	2775.34
713.407	2813.08
713.75	2768.56
714.094	2797.93
714.438	2784.83
714.782	2764.72
715.125	2781.21
715.469	2806.97
715.812	2769.69
716.156	2783.02
716.499	2824.37
716.843	2820.31
717.186	2773.75
717.53	2841.55
717.873	2837.93
718.216	2805.17
718.559	2819.63
718.902	2776.92
719.246	2821.89
719.589	2823.47
719.932	2806.75
720.275	2827.99
720.617	2798.84
720.96	2804.71
721.303	2840.42
721.646	2823.24
721.989	2819.4
722.331	2878.61
722.674	2871.61
723.016	2847.2
723.359	2884.26
723.701	2873.41
724.044	2867.76
724.386	2907.31
724.729	2944.6
725.071	2908.67
725.413	2925.39
725.755	2941.89
726.097	2925.62
726.439	2920.42
726.782	2943.02
727.124	2946.86
727.465	2989.12
727.807	2905.28
728.149	2980.3
728.491	2988.44
728.833	2964.03
729.175	3007.65
729.516	2987.99
729.858	3051.26
730.199	3033.41
730.541	3045.39
730.882	3116.8
731.224	3125.16
731.565	3088.32
731.906	3142.33
732.248	3129
732.589	3099.17
732.93	3144.59
733.271	3148.66
733.612	3166.06
733.953	3177.13
734.294	3185.5
734.635	3193.4
734.976	3244.48
735.317	3214.42
735.658	3242.67
735.999	3270.01
736.339	3304.14
736.68	3340.97
737.021	3305.04
737.361	3346.17
737.702	3380.07
738.042	3357.02
738.383	3424.81
738.723	3407.18
739.063	3439.73
739.404	3432.72
739.744	3469.33
740.084	3505.71
740.424	3555.88
740.764	3556.11
741.104	3579.38
741.444	3602.89
741.784	3624.35
742.124	3688.53
742.464	3700.06
742.804	3741.19
743.143	3788.64
743.483	3813.28
743.823	3809.66
744.162	3865.7
744.502	3950.22
744.841	3922.43
745.181	3967.85
745.52	3976.21
745.86	4062.99
746.199	4115.87
746.538	4159.71
746.877	4213.26
747.216	4218.24
747.556	4288.07
747.895	4347.95
748.234	4413.26
748.573	4438.12
748.911	4495.07
749.25	4542.97
749.589	4544.56
749.928	4654.16
750.267	4686.47
750.605	4779.13
750.944	4813.93
751.283	4836.07
751.621	4958.56
751.96	5003.07
752.298	5055.73
752.636	5169.4
752.975	5199.91
753.313	5280.13
753.651	5364.42
753.989	5431.99
754.327	5479.22
754.666	5504.98
755.004	5643.06
755.342	5704.98
755.679	5792.43
756.017	5772.32
756.355	5932.99
756.693	5962.15
757.031	6082.59
757.368	6158.3
757.706	6195.13
758.044	6274
758.381	6301.35
758.719	6390.61
759.056	6488.69
759.394	6555.8
759.731	6611.62
760.068	6739.75
760.405	6774.1
760.743	6907.43
761.08	6949.92
761.417	7000.99
761.754	7052.96
762.091	7160.76
762.428	7195.56
762.765	7258.16
763.102	7315.78
763.438	7416.12
763.775	7425.38
764.112	7525.72
764.449	7590.8
764.785	7651.37
765.122	7605.72
765.458	7691.14
765.795	7716.9
766.131	7828.09
766.467	7913.28
766.804	7920.06
767.14	7874.41
767.476	7955.54
767.812	8037.12
768.148	8110.11
768.485	8183.1
768.821	8098.59
769.157	8235.08
769.492	8212.26
769.828	8325.25
770.164	8326.83
770.5	8362.53
770.836	8414.06
771.171	8471.91
771.507	8408.86
771.842	8433.72
772.178	8488.18
772.513	8492.25
772.849	8482.76
773.184	8552.36
773.519	8574.96
773.855	8577.44
774.19	8563.88
774.525	8631.23
774.86	8649.76
775.195	8669.87
775.53	8740.6
775.865	8703.54
776.2	8711.9
776.535	8699.93
776.87	8777.66
777.205	8741.06
777.539	8699.7
777.874	8809.3
778.209	8732.02
778.543	8771.11
778.878	8793.94
779.212	8761.39
779.547	8728.17
779.881	8809.3
780.215	8871.22
780.55	8850.66
780.884	8812.69
781.218	8874.84
781.552	8873.93
781.886	8800.71
782.22	8847.04
782.554	8859.92
782.888	8842.52
783.222	8755.29
783.556	8834.39
783.889	8744.9
784.223	8761.17
784.557	8779.92
784.89	8885.23
785.224	8782.41
785.557	8789.64
785.891	8772.47
786.224	8770.66
786.558	8818.12
786.891	8729.98
787.224	8691.57
787.557	8668.06
787.891	8720.94
788.224	8694.05
788.557	8806.36
788.89	8730.21
789.223	8734.28
789.556	8692.7
789.888	8744.45
790.221	8754.61
790.554	8636.43
790.887	8645.24
791.219	8676.65
791.552	8646.37
791.884	8571.57
792.217	8678.68
792.549	8662.64
792.882	8581.51
793.214	8582.87
793.546	8639.59
793.879	8558.69
794.211	8602.53
794.543	8585.81
794.875	8516.65
795.207	8625.58
795.539	8588.74
795.871	8616.99
796.203	8471.68
796.535	8485.47
796.867	8467.16
797.198	8481.18
797.53	8526.15
797.862	8398.01
798.193	8495.64
798.525	8414.74
798.856	8456.09
799.188	8400.05
799.519	8426.04
799.85	8350.78
800.182	8355.75
800.513	8375.19
800.844	8289.32
801.175	8365.92
801.506	8360.05
801.837	8371.12
802.168	8324.12
802.499	8297.45
802.83	8276.43
803.161	8242.31
803.491	8268.75
803.822	8288.64
804.153	8260.16
804.483	8202.09
804.814	8238.24
805.145	8191.24
805.475	8202.09
805.805	8210.45
806.136	8200.96
806.466	8134.52
806.796	8174.97
807.126	8131.13
807.457	8133.39
807.787	8061.3
808.117	8069.66
808.447	8021.53
808.777	8082.54
809.107	8046.61
809.436	8075.31
809.766	8030.57
810.096	8012.49
810.426	7981.53
810.755	7970.91
811.085	7958.03
811.414	7951.47
811.744	7891.81
812.073	7946.05
812.403	7906.73
812.732	7915.54
813.061	7914.41
813.39	7909.44
813.719	7890.91
814.049	7929.78
814.378	7898.14
814.707	7823.11
815.036	7894.98
815.365	7779.05
815.693	7807.29
816.022	7838.71
816.351	7739.73
816.68	7769.56
817.008	7768.65
817.337	7645.04
817.665	7690.24
817.994	7661.08
818.322	7775.21
818.651	7703.34
818.979	7694.53
819.307	7742.66
819.636	7647.98
819.964	7664.02
820.292	7676.45
820.62	7697.24
820.948	7674.42
821.276	7690.01
821.604	7675.55
821.932	7708.54
822.259	7740.63
822.587	7699.73
822.915	7649.33
823.243	7730.91
823.57	7660.18
823.898	7648.2
824.225	7726.62
824.553	7665.38
824.88	7665.38
825.207	7679.16
825.535	7696.79
825.862	7661.08
826.189	7683.23
826.516	7670.58
826.843	7736.34
827.17	7806.39
827.497	7710.57
827.824	7756.9
828.151	7782.21
828.478	7750.57
828.805	7812.94
829.131	7772.95
829.458	7687.75
829.785	7750.8
830.111	7732.95
830.438	7798.26
830.764	7745.38
831.09	7744.47
831.417	7714.19
831.743	7775.66
832.069	7810.68
832.395	7792.15
832.722	7791.02
833.048	7720.52
833.374	7737.47
833.7	7690.46
834.026	7707.41
834.351	7736.79
834.677	7714.19
835.003	7734.53
835.329	7776.56
835.654	7716.45
835.98	7672.83
836.306	7745.38
836.631	7685.49
836.956	7774.75
837.282	7739.5
837.607	7632.84
837.932	7675.55
838.258	7728.2
838.583	7689.56
838.908	7671.48
839.233	7636
839.558	7606.17
839.883	7614.53
840.208	7585.83
840.533	7570.69
840.858	7607.98
841.182	7535.44
841.507	7580.41
841.832	7508.55
842.156	7570.69
842.481	7526.4
842.805	7479.39
843.13	7449.79
843.454	7469
843.778	7362.56
844.103	7400.53
844.427	7390.36
844.751	7439.85
845.075	7483.69
845.399	7350.58
845.723	7390.13
846.047	7359.62
846.371	7290.02
846.695	7301.09
847.019	7234.43
847.343	7266.52
847.666	7162.79
847.99	7171.38
848.313	7155.56
848.637	7139.29
848.96	7100.65
849.284	7144.94
849.607	7067.43
849.931	7009.58
850.254	6976.58
850.577	6939.75
850.9	6885.29
851.223	6899.52
851.546	6868.34
851.869	6783.37
852.192	6935.68
852.515	6838.05
852.838	6739.98
853.161	6752.41
853.483	6686.19
853.806	6680.32
854.129	6774.33
854.451	6714.22
854.774	6721
855.096	6692.3
855.419	6652.52
855.741	6661.34
856.063	6574.33
856.385	6574.33
856.708	6549.7
857.03	6580.21
857.352	6540.44
857.674	6491.62
857.996	6490.49
858.318	6448.69
858.64	6488.23
858.961	6422.02
859.283	6444.39
859.605	6412.76
859.926	6360.33
860.248	6350.61
860.57	6345.86
860.891	6334.57
861.212	6300.44
861.534	6305.64
861.855	6317.39
862.176	6346.09
862.498	6271.06
862.819	6237.39
863.14	6266.32
863.461	6259.54
863.782	6229.26
864.103	6253.21
864.424	6264.96
864.745	6226.32
865.065	6206.88
865.386	6197.17
865.707	6196.04
866.027	6164.85
866.348	6216.38
866.668	6189.94
866.989	6116.94
867.309	6085.76
867.63	6099.54
867.95	6067.45
868.27	6093.67
868.59	6146.1
868.91	6075.59
869.23	6026.78
869.55	6051.86
869.87	6061.58
870.19	6040.56
870.51	6085.31
870.83	6056.61
871.15	6011.86
871.469	6006.89
871.789	6043.73
872.109	6012.99
872.428	5970.73
872.748	5986.55
873.067	5996.04
873.386	5978.64
873.706	5999.88
874.025	5948.59
874.344	5894.35
874.663	5995.59
874.982	5865.2
875.301	5994.01
875.62	5872.66
875.939	5863.62
876.258	5895.71
876.577	5893.22
876.896	5869.49
877.214	5832.66
877.533	5832.88
877.852	5831.08
878.17	5854.8
878.489	5838.98
878.807	5752.21
879.125	5839.89
879.444	5845.09
879.762	5751.3
880.08	5786.56
880.398	5768.93
880.716	5742.26
881.034	5760.12
881.352	5716.95
881.67	5754.47
881.988	5699.78
882.306	5695.71
882.624	5712.21
882.941	5656.39
883.259	5632.89
883.577	5603.96
883.894	5624.08
884.212	5634.7
884.529	5604.87
884.846	5558.54
885.164	5598.77
885.481	5563.29
885.798	5613.91
886.115	5544.08
886.432	5563.74
886.75	5520.58
887.067	5531.87
887.383	5469.28
887.7	5517.86
888.017	5494.14
888.334	5463.63
888.651	5487.13
888.967	5448.49
889.284	5422.5
889.6	5448.49
889.917	5340.69
890.233	5380.92
890.55	5365.33
890.866	5337.3
891.182	5303.63
891.498	5313.12
891.815	5319
892.131	5287.13
892.447	5304.08
892.763	5240.58
893.079	5248.04
893.395	5193.8
893.71	5204.88
894.026	5203.75
894.342	5130.53
894.657	5152.68
894.973	5147.48
895.289	5129.85
895.604	5092.11
895.92	5126.91
896.235	5115.61
896.55	5081.94
896.865	5095.95
897.181	5047.82
897.496	5047.37
897.811	4985.67
898.126	4999.01
898.441	4943.64
898.756	4977.09
899.071	4927.82
899.386	4920.36
899.7	4901.16
900.015	4871.78
900.33	4867.49
900.644	4823.64
900.959	4890.99
901.273	4792.46
901.588	4807.6
901.902	4758.34
902.216	4762.4
902.531	4783.87
902.845	4729.86
903.159	4695.96
903.473	4707.72
903.787	4698.22
904.101	4655.51
904.415	4652.58
904.729	4657.77
905.042	4660.94
905.356	4547.27
905.67	4542.07
905.984	4605.12
906.297	4555.4
906.611	4539.36
906.924	4471.56
907.237	4470.21
907.551	4513.37
907.864	4468.63
908.177	4458
908.491	4452.35
908.804	4398.57
909.117	4385.01
909.43	4342.53
909.743	4396.08
910.056	4365.8
910.368	4319.48
910.681	4275.86
910.994	4343.43
911.307	4336.88
911.619	4225.92
911.932	4275.86
912.244	4253.72
912.557	4219.37
912.869	4200.61
913.181	4191.8
913.494	4166.94
913.806	4131.01
914.118	4153.61
914.43	4109.76
914.742	4083.55
915.054	4083.78
915.366	4033.16
915.678	4037.22
915.99	4050.56
916.302	3992.93
916.613	3989.99
916.925	3979.15
917.236	3974.4
917.548	3947.28
917.859	3928.53
918.171	3957.45
918.482	3919.04
918.794	3854.86
919.105	3930.56
919.416	3859.38
919.727	3830.9
920.038	3872.26
920.349	3770.11
920.66	3790
920.971	3772.15
921.282	3788.42
921.593	3748.87
921.903	3749.1
922.214	3760.85
922.525	3697.12
922.835	3674.52
923.146	3684.24
923.456	3704.8
923.767	3642.21
924.077	3663
924.387	3646.05
924.697	3613.28
925.008	3608.99
925.318	3626.61
925.628	3573.96
925.938	3569.67
926.248	3571.25
926.558	3537.35
926.867	3527.41
927.177	3518.59
927.487	3475.21
927.796	3463
928.106	3439.5
928.416	3447.41
928.725	3476.79
929.034	3448.77
929.344	3420.07
929.653	3420.29
929.962	3376.68
930.271	3406.73
930.581	3333.29
930.89	3351.59
931.199	3356.56
931.508	3301.42
931.817	3316.11
932.125	3298.71
932.434	3276.11
932.743	3274.76
933.051	3269.56
933.36	3252.16
933.669	3183.69
933.977	3257.36
934.286	3191.82
934.594	3201.31
934.902	3180.75
935.21	3162.9
935.519	3163.8
935.827	3169.22
936.135	3115.89
936.443	3112.05
936.751	3116.8
937.059	3111.82
937.367	3085.61
937.674	3079.74
937.982	3057.36
938.29	3076.57
938.597	3043.58
938.905	3039.74
939.213	3008.55
939.52	3018.72
939.827	2996.12
940.135	3009
940.442	2937.37
940.749	2929
941.056	2936.01
941.363	2900.98
941.67	2936.01
941.977	2899.63
942.284	2878.84
942.591	2878.61
942.898	2855.33
943.205	2844.71
943.511	2852.17
943.818	2838.61
944.125	2791.38
944.431	2808.78
944.738	2796.8
945.044	2816.92
945.35	2778.05
945.657	2753.64
945.963	2782.34
946.269	2742.34
946.575	2741.21
946.881	2719.29
947.187	2738.28
947.493	2723.13
947.799	2694.66
948.105	2668.45
948.41	2692.85
948.716	2657.6
949.022	2615.34
949.327	2662.35
949.633	2602.69
949.938	2593.87
950.244	2642.23
950.549	2581.9
950.854	2628.45
951.16	2589.58
951.465	2536.02
951.77	2557.26
952.075	2553.87
952.38	2550.03
952.685	2514.33
952.99	2503.71
953.294	2534.21
953.599	2508.9
953.904	2505.97
954.209	2478.85
954.513	2464.16
954.818	2447.89
955.122	2456.7
955.426	2402.01
955.731	2401.34
956.035	2404.95
956.339	2418.51
956.643	2396.36
956.948	2392.75
957.252	2370.38
957.556	2346.2
957.86	2342.13
958.163	2338.51
958.467	2331.73
958.771	2337.38
959.075	2342.81
959.378	2326.99
959.682	2328.79
959.985	2296.25
960.289	2302.13
960.592	2256.03
960.896	2309.13
961.199	2270.04
961.502	2261.68
961.805	2236.59
962.108	2253.54
962.411	2227.55
962.714	2206.09
963.017	2213.32
963.32	2188.23
963.623	2190.04
963.926	2181.68
964.228	2163.38
964.531	2154.34
964.833	2160.44
965.136	2136.71
965.438	2131.06
965.741	2131.96
966.043	2123.38
966.345	2093.77
966.648	2129.48
966.95	2128.12
967.252	2059.42
967.554	2069.59
967.856	2071.17
968.158	2068.69
968.46	2054.68
968.761	2017.16
969.063	2022.14
969.365	2009.03
969.666	2042.7
969.968	1983.95
970.269	2051.06
970.571	1972.65
970.872	2007.45
971.174	1968.58
971.475	1975.36
971.776	1984.85
972.077	1966.09
972.378	1941.91
972.679	1962.02
972.98	1928.58
973.281	1890.16
973.582	1916.83
973.883	1898.52
974.183	1890.16
974.484	1898.52
974.785	1861.24
975.085	1897.17
975.386	1857.17
975.686	1853.33
975.986	1849.26
976.287	1863.04
976.587	1834.57
976.887	1840.22
977.187	1813.55
977.487	1814.46
977.787	1796.15
978.087	1840.22
978.387	1800.45
978.687	1810.16
978.987	1823.95
979.286	1743.73
979.586	1792.31
979.885	1758.19
980.185	1763.39
980.484	1764.52
980.784	1730.39
981.083	1734.69
981.382	1695.82
981.682	1731.97
981.981	1691.75
982.28	1725.65
982.579	1716.83
982.878	1701.92
983.177	1680.9
983.475	1684.74
983.774	1693.56
984.073	1653.78
984.372	1640.68
984.67	1663.5
984.969	1645.87
985.267	1652.2
985.566	1658.08
985.864	1637.06
986.162	1649.26
986.461	1616.27
986.759	1611.3
987.057	1603.16
987.355	1591.41
987.653	1576.5
987.951	1577.18
988.249	1558.42
988.547	1570.4
988.844	1554.58
989.142	1563.39
989.44	1531.3
989.737	1524.75
990.035	1521.13
990.332	1511.42
990.63	1516.16
990.927	1499.66
991.224	1498.76
991.521	1500.12
991.819	1511.87
992.116	1494.92
992.413	1477.52
992.71	1495.14
993.006	1454.92
993.303	1467.35
993.6	1464.64
993.897	1468.25
994.193	1461.47
994.49	1433.23
994.787	1433.45
995.083	1401.59
995.379	1435.71
995.676	1367.01
995.972	1397.97
996.268	1395.03
996.565	1407.91
996.861	1395.94
997.157	1388.71
997.453	1380.35
997.749	1367.46
998.044	1374.02
998.34	1349.84
998.636	1354.58
998.932	1342.15
999.227	1332.66
999.523	1340.12
999.818	1327.92
1000.114	1321.14
1000.409	1327.47
1000.704	1301.03
1001	1271.87
1001.295	1301.93
1001.59	1289.5
1001.885	1267.81
1002.18	1270.74
1002.475	1266.22
1002.77	1285.21
1003.065	1263.74
1003.359	1259.22
1003.654	1238.65
1003.949	1230.97
1004.243	1230.07
1004.538	1227.58
1004.832	1240.24
1005.127	1207.24
1005.421	1193.68
1005.715	1203.4
1006.009	1207.47
1006.304	1199.11
1006.598	1194.59
1006.892	1165.89
1007.186	1169.73
1007.48	1182.61
1007.773	1162.95
1008.067	1135.83
1008.361	1148.26
1008.655	1155.04
1008.948	1152.55
1009.242	1136.74
1009.535	1125.44
1009.829	1110.52
1010.122	1136.06
1010.415	1106.91
1010.708	1089.73
1011.001	1126.34
1011.295	1102.39
1011.588	1094.25
1011.881	1055.61
1012.173	1076.62
1012.466	1091.09
1012.759	1066.91
1013.052	1093.35
1013.344	1044.31
1013.637	1067.36
1013.93	1053.57
1014.222	1049.51
1014.514	1041.14
1014.807	1033.01
1015.099	1031.43
1015.391	1023.07
1015.683	994.82
1015.976	1008.38
1016.268	1002.28
1016.56	1006.57
1016.851	969.73
1017.143	995.04
1017.435	962.28
1017.727	985.55
1018.018	973.35
1018.31	958.21
1018.602	962.5
1018.893	957.53
1019.185	951.2
1019.476	955.72
1019.767	941.03
1020.058	963.86
1020.35	917.76
1020.641	929.28
1020.932	909.62
1021.223	902.17
1021.514	893.8
1021.804	893.35
1022.095	890.87
1022.386	882.05
1022.677	881.6
1022.967	869.85
1023.258	878.66
1023.548	895.16
1023.839	882.05
1024.129	896.06
1024.419	859
1024.709	854.48
1025	879.79
1025.29	849.96
1025.58	854.71
1025.87	844.09
1026.16	832.56
1026.449	819.23
1026.739	843.64
1027.029	823.75
1027.319	811.09
1027.608	811.32
1027.898	809.96
1028.187	808.38
1028.477	796.18
1028.766	805.67
1029.055	796.63
1029.344	802.28
1029.634	798.67
1029.923	770.42
1030.212	781.26
1030.501	757.54
1030.79	778.55
1031.078	778.55
1031.367	771.77
1031.656	770.42
1031.945	766.12
1032.233	750.08
1032.522	753.02
1032.81	736.75
1033.099	745.56
1033.387	730.42
1033.675	720.25
1033.963	710.08
1034.251	727.71
1034.54	713.47
1034.828	704.66
1035.116	707.37
1035.403	694.94
1035.691	706.46
1035.979	706.01
1036.267	694.04
1036.554	682.06
1036.842	669.18
1037.129	657.43
1037.417	678.22
1037.704	656.75
1037.992	678.67
1038.279	693.36
1038.566	645.22
1038.853	645.22
1039.14	645.22
