Data from blue_surface_keyboard_FLMS001491_018.txt Node
Date: Tue Feb 07 11:12:43 GMT 2017
User: dcchb
Spectrometer: FLMS00149
Trigger mode: 0
Integration Time (sec): 2.000000E-2
Scans to average: 10
Electric dark correction enabled: true
Nonlinearity correction enabled: false
Boxcar width: 0
XAxis mode: Wavelengths
Number of Pixels in Spectrum: 2048
>>>>>Begin Spectral Data<<<<<
341.393	-0.62
341.776	-0.62
342.16	-0.62
342.543	-88.98
342.927	-51.47
343.31	-43.56
343.693	-69.32
344.077	-67.96
344.46	-59.15
344.843	-56.44
345.226	-34.07
345.61	-44.46
345.993	-8.53
346.376	-16.89
346.759	8.64
347.142	23.33
347.525	40.73
347.908	59.94
348.291	72.82
348.674	83.9
349.057	111.01
349.44	115.53
349.823	130.22
350.206	144.46
350.588	174.52
350.971	174.06
351.354	195.98
351.737	237.34
352.119	221.97
352.502	238.69
352.884	248.19
353.267	237.79
353.65	250.22
354.032	274.4
354.414	286.38
354.797	294.51
355.179	298.81
355.562	295.19
355.944	310.56
356.326	309.65
356.709	307.39
357.091	318.69
357.473	313.95
357.855	318.69
358.238	311.46
358.62	316.66
359.002	315.08
359.384	302.2
359.766	327.05
360.148	291.35
360.53	313.49
360.912	313.27
361.294	313.49
361.676	303.55
362.057	315.53
362.439	309.43
362.821	304.68
363.203	305.36
363.584	292.7
363.966	302.87
364.348	290.67
364.729	311.23
365.111	313.04
365.493	289.09
365.874	277.11
366.256	286.38
366.637	284.57
367.019	292.25
367.4	291.35
367.781	290.67
368.163	264.23
368.544	275.76
368.925	281.86
369.306	304.68
369.688	299.48
370.069	287.73
370.45	293.16
370.831	291.8
371.212	264.46
371.593	267.62
371.974	305.81
372.355	279.15
372.736	266.72
373.117	288.64
373.498	295.19
373.879	301.07
374.26	273.04
374.641	287.73
375.021	280.5
375.402	289.77
375.783	280.95
376.163	285.25
376.544	279.15
376.925	297.9
377.305	304.23
377.686	286.15
378.066	306.49
378.447	312.14
378.827	312.82
379.208	307.62
379.588	303.33
379.968	292.48
380.349	292.25
380.729	293.83
381.109	318.92
381.489	299.94
381.87	290.67
382.25	303.1
382.63	297.45
383.01	289.31
383.39	291.57
383.77	312.14
384.15	313.95
384.53	310.1
384.91	325.47
385.29	312.36
385.67	308.07
386.049	302.42
386.429	313.04
386.809	306.04
387.189	316.66
387.568	293.38
387.948	311.46
388.328	314.4
388.707	321.18
389.087	313.95
389.466	319.14
389.846	303.55
390.225	327.51
390.605	305.81
390.984	325.47
391.363	328.86
391.743	342.19
392.122	311.91
392.501	315.98
392.881	320.73
393.26	317.79
393.639	321.4
394.018	312.82
394.397	327.51
394.776	325.47
395.155	316.43
395.534	344.45
395.913	336.32
396.292	310.78
396.671	314.85
397.05	329.99
397.429	317.34
397.808	329.99
398.186	318.92
398.565	331.12
398.944	346.26
399.323	328.18
399.701	314.85
400.08	320.95
400.458	338.8
400.837	345.36
401.215	325.02
401.594	338.8
401.972	346.94
402.351	350.78
402.729	348.52
403.107	331.57
403.486	325.25
403.864	334.06
404.242	350.56
404.62	351.69
404.999	343.1
405.377	340.16
405.755	357.11
406.133	334.51
406.511	347.62
406.889	349.88
407.267	363.66
407.645	353.49
408.023	330.67
408.401	357.79
408.779	352.59
409.156	339.93
409.534	387.16
409.912	389.42
410.29	362.53
410.667	367.73
411.045	356.66
411.422	378.58
411.8	359.37
412.178	365.47
412.555	379.93
412.933	387.39
413.31	372.25
413.687	366.83
414.065	363.66
414.442	395.3
414.819	367.96
415.197	402.08
415.574	377
415.951	380.39
416.328	365.24
416.705	372.25
417.082	394.4
417.46	391.01
417.837	370.44
418.214	388.29
418.591	385.81
418.967	393.49
419.344	392.81
419.721	396.43
420.098	383.32
420.475	394.62
420.852	411.57
421.228	418.35
421.605	403.89
421.982	402.08
422.358	421.29
422.735	395.75
423.111	389.65
423.488	403.89
423.864	413.6
424.241	417.22
424.617	417.22
424.994	410.44
425.37	414.28
425.746	417.9
426.123	397.56
426.499	413.15
426.875	420.84
427.251	404.34
427.627	422.87
428.003	426.26
428.379	426.26
428.756	432.36
429.132	438.01
429.507	434.85
429.883	437.11
430.259	440.5
430.635	420.38
431.011	458.12
431.387	446.6
431.763	451.12
432.138	444.34
432.514	483.43
432.89	435.75
433.265	459.93
433.641	467.39
434.016	452.93
434.392	451.57
434.767	484.11
435.143	479.59
435.518	459.03
435.894	473.26
436.269	488.41
436.644	452.93
437.02	494.28
437.395	464.9
437.77	457.67
438.145	498.12
438.52	467.84
438.895	479.82
439.271	492.25
439.646	479.59
440.021	480.72
440.395	509.42
440.77	505.35
441.145	505.13
441.52	525.69
441.895	506.26
442.27	495.18
442.645	494.51
443.019	526.82
443.394	526.37
443.769	521.17
444.143	537.22
444.518	531.57
444.892	529.76
445.267	505.81
445.641	549.87
446.016	511.23
446.39	527.5
446.764	518.01
447.139	530.44
447.513	549.42
447.887	505.58
448.262	534.51
448.636	540.83
449.01	541.74
449.384	539.48
449.758	534.96
450.132	574.73
450.506	522.75
450.88	562.53
451.254	565.01
451.628	549.42
452.002	539.93
452.376	576.09
452.75	579.48
453.123	586.48
453.497	571.34
453.871	578.12
454.244	580.15
454.618	575.18
454.992	599.81
455.365	587.61
455.739	574.5
456.112	605.69
456.486	598.68
456.859	619.48
457.232	606.37
457.606	603.66
457.979	611.34
458.352	627.61
458.725	635.29
459.099	619.48
459.472	623.77
459.845	648.85
460.218	643.43
460.591	630.1
460.964	655.41
461.337	632.58
461.71	654.95
462.083	634.39
462.456	631.23
462.829	649.98
463.201	673.26
463.574	662.19
463.947	673.94
464.32	687.27
464.692	673.03
465.065	663.09
465.438	689.76
465.81	675.07
466.183	690.89
466.555	700.83
466.928	710.77
467.3	711.68
467.672	698.8
468.045	714.39
468.417	716.2
468.789	726.59
469.161	734.5
469.534	739.25
469.906	739.25
470.278	746.7
470.65	750.09
471.022	766.82
471.394	775.86
471.766	771.11
472.138	766.82
472.51	787.61
472.882	812.46
473.253	791.22
473.625	791
473.997	833.93
474.369	820.83
474.74	813.59
475.112	829.64
475.484	846.81
475.855	845.23
476.227	850.43
476.598	856.76
476.97	870.99
477.341	875.51
477.713	878.9
478.084	887.49
478.455	905.12
478.827	903.31
479.198	911.9
479.569	917.09
479.94	922.52
480.311	934.95
480.682	924.55
481.053	974.49
481.424	966.13
481.795	966.81
482.166	976.75
482.537	995.28
482.908	1003.65
483.279	1012.01
483.65	1026.02
484.021	996.41
484.391	1023.98
484.762	1041.61
485.133	1029.41
485.503	1079.35
485.874	1046.13
486.244	1084.32
486.615	1067.15
486.985	1092.68
487.356	1097.2
487.726	1125.45
488.097	1115.06
488.467	1131.55
488.837	1149.4
489.207	1159.57
489.578	1156.41
489.948	1167.94
490.318	1160.93
490.688	1174.26
491.058	1171.55
491.428	1197.09
491.798	1201.15
492.168	1234.6
492.538	1214.49
492.908	1219.46
493.278	1226.46
493.648	1232.11
494.017	1199.8
494.387	1224.88
494.757	1254.49
495.126	1235.96
495.496	1232.57
495.866	1270.31
496.235	1258.33
496.605	1241.83
496.974	1268.5
497.344	1260.59
497.713	1260.36
498.082	1259.46
498.452	1269.4
498.821	1294.94
499.19	1279.8
499.559	1288.38
499.928	1275.96
500.298	1304.43
500.667	1290.42
501.036	1284.09
501.405	1306.01
501.774	1291.55
502.143	1289.51
502.512	1324.77
502.88	1311.21
503.249	1313.69
503.618	1310.08
503.987	1329.97
504.356	1320.7
504.724	1304.43
505.093	1316.86
505.462	1345.78
505.83	1329.06
506.199	1355.28
506.567	1337.42
506.936	1354.15
507.304	1373.81
507.672	1359.79
508.041	1357.53
508.409	1346.91
508.777	1350.08
509.145	1347.59
509.514	1364.99
509.882	1341.04
510.25	1338.55
510.618	1397.53
510.986	1381.72
511.354	1378.55
511.722	1372.68
512.09	1387.59
512.458	1384.88
512.826	1389.85
513.193	1405.44
513.561	1398.44
513.929	1373.13
514.297	1400.92
514.664	1414.26
515.032	1406.57
515.4	1385.56
515.767	1388.95
516.135	1431.88
516.502	1428.72
516.869	1404.77
517.237	1419.45
517.604	1442.5
517.972	1440.24
518.339	1444.31
518.706	1433.01
519.073	1442.05
519.44	1411.09
519.808	1457.42
520.175	1436.63
520.542	1420.81
520.909	1442.5
521.276	1473.46
521.643	1461.49
522.009	1451.09
522.376	1467.81
522.743	1442.5
523.11	1465.55
523.477	1456.06
523.843	1484.99
524.21	1489.96
524.577	1464.88
524.943	1470.98
525.31	1479.34
525.676	1478.89
526.043	1524.54
526.409	1510.3
526.776	1488.15
527.142	1489.51
527.508	1515.04
527.874	1526.57
528.241	1508.94
528.607	1501.49
528.973	1506.23
529.339	1508.27
529.705	1531.54
530.071	1536.06
530.437	1565.21
530.803	1543.74
531.169	1546.91
531.535	1532.45
531.901	1521.6
532.267	1523.86
532.632	1538.55
532.998	1525.67
533.364	1548.49
533.73	1528.38
534.095	1551.2
534.461	1553.01
534.826	1528.15
535.192	1536.74
535.557	1597.3
535.923	1549.17
536.288	1560.92
536.653	1563.18
537.019	1573.57
537.384	1534.93
537.749	1555.72
538.114	1536.06
538.479	1551.88
538.845	1555.5
539.21	1537.42
539.575	1551.2
539.94	1566.79
540.305	1572.22
540.67	1568.83
541.034	1588.94
541.399	1576.51
541.764	1584.65
542.129	1583.29
542.494	1561.82
542.858	1576.51
543.223	1550.52
543.587	1568.15
543.952	1583.29
544.316	1563.86
544.681	1575.16
545.045	1576.74
545.41	1565.67
545.774	1589.62
546.138	1583.07
546.503	1590.98
546.867	1555.72
547.231	1558.66
547.595	1572.44
547.959	1577.64
548.324	1575.83
548.688	1589.85
549.052	1592.11
549.416	1557.08
549.779	1582.16
550.143	1582.84
550.507	1623.06
550.871	1577.19
551.235	1601.82
551.599	1607.47
551.962	1579
552.326	1584.65
552.689	1586
553.053	1588.26
553.417	1591.2
553.78	1605.66
554.143	1593.01
554.507	1621.93
554.87	1598.43
555.234	1627.36
555.597	1601.14
555.96	1609.96
556.323	1583.52
556.686	1577.42
557.05	1642.27
557.413	1596.85
557.776	1613.8
558.139	1618.55
558.502	1609.28
558.865	1602.5
559.228	1620.58
559.59	1624.87
559.953	1625.1
560.316	1612.44
560.679	1610.41
561.041	1637.53
561.404	1633.01
561.767	1640.24
562.129	1625.32
562.492	1621.48
562.854	1626.45
563.217	1630.07
563.579	1651.76
563.941	1697.64
564.304	1663.06
564.666	1657.41
565.028	1643.86
565.39	1649.28
565.753	1659.67
566.115	1661.03
566.477	1667.36
566.839	1672.1
567.201	1687.24
567.563	1687.24
567.925	1695.61
568.287	1686.57
568.648	1662.61
569.01	1682.72
569.372	1712.1
569.734	1701.48
570.095	1681.59
570.457	1712.1
570.819	1697.19
571.18	1679.56
571.542	1687.02
571.903	1686.34
572.265	1697.41
572.626	1718.88
572.987	1706.45
573.349	1724.76
573.71	1704.19
574.071	1706
574.432	1729.05
574.794	1736.06
575.155	1756.62
575.516	1721.82
575.877	1756.62
576.238	1750.52
576.599	1722.05
576.96	1749.16
577.32	1746
577.681	1740.8
578.042	1756.39
578.403	1747.58
578.763	1757.3
579.124	1768.15
579.485	1747.81
579.845	1746.23
580.206	1765.89
580.566	1765.43
580.927	1769.5
581.287	1760.91
581.648	1767.24
582.008	1740.35
582.368	1776.28
582.728	1756.39
583.089	1755.26
583.449	1776.96
583.809	1755.49
584.169	1744.64
584.529	1729.28
584.889	1812.89
585.249	1732.67
585.609	1746.9
585.969	1775.15
586.329	1750.52
586.688	1768.15
587.048	1765.66
587.408	1787.58
587.768	1793
588.127	1753
588.487	1763.85
588.846	1796.62
589.206	1774.7
589.565	1743.97
589.925	1808.82
590.284	1752.55
590.643	1804.08
591.003	1799.11
591.362	1770.86
591.721	1813.12
592.08	1762.27
592.44	1828.71
592.799	1753.46
593.158	1813.34
593.517	1816.73
593.876	1764.08
594.235	1812.44
594.593	1775.15
594.952	1795.94
595.311	1766.56
595.67	1773.34
596.029	1825.32
596.387	1819.67
596.746	1803.62
597.104	1804.08
597.463	1794.13
597.822	1798.65
598.18	1797.3
598.538	1809.95
598.897	1817.86
599.255	1803.4
599.613	1826.68
599.972	1821.48
600.33	1801.37
600.688	1809.05
601.046	1842.49
601.404	1834.13
601.762	1835.04
602.12	1826.22
602.478	1834.81
602.836	1837.75
603.194	1830.06
603.552	1831.65
603.91	1821.25
604.268	1853.57
604.625	1820.35
604.983	1832.1
605.341	1839.1
605.698	1800.01
606.056	1824.87
606.413	1833
606.771	1871.65
607.128	1839.1
607.485	1842.04
607.843	1847.47
608.2	1841.36
608.557	1863.28
608.914	1837.75
609.272	1843.62
609.629	1894.24
609.986	1870.52
610.343	1879.78
610.7	1886.33
611.057	1863.96
611.414	1888.59
611.771	1915.03
612.127	1888.59
612.484	1903.96
612.841	1886.79
613.198	1888.14
613.554	1873.68
613.911	1883.17
614.267	1883.85
614.624	1910.51
614.98	1923.17
615.337	1889.05
615.693	1886.56
616.05	1894.47
616.406	1912.55
616.762	1928.14
617.118	1894.92
617.475	1926.33
617.831	1934.47
618.187	1941.02
618.543	1934.47
618.899	1952.55
619.255	1968.37
619.611	1932.21
619.967	1947.58
620.323	1971.3
620.678	1929.05
621.034	1955.03
621.39	1950.51
621.746	1953.68
622.101	1958.42
622.457	1952.1
622.812	1992.32
623.168	1960.68
623.523	1974.47
623.879	2004.07
624.234	1994.35
624.589	1989.83
624.945	1979.89
625.3	1990.96
625.655	1972.66
626.01	1998.42
626.365	1976.73
626.72	2012.43
627.075	1998.65
627.43	1975.37
627.785	2004.3
628.14	1983.28
628.495	1997.52
628.85	2001.81
629.205	1993.9
629.559	2004.98
629.914	2018.53
630.269	2022.15
630.623	2020.79
630.978	2019.21
631.332	1994.58
631.687	2056.73
632.041	2049.27
632.396	2031.42
632.75	2033
633.104	2043.39
633.459	2020.12
633.813	2037.74
634.167	2065.99
634.521	2051.75
634.875	2062.38
635.229	2064.86
635.583	2063.96
635.937	2084.75
636.291	2047.23
636.645	2057.4
636.999	2114.35
637.352	2088.59
637.706	2115.93
638.06	2087.69
638.413	2112.77
638.767	2103.96
639.121	2108.25
639.474	2131.98
639.828	2126.55
640.181	2119.77
640.534	2131.98
640.888	2115.48
641.241	2115.03
641.594	2123.84
641.947	2163.39
642.301	2136.72
642.654	2142.83
643.007	2155.48
643.36	2167.91
643.713	2142.37
644.066	2190.96
644.419	2178.53
644.771	2161.36
645.124	2122.03
645.477	2163.62
645.83	2182.82
646.182	2162.71
646.535	2156.38
646.888	2136.05
647.24	2167.23
647.593	2240.22
647.945	2191.19
648.298	2179.66
648.65	2191.64
649.002	2206.1
649.355	2228.02
649.707	2228.92
650.059	2272.31
650.411	2261.92
650.763	2309.15
651.115	2328.36
651.467	2332.88
651.819	2310.5
652.171	2353.44
652.523	2378.53
652.875	2333.1
653.227	2332.88
653.578	2368.81
653.93	2381.69
654.282	2371.29
654.633	2402.25
654.985	2392.99
655.337	2428.02
655.688	2458.97
656.039	2428.47
656.391	2442.93
656.742	2444.96
657.094	2469.82
657.445	2481.8
657.796	2513.44
658.147	2479.77
658.498	2497.62
658.849	2525.87
659.2	2530.84
659.551	2487
659.902	2555.92
660.253	2544.4
660.604	2582.36
660.955	2555.47
661.306	2624.62
661.656	2592.08
662.007	2634.34
662.358	2639.76
662.708	2644.28
663.059	2635.02
663.409	2623.72
663.76	2698.29
664.11	2691.74
664.461	2749.59
664.811	2696.48
665.161	2671.85
665.511	2723.6
665.862	2755.92
666.212	2781.68
666.562	2739.87
666.912	2794.79
667.262	2795.92
667.612	2782.81
667.962	2804.28
668.312	2812.86
668.662	2844.5
669.011	2879.08
669.361	2879.08
669.711	2827.55
670.06	2860.55
670.41	2881.79
670.76	2899.87
671.109	2963.59
671.459	2910.26
671.808	2934.67
672.157	2947.32
672.507	2980.09
672.856	2962.01
673.205	2972.18
673.554	3005.18
673.904	3009.92
674.253	3052.86
674.602	3029.81
674.951	3021.9
675.3	3031.16
675.649	3090.82
675.998	3113.19
676.346	3080.2
676.695	3100.09
677.044	3147.54
677.393	3103.7
677.741	3121.1
678.09	3169.01
678.438	3126.98
678.787	3144.15
679.135	3247.65
679.484	3195.23
679.832	3210.14
680.181	3195.45
680.529	3217.15
680.877	3219.63
681.225	3247.43
681.573	3262.12
681.922	3256.92
682.27	3259.18
682.618	3287.2
682.966	3297.37
683.314	3310.03
683.661	3270.7
684.009	3317.48
684.357	3328.78
684.705	3297.82
685.053	3334.43
685.4	3301.21
685.748	3361.78
686.095	3312.06
686.443	3334.88
686.79	3292.4
687.138	3369.69
687.485	3397.26
687.832	3390.7
688.18	3418.27
688.527	3346.64
688.874	3430.7
689.221	3410.59
689.568	3421.89
689.915	3405.39
690.262	3437.25
690.609	3417.37
690.956	3430.02
691.303	3446.29
691.65	3412.85
691.997	3424.6
692.344	3408.1
692.69	3440.87
693.037	3440.64
693.383	3454.43
693.73	3448.55
694.077	3428.67
694.423	3420.08
694.769	3465.73
695.116	3403.58
695.462	3481.55
695.808	3435.45
696.155	3456.01
696.501	3427.76
696.847	3468.67
697.193	3442.68
697.539	3460.98
697.885	3454.65
698.231	3458.27
698.577	3469.34
698.923	3457.82
699.269	3451.04
699.614	3455.11
699.96	3395.67
700.306	3446.52
700.651	3394.32
700.997	3404.71
701.342	3447.88
701.688	3453.53
702.033	3443.36
702.379	3417.14
702.724	3394.32
703.069	3420.31
703.415	3390.48
703.76	3399.97
704.105	3385.5
704.45	3402.45
704.795	3398.39
705.14	3381.66
705.485	3381.44
705.83	3391.15
706.175	3380.76
706.52	3383.24
706.865	3339.86
707.209	3349.57
707.554	3394.77
707.899	3377.82
708.243	3364.04
708.588	3354.77
708.932	3330.36
709.277	3333.98
709.621	3365.39
709.966	3376.01
710.31	3382.79
710.654	3362
710.998	3379.63
711.342	3382.57
711.687	3353.87
712.031	3303.02
712.375	3344.6
712.719	3372.62
713.063	3310.25
713.407	3368.78
713.75	3351.61
714.094	3375.56
714.438	3337.37
714.782	3337.6
715.125	3344.15
715.469	3333.53
715.812	3314.09
716.156	3337.82
716.499	3297.82
716.843	3298.5
717.186	3334.66
717.53	3321.78
717.873	3336.69
718.216	3346.86
718.559	3319.97
718.902	3313.42
719.246	3370.14
719.589	3267.32
719.932	3308.22
720.275	3325.17
720.617	3314.55
720.96	3317.03
721.303	3309.35
721.646	3334.21
721.989	3311.61
722.331	3327.65
722.674	3353.19
723.016	3338.73
723.359	3323.58
723.701	3294.21
724.044	3315.45
724.386	3306.18
724.729	3343.02
725.071	3322.23
725.413	3319.29
725.755	3321.33
726.097	3319.07
726.439	3330.59
726.782	3363.13
727.124	3318.84
727.465	3313.42
727.807	3326.07
728.149	3337.82
728.491	3299.4
728.833	3347.99
729.175	3322.46
729.516	3315.45
729.858	3337.82
730.199	3325.84
730.541	3335.34
730.882	3338.5
731.224	3356.8
731.565	3324.26
731.906	3351.38
732.248	3338.5
732.589	3350.25
732.93	3380.98
733.271	3352.51
733.612	3322.23
733.953	3390.02
734.294	3350.48
734.635	3369.91
734.976	3344.83
735.317	3376.92
735.658	3373.75
735.999	3381.89
736.339	3386.63
736.68	3382.79
737.021	3371.72
737.361	3392.51
737.702	3421.89
738.042	3403.58
738.383	3423.24
738.723	3438.16
739.063	3436.35
739.404	3477.93
739.744	3450.36
740.084	3452.17
740.424	3473.41
740.764	3433.41
741.104	3485.84
741.444	3447.42
741.784	3479.74
742.124	3496.91
742.464	3475.9
742.804	3510.47
743.143	3502.79
743.483	3531.04
743.823	3557.93
744.162	3516.57
744.502	3551.15
744.841	3570.36
745.181	3577.36
745.52	3571.04
745.86	3613.75
746.199	3619.62
746.538	3623.92
746.877	3654.88
747.216	3664.82
747.556	3603.35
747.895	3664.82
748.234	3673.63
748.573	3702.56
748.911	3689.9
749.25	3715.67
749.589	3746.4
749.928	3791.37
750.267	3773.29
750.605	3780.52
750.944	3800.41
751.283	3850.58
751.621	3867.98
751.96	3824.14
752.298	3869.79
752.636	3867.07
752.975	3912.5
753.313	3920.18
753.651	3935.77
753.989	3941.87
754.327	3954.08
754.666	3997.01
755.004	3990.01
755.342	4040.85
755.679	4042.44
756.017	4069.55
756.355	4066.84
756.693	4075.2
757.031	4105.49
757.368	4139.16
757.706	4128.76
758.044	4167.18
758.381	4170.12
758.719	4184.58
759.056	4214.63
759.394	4173.96
759.731	4192.04
760.068	4254.18
760.405	4220.06
760.743	4284.24
761.08	4265.48
761.417	4298.93
761.754	4289.44
762.091	4285.14
762.428	4286.5
762.765	4290.79
763.102	4357.46
763.438	4322.43
763.775	4380.05
764.112	4344.35
764.449	4342.09
764.785	4373.5
765.122	4339.83
765.458	4362.88
765.795	4356.1
766.131	4390.45
766.467	4329.21
766.804	4370.11
767.14	4364.24
767.476	4342.54
767.812	4308.87
768.148	4437.23
768.485	4349.55
768.821	4368.3
769.157	4364.69
769.492	4346.16
769.828	4370.11
770.164	4376.21
770.5	4370.79
770.836	4366.04
771.171	4303.22
771.507	4350.45
771.842	4338.93
772.178	4353.39
772.513	4321.07
772.849	4352.71
773.184	4303.67
773.519	4262.32
773.855	4331.69
774.19	4317.46
774.525	4330.11
774.86	4320.85
775.195	4278.36
775.53	4279.72
775.865	4258.93
776.2	4223.67
776.535	4173.96
776.87	4213.28
777.205	4220.74
777.539	4211.02
777.874	4185.26
778.209	4160.63
778.543	4201.98
778.878	4159.72
779.212	4160.17
779.547	4126.73
779.881	4181.42
780.215	4110.68
780.55	4155.65
780.884	4101.87
781.218	4119.27
781.552	4077.69
781.886	4078.82
782.22	4031.36
782.554	4065.03
782.888	4021.19
783.222	3998.37
783.556	4008.76
783.889	3994.75
784.223	3994.3
784.557	4026.17
784.89	4002.44
785.224	3945.94
785.557	3948.2
785.891	3923.8
786.224	3938.03
786.558	3930.57
786.891	3952.04
787.224	3867.3
787.557	3869.79
787.891	3917.02
788.224	3845.61
788.557	3926.51
788.89	3886.96
789.223	3866.85
789.556	3854.42
789.888	3841.99
790.221	3800.18
790.554	3767.42
790.887	3803.35
791.219	3784.36
791.552	3757.92
791.884	3731.03
792.217	3819.39
792.549	3709.56
792.882	3732.39
793.214	3726.74
793.546	3712.05
793.879	3698.26
794.211	3665.95
794.543	3709.34
794.875	3707.53
795.207	3672.73
795.539	3672.95
795.871	3652.84
796.203	3611.71
796.535	3630.92
796.867	3596.35
797.198	3583.69
797.53	3597.7
797.862	3592.28
798.193	3638.38
798.525	3568.1
798.856	3563.13
799.188	3553.18
799.519	3521.32
799.85	3505.28
800.182	3484.03
800.513	3530.59
800.844	3487.87
801.175	3478.84
801.506	3468.44
801.837	3466.86
802.168	3503.69
802.499	3445.62
802.83	3456.24
803.161	3413.53
803.491	3423.02
803.822	3446.52
804.153	3375.56
804.483	3374.21
804.814	3401.1
805.145	3394.09
805.475	3372.4
805.805	3373.53
806.136	3405.62
806.466	3339.63
806.796	3352.28
807.126	3323.13
807.457	3334.43
807.787	3339.63
808.117	3291.27
808.447	3299.86
808.777	3309.35
809.107	3287.65
809.436	3255.34
809.766	3288.11
810.096	3244.26
810.426	3259.18
810.755	3257.6
811.085	3253.76
811.414	3275.22
811.744	3228.67
812.073	3240.65
812.403	3248.11
812.732	3204.72
813.061	3203.81
813.39	3179.18
813.719	3187.32
814.049	3175.34
814.378	3180.09
814.707	3176.92
815.036	3148.67
815.365	3170.14
815.693	3129.47
816.022	3140.09
816.351	3131.95
816.68	3111.84
817.008	3110.71
817.337	3053.31
817.665	3100.09
817.994	3125.85
818.322	3093.99
818.651	3087.88
818.979	3070.48
819.307	3075.46
819.636	3077.26
819.964	3094.44
820.292	3034.55
820.62	3072.97
820.948	3035.91
821.276	3086.75
821.604	3053.31
821.932	3013.08
822.259	3083.59
822.587	3075
822.915	3065.96
823.243	3085.4
823.57	3028.68
823.898	3028.45
824.225	3050.15
824.553	3028.9
824.88	3004.95
825.207	3049.47
825.535	2995.91
825.862	3051.95
826.189	3012.86
826.516	3044.72
826.843	3067.09
827.17	3064.61
827.497	3076.59
827.824	3058.96
828.151	3053.08
828.478	3033.65
828.805	3089.69
829.131	3024.61
829.458	3073.2
829.785	3034.78
830.111	3020.32
830.438	3030.71
830.764	3020.09
831.09	3044.72
831.417	3056.02
831.743	3042.69
832.069	3022.58
832.395	3015.12
832.722	3046.53
833.048	3019.86
833.374	3032.07
833.7	3018.96
834.026	2992.52
834.351	3030.49
834.677	3000.66
835.003	3036.59
835.329	3010.6
835.654	3040.65
835.98	2992.75
836.306	3041.56
836.631	2989.81
836.956	3026.42
837.282	3025.51
837.607	2987.77
837.932	2978.51
838.258	2971.5
838.583	2966.08
838.908	2998.17
839.233	2963.82
839.558	2976.25
839.883	2945.06
840.208	2938.06
840.533	2945.06
840.858	2984.16
841.182	2955.46
841.507	2955.46
841.832	2953.65
842.156	2929.7
842.481	2934.89
842.805	2922.47
843.13	2911.39
843.454	2938.74
843.778	2866.87
844.103	2878.17
844.427	2921.56
844.751	2926.53
845.075	2884.73
845.399	2867.78
845.723	2852.18
846.047	2855.12
846.371	2867.1
846.695	2826.65
847.019	2818.06
847.343	2831.85
847.666	2796.14
847.99	2812.19
848.313	2780.55
848.637	2750.04
848.96	2758.85
849.284	2732.41
849.607	2736.26
849.931	2748.68
850.254	2722.24
850.577	2710.95
850.9	2703.94
851.223	2721.79
851.546	2679.08
851.869	2672.75
852.192	2682.92
852.515	2645.18
852.838	2622.36
853.161	2645.41
853.483	2644.05
853.806	2642.25
854.129	2661
854.451	2626.65
854.774	2597.5
855.096	2585.98
855.419	2578.52
855.741	2565.64
856.063	2581.01
856.385	2578.52
856.708	2555.47
857.03	2541.91
857.352	2564.96
857.674	2560.67
857.996	2517.28
858.318	2518.18
858.64	2512.53
858.961	2519.54
859.283	2504.17
859.605	2496.94
859.926	2536.49
860.248	2493.78
860.57	2498.52
860.891	2491.06
861.212	2513.89
861.534	2508.92
861.855	2474.79
862.176	2469.37
862.498	2455.59
862.819	2455.13
863.14	2457.17
863.461	2469.37
863.782	2454.68
864.103	2449.26
864.424	2462.14
864.745	2425.3
865.065	2439.31
865.386	2417.17
865.707	2432.53
866.027	2430.05
866.348	2426.43
866.668	2386.89
866.989	2387.79
867.309	2386.21
867.63	2397.28
867.95	2401.35
868.27	2374.68
868.59	2356.38
868.91	2392.99
869.23	2412.65
869.55	2361.35
869.87	2381.01
870.19	2353.21
870.51	2365.19
870.83	2383.04
871.15	2350.73
871.469	2368.58
871.789	2390.28
872.109	2379.88
872.428	2365.64
872.748	2365.87
873.067	2340.79
873.386	2364.29
873.706	2355.93
874.025	2329.49
874.344	2331.97
874.663	2335.59
874.982	2369.94
875.301	2348.92
875.62	2367.45
875.939	2328.13
876.258	2322.48
876.577	2294.91
876.896	2314.12
877.214	2316.38
877.533	2324.97
877.852	2295.59
878.17	2293.78
878.489	2307.79
878.807	2303.5
879.125	2284.29
879.444	2260.34
879.762	2278.19
880.08	2258.98
880.398	2286.78
880.716	2289.04
881.034	2274.57
881.352	2267.57
881.67	2272.77
881.988	2234.57
882.306	2235.48
882.624	2241.81
882.941	2266.66
883.259	2223.73
883.577	2235.93
883.894	2243.39
884.212	2238.64
884.529	2215.59
884.846	2228.47
885.164	2184.63
885.481	2221.69
885.798	2204.29
886.115	2218.98
886.432	2207.23
886.75	2181.47
887.067	2187.34
887.383	2169.49
887.7	2201.81
888.017	2208.81
888.334	2161.81
888.651	2172.43
888.967	2151.41
889.284	2179.21
889.6	2194.8
889.917	2141.24
890.233	2145.31
890.55	2177.4
890.866	2142.37
891.182	2128.14
891.498	2127.23
891.815	2136.72
892.131	2113.45
892.447	2102.6
892.763	2091.75
893.079	2134.01
893.395	2114.58
893.71	2096.72
894.026	2092.43
894.342	2076.84
894.657	2061.25
894.973	2029.83
895.289	2074.8
895.604	2056.27
895.92	2023.28
896.235	2023.05
896.55	2018.53
896.865	2013.11
897.181	2030.06
897.496	2024.86
897.811	2048.36
898.126	1990.29
898.441	1987.57
898.756	1991.42
899.071	1981.93
899.386	2018.99
899.7	1976.5
900.015	1965.65
900.33	1960.23
900.644	1968.14
900.959	1945.99
901.273	1969.72
901.588	1922.27
901.902	1927.69
902.216	1929.5
902.531	1914.81
902.845	1948.03
903.159	1901.48
903.473	1879.33
903.787	1919.55
904.101	1877.52
904.415	1894.92
904.729	1887.69
905.042	1903.96
905.356	1882.94
905.67	1849.27
905.984	1886.11
906.297	1852.21
906.611	1849.27
906.924	1852.89
907.237	1841.14
907.551	1819.67
907.864	1830.97
908.177	1832.55
908.491	1862.15
908.804	1833.23
909.117	1804.98
909.43	1816.05
909.743	1816.28
910.056	1804.53
910.368	1789.84
910.681	1791.42
910.994	1786.9
911.307	1772.67
911.619	1737.41
911.932	1788.03
912.244	1752.33
912.557	1725.89
912.869	1728.82
913.181	1744.42
913.494	1729.5
913.806	1731.08
914.118	1720.24
914.43	1705.77
914.742	1722.95
915.054	1680.24
915.366	1698.32
915.678	1727.24
915.99	1679.33
916.302	1673.46
916.613	1665.55
916.925	1685.66
917.236	1659
917.548	1632.33
917.859	1668.04
918.171	1662.61
918.482	1638.43
918.794	1615.38
919.105	1619.67
919.416	1622.61
919.727	1628.71
920.038	1599.11
920.349	1610.18
920.66	1601.14
920.971	1581.94
921.282	1607.25
921.593	1596.62
921.903	1560.69
922.214	1593.23
922.525	1583.74
922.835	1547.81
923.146	1566.34
923.456	1521.37
923.767	1540.58
924.077	1550.98
924.387	1546.23
924.697	1538.77
925.008	1525.67
925.318	1552.56
925.628	1556.63
925.938	1532.45
926.248	1527.93
926.558	1483.41
926.867	1507.36
927.177	1518.21
927.487	1484.54
927.796	1485.89
928.106	1486.57
928.416	1473.69
928.725	1467.81
929.034	1466.46
929.344	1461.26
929.653	1470.75
929.962	1469.4
930.271	1458.78
930.581	1450.64
930.89	1423.52
931.199	1412.22
931.508	1425.33
931.817	1436.63
932.125	1397.76
932.434	1408.83
932.743	1400.02
933.051	1399.34
933.36	1411.77
933.669	1376.74
933.977	1379.91
934.286	1390.75
934.594	1361.83
934.902	1351.21
935.21	1344.43
935.519	1367.93
935.827	1347.82
936.135	1350.98
936.443	1343.3
936.751	1342.85
937.059	1342.39
937.367	1315.28
937.674	1341.49
937.982	1319.12
938.29	1363.41
938.597	1325.45
938.905	1299.23
939.213	1317.08
939.52	1303.75
939.827	1311.66
940.135	1317.08
940.442	1281.38
940.749	1284.32
941.056	1276.86
941.363	1302.85
941.67	1268.72
941.977	1289.06
942.284	1243.41
942.591	1267.82
942.898	1274.15
943.205	1254.26
943.511	1231.44
943.818	1239.12
944.125	1237.31
944.431	1226.01
944.738	1239.35
945.044	1245.67
945.35	1249.29
945.657	1225.56
945.963	1193.25
946.269	1216.97
946.575	1197.77
946.881	1197.09
947.187	1183.3
947.493	1209.52
947.799	1205.67
948.105	1172
948.41	1176.97
948.716	1184.88
949.022	1157.09
949.327	1198.9
949.633	1157.31
949.938	1193.02
950.244	1181.04
950.549	1176.97
950.854	1172
951.16	1120.7
951.465	1154.83
951.77	1138.56
952.075	1139.46
952.38	1129.52
952.685	1149.18
952.99	1133.59
953.294	1125.9
953.599	1139.01
953.904	1127.71
954.209	1115.28
954.513	1137.88
954.818	1092.68
955.122	1077.32
955.426	1122.51
955.731	1101.27
956.035	1088.84
956.339	1076.41
956.643	1096.98
956.948	1099.24
957.252	1095.62
957.556	1073.47
957.86	1050.88
958.163	1054.72
958.467	1081.38
958.771	1069.41
959.075	1075.51
959.378	1052.23
959.682	1061.05
959.985	1044.32
960.289	1051.78
960.592	1064.21
960.896	1007.49
961.199	1044.55
961.502	1045
961.805	1028.5
962.108	1011.78
962.411	1023.08
962.714	1023.31
963.017	1009.07
963.32	1005.68
963.623	1024.44
963.926	1009.3
964.228	993.7
964.531	1003.19
964.833	1013.82
965.136	981.27
965.438	988.28
965.741	977.88
966.043	969.52
966.345	977.21
966.648	995.51
966.95	954.83
967.252	970.2
967.554	998
967.856	959.35
968.158	964.55
968.46	951.9
968.761	973.14
969.063	957.32
969.365	950.54
969.666	968.84
969.968	945.57
970.269	961.39
970.571	922.52
970.872	921.16
971.174	943.99
971.475	932.69
971.776	922.52
972.077	929.07
972.378	903.54
972.679	905.57
972.98	917.09
973.281	916.87
973.582	900.82
973.883	901.28
974.183	919.81
974.484	933.14
974.785	901.28
975.085	886.13
975.386	920.26
975.686	875.74
975.986	864.89
976.287	894.5
976.587	900.15
976.887	882.97
977.187	868.73
977.487	882.52
977.787	854.27
978.087	877.77
978.387	886.59
978.687	870.77
978.987	865.12
979.286	859.24
979.586	862.41
979.885	871.45
980.185	849.75
980.484	844.1
980.784	830.32
981.083	833.48
981.382	848.62
981.682	859.24
981.981	823.99
982.28	832.13
982.579	834.61
982.878	826.02
983.177	831
983.475	850.88
983.774	819.24
984.073	808.85
984.372	798.68
984.67	817.89
984.969	778.12
985.267	823.09
985.566	815.18
985.864	792.35
986.162	795.06
986.461	788.51
986.759	815.18
987.057	798.68
987.355	792.58
987.653	823.31
987.951	787.15
988.249	791.22
988.547	795.74
988.844	791.9
989.142	787.83
989.44	772.47
989.737	764.78
990.035	765.46
990.332	781.28
990.63	758.68
990.927	789.19
991.224	771.79
991.521	767.72
991.819	744.67
992.116	760.94
992.413	767.04
992.71	755.06
993.006	749.19
993.303	736.76
993.6	727.95
993.897	703.09
994.193	759.58
994.49	725.91
994.787	755.97
995.083	725.69
995.379	727.72
995.676	731.34
995.972	725.91
996.268	699.02
996.565	724.56
996.861	723.65
997.157	695.63
997.453	712.81
997.749	704.9
998.044	689.98
998.34	708.74
998.636	714.39
998.932	691.56
999.227	681.39
999.523	703.54
999.818	715.29
1000.114	689.98
1000.409	682.75
1000.704	702.41
1001	689.3
1001.295	672.81
1001.59	667.84
1001.885	680.04
1002.18	683.88
1002.475	683.43
1002.77	691.11
1003.065	660.15
1003.359	671.45
1003.654	681.62
1003.949	679.13
1004.243	659.47
1004.538	655.86
1004.832	680.94
1005.127	661.06
1005.421	638.68
1005.715	667.61
1006.009	663.77
1006.304	658.57
1006.598	658.8
1006.892	656.08
1007.186	657.67
1007.48	620.15
1007.773	623.54
1008.067	641.4
1008.361	633.71
1008.655	616.09
1008.948	598.91
1009.242	631.45
1009.535	610.21
1009.829	622.41
1010.122	615.41
1010.415	607.72
1010.708	621.51
1011.001	618.12
1011.295	620.38
1011.588	613.83
1011.881	598.23
1012.173	586.71
1012.466	633.03
1012.759	610.44
1013.052	598.01
1013.344	615.41
1013.637	595.07
1013.93	607.95
1014.222	579.25
1014.514	553.94
1014.807	598.23
1015.099	612.92
1015.391	577.44
1015.683	574.28
1015.976	595.97
1016.268	586.48
1016.56	553.71
1016.851	573.6
1017.143	567.05
1017.435	577.44
1017.727	562.08
1018.018	561.17
1018.31	558.01
1018.602	541.96
1018.893	531.12
1019.185	573.83
1019.476	558.46
1019.767	569.31
1020.058	571.57
1020.35	547.16
1020.641	559.36
1020.932	570.66
1021.223	521.17
1021.514	547.84
1021.804	546.71
1022.095	531.34
1022.386	510.33
1022.677	531.79
1022.967	533.38
1023.258	529.76
1023.548	531.79
1023.839	514.85
1024.129	549.65
1024.419	520.95
1024.709	511.91
1025	514.85
1025.29	518.91
1025.58	505.58
1025.87	522.08
1026.16	511.23
1026.449	506.94
1026.739	508.74
1027.029	499.7
1027.319	492.92
1027.608	504
1027.898	514.85
1028.187	501.06
1028.477	515.75
1028.766	507.39
1029.055	497.44
1029.344	507.61
1029.634	476.2
1029.923	492.47
1030.212	502.87
1030.501	503.77
1030.79	491.12
1031.078	491.34
1031.367	480.27
1031.656	510.78
1031.945	473.04
1032.233	470.78
1032.522	479.37
1032.81	455.86
1033.099	474.62
1033.387	479.14
1033.675	459.93
1033.963	474.17
1034.251	440.72
1034.54	465.35
1034.828	458.58
1035.116	454.73
1035.403	451.34
1035.691	471.23
1035.979	445.47
1036.267	475.75
1036.554	449.31
1036.842	458.58
1037.129	465.81
1037.417	474.17
1037.704	454.51
1037.992	464.68
1038.279	452.02
1038.566	449.08
1038.853	449.08
1039.14	449.08
