Data from blue_clamp_base_FLMS001491_00045.txt Node
Date: Wed Feb 08 15:16:04 GMT 2017
User: dcchb
Spectrometer: FLMS00149
Trigger mode: 0
Integration Time (sec): 2.000000E-2
Scans to average: 10
Electric dark correction enabled: true
Nonlinearity correction enabled: false
Boxcar width: 0
XAxis mode: Wavelengths
Number of Pixels in Spectrum: 2048
>>>>>Begin Spectral Data<<<<<
341.393	-6.57
341.776	-6.57
342.16	-6.57
342.543	-72.33
342.927	-73.23
343.31	-63.74
343.693	-85.66
344.077	-67.36
344.46	-75.27
344.843	-44.08
345.226	-52.67
345.61	-39.11
345.993	-18.54
346.376	-9.28
346.759	11.29
347.142	35.47
347.525	51.74
347.908	48.12
348.291	86.54
348.674	103.26
349.057	119.3
349.44	126.31
349.823	153.88
350.206	164.28
350.588	201.79
350.971	249.92
351.354	246.53
351.737	228.23
352.119	259.41
352.502	261
352.884	288.79
353.267	294.44
353.65	312.29
354.032	292.18
354.414	313.65
354.797	310.26
355.179	338.51
355.562	333.08
355.944	319.75
356.326	328.11
356.709	347.32
357.091	356.36
357.473	361.11
357.855	339.19
358.238	365.85
358.62	355.68
359.002	356.81
359.384	319.07
359.766	340.99
360.148	353.87
360.53	362.24
360.912	340.99
361.294	327.89
361.676	359.75
362.057	342.58
362.439	359.75
362.821	354.33
363.203	334.44
363.584	338.96
363.966	341.9
364.348	340.99
364.729	349.13
365.111	339.41
365.493	345.97
365.874	335.57
366.256	320.66
366.637	326.08
367.019	342.8
367.4	312.97
367.781	332.63
368.163	315.91
368.544	336.25
368.925	324.05
369.306	367.66
369.688	304.16
370.069	323.14
370.45	324.05
370.831	335.34
371.212	339.19
371.593	312.97
371.974	343.25
372.355	338.06
372.736	343.93
373.117	343.93
373.498	339.41
373.879	357.26
374.26	333.31
374.641	331.28
375.021	331.5
375.402	312.07
375.783	364.04
376.163	356.59
376.544	358.85
376.925	357.04
377.305	345.51
377.686	351.16
378.066	369.02
378.447	347.32
378.827	367.89
379.208	383.03
379.588	366.53
379.968	369.69
380.349	377.83
380.729	356.13
381.109	383.25
381.489	382.8
381.87	363.14
382.25	378.28
382.63	388.22
383.01	383.03
383.39	399.3
383.77	382.57
384.15	382.8
384.53	379.64
384.91	408.56
385.29	413.53
385.67	415.34
386.049	406.08
386.429	413.99
386.809	424.16
387.189	428.68
387.568	404.72
387.948	419.41
388.328	431.39
388.707	433.87
389.087	438.62
389.466	444.95
389.846	453.53
390.225	453.31
390.605	450.82
390.984	440.43
391.363	442.23
391.743	457.37
392.122	457.83
392.501	453.31
392.881	467.32
393.26	488.11
393.639	483.81
394.018	470.71
394.397	465.06
394.776	482.01
395.155	510.25
395.534	505.96
395.913	504.38
396.292	494.89
396.671	510.48
397.05	512.51
397.429	518.84
397.808	547.54
398.186	524.27
398.565	528.33
398.944	531.72
399.323	542.12
399.701	556.36
400.08	569.91
400.458	559.97
400.837	542.34
401.215	592.74
401.594	577.82
401.972	576.24
402.351	583.02
402.729	588.22
403.107	603.59
403.486	608.33
403.864	619.63
404.242	629.12
404.62	608.11
404.999	660.08
405.377	651.95
405.755	636.58
406.133	662.79
406.511	650.14
406.889	672.28
407.267	675.9
407.645	671.61
408.023	667.31
408.401	708.22
408.779	695.56
409.156	720.64
409.534	720.87
409.912	713.64
410.29	754.54
410.667	740.76
411.045	773.52
411.422	763.36
411.8	783.92
412.178	793.64
412.555	794.09
412.933	818.95
413.31	835.22
413.687	847.87
414.065	861.66
414.442	828.66
414.819	867.08
415.197	883.35
415.574	891.04
415.951	883.13
416.328	894.65
416.705	898.95
417.082	895.1
417.46	920.87
417.837	924.48
418.214	933.07
418.591	948.44
418.967	959.28
419.344	945.95
419.721	969.9
420.098	971.26
420.475	982.56
420.852	1009.45
421.228	1000.64
421.605	1013.97
421.982	1011.71
422.358	1047.64
422.735	1043.12
423.111	1063.01
423.488	1098.49
423.864	1065.95
424.241	1079.73
424.617	1082.22
424.994	1114.08
425.37	1109.56
425.746	1134.19
426.123	1128.09
426.499	1155.44
426.875	1173.51
427.251	1195.66
427.627	1209.45
428.003	1204.47
428.379	1231.14
428.756	1228.65
429.132	1246.51
429.507	1277.92
429.883	1299.39
430.259	1349.78
430.635	1324.92
431.011	1349.55
431.387	1344.13
431.763	1385.26
432.138	1370.35
432.514	1417.12
432.89	1424.36
433.265	1458.93
433.641	1477.69
434.016	1496.67
434.392	1518.36
434.767	1535.76
435.143	1572.15
435.518	1561.53
435.894	1547.06
436.269	1602.66
436.644	1613.95
437.02	1617.12
437.395	1654.86
437.77	1679.04
438.145	1734.18
438.52	1721.07
438.895	1715.87
439.271	1755.65
439.646	1758.58
440.021	1791.58
440.395	1799.49
440.77	1782.99
441.145	1811.92
441.52	1826.6
441.895	1826.15
442.27	1878.58
442.645	1883.78
443.019	1902.31
443.394	1902.08
443.769	1940.73
444.143	1886.72
444.518	1958.8
444.892	1941.4
445.267	1959.03
445.641	1979.59
446.016	1986.6
446.39	1997.45
446.764	2014.4
447.139	2030.67
447.513	2093.94
447.887	2050.78
448.262	2078.12
448.636	2106.37
449.01	2123.55
449.384	2161.06
449.758	2177.78
450.132	2211.91
450.506	2200.61
450.88	2187.05
451.254	2235.86
451.628	2268.17
452.002	2255.52
452.376	2278.34
452.75	2301.85
453.123	2324.44
453.497	2378
453.871	2397.89
454.244	2422.75
454.618	2444.89
454.992	2499.13
455.365	2473.14
455.739	2578.45
456.112	2590.2
456.486	2613.48
456.859	2602.4
457.232	2654.61
457.606	2620.93
457.979	2674.49
458.352	2753.81
458.725	2733.02
459.099	2769.63
459.472	2828.61
459.845	2858.22
460.218	2891.21
460.591	2910.42
460.964	2916.52
461.337	2960.36
461.71	3026.8
462.083	3045.33
462.456	3049.4
462.829	3085.33
463.201	3141.82
463.574	3133.91
463.947	3150.64
464.32	3215.27
464.692	3296.17
465.065	3247.58
465.438	3316.06
465.81	3341.37
466.183	3377.52
466.555	3431.76
466.928	3464.53
467.3	3452.55
467.672	3510.85
468.045	3577.52
468.417	3605.09
468.789	3601.02
469.161	3691.41
469.534	3743.84
469.906	3768.93
470.278	3808.93
470.65	3870.39
471.022	3925.31
471.394	3923.95
471.766	3980.22
472.138	4063.16
472.51	4117.84
472.882	4134.79
473.253	4235.35
473.625	4253.66
473.997	4324.62
474.369	4337.05
474.74	4423.15
475.112	4432.41
475.484	4499.08
475.855	4570.04
476.227	4637.83
476.598	4708.11
476.97	4719.41
477.341	4858.84
477.713	4884.15
478.084	4911.04
478.455	5018.84
478.827	5089.34
479.198	5247.98
479.569	5171.83
479.94	5314.42
480.311	5388.54
480.682	5513.74
481.053	5568.43
481.424	5649.33
481.795	5658.59
482.166	5773.17
482.537	5750.12
482.908	5895.65
483.279	5934.75
483.65	5990.34
484.021	6096.77
484.391	6148.07
484.762	6217.22
485.133	6261.52
485.503	6325.02
485.874	6441.85
486.244	6466.03
486.615	6601.17
486.985	6613.82
487.356	6697.21
487.726	6718.45
488.097	6829.86
488.467	6794.61
488.837	6945.34
489.207	6964.55
489.578	7082.96
489.948	7084.55
490.318	7127.71
490.688	7171.55
491.058	7254.03
491.428	7329.96
491.798	7346.69
492.168	7489.28
492.538	7482.5
492.908	7568.83
493.278	7619.22
493.648	7649.95
494.017	7748.26
494.387	7734.02
494.757	7767.69
495.126	7795.94
495.496	7821.7
495.866	7848.82
496.235	7934.92
496.605	7990.28
496.974	8004.07
497.344	8061.47
497.713	8103.5
498.082	8124.74
498.452	8173.56
498.821	8098.98
499.19	8142.37
499.559	8237.96
499.928	8269.15
500.298	8308.47
500.667	8396.6
501.036	8305.76
501.405	8410.16
501.774	8413.78
502.143	8406.77
502.512	8399.54
502.88	8505.52
503.249	8500.1
503.618	8481.34
503.987	8563.38
504.356	8576.48
504.724	8610.15
505.093	8620.32
505.462	8705.52
505.83	8714.33
506.199	8771.96
506.567	8814.44
506.936	8769.7
507.304	8801.79
507.672	8830.49
508.041	8859.41
508.409	8941.67
508.777	9053.99
509.145	9044.95
509.514	9040.88
509.882	9118.16
510.25	9051.05
510.618	9163.59
510.986	9096.92
511.354	9229.57
511.722	9222.12
512.09	9338.27
512.458	9224.83
512.826	9366.29
513.193	9383.47
513.561	9360.64
513.929	9393.64
514.297	9549.11
514.664	9519.51
515.032	9531.49
515.4	9562.9
515.767	9554.54
516.135	9607.87
516.502	9485.39
516.869	9654.42
517.237	9670.24
517.604	9629.56
517.972	9750.01
518.339	9769.22
518.706	9821.65
519.073	9798.82
519.44	9844.02
519.808	9903
520.175	9872.04
520.542	10018.25
520.909	10058.25
521.276	10017.58
521.643	10052.6
522.009	10135.31
522.376	10108.65
522.743	10203.11
523.11	10249.89
523.477	10401.97
523.843	10404.23
524.21	10438.81
524.577	10522.65
524.943	10549.99
525.31	10561.74
525.676	10634.51
526.043	10728.74
526.409	10703.21
526.776	10800.83
527.142	10776.43
527.508	10905.46
527.874	10971.67
528.241	10966.25
528.607	10952.47
528.973	11089.86
529.339	11018.23
529.705	11209.86
530.071	11219.58
530.437	11376.86
530.803	11304.77
531.169	11429.74
531.535	11373.02
531.901	11384.77
532.267	11455.28
532.632	11468.84
532.998	11490.76
533.364	11585.9
533.73	11537.31
534.095	11662.96
534.461	11789.73
534.826	11734.59
535.192	11825.21
535.557	11797.64
535.923	11835.38
536.288	11916.28
536.653	11960.58
537.019	11879.9
537.384	11994.02
537.749	11989.73
538.114	12027.47
538.479	12129.84
538.845	12125.09
539.21	12089.84
539.575	12323.28
539.94	12257.97
540.305	12354.01
540.67	12297.29
541.034	12345.88
541.399	12387.23
541.764	12359.89
542.129	12440.11
542.494	12465.42
542.858	12470.17
543.223	12396.27
543.587	12585.42
543.952	12567.57
544.316	12637.85
544.681	12580.45
545.045	12664.51
545.41	12763.72
545.774	12693.89
546.138	12781.57
546.503	12879.2
546.867	12800.55
547.231	12896.14
547.595	12827.45
547.959	12949.02
548.324	12917.16
548.688	12959.65
549.052	13041.45
549.416	13052.3
549.779	12988.12
550.143	13012.07
550.507	13117.16
550.871	13123.93
551.235	13103.6
551.599	13276.92
551.962	13252.97
552.326	13256.13
552.689	13360.76
553.053	13272.86
553.417	13302.69
553.78	13474.21
554.143	13435.79
554.507	13437.82
554.87	13555.11
555.234	13665.16
555.597	13548.1
555.96	13585.17
556.323	13740.64
556.686	13675.11
557.05	13812.5
557.413	13744.03
557.776	13803.24
558.139	13896.34
558.502	13878.49
558.865	13895.67
559.228	13915.1
559.59	14030.8
559.953	13976.12
560.316	14078.26
560.679	14156.45
561.041	14184.25
561.404	14236.67
561.767	14386.27
562.129	14363.9
562.492	14420.17
562.854	14459.04
563.217	14332.26
563.579	14429.21
563.941	14502.2
564.304	14689.09
564.666	14673.72
565.028	14699.49
565.39	14791.46
565.753	14856.09
566.115	14914.4
566.477	14951.01
566.839	14980.83
567.201	15078.46
567.563	15125.69
567.925	15198.46
568.287	15254.05
568.648	15229.64
569.01	15344.22
569.372	15438.22
569.734	15369.53
570.095	15431.9
570.457	15491.33
570.819	15536.98
571.18	15554.61
571.542	15676.18
571.903	15617.2
572.265	15762.28
572.626	15863.75
572.987	15910.53
573.349	15912.34
573.71	15970.64
574.071	16041.15
574.432	16071.65
574.794	16153.46
575.155	16196.85
575.516	16166.34
575.877	16231.42
576.238	16326.79
576.599	16292.66
576.96	16284.76
577.32	16265.77
577.681	16375.15
578.042	16447.24
578.403	16384.64
578.763	16464.19
579.124	16486.33
579.485	16600
579.845	16607.91
580.206	16575.82
580.566	16617.63
580.927	16678.64
581.287	16734.24
581.648	16569.49
582.008	16785.76
582.368	16732.65
582.728	16721.81
583.089	16656.72
583.449	16789.6
583.809	16774.23
584.169	16709.6
584.529	16780.56
584.889	16868.92
585.249	16830.96
585.609	16767.45
585.969	16865.98
586.329	16912.31
586.688	16924.06
587.048	16926.55
587.408	16859.66
587.768	16847.68
588.127	16880.67
588.487	16797.96
588.846	16962.7
589.206	16890.39
589.565	16928.81
589.925	17018.97
590.284	16948.24
590.643	17000.89
591.003	17027.79
591.362	17083.6
591.721	17042.48
592.08	16982.36
592.44	17096.71
592.799	17097.39
593.158	17100.55
593.517	17097.16
593.876	17170.16
594.235	17032.98
594.593	17088.35
594.952	17168.57
595.311	17165.64
595.67	17194.79
596.029	17195.01
596.387	17368.12
596.746	17316.59
597.104	17278.63
597.463	17212.19
597.822	17209.02
598.18	17235.01
598.538	17236.14
598.897	17312.98
599.255	17201.79
599.613	17385.52
599.972	17255.13
600.33	17303.26
600.688	17308.91
601.046	17341
601.404	17372.86
601.762	17364.73
602.12	17519.98
602.478	17383.48
602.836	17428.23
603.194	17317.04
603.552	17341
603.91	17282.7
604.268	17449.24
604.625	17350.04
604.983	17472.75
605.341	17406.31
605.698	17578.51
606.056	17577.38
606.413	17426.19
606.771	17695.11
607.128	17600.43
607.485	17528.11
607.843	17599.75
608.2	17618.05
608.557	17641.1
608.914	17600.2
609.272	17697.83
609.629	17730.59
609.986	17813.53
610.343	17617.6
610.7	17836.81
611.057	17766.07
611.414	17703.25
611.771	17715.45
612.127	17900.98
612.484	17844.26
612.841	17905.96
613.198	17863.24
613.554	17825.51
613.911	17926.29
614.267	17889.46
614.624	17952.73
614.98	17921.1
615.337	18053.3
615.693	18039.51
616.05	18033.18
616.406	18123.58
616.762	18037.25
617.118	17928.1
617.475	18006.52
617.831	18147.08
618.187	18150.92
618.543	18100.98
618.899	18335.1
619.255	18275.66
619.611	18245.83
619.967	18305.49
620.323	18246.96
620.678	18247.19
621.034	18239.96
621.39	18230.92
621.746	18129.45
622.101	18421.87
622.457	18296
622.812	18319.96
623.168	18323.57
623.523	18341.42
623.879	18411.93
624.234	18323.57
624.589	18439.05
624.945	18503
625.3	18442.66
625.655	18406.06
626.01	18422.78
626.365	18583.23
626.72	18452.61
627.075	18534.87
627.43	18492.61
627.785	18353.85
628.14	18498.93
628.495	18580.97
628.85	18514.08
629.205	18474.98
629.559	18680.17
629.914	18597.91
630.269	18682.66
630.623	18540.52
630.978	18568.99
631.332	18597.01
631.687	18649.44
632.041	18552.94
632.396	18654.64
632.75	18543.68
633.104	18630
633.459	18532.15
633.813	18651.7
634.167	18619.84
634.521	18683.56
634.875	18714.3
635.229	18607.41
635.583	18622.32
635.937	18530.12
636.291	18648.08
636.645	18653.51
636.999	18608.54
637.352	18687.4
637.706	18612.38
638.06	18800.4
638.413	18763.56
638.767	18632.94
639.121	18661.19
639.474	18620.29
639.828	18657.12
640.181	18705.03
640.534	18672.26
640.888	18685.6
641.241	18593.62
641.594	18729.66
641.947	18771.92
642.301	18640.17
642.654	18699.61
643.007	18613.28
643.36	18688.76
643.713	18693.28
644.066	18753.62
644.419	18723.79
644.771	18596.56
645.124	18370.8
645.477	18295.32
645.83	18328.09
646.182	18268.88
646.535	18238.6
646.888	18326.51
647.24	18311.14
647.593	18492.16
647.945	18509.1
648.298	18382.1
648.65	18279.96
649.002	18307.3
649.355	18411.48
649.707	18385.72
650.059	18488.31
650.411	18678.82
650.763	18750
651.115	19029.54
651.467	18850.34
651.819	18962.2
652.171	18966.72
652.523	18916.32
652.875	18965.59
653.227	18899.6
653.578	19063.67
653.93	19101.4
654.282	18958.13
654.633	18926.04
654.985	19058.47
655.337	18929.88
655.688	19080.84
656.039	19121.97
656.391	18955.87
656.742	18958.58
657.094	19084.46
657.445	19047.39
657.796	19038.13
658.147	18990.67
658.498	19037.9
658.849	19113.61
659.2	19157
659.551	19069.77
659.902	19138.24
660.253	19004.01
660.604	19213.04
660.955	19094.63
661.306	19129.2
661.656	19069.31
662.007	19172.36
662.358	19123.1
662.708	19235.86
663.059	19047.62
663.409	19013.72
663.76	19128.52
664.11	19170.56
664.461	19243.32
664.811	19157.22
665.161	19144.79
665.511	19191.12
665.862	19138.92
666.212	19126.94
666.562	19273.38
666.912	19156.32
667.262	19135.3
667.612	19115.87
667.962	19151.12
668.312	19084.91
668.662	19174.17
669.011	19154.51
669.361	19126.94
669.711	19037
670.06	19025.93
670.41	19006.94
670.76	18883.78
671.109	19069.09
671.459	18992.48
671.808	18975.08
672.157	19001.29
672.507	18847.85
672.856	18822.77
673.205	18865.03
673.554	18848.3
673.904	18738.02
674.253	18814.18
674.602	18881.75
674.951	18496.67
675.3	18395.89
675.649	18674.75
675.998	18701.42
676.346	18648.76
676.695	18664.35
677.044	18433.17
677.393	18445.6
677.741	18554.53
678.09	18576.22
678.438	18456.68
678.787	18389.56
679.135	18440.4
679.484	18289
679.832	18321.09
680.181	18219.85
680.529	18321.54
680.877	18164.93
681.225	18108.21
681.573	18321.31
681.922	18115.67
682.27	18105.5
682.618	18012.85
682.966	18058.72
683.314	17987.99
683.661	17947.76
684.009	17792.51
684.357	17808.56
684.705	17818.27
685.053	17848.1
685.4	17709.58
685.748	17740.99
686.095	17787.09
686.443	17703.25
686.79	17656.92
687.138	17697.83
687.485	17618.05
687.832	17552.74
688.18	17570.37
688.527	17536.25
688.874	17545.06
689.221	17431.84
689.568	17404.05
689.915	17386.87
690.262	17338.29
690.609	17263.94
690.956	17302.81
691.303	17328.12
691.65	17199.31
691.997	17187.1
692.344	17170.61
692.69	17164.05
693.037	17252.64
693.383	17020.78
693.73	17128.35
694.077	16969.71
694.423	16934
694.769	16938.3
695.116	16848.81
695.462	16958.64
695.808	16807.45
696.155	16876.15
696.501	16779.43
696.847	16792.31
697.193	16650.85
697.539	16783.5
697.885	16708.47
698.231	16604.07
698.577	16680.45
698.923	16730.85
699.269	16599.55
699.614	16526.33
699.96	16523.85
700.306	16570.17
700.651	16464.86
700.997	16449.72
701.342	16440.01
701.688	16380.8
702.033	16332.44
702.379	16304.64
702.724	16407.69
703.069	16385.09
703.415	16179
703.76	16162.27
704.105	16246.34
704.45	16205.66
704.795	16152.78
705.14	16083.86
705.485	16118.88
705.83	16037.53
706.175	16101.03
706.52	16048.83
706.865	16021.94
707.209	16068.94
707.554	15987.14
707.899	16068.49
708.243	15958.21
708.588	15979.45
708.932	15866.91
709.277	15933.8
709.621	15952.56
709.966	15912.34
710.31	15803.41
710.654	15708.05
710.998	15756.18
711.342	15802.73
711.687	15733.13
712.031	15763.87
712.375	15632.34
712.719	15747.37
713.063	15716.86
713.407	15766.58
713.75	15681.16
714.094	15711.44
714.438	15665.56
714.782	15693.81
715.125	15613.59
715.469	15608.39
715.812	15567.71
716.156	15570.88
716.499	15555.51
716.843	15583.98
717.186	15487.94
717.53	15595.06
717.873	15637.09
718.216	15532.01
718.559	15442.74
718.902	15359.58
719.246	15491.56
719.589	15388.28
719.932	15332.24
720.275	15407.94
720.617	15238.23
720.96	15392.35
721.303	15321.62
721.646	15325.91
721.989	15310.77
722.331	15346.7
722.674	15246.59
723.016	15329.3
723.359	15309.19
723.701	15334.72
724.044	15216.99
724.386	15138.8
724.729	15285.91
725.071	15191.9
725.413	15317.1
725.755	15235.29
726.097	15219.7
726.439	15132.47
726.782	15138.57
727.124	15208.63
727.465	15125.01
727.807	15111.68
728.149	15152.81
728.491	15140.15
728.833	15264.44
729.175	15167.27
729.516	15147.16
729.858	15193.71
730.199	15175.63
730.541	15077.78
730.882	15108.52
731.224	15204.33
731.565	15083.43
731.906	15166.37
732.248	15197.55
732.589	15058.57
732.93	15096.99
733.271	15179.47
733.612	15201.85
733.953	15175.18
734.294	15200.72
734.635	15096.09
734.976	15228.51
735.317	15123.66
735.658	15114.62
735.999	15229.87
736.339	15210.66
736.68	15211.56
737.021	15185.58
737.361	15188.74
737.702	15300.83
738.042	15321.16
738.383	15356.87
738.723	15382.18
739.063	15305.8
739.404	15312.8
739.744	15291.11
740.084	15383.76
740.424	15383.99
740.764	15364.33
741.104	15486.36
741.444	15344.44
741.784	15419.02
742.124	15422.18
742.464	15366.14
742.804	15399.35
743.143	15491.33
743.483	15488.62
743.823	15544.89
744.162	15508.28
744.502	15630.08
744.841	15600.93
745.181	15679.12
745.52	15682.51
745.86	15743.98
746.199	15698.78
746.538	15729.52
746.877	15833.24
747.216	15796.18
747.556	15768.61
747.895	15898.32
748.234	15896.74
748.573	15811.77
748.911	15894.26
749.25	15894.48
749.589	15950.98
749.928	16005.67
750.267	15981.03
750.605	16065.33
750.944	16000.24
751.283	16055.38
751.621	16205.66
751.96	16034.59
752.298	16139.45
752.636	16124.53
752.975	16158.88
753.313	16006.8
753.651	16319.1
753.989	16173.35
754.327	16241.37
754.666	16211.99
755.004	16255.83
755.342	16367.24
755.679	16371.08
756.017	16269.39
756.355	16425.99
756.693	16450.85
757.031	16423.73
757.368	16303.74
757.706	16435.71
758.044	16393
758.381	16469.84
758.719	16448.82
759.056	16496.28
759.394	16543.51
759.731	16451.76
760.068	16522.94
760.405	16480.68
760.743	16559.55
761.08	16627.35
761.417	16582.37
761.754	16614.46
762.091	16644.29
762.428	16601.58
762.765	16609.72
763.102	16678.64
763.438	16659.21
763.775	16556.16
764.112	16587.57
764.449	16601.13
764.785	16623.28
765.122	16578.53
765.458	16545.31
765.795	16631.86
766.131	16663.28
766.467	16682.49
766.804	16515.03
767.14	16483.62
767.476	16545.31
767.812	16504.64
768.148	16663.05
768.485	16556.61
768.821	16571.98
769.157	16412.21
769.492	16586.67
769.828	16597.52
770.164	16499.89
770.5	16445.88
770.836	16475.03
771.171	16474.13
771.507	16499.44
771.842	16391.87
772.178	16464.19
772.513	16451.3
772.849	16465.09
773.184	16408.37
773.519	16444.3
773.855	16392.32
774.19	16405.43
774.525	16423.06
774.86	16352.55
775.195	16410.18
775.53	16335.6
775.865	16307.13
776.2	16321.14
776.535	16139.9
776.87	16313.23
777.205	16202.5
777.539	16145.78
777.874	16259.45
778.209	16101.94
778.543	16151.65
778.878	16149.62
779.212	16203.18
779.547	16100.13
779.881	16155.04
780.215	16118.21
780.55	16196.62
780.884	15992.33
781.218	16028.26
781.552	16041.15
781.886	15967.25
782.22	15959.57
782.554	15896.07
782.888	15806.58
783.222	15877.53
783.556	15832.56
783.889	15769.74
784.223	15742.85
784.557	15682.29
784.89	15852.9
785.224	15737.2
785.557	15663.3
785.891	15716.86
786.224	15699.69
786.558	15786.01
786.891	15506.24
787.224	15546.92
787.557	15548.73
787.891	15558.9
788.224	15515.74
788.557	15530.2
788.89	15471.44
789.223	15470.31
789.556	15395.97
789.888	15418.11
790.221	15357.32
790.554	15289.53
790.887	15350.09
791.219	15326.59
791.552	15327.72
791.884	15219.92
792.217	15191.68
792.549	15212.24
792.882	15130.66
793.214	15062.41
793.546	15069.65
793.879	15092.47
794.211	14991.46
794.543	15014.05
794.875	15007.27
795.207	15095.63
795.539	15033.04
795.871	15026.71
796.203	14953.27
796.535	14840.73
796.867	14833.27
797.198	14771.8
797.53	14763.21
797.862	14735.87
798.193	14783.78
798.525	14697.23
798.856	14726.38
799.188	14619.49
799.519	14582.2
799.85	14563.67
800.182	14665.36
800.513	14622.65
800.844	14472.37
801.175	14508.98
801.506	14429.66
801.837	14476.22
802.168	14513.5
802.499	14452.04
802.83	14326.16
803.161	14390.79
803.491	14301.3
803.822	14375.2
804.153	14310.8
804.483	14342.66
804.814	14176.79
805.145	14155.09
805.475	14220.63
805.805	14155.77
806.136	14184.7
806.466	14199.84
806.796	14151.03
807.126	13975.89
807.457	14081.88
807.787	14025.83
808.117	13996.68
808.447	13955.1
808.777	13993.06
809.107	13941.31
809.436	13853.41
809.766	13870.81
810.096	13866.97
810.426	13838.72
810.755	13883.46
811.085	13756.46
811.414	13822.22
811.744	13776.8
812.073	13711.94
812.403	13667.42
812.732	13640.53
813.061	13694.99
813.39	13628.55
813.719	13598.05
814.049	13618.61
814.378	13617.03
814.707	13497.71
815.036	13584.49
815.365	13464.26
815.693	13386.75
816.022	13330.71
816.351	13421.1
816.68	13268.56
817.008	13305.4
817.337	13233.08
817.665	13233.08
817.994	13249.58
818.322	13275.12
818.651	13175.68
818.979	13069.7
819.307	13133.65
819.636	13155.8
819.964	13088.46
820.292	13135.91
820.62	13131.62
820.948	13178.62
821.276	13196.25
821.604	13059.98
821.932	13051.17
822.259	13143.14
822.587	13066.08
822.915	13088.46
823.243	13082.58
823.57	13014.33
823.898	13163.03
824.225	13044.84
824.553	13157.38
824.88	13039.19
825.207	13138.62
825.535	13064.73
825.862	13064.73
826.189	13057.5
826.516	13162.35
826.843	13151.96
827.17	13227.66
827.497	13188.57
827.824	13175.23
828.151	13237.15
828.478	13186.53
828.805	13214.1
829.131	13184.05
829.458	13152.63
829.785	13170.71
830.111	13259.75
830.438	13165.52
830.764	13198.28
831.09	13202.58
831.417	13177.49
831.743	13246.64
832.069	13207.55
832.395	13255.23
832.722	13182.69
833.048	13122.35
833.374	13190.15
833.7	13132.52
834.026	13220.66
834.351	13203.71
834.677	13064.73
835.003	13191.05
835.329	13208
835.654	13144.5
835.98	13054.78
836.306	13116.03
836.631	13082.35
836.956	13166.87
837.282	13125.97
837.607	13006.65
837.932	12969.81
838.258	13012.53
838.583	13005.75
838.908	12934.56
839.233	13052.07
839.558	12927.78
839.883	12899.08
840.208	12935.24
840.533	12897.05
840.858	12927.33
841.182	12874.68
841.507	12843.72
841.832	12778.18
842.156	12742.25
842.481	12813.21
842.805	12675.36
843.13	12690.27
843.454	12680.33
843.778	12576.38
844.103	12619.09
844.427	12606.43
844.751	12547
845.075	12523.72
845.399	12595.13
845.723	12439.66
846.047	12389.04
846.371	12428.13
846.695	12417.29
847.019	12274.47
847.343	12235.6
847.666	12248.48
847.99	12212.09
848.313	12105.2
848.637	12049.61
848.96	12023.4
849.284	11980.46
849.607	11882.61
849.931	11869.05
850.254	11805.55
850.577	11746.8
850.9	11735.95
851.223	11689.62
851.546	11690.98
851.869	11643.75
852.192	11644.65
852.515	11458.44
852.838	11443.75
853.161	11436.75
853.483	11375.96
853.806	11408.95
854.129	11396.75
854.451	11318.33
854.774	11320.37
855.096	11228.84
855.419	11264.32
855.741	11166.92
856.063	11095.29
856.385	11079.24
856.708	11002.18
857.03	11007.15
857.352	11053.48
857.674	11044.67
857.996	10975.06
858.318	10890.55
858.64	10951.11
858.961	10852.36
859.283	10857.1
859.605	10745.92
859.926	10826.82
860.248	10742.53
860.57	10787.5
860.891	10753.38
861.212	10689.42
861.534	10696.65
861.855	10646.26
862.176	10663.66
862.498	10696.2
862.819	10675.41
863.14	10647.39
863.461	10594.06
863.782	10613.04
864.103	10549.99
864.424	10532.82
864.745	10511.57
865.065	10525.13
865.386	10487.39
865.707	10409.43
866.027	10469.77
866.348	10451.01
866.668	10418.92
866.989	10390.67
867.309	10306.61
867.63	10381.86
867.95	10359.04
868.27	10277.68
868.59	10312.26
868.91	10295.99
869.23	10167.18
869.55	10200.17
869.87	10203.56
870.19	10255.31
870.51	10246.72
870.83	10208.76
871.15	10150.68
871.469	10137.12
871.789	10051.25
872.109	10114.3
872.428	10061.64
872.748	10102.55
873.067	10094.18
873.386	10070.68
873.706	10063.68
874.025	10010.8
874.344	9951.36
874.663	9959.72
874.982	9955.66
875.301	9976.9
875.62	9866.17
875.939	9984.36
876.258	9925.15
876.577	9883.79
876.896	9874.08
877.214	9790.24
877.533	9838.15
877.852	9808.99
878.17	9863.23
878.489	9846.51
878.807	9809.45
879.125	9755.66
879.444	9830.01
879.762	9726.74
880.08	9760.63
880.398	9728.77
880.716	9711.14
881.034	9674.31
881.352	9639.28
881.67	9600.86
881.988	9655.1
882.306	9654.87
882.624	9577.36
882.941	9492.62
883.259	9503.92
883.577	9529.9
883.894	9546.63
884.212	9445.61
884.529	9479.74
884.846	9452.62
885.164	9454.2
885.481	9367.42
885.798	9371.72
886.115	9340.98
886.432	9324.03
886.75	9234.77
887.067	9350.47
887.383	9281.78
887.7	9209.24
888.017	9212.62
888.334	9186.41
888.651	9223.92
888.967	9196.58
889.284	9160.42
889.6	9061.22
889.917	9071.39
890.233	9107.32
890.55	9076.58
890.866	9060.54
891.182	9032.29
891.498	8935.12
891.815	8953.65
892.131	8879.07
892.447	8890.15
892.763	8854.67
893.079	8858.96
893.395	8837.49
893.71	8780.09
894.026	8757.04
894.342	8721.56
894.657	8640.66
894.973	8668.01
895.289	8672.53
895.604	8698.51
895.92	8542.13
896.235	8528.58
896.55	8538.74
896.865	8506.65
897.181	8449.48
897.496	8468.24
897.811	8470.95
898.126	8374.68
898.441	8398.64
898.756	8293.55
899.071	8255.36
899.386	8332.42
899.7	8252.2
900.015	8190.96
900.33	8114.57
900.644	8126.1
900.959	8130.39
901.273	8156.16
901.588	8086.55
901.902	8032.09
902.216	8038.19
902.531	8029.38
902.845	7974.01
903.159	7940.12
903.473	7945.99
903.787	7796.39
904.101	7839.55
904.415	7830.51
904.729	7750.06
905.042	7781.48
905.356	7689.5
905.67	7704.64
905.984	7781.7
906.297	7630.07
906.611	7594.81
906.924	7636.85
907.237	7578.32
907.551	7452.22
907.864	7476.17
908.177	7442.28
908.491	7507.59
908.804	7421.26
909.117	7388.94
909.43	7379.68
909.743	7298.78
910.056	7330.64
910.368	7234.6
910.681	7189.63
910.994	7229.63
911.307	7239.57
911.619	7137.88
911.932	7118.44
912.244	7079.35
912.557	7137.88
912.869	7014.94
913.181	6994.6
913.494	6960.03
913.806	6927.26
914.118	6917.77
914.43	6833.25
914.742	6866.7
915.054	6878.22
915.366	6803.42
915.678	6755.97
915.99	6744.89
916.302	6741.28
916.613	6637.33
916.925	6660.38
917.236	6651.34
917.548	6600.94
917.859	6605.46
918.171	6556.88
918.482	6529.08
918.794	6536.54
919.105	6508.29
919.416	6463.32
919.727	6405.02
920.038	6390.33
920.349	6381.74
920.66	6303.77
920.971	6319.59
921.282	6247.05
921.593	6302.42
921.903	6219.94
922.214	6252.25
922.525	6185.36
922.835	6155.98
923.146	6121.86
923.456	6110.56
923.767	6072.37
924.077	6047.96
924.387	6038.7
924.697	5968.64
925.008	6006.38
925.318	5960.28
925.628	5970.9
925.938	5910.79
926.248	5901.75
926.558	5868.53
926.867	5825.14
927.177	5823.11
927.487	5751.47
927.796	5724.58
928.106	5734.75
928.416	5703.56
928.725	5633.74
929.034	5636.45
929.344	5693.17
929.653	5600.29
929.962	5583.12
930.271	5557.35
930.581	5524.13
930.89	5485.49
931.199	5459.05
931.508	5450.69
931.817	5468.99
932.125	5422.67
932.434	5421.99
932.743	5353.52
933.051	5313.74
933.36	5343.12
933.669	5273.97
933.977	5308.09
934.286	5281.88
934.594	5236.91
934.902	5242.33
935.21	5217.25
935.519	5164.37
935.827	5146.07
936.135	5101.09
936.443	5097.93
936.751	5082.56
937.059	5071.94
937.367	5019.97
937.674	5097.93
937.982	5027.2
938.29	4982.45
938.597	5024.94
938.905	4884.38
939.213	4941.32
939.52	4845.96
939.827	4852.97
940.135	4862.68
940.442	4877.82
940.749	4788.11
941.056	4811.61
941.363	4786.98
941.67	4751.05
941.977	4728.22
942.284	4708.56
942.591	4674.89
942.898	4701.11
943.205	4688.9
943.511	4640.32
943.818	4614.1
944.125	4600.99
944.431	4590.37
944.738	4578.62
945.044	4571.39
945.35	4522.8
945.657	4469.25
945.963	4491.39
946.269	4461.11
946.575	4426.99
946.881	4465.63
947.187	4389.93
947.493	4354.22
947.799	4375.69
948.105	4341.79
948.41	4304.73
948.716	4290.04
949.022	4277.39
949.327	4257.5
949.633	4217.05
949.938	4246.65
950.244	4211.4
950.549	4152.65
950.854	4149.03
951.16	4203.27
951.465	4126.88
951.77	4102.02
952.075	4129.14
952.38	4096.83
952.685	4024.06
952.99	4059.99
953.294	4031.97
953.599	3965.31
953.904	4001.69
954.209	3966.21
954.513	3968.02
954.818	3929.83
955.122	3908.13
955.426	3949.71
955.731	3924.4
956.035	3871.97
956.339	3883.73
956.643	3828.81
956.948	3815.7
957.252	3815.03
957.556	3827.46
957.86	3831.07
958.163	3768.25
958.467	3762.37
958.771	3798.53
959.075	3723.73
959.378	3682.6
959.682	3702.26
959.985	3661.36
960.289	3670.17
960.592	3646.67
960.896	3640.57
961.199	3602.38
961.502	3593.34
961.805	3594.47
962.108	3519.89
962.411	3538.2
962.714	3523.74
963.017	3519.67
963.32	3490.52
963.623	3497.75
963.926	3506.11
964.228	3441.48
964.531	3466.79
964.833	3456.62
965.136	3405.32
965.438	3402.16
965.741	3378.88
966.043	3387.47
966.345	3358.77
966.648	3323.51
966.95	3331.88
967.252	3325.32
967.554	3304.53
967.856	3293.68
968.158	3286
968.46	3276.06
968.761	3246.45
969.063	3247.13
969.365	3208.04
969.666	3196.29
969.968	3163.74
970.269	3173.24
970.571	3142.28
970.872	3146.12
971.174	3153.35
971.475	3100.92
971.776	3070.87
972.077	3122.39
972.378	3087.59
972.679	3063.86
972.98	3055.95
973.281	3027.25
973.582	3010.75
973.883	2998.55
974.183	2983.64
974.484	2988.38
974.785	2948.83
975.085	2958.78
975.386	2962.17
975.686	2910.42
975.986	2949.06
976.287	2894.15
976.587	2881.72
976.887	2890.53
977.187	2876.29
977.487	2870.64
977.787	2823.19
978.087	2833.36
978.387	2804.43
978.687	2834.26
978.987	2791.78
979.286	2742.06
979.586	2780.25
979.885	2747.03
980.185	2769.63
980.484	2720.14
980.784	2722.17
981.083	2676.98
981.382	2693.02
981.682	2654.15
981.981	2669.52
982.28	2696.64
982.579	2645.79
982.878	2682.4
983.177	2630.88
983.475	2645.79
983.774	2631.78
984.073	2606.02
984.372	2593.14
984.67	2576.42
984.969	2561.73
985.267	2559.01
985.566	2570.54
985.864	2554.72
986.162	2508.85
986.461	2485.12
986.759	2480.6
987.057	2481.5
987.355	2420.94
987.653	2484.67
987.951	2468.85
988.249	2432.46
988.547	2413.93
988.844	2402.41
989.142	2402.18
989.44	2419.36
989.737	2357.89
990.035	2360.83
990.332	2378
990.63	2323.77
990.927	2347.95
991.224	2322.64
991.521	2301.17
991.819	2321.28
992.116	2318.34
992.413	2279.25
992.71	2305.24
993.006	2288.06
993.303	2236.99
993.6	2258.91
993.897	2245.58
994.193	2225.24
994.49	2208.06
994.787	2203.77
995.083	2195.63
995.379	2159.25
995.676	2186.37
995.972	2153.38
996.268	2189.76
996.565	2131.91
996.861	2139.59
997.157	2092.13
997.453	2094.85
997.749	2113.38
998.044	2092.81
998.34	2076.09
998.636	2047.84
998.932	2035.64
999.227	2015.75
999.523	2034.06
999.818	2033.83
1000.114	1989.54
1000.409	2010.55
1000.704	1992.48
1001	2004.9
1001.295	1987.73
1001.59	1963.32
1001.885	1937.34
1002.18	1931.23
1002.475	1918.58
1002.77	1924.46
1003.065	1913.61
1003.359	1894.63
1003.654	1907.51
1003.949	1904.79
1004.243	1874.06
1004.538	1839.49
1004.832	1866.15
1005.127	1824.34
1005.421	1842.2
1005.715	1826.38
1006.009	1801.07
1006.304	1785.48
1006.598	1793.61
1006.892	1774.63
1007.186	1783.44
1007.48	1775.08
1007.773	1756.32
1008.067	1751.8
1008.361	1748.64
1008.655	1727.17
1008.948	1690.11
1009.242	1682.2
1009.535	1698.7
1009.829	1680.62
1010.122	1681.3
1010.415	1674.97
1010.708	1679.49
1011.001	1642.43
1011.295	1640.17
1011.588	1620.51
1011.881	1591.13
1012.173	1613.28
1012.466	1622.54
1012.759	1608.53
1013.052	1592.71
1013.344	1545.26
1013.637	1566.95
1013.93	1560.4
1014.222	1541.19
1014.514	1536.89
1014.807	1504.13
1015.099	1522.21
1015.391	1510
1015.683	1503.45
1015.976	1492.6
1016.268	1497.12
1016.56	1480.4
1016.851	1466.16
1017.143	1468.87
1017.435	1438.37
1017.727	1439.27
1018.018	1442.21
1018.31	1431.36
1018.602	1415.54
1018.893	1395.66
1019.185	1392.94
1019.476	1372.61
1019.767	1415.77
1020.058	1366.96
1020.35	1375.77
1020.641	1349.33
1020.932	1345.04
1021.223	1337.8
1021.514	1323.57
1021.804	1317.92
1022.095	1289.9
1022.386	1322.89
1022.677	1312.95
1022.967	1291.93
1023.258	1288.09
1023.548	1263.23
1023.839	1263
1024.129	1238.37
1024.419	1276.11
1024.709	1251.48
1025	1198.6
1025.29	1234.53
1025.58	1218.71
1025.87	1226.39
1026.16	1177.36
1026.449	1192.72
1026.739	1180.75
1027.029	1159.5
1027.319	1168.77
1027.608	1164.48
1027.898	1145.94
1028.187	1174.42
1028.477	1110.24
1028.766	1138.04
1029.055	1124.25
1029.344	1105.49
1029.634	1124.25
1029.923	1086.74
1030.212	1104.36
1030.501	1078.15
1030.79	1062.56
1031.078	1070.69
1031.367	1048.77
1031.656	1055.55
1031.945	1050.81
1032.233	1048.55
1032.522	1046.29
1032.81	1036.34
1033.099	1026.17
1033.387	1025.5
1033.675	1018.04
1033.963	990.02
1034.251	995.44
1034.54	979.4
1034.828	983.24
1035.116	977.59
1035.403	971.03
1035.691	975.33
1035.979	959.51
1036.267	935.33
1036.554	939.17
1036.842	933.97
1037.129	928.32
1037.417	932.84
1037.704	931.26
1037.992	918.38
1038.279	928.55
1038.566	910.7
1038.853	910.7
1039.14	910.7
