Data from blue_clamp_base_FLMS001491_00055.txt Node
Date: Wed Feb 08 15:16:13 GMT 2017
User: dcchb
Spectrometer: FLMS00149
Trigger mode: 0
Integration Time (sec): 2.000000E-2
Scans to average: 10
Electric dark correction enabled: true
Nonlinearity correction enabled: false
Boxcar width: 0
XAxis mode: Wavelengths
Number of Pixels in Spectrum: 2048
>>>>>Begin Spectral Data<<<<<
341.393	-11.72
341.776	-11.72
342.16	-11.72
342.543	-64.83
342.927	-70.7
343.31	-69.35
343.693	-72.51
344.077	-51.27
344.46	-49.46
344.843	-44.04
345.226	-41.78
345.61	-35.45
345.993	-29.12
346.376	-21.67
346.759	6.58
347.142	25.56
347.525	35.28
347.908	67.6
348.291	71.21
348.674	83.42
349.057	125
349.44	142.85
349.823	145.34
350.206	156.18
350.588	189.85
350.971	222.17
351.354	211.1
351.737	235.5
352.119	240.93
352.502	241.83
352.884	264.43
353.267	274.82
353.65	286.57
354.032	298.33
354.414	301.94
354.797	318.44
355.179	305.56
355.562	331.77
355.944	312.79
356.326	357.53
356.709	323.64
357.091	322.05
357.473	327.25
357.855	326.57
358.238	330.42
358.62	334.48
359.002	339.91
359.384	369.74
359.766	336.97
360.148	325.9
360.53	341.04
360.912	327.25
361.294	353.47
361.676	338.1
362.057	332.22
362.439	339
362.821	329.06
363.203	317.08
363.584	337.65
363.966	317.76
364.348	307.14
364.729	318.66
365.111	321.83
365.493	315.27
365.874	311.43
366.256	309.85
366.637	311.21
367.019	316.86
367.4	323.86
367.781	303.3
368.163	328.83
368.544	304.65
368.925	310.3
369.306	337.87
369.688	330.42
370.069	304.43
370.45	324.09
370.831	314.6
371.212	301.94
371.593	284.09
371.974	302.39
372.355	309.62
372.736	304.2
373.117	301.04
373.498	309.62
373.879	325.9
374.26	314.6
374.641	294.03
375.021	316.86
375.402	319.57
375.783	335.39
376.163	326.57
376.544	308.04
376.925	336.97
377.305	330.64
377.686	318.66
378.066	311.88
378.447	336.29
378.827	330.19
379.208	324.09
379.588	327.48
379.968	325.22
380.349	343.07
380.729	337.19
381.109	333.35
381.489	343.52
381.87	320.02
382.25	333.58
382.63	345.33
383.01	346.91
383.39	340.81
383.77	352.56
384.15	355.95
384.53	341.04
384.91	354.14
385.29	355.05
385.67	349.4
386.049	358.21
386.429	369.96
386.809	335.61
387.189	341.94
387.568	346.69
387.948	385.78
388.328	367.02
388.707	369.28
389.087	367.7
389.466	367.02
389.846	391.43
390.225	383.3
390.605	359.11
390.984	358.89
391.363	380.81
391.743	380.58
392.122	388.27
392.501	392.79
392.881	403.41
393.26	406.12
393.639	399.11
394.018	403.86
394.397	412.67
394.776	431.66
395.155	418.32
395.534	435.27
395.913	425.55
396.292	419.9
396.671	425.55
397.05	437.53
397.429	433.92
397.808	440.24
398.186	447.93
398.565	437.76
398.944	454.48
399.323	460.13
399.701	459
400.08	453.58
400.458	475.5
400.837	480.24
401.215	490.64
401.594	483.41
401.972	491.77
402.351	491.77
402.729	496.51
403.107	502.61
403.486	491.31
403.864	505.33
404.242	525.44
404.62	524.99
404.999	512.78
405.377	523.63
405.755	541.03
406.133	528.15
406.511	539.22
406.889	565.21
407.267	584.19
407.645	585.78
408.023	560.47
408.401	538.77
408.779	588.94
409.156	601.59
409.534	624.19
409.912	624.42
410.29	623.97
410.667	634.36
411.045	628.71
411.422	650.86
411.8	638.66
412.178	642.95
412.555	665.55
412.933	652.89
413.31	659.67
413.687	673
414.065	682.27
414.442	727.24
414.819	732.44
415.197	710.74
415.574	731.76
415.951	741.25
416.328	765.88
416.705	750.52
417.082	738.54
417.46	767.01
417.837	770.18
418.214	779.89
418.591	792.55
418.967	782.15
419.344	785.77
419.721	802.04
420.098	816.96
420.475	807.01
420.852	811.53
421.228	805.2
421.605	818.09
421.982	852.21
422.358	863.28
422.735	841.81
423.111	864.41
423.488	914.81
423.864	894.47
424.241	907.35
424.617	905.32
424.994	900.57
425.37	940.12
425.746	920.46
426.123	948.03
426.499	941.7
426.875	972.88
427.251	981.92
427.627	1030.96
428.003	1021.47
428.379	1017.85
428.756	1055.37
429.132	1065.76
429.507	1044.07
429.883	1082.26
430.259	1087.01
430.635	1094.46
431.011	1108.93
431.387	1125.42
431.763	1136.72
432.138	1129.26
432.514	1176.04
432.89	1187.34
433.265	1192.09
433.641	1216.49
434.016	1221.92
434.392	1261.46
434.767	1282.03
435.143	1264.63
435.518	1294.91
435.894	1307.79
436.269	1328.13
436.644	1345.76
437.02	1347.79
437.395	1351.86
437.77	1380.33
438.145	1366.55
438.52	1411.52
438.895	1432.53
439.271	1427.79
439.646	1473.89
440.021	1475.47
440.395	1484.28
440.77	1486.09
441.145	1481.57
441.52	1544.39
441.895	1575.35
442.27	1532.87
442.645	1545.52
443.019	1598.18
443.394	1572.64
443.769	1604.05
444.143	1597.73
444.518	1634.11
444.892	1596.14
445.267	1645.86
445.641	1658.06
446.016	1687.44
446.39	1701.9
446.764	1698.97
447.139	1709.59
447.513	1716.82
447.887	1741
448.262	1736.93
448.636	1759.08
449.01	1778.06
449.384	1777.83
449.758	1814.22
450.132	1830.26
450.506	1855.57
450.88	1836.14
451.254	1869.58
451.628	1906.87
452.002	1911.62
452.376	1941.22
452.75	1930.82
453.123	1958.62
453.497	1972.18
453.871	2027.55
454.244	2063.25
454.618	2032.07
454.992	2094.66
455.365	2103.02
455.739	2121.55
456.112	2144.6
456.486	2163.36
456.859	2171.04
457.232	2256.24
457.606	2199.07
457.979	2225.51
458.352	2293.08
458.725	2288.78
459.099	2339.18
459.472	2370.14
459.845	2402
460.218	2399.97
460.591	2426.41
460.964	2432.05
461.337	2503.92
461.71	2518.15
462.083	2554.54
462.456	2566.06
462.829	2576.01
463.201	2607.64
463.574	2625.04
463.947	2662.56
464.32	2665.95
464.692	2701.65
465.065	2717.02
465.438	2736.68
465.81	2809.45
466.183	2811.03
466.555	2879.73
466.928	2903.68
467.3	2928.54
467.672	2965.15
468.045	3015.77
468.417	3031.59
468.789	3061.87
469.161	3100.74
469.534	3137.12
469.906	3172.37
470.278	3194.97
470.65	3217.8
471.022	3274.97
471.394	3343.9
471.766	3354.74
472.138	3367.85
472.51	3465.25
472.882	3500.28
473.253	3530.56
473.625	3583.44
473.997	3620.95
474.369	3644.23
474.74	3721.74
475.112	3749.76
475.484	3792.47
475.855	3823.2
476.227	3870.66
476.598	3989.98
476.97	3970.55
477.341	4030.66
477.713	4083.31
478.084	4109.07
478.455	4227.04
478.827	4241.95
479.198	4330.31
479.569	4302.97
479.94	4450.08
480.311	4450.76
480.682	4536.18
481.053	4590.19
481.424	4627.25
481.795	4716.51
482.166	4726.23
482.537	4827.25
482.908	4895.72
483.279	4931.42
483.65	4968.49
484.021	4998.99
484.391	5085.77
484.762	5103.62
485.133	5140.23
485.503	5224.75
485.874	5324.86
486.244	5312.2
486.615	5341.58
486.985	5445.31
487.356	5530.05
487.726	5529.83
488.097	5605.08
488.467	5621.8
488.837	5701.57
489.207	5739.54
489.578	5782.25
489.948	5867.44
490.318	5900.89
490.688	5905.18
491.058	5931.4
491.428	5989.93
491.798	6012.3
492.168	6146.99
492.538	6096.37
492.908	6197.38
493.278	6250.03
493.648	6243.71
494.017	6231.5
494.387	6346.75
494.757	6335
495.126	6418.16
495.496	6390.37
495.866	6407.77
496.235	6476.02
496.605	6473.53
496.974	6499.74
497.344	6530.25
497.713	6546.3
498.082	6564.83
498.452	6594.21
498.821	6620.87
499.19	6654.54
499.559	6673.3
499.928	6637.59
500.298	6685.05
500.667	6749.46
501.036	6766.18
501.405	6784.03
501.774	6760.98
502.143	6789.23
502.512	6876.68
502.88	6858.15
503.249	6865.38
503.618	6876.46
503.987	6893.86
504.356	6866.74
504.724	6906.51
505.093	6960.98
505.462	6968.43
505.83	6942.67
506.199	7000.52
506.567	7073.06
506.936	7094.98
507.304	7085.27
507.672	7120.74
508.041	7121.2
508.409	7143.12
508.777	7197.81
509.145	7165.72
509.514	7195.77
509.882	7186.05
510.25	7234.64
510.618	7225.6
510.986	7240.97
511.354	7294.07
511.722	7293.17
512.09	7371.59
512.458	7287.97
512.826	7400.29
513.193	7398.03
513.561	7369.78
513.929	7484.13
514.297	7496.1
514.664	7446.39
515.032	7427.18
515.4	7570.68
515.767	7503.33
516.135	7551.47
516.502	7507.18
516.869	7643.9
517.237	7581.98
517.604	7568.42
517.972	7697
518.339	7691.35
518.706	7658.13
519.073	7648.87
519.44	7691.35
519.808	7704.01
520.175	7686.61
520.542	7828.3
520.909	7804.12
521.276	7801.63
521.643	7825.81
522.009	7922.31
522.376	7913.49
522.743	7899.26
523.11	7914.85
523.477	8047.27
523.843	8103.32
524.21	8125.46
524.577	8134.28
524.943	8148.06
525.31	8175.86
525.676	8240.49
526.043	8258.12
526.409	8247.04
526.776	8380.6
527.142	8333.59
527.508	8382.63
527.874	8419.02
528.241	8437.09
528.607	8437.32
528.973	8525.68
529.339	8458.79
529.705	8503.53
530.071	8578.56
530.437	8607.94
530.803	8608.84
531.169	8635.51
531.535	8617.65
531.901	8625.56
532.267	8627.6
532.632	8722.28
532.998	8709.4
533.364	8812.68
533.73	8725.22
534.095	8851.09
534.461	8827.59
534.826	8851.32
535.192	8885.67
535.557	8944.88
535.923	8927.7
536.288	9014.93
536.653	9020.81
537.019	8976.97
537.384	9068.26
537.749	9042.73
538.114	9028.49
538.479	9056.97
538.845	9155.04
539.21	9103.52
539.575	9111.88
539.94	9181.26
540.305	9178.32
540.67	9157.08
541.034	9245.21
541.399	9204.98
541.764	9244.76
542.129	9298.54
542.494	9306.9
542.858	9245.43
543.223	9247.92
543.587	9391.19
543.952	9336.73
544.316	9354.36
544.681	9341.7
545.045	9368.82
545.41	9451.98
545.774	9420.12
546.138	9389.16
546.503	9441.59
546.867	9421.48
547.231	9483.62
547.595	9441.81
547.959	9507.12
548.324	9519.1
548.688	9544.18
549.052	9573.34
549.416	9524.75
549.779	9530.17
550.143	9575.82
550.507	9572.88
550.871	9598.19
551.235	9610.62
551.599	9583.28
551.962	9653.11
552.326	9657.85
552.689	9689.49
553.053	9634.13
553.417	9695.14
553.78	9824.18
554.143	9769.26
554.507	9751.18
554.87	9739.89
555.234	9794.57
555.597	9768.13
555.96	9797.06
556.323	9820.11
556.686	9847.68
557.05	9873.44
557.413	9916.83
557.776	9794.12
558.139	9882.48
558.502	9871.63
558.865	9840.45
559.228	9980.33
559.59	9958.18
559.953	9944.4
560.316	10036.6
560.679	10067.56
561.041	10025.98
561.404	10087.67
561.767	10125.41
562.129	10096.94
562.492	10209.03
562.854	10166.77
563.217	10148.46
563.579	10134.23
563.941	10249.93
564.304	10226.43
564.666	10217.16
565.028	10272.3
565.39	10296.71
565.753	10358.4
566.115	10379.87
566.477	10444.05
566.839	10427.55
567.201	10543.71
567.563	10530.6
567.925	10589.58
568.287	10558.62
568.648	10645.62
569.01	10582.12
569.372	10685.85
569.734	10627.09
570.095	10711.16
570.457	10792.29
570.819	10792.29
571.18	10803.81
571.542	10844.26
571.903	10844.94
572.265	10891.72
572.626	10885.84
572.987	10915.22
573.349	10880.87
573.71	10970.81
574.071	11056.91
574.432	11050.59
574.794	11072.73
575.155	11075.67
575.516	11038.61
575.877	11107.31
576.238	11199.28
576.599	11149.34
576.96	11158.38
577.32	11225.72
577.681	11221.43
578.042	11317.92
578.403	11242.9
578.763	11317.92
579.124	11360.18
579.485	11409.9
579.845	11429.11
580.206	11401.54
580.566	11367.41
580.927	11426.39
581.287	11489.9
581.648	11398.15
582.008	11475.66
582.368	11518.14
582.728	11526.73
583.089	11474.3
583.449	11524.47
583.809	11455.32
584.169	11467.98
584.529	11485.38
584.889	11573.96
585.249	11505.04
585.609	11477.92
585.969	11595.66
586.329	11510.69
586.688	11604.02
587.048	11533.96
587.408	11605.82
587.768	11550.91
588.127	11615.77
588.487	11565.37
588.846	11685.6
589.206	11637.01
589.565	11609.21
589.925	11627.29
590.284	11654.19
590.643	11615.77
591.003	11625.03
591.362	11726.27
591.721	11742.09
592.08	11746.61
592.44	11744.58
592.799	11755.43
593.158	11738.48
593.517	11752.26
593.876	11677.46
594.235	11768.53
594.593	11769.21
594.952	11682.21
595.311	11727.4
595.67	11749.1
596.029	11808.08
596.387	11907.74
596.746	11847.4
597.104	11857.8
597.463	11863.67
597.822	11875.87
598.18	11770.11
598.538	11783
598.897	11844.24
599.255	11774.86
599.613	11906.38
599.972	11904.35
600.33	11905.03
600.688	11816.89
601.046	11848.76
601.404	11854.63
601.762	11965.14
602.12	11974.63
602.478	11929.43
602.836	11899.15
603.194	11873.16
603.552	11962.88
603.91	11914.97
604.268	12011.92
604.625	11880.17
604.983	11907.51
605.341	11907.29
605.698	11958.13
606.056	11965.82
606.413	11977.79
606.771	11979.37
607.128	11999.49
607.485	11887.63
607.843	12073.84
608.2	12050.78
608.557	12131.69
608.914	12116.32
609.272	12081.29
609.629	12035.42
609.986	12130.56
610.343	12129.2
610.7	12191.35
611.057	12142.76
611.414	12113.16
611.771	12176.43
612.127	12226.15
612.484	12197.67
612.841	12236.32
613.198	12225.02
613.554	12211.01
613.911	12230.67
614.267	12261.85
614.624	12227.5
614.98	12321.74
615.337	12371.45
615.693	12321.06
616.05	12269.31
616.406	12321.06
616.762	12375.3
617.118	12385.01
617.475	12378.91
617.831	12344.34
618.187	12488.29
618.543	12413.71
618.899	12490.1
619.255	12549.53
619.611	12474.73
619.967	12510.66
620.323	12541.62
620.678	12448.74
621.034	12441.06
621.39	12481.73
621.746	12532.35
622.101	12646.7
622.457	12561.73
622.812	12524.22
623.168	12656.64
623.523	12642.86
623.879	12646.02
624.234	12595.63
624.589	12620.71
624.945	12710.65
625.3	12676.31
625.655	12708.62
626.01	12776.42
626.365	12726.93
626.72	12726.25
627.075	12617.78
627.43	12705.68
627.785	12676.98
628.14	12780.94
628.495	12753.82
628.85	12758.56
629.205	12739.35
629.559	12905.45
629.914	12790.2
630.269	12781.61
630.623	12841.27
630.978	12808.28
631.332	12883.08
631.687	12867.71
632.041	12867.94
632.396	12872.01
632.75	12936.19
633.104	12825.68
633.459	12797.66
633.813	12780.48
634.167	12858.9
634.521	12890.08
634.875	12843.08
635.229	12873.36
635.583	12867.94
635.937	12958.78
636.291	12939.12
636.645	12838.33
636.999	12912.23
637.352	12987.48
637.706	12925.79
638.06	13065.67
638.413	12993.13
638.767	12945.22
639.121	13051.66
639.474	13018.22
639.828	12990.87
640.181	13049.4
640.534	13060.25
640.888	12997.43
641.241	12995.62
641.594	12974.38
641.947	13072
642.301	13057.54
642.654	13103.64
643.007	13089.85
643.36	13090.76
643.713	13115.16
644.066	13092.34
644.419	13143.86
644.771	13133.24
645.124	13136.86
645.477	13055.28
645.83	13062.51
646.182	13036.3
646.535	12867.03
646.888	12933.93
647.24	12793.59
647.593	12895.06
647.945	12948.39
648.298	12908.16
648.65	12864.55
649.002	12815.06
649.355	12941.16
649.707	13025.22
650.059	13019.8
650.411	13285.55
650.763	13291.2
651.115	13401.94
651.467	13364.42
651.819	13428.6
652.171	13452.56
652.523	13452.33
652.875	13470.18
653.227	13432.9
653.578	13481.93
653.93	13515.83
654.282	13410.07
654.633	13413.23
654.985	13584.76
655.337	13455.04
655.688	13546.79
656.039	13531.65
656.391	13480.58
656.742	13558.99
657.094	13554.02
657.445	13651.87
657.796	13585.21
658.147	13494.36
658.498	13634.25
658.849	13650.52
659.2	13644.64
659.551	13615.04
659.902	13683.28
660.253	13682.15
660.604	13720.8
660.955	13702.04
661.306	13702.49
661.656	13656.62
662.007	13623.85
662.358	13741.59
662.708	13713.34
663.059	13775.26
663.409	13748.59
663.76	13718.31
664.11	13779.33
664.461	13735.26
664.811	13770.29
665.161	13739.33
665.511	13742.04
665.862	13748.37
666.212	13760.12
666.562	13828.14
666.912	13732.77
667.262	13697.52
667.612	13767.58
667.962	13785.88
668.312	13707.69
668.662	13765.32
669.011	13652.1
669.361	13695.49
669.711	13634.92
670.06	13592.67
670.41	13704.75
670.76	13568.94
671.109	13597.18
671.459	13541.37
671.808	13590.63
672.157	13539.79
672.507	13460.47
672.856	13506.79
673.205	13488.49
673.554	13496.85
673.904	13450.52
674.253	13443.06
674.602	13340.92
674.951	13201.26
675.3	13084.43
675.649	13347.7
675.998	13332.79
676.346	13342.5
676.695	13310.86
677.044	13186.57
677.393	13324.2
677.741	13243.3
678.09	13158.78
678.438	13136.41
678.787	13205.1
679.135	13233.8
679.484	13011.66
679.832	13038.33
680.181	12980.93
680.529	12968.5
680.877	12966.69
681.225	12923.3
681.573	12996.07
681.922	12901.61
682.27	12889.18
682.618	12873.59
682.966	12832.91
683.314	12808.73
683.661	12738.22
684.009	12673.14
684.357	12670.2
684.705	12648.51
685.053	12655.29
685.4	12634.05
685.748	12547.72
686.095	12613.71
686.443	12531.45
686.79	12531.68
687.138	12506.82
687.485	12562.86
687.832	12521.05
688.18	12487.61
688.527	12447.84
688.874	12396.76
689.221	12381.62
689.568	12390.66
689.915	12287.84
690.262	12367.61
690.609	12277.22
690.956	12237.45
691.303	12219.14
691.65	12176.66
691.997	12201.97
692.344	12112.03
692.69	12174.4
693.037	12214.85
693.383	12080.16
693.73	12043.55
694.077	12044.46
694.423	12009.43
694.769	11992.26
695.116	12028.86
695.462	12019.83
695.808	11911.35
696.155	12003.1
696.501	11914.74
696.847	11906.83
697.193	11836.33
697.539	11931.92
697.885	11893.95
698.231	11789.55
698.577	11871.13
698.923	11892.37
699.269	11827.74
699.614	11737.35
699.96	11839.26
700.306	11823.45
700.651	11806.95
700.997	11667.29
701.342	11739.61
701.688	11720.85
702.033	11673.17
702.379	11704.35
702.724	11676.78
703.069	11738.02
703.415	11607.41
703.76	11662.55
704.105	11630.23
704.45	11607.86
704.795	11564.92
705.14	11597.46
705.485	11574.19
705.83	11500.06
706.175	11537.58
706.52	11526.28
706.865	11444.02
707.209	11456.45
707.554	11498.26
707.899	11453.06
708.243	11478.6
708.588	11444.47
708.932	11390.24
709.277	11436.34
709.621	11361.54
709.966	11371.93
710.31	11479.73
710.654	11289.9
710.998	11349.11
711.342	11363.12
711.687	11439.95
712.031	11400.86
712.375	11304.14
712.719	11365.83
713.063	11340.07
713.407	11387.98
713.75	11289.9
714.094	11316.34
714.438	11307.3
714.782	11367.19
715.125	11350.24
715.469	11343.46
715.812	11258.94
716.156	11273.4
716.499	11368.77
716.843	11272.27
717.186	11235.67
717.53	11338.71
717.873	11371.93
718.216	11283.57
718.559	11215.78
718.902	11130.13
719.246	11217.81
719.589	11180.07
719.932	11207.19
720.275	11228.66
720.617	11180.53
720.96	11145.27
721.303	11121.54
721.646	11211.26
721.989	11154.31
722.331	11165.84
722.674	11170.81
723.016	11156.35
723.359	11201.32
723.701	11228.66
724.044	11155.44
724.386	11119.51
724.729	11205.84
725.071	11234.31
725.413	11183.24
725.755	11132.84
726.097	11091.26
726.439	11076.8
726.782	11113.18
727.124	11184.37
727.465	11138.04
727.807	11171.26
728.149	11120.64
728.491	11071.83
728.833	11114.31
729.175	11068.66
729.516	11166.29
729.858	11163.12
730.199	11184.59
730.541	11154.76
730.882	11218.94
731.224	11202.45
731.565	11139.62
731.906	11191.15
732.248	11226.17
732.589	11190.92
732.93	11233.18
733.271	11176.46
733.612	11204.03
733.953	11248.32
734.294	11278.15
734.635	11349.33
734.976	11257.81
735.317	11254.2
735.658	11259.39
735.999	11280.41
736.339	11293.29
736.68	11375.1
737.021	11357.47
737.361	11315.44
737.702	11464.36
738.042	11407.86
738.383	11414.19
738.723	11446.28
739.063	11420.52
739.404	11529.44
739.744	11460.29
740.084	11532.15
740.424	11445.15
740.764	11512.49
741.104	11551.81
741.444	11570.12
741.784	11642.66
742.124	11628.88
742.464	11644.92
742.804	11679.72
743.143	11693.73
743.483	11726.73
743.823	11584.58
744.162	11667.97
744.502	11721.53
744.841	11746.61
745.181	11821.41
745.52	11846.27
745.86	11874.74
746.199	11896.66
746.538	11966.27
746.877	12002.88
747.216	12039.94
747.556	12121.74
747.895	12144.57
748.234	12100.28
748.573	12205.58
748.911	12163.1
749.25	12231.57
749.589	12249.42
749.928	12328.97
750.267	12325.58
750.605	12373.26
750.944	12424.11
751.283	12332.59
751.621	12454.39
751.96	12456.88
752.298	12510.21
752.636	12563.54
752.975	12459.81
753.313	12560.38
753.651	12691.45
753.989	12649.41
754.327	12659.81
754.666	12715.63
755.004	12773.48
755.342	12825.68
755.679	12784.55
756.017	12745.23
756.355	12876.07
756.693	12859.58
757.031	12911.33
757.368	12871.1
757.706	12892.8
758.044	12910.88
758.381	12968.95
758.719	13025
759.056	13043.98
759.394	13082.4
759.731	13063.19
760.068	13082.4
760.405	13102.28
760.743	13097.54
761.08	13173.92
761.417	13157.87
761.754	13232.67
762.091	13224.31
762.428	13238.32
762.765	13275.61
763.102	13356.29
763.438	13274.48
763.775	13243.75
764.112	13356.51
764.449	13419.11
764.785	13336.63
765.122	13281.71
765.458	13383.63
765.795	13363.07
766.131	13432.22
766.467	13390.64
766.804	13377.76
767.14	13354.03
767.476	13465.44
767.812	13403.97
768.148	13464.53
768.485	13438.54
768.821	13352.9
769.157	13429.28
769.492	13373.91
769.828	13493.01
770.164	13366.91
770.5	13330.75
770.836	13522.38
771.171	13411.88
771.507	13434.03
771.842	13387.7
772.178	13415.49
772.513	13477.41
772.849	13502.27
773.184	13470.63
773.519	13480.35
773.855	13415.95
774.19	13487.81
774.525	13464.08
774.86	13538.88
775.195	13520.12
775.53	13438.54
775.865	13528.49
776.2	13440.58
776.535	13337.98
776.87	13317.64
777.205	13450.07
777.539	13342.5
777.874	13382.95
778.209	13308.15
778.543	13354.93
778.878	13333.69
779.212	13327.14
779.547	13255.27
779.881	13395.83
780.215	13348.15
780.55	13455.49
780.884	13362.16
781.218	13369.17
781.552	13373.69
781.886	13300.47
782.22	13282.84
782.554	13327.81
782.888	13177.31
783.222	13248.95
783.556	13177.08
783.889	13221.15
784.223	13118.55
784.557	13114.71
784.89	13238.55
785.224	13072
785.557	12992.68
785.891	13164.65
786.224	13165.33
786.558	13135.95
786.891	13045.79
787.224	13029.97
787.557	13100.02
787.891	13078.1
788.224	13008.73
788.557	13078.78
788.89	13012.57
789.223	13033.13
789.556	12972.34
789.888	13028.16
790.221	12921.04
790.554	12939.35
790.887	12938.67
791.219	12963.76
791.552	12928.28
791.884	12905.45
792.217	12888.95
792.549	12800.6
792.882	12837.66
793.214	12783.19
793.546	12883.08
793.879	12811.89
794.211	12851.22
794.543	12835.62
794.875	12766.47
795.207	12836.07
795.539	12735.51
795.871	12796.53
796.203	12677.21
796.535	12580.49
796.867	12589.3
797.198	12613.26
797.53	12611.67
797.862	12589.08
798.193	12624.33
798.525	12548.17
798.856	12642.18
799.188	12526.93
799.519	12484.9
799.85	12442.41
800.182	12490.1
800.513	12467.5
800.844	12375.97
801.175	12455.75
801.506	12527.83
801.837	12407.84
802.168	12449.19
802.499	12432.47
802.83	12351.12
803.161	12330.78
803.491	12337.1
803.822	12373.94
804.153	12319.48
804.483	12240.38
804.814	12213.94
805.145	12230.44
805.475	12196.09
805.805	12239.03
806.136	12151.35
806.466	12280.16
806.796	12153.38
807.126	12100.05
807.457	12027.51
807.787	12137.79
808.117	12100.5
808.447	12063.44
808.777	12085.81
809.107	12016.66
809.436	12003.1
809.766	12000.16
810.096	11894.63
810.426	11896.21
810.755	11950.9
811.085	11943.44
811.414	11877.23
811.744	11808.08
812.073	11848.3
812.403	11874.07
812.732	11683.34
813.061	11789.32
813.39	11742.54
813.719	11686.5
814.049	11830.45
814.378	11730.12
814.707	11670.68
815.036	11657.8
815.365	11608.31
815.693	11539.39
816.022	11625.94
816.351	11565.15
816.68	11552.49
817.008	11623.9
817.337	11428.88
817.665	11408.77
817.994	11472.27
818.322	11503.91
818.651	11383.68
818.979	11400.41
819.307	11453.96
819.636	11427.07
819.964	11321.76
820.292	11328.32
820.62	11386.85
820.948	11479.95
821.276	11474.08
821.604	11387.07
821.932	11456
822.259	11362.44
822.587	11383.91
822.915	11408.32
823.243	11468.88
823.57	11311.14
823.898	11380.07
824.225	11452.16
824.553	11421.87
824.88	11476.79
825.207	11510.46
825.535	11430.24
825.862	11533.06
826.189	11512.04
826.516	11500.97
826.843	11586.62
827.17	11520.63
827.497	11578.48
827.824	11527.41
828.151	11569.44
828.478	11541.19
828.805	11536.67
829.131	11555.88
829.458	11536
829.785	11499.39
830.111	11547.07
830.438	11570.12
830.764	11505.26
831.09	11568.31
831.417	11510.23
831.743	11455.09
832.069	11534.19
832.395	11510.23
832.722	11542.55
833.048	11500.06
833.374	11501.42
833.7	11512.27
834.026	11552.04
834.351	11444.7
834.677	11537.13
835.003	11542.78
835.329	11505.71
835.654	11440.41
835.98	11437.24
836.306	11500.74
836.631	11454.42
836.956	11450.35
837.282	11474.75
837.607	11345.49
837.932	11417.13
838.258	11423.91
838.583	11354.08
838.908	11307.75
839.233	11372.16
839.558	11282.9
839.883	11268.21
840.208	11317.92
840.533	11315.21
840.858	11290.58
841.182	11254.87
841.507	11291.71
841.832	11216.46
842.156	11211.26
842.481	11238.15
842.805	11170.36
843.13	11119.06
843.454	11139.17
843.778	11077.25
844.103	11103.01
844.427	11058.49
844.751	11056.91
845.075	11003.35
845.399	10975.78
845.723	10976.46
846.047	10923.13
846.371	10914.32
846.695	10870.02
847.019	10869.57
847.343	10827.77
847.666	10724.49
847.99	10698.28
848.313	10656.25
848.637	10618.96
848.96	10566.53
849.284	10523.82
849.607	10506.19
849.931	10421.45
850.254	10433.2
850.577	10381.68
850.9	10315.24
851.223	10258.06
851.546	10298.29
851.869	10151.17
852.192	10260.78
852.515	10188.69
852.838	10098.29
853.161	10058.29
853.483	10069.37
853.806	9995.02
854.129	10017.17
854.451	9942.14
854.774	9988.01
855.096	9830.28
855.419	9906.89
855.741	9883.84
856.063	9847.23
856.385	9791.86
856.708	9763.61
857.03	9723.61
857.352	9700.79
857.674	9717.06
857.996	9676.16
858.318	9600.45
858.64	9634.8
858.961	9583.51
859.283	9542.38
859.605	9540.34
859.926	9519.33
860.248	9456.05
860.57	9465.99
860.891	9471.64
861.212	9459.67
861.534	9395.26
861.855	9369.05
862.176	9379.44
862.498	9369.27
862.819	9435.94
863.14	9309.39
863.461	9361.36
863.782	9315.94
864.103	9326.11
864.424	9283.63
864.745	9234.14
865.065	9247.69
865.386	9217.86
865.707	9188.49
866.027	9175.38
866.348	9154.82
866.668	9164.99
866.989	9196.62
867.309	9142.39
867.63	9187.36
867.95	9169.28
868.27	9108.94
868.59	9142.16
868.91	9035.72
869.23	9075.72
869.55	9005.67
869.87	9008.6
870.19	9037.08
870.51	8999.34
870.83	9028.72
871.15	9001.83
871.469	8967.93
871.789	8981.49
872.109	8954.14
872.428	8933.8
872.748	8919.57
873.067	8952.11
873.386	8931.54
873.706	8878.89
874.025	8856.74
874.344	8849.74
874.663	8865.56
874.982	8821.27
875.301	8791.66
875.62	8754.15
875.939	8761.15
876.258	8790.98
876.577	8753.7
876.896	8810.64
877.214	8752.11
877.533	8731.55
877.852	8674.38
878.17	8721.61
878.489	8722.28
878.807	8685.22
879.125	8687.94
879.444	8639.12
879.762	8603.19
880.08	8623.76
880.398	8571.55
880.716	8629.41
881.034	8586.02
881.352	8525.91
881.67	8550.54
881.988	8526.58
882.306	8577.2
882.624	8525.68
882.941	8442.74
883.259	8410.88
883.577	8420.6
883.894	8462.4
884.212	8383.08
884.529	8351.9
884.846	8329.98
885.164	8358.9
885.481	8317.32
885.798	8332.46
886.115	8254.5
886.432	8260.6
886.75	8299.25
887.067	8264.22
887.383	8279.36
887.7	8243.43
888.017	8188.06
888.334	8205.01
888.651	8202.98
888.967	8098.57
889.284	8113.04
889.6	8158.01
889.917	7985.13
890.233	8060.83
890.55	8021.29
890.866	8045.69
891.182	8026.71
891.498	7949.2
891.815	7922.98
892.131	7925.02
892.447	7883.89
892.763	7886.15
893.079	7788.75
893.395	7773.16
893.71	7758.69
894.026	7817.45
894.342	7749.65
894.657	7673.27
894.973	7759.15
895.289	7690.45
895.604	7642.99
895.92	7568.19
896.235	7582.43
896.55	7605.03
896.865	7538.36
897.181	7452.71
897.496	7501.53
897.811	7501.75
898.126	7486.16
898.441	7397.57
898.756	7372.26
899.071	7356.22
899.386	7413.84
899.7	7311.7
900.015	7296.33
900.33	7218.37
900.644	7181.31
900.959	7221.76
901.273	7206.62
901.588	7133.4
901.902	7109.45
902.216	7111.71
902.531	7132.95
902.845	7071.71
903.159	7047.53
903.473	7009.11
903.787	6994.19
904.101	6901.09
904.415	6969.79
904.729	6973.4
905.042	6914.65
905.356	6890.24
905.67	6891.82
905.984	6847.98
906.297	6816.57
906.611	6747.42
906.924	6739.51
907.237	6706.52
907.551	6734.09
907.864	6660.64
908.177	6674.66
908.491	6656.58
908.804	6537.94
909.117	6619.06
909.43	6554.43
909.743	6516.24
910.056	6544.49
910.368	6467.2
910.681	6430.82
910.994	6450.93
911.307	6442.34
911.619	6329.81
911.932	6356.47
912.244	6287.32
912.557	6279.86
912.869	6255.01
913.181	6249.36
913.494	6211.16
913.806	6148.57
914.118	6142.47
914.43	6085.07
914.742	6113.99
915.054	6074.67
915.366	6051.17
915.678	6010.94
915.99	5995.35
916.302	5955.13
916.613	5952.87
916.925	5928.01
917.236	5914
917.548	5881
917.859	5867.9
918.171	5862.92
918.482	5771.85
918.794	5798.29
919.105	5834.9
919.416	5739.31
919.727	5732.53
920.038	5755.36
920.349	5661.35
920.66	5655.7
920.971	5648.02
921.282	5601.24
921.593	5584.29
921.903	5528.92
922.214	5560.56
922.525	5536.15
922.835	5459.55
923.146	5490.73
923.456	5439.21
923.767	5415.03
924.077	5413.67
924.387	5415.93
924.697	5342.26
925.008	5338.19
925.318	5304.52
925.628	5281.25
925.938	5303.39
926.248	5147.92
926.558	5214.58
926.867	5191.76
927.177	5182.04
927.487	5178.2
927.796	5138.65
928.106	5119.44
928.416	5116.73
928.725	5087.13
929.034	5039.9
929.344	5060.46
929.653	5027.47
929.962	4997.18
930.271	4996.28
930.581	4975.94
930.89	4968.71
931.199	4894.59
931.508	4917.41
931.817	4872.22
932.125	4847.58
932.434	4849.62
932.743	4805.33
933.051	4789.73
933.36	4811.88
933.669	4749.73
933.977	4716.51
934.286	4742.73
934.594	4702.96
934.902	4674.48
935.21	4668.83
935.519	4651.21
935.827	4614.14
936.135	4619.34
936.443	4568.5
936.751	4550.19
937.059	4568.5
937.367	4507.93
937.674	4524.66
937.982	4532.34
938.29	4490.53
938.597	4415.05
938.905	4398.1
939.213	4389.52
939.52	4393.13
939.827	4380.03
940.135	4328.73
940.442	4308.62
940.749	4329.86
941.056	4326.69
941.363	4273.14
941.67	4317.2
941.977	4274.49
942.284	4198.56
942.591	4249.18
942.898	4194.04
943.205	4187.04
943.511	4132.12
943.818	4214.38
944.125	4146.81
944.431	4157.43
944.738	4055.97
945.044	4103.2
945.35	4052.13
945.657	4030.2
945.963	4069.75
946.269	4004.22
946.575	3978.23
946.881	4008.74
947.187	4002.18
947.493	3914.95
947.799	3935.97
948.105	3939.13
948.41	3911.34
948.716	3888.51
949.022	3862.53
949.327	3859.14
949.633	3798.8
949.938	3807.16
950.244	3845.35
950.549	3801.51
950.854	3747.73
951.16	3736.88
951.465	3726.26
951.77	3751.57
952.075	3717.9
952.38	3669.08
952.685	3682.64
952.99	3658.69
953.294	3634.28
953.599	3621.18
953.904	3586.6
954.209	3590.89
954.513	3591.8
954.818	3578.92
955.122	3541.18
955.426	3522.2
955.731	3507.96
956.035	3531.46
956.339	3469.09
956.643	3463.67
956.948	3441.07
957.252	3439.03
957.556	3468.64
957.86	3443.55
958.163	3411.24
958.467	3382.31
958.771	3348.64
959.075	3380.5
959.378	3319.04
959.682	3356.78
959.985	3304.8
960.289	3305.25
960.592	3291.47
960.896	3279.04
961.199	3234.75
961.502	3244.69
961.805	3246.95
962.108	3221.64
962.411	3190.9
962.714	3194.75
963.017	3176.22
963.32	3202.66
963.623	3159.27
963.926	3157.23
964.228	3122.66
964.531	3141.87
964.833	3112.94
965.136	3100.51
965.438	3052.6
965.741	3038.14
966.043	3048.54
966.345	3039.04
966.648	3013.06
966.95	3023.9
967.252	2991.81
967.554	2982.1
967.856	2975.32
968.158	2971.02
968.46	2939.16
968.761	2957.69
969.063	2928.31
969.365	2903.23
969.666	2900.97
969.968	2885.38
970.269	2849.44
970.571	2856.45
970.872	2870.91
971.174	2823.68
971.475	2816.68
971.776	2822.55
972.077	2846.28
972.378	2790.24
972.679	2768.77
972.98	2776.45
973.281	2761.76
973.582	2783.01
973.883	2717.02
974.183	2734.19
974.484	2703.01
974.785	2761.54
975.085	2695.55
975.386	2671.14
975.686	2686.74
975.986	2670.01
976.287	2641.99
976.587	2606.51
976.887	2599.73
977.187	2608.55
977.487	2640.86
977.787	2613.29
978.087	2598.38
978.387	2561.32
978.687	2533.75
978.987	2524.03
979.286	2540.98
979.586	2528.55
979.885	2488.1
980.185	2514.99
980.484	2518.61
980.784	2465.5
981.083	2475.9
981.382	2466.18
981.682	2466.18
981.981	2425.95
982.28	2414.2
982.579	2425.95
982.878	2407.42
983.177	2396.58
983.475	2382.11
983.774	2366.52
984.073	2355.22
984.372	2361.55
984.67	2370.81
984.969	2345.28
985.267	2289.23
985.566	2374.43
985.864	2318.61
986.162	2309.35
986.461	2293.08
986.759	2271.38
987.057	2253.53
987.355	2249.01
987.653	2218.5
987.951	2242.23
988.249	2228.44
988.547	2221.66
988.844	2227.31
989.142	2226.86
989.44	2156.81
989.737	2164.94
990.035	2169.46
990.332	2156.58
990.63	2111.84
990.927	2131.27
991.224	2136.24
991.521	2122.46
991.819	2099.86
992.116	2122.46
992.413	2113.42
992.71	2056.25
993.006	2084.49
993.303	2077.49
993.6	2051.73
993.897	2024.61
994.193	2040.65
994.49	2045.62
994.787	2017.38
995.083	2017.15
995.379	2018.05
995.676	1980.32
995.972	1984.38
996.268	1972.86
996.565	1954.33
996.861	1952.75
997.157	1940.09
997.453	1937.83
997.749	1908.23
998.044	1916.59
998.34	1903.03
998.636	1897.15
998.932	1871.62
999.227	1874.56
999.523	1856.7
999.818	1831.17
1000.114	1836.36
1000.409	1846.53
1000.704	1841.11
1001	1822.58
1001.295	1820.55
1001.59	1815.12
1001.885	1825.52
1002.18	1776.25
1002.475	1790.49
1002.77	1764.05
1003.065	1737.16
1003.359	1757.72
1003.654	1753.88
1003.949	1710.04
1004.243	1698.29
1004.538	1687.67
1004.832	1670.49
1005.127	1710.04
1005.421	1687.44
1005.715	1678.18
1006.009	1683.37
1006.304	1681.11
1006.598	1657.16
1006.892	1639.53
1007.186	1619.87
1007.48	1579.87
1007.773	1611.06
1008.067	1592.08
1008.361	1574
1008.655	1571.06
1008.948	1592.53
1009.242	1561.57
1009.535	1555.02
1009.829	1535.58
1010.122	1568.57
1010.415	1522.7
1010.708	1540.1
1011.001	1518.86
1011.295	1510.72
1011.588	1508.69
1011.881	1494.45
1012.173	1491.97
1012.466	1489.71
1012.759	1474.34
1013.052	1467.79
1013.344	1435.47
1013.637	1427.11
1013.93	1435.02
1014.222	1427.79
1014.514	1392.31
1014.807	1413.32
1015.099	1386.43
1015.391	1416.04
1015.683	1387.79
1015.976	1409.03
1016.268	1371.29
1016.56	1377.39
1016.851	1340.33
1017.143	1348.24
1017.435	1364.96
1017.727	1334.46
1018.018	1321.35
1018.31	1326.1
1018.602	1310.05
1018.893	1309.82
1019.185	1310.5
1019.476	1289.71
1019.767	1294.46
1020.058	1271.18
1020.35	1263.05
1020.641	1250.16
1020.932	1247.45
1021.223	1246.1
1021.514	1241.35
1021.804	1227.34
1022.095	1230.96
1022.386	1218.53
1022.677	1197.28
1022.967	1180.56
1023.258	1162.03
1023.548	1193.22
1023.839	1160.9
1024.129	1163.39
1024.419	1146.44
1024.709	1138.98
1025	1129.94
1025.29	1173.1
1025.58	1118.42
1025.87	1146.66
1026.16	1118.64
1026.449	1102.37
1026.739	1115.48
1027.029	1091.98
1027.319	1083.62
1027.608	1075.93
1027.898	1082.26
1028.187	1075.03
1028.477	1063.28
1028.766	1077.74
1029.055	1043.84
1029.344	1043.39
1029.634	1044.97
1029.923	1041.36
1030.212	997.74
1030.501	1028.7
1030.79	1021.7
1031.078	1020.79
1031.367	993.45
1031.656	994.8
1031.945	995.93
1032.233	996.16
1032.522	979.66
1032.81	1000
1033.099	956.84
1033.387	964.97
1033.675	967.01
1033.963	951.64
1034.251	942.6
1034.54	969.04
1034.828	937.4
1035.116	913.45
1035.403	904.86
1035.691	910.74
1035.979	916.39
1036.267	900.12
1036.554	890.85
1036.842	872.32
1037.129	856.73
1037.417	842.94
1037.704	875.03
1037.992	884.75
1038.279	855.15
1038.566	865.09
1038.853	865.09
1039.14	865.09
