Data from blue_surface_keyboard_FLMS001491_050.txt Node
Date: Tue Feb 07 11:13:11 GMT 2017
User: dcchb
Spectrometer: FLMS00149
Trigger mode: 0
Integration Time (sec): 2.000000E-2
Scans to average: 10
Electric dark correction enabled: true
Nonlinearity correction enabled: false
Boxcar width: 0
XAxis mode: Wavelengths
Number of Pixels in Spectrum: 2048
>>>>>Begin Spectral Data<<<<<
341.393	11.1
341.776	11.1
342.16	11.1
342.543	-60.54
342.927	-72.96
343.31	-73.19
343.693	-61.67
344.077	-69.12
344.46	-55.56
344.843	-68.44
345.226	-27.54
345.61	-40.42
345.993	-20.76
346.376	-13.98
346.759	18.11
347.142	21.72
347.525	55.62
347.908	38.67
348.291	80.93
348.674	92.46
349.057	123.19
349.44	118.22
349.823	145.34
350.206	147.14
350.588	177.42
350.971	179.23
351.354	215.16
351.737	231.43
352.119	235.28
352.502	246.58
352.884	255.84
353.267	267.59
353.65	279.34
354.032	285.9
354.414	294.03
354.797	283.41
355.179	299.46
355.562	281.15
355.944	281.6
356.326	292.22
356.709	322.73
357.091	304.43
357.473	333.58
357.855	307.59
358.238	323.64
358.62	303.3
359.002	330.42
359.384	321.83
359.766	314.37
360.148	313.01
360.53	292.9
360.912	279.12
361.294	307.36
361.676	305.78
362.057	302.17
362.439	295.39
362.821	322.05
363.203	288.38
363.584	299.23
363.966	291.77
364.348	283.41
364.729	295.61
365.111	284.77
365.493	312.56
365.874	295.39
366.256	302.17
366.637	294.03
367.019	292.45
367.4	288.16
367.781	282.96
368.163	290.87
368.544	302.62
368.925	285.22
369.306	284.31
369.688	276.41
370.069	281.38
370.45	280.7
370.831	293.58
371.212	292.9
371.593	272.34
371.974	287.25
372.355	301.94
372.736	268.5
373.117	276.18
373.498	291.77
373.879	296.29
374.26	294.03
374.641	279.12
375.021	279.79
375.402	298.1
375.783	288.38
376.163	286.35
376.544	294.94
376.925	300.59
377.305	302.39
377.686	281.38
378.066	291.55
378.447	300.81
378.827	287.93
379.208	310.98
379.588	280.02
379.968	279.12
380.349	299.68
380.729	319.57
381.109	298.1
381.489	298.55
381.87	310.3
382.25	290.87
382.63	284.54
383.01	301.04
383.39	290.42
383.77	300.59
384.15	308.49
384.53	319.34
384.91	310.98
385.29	305.56
385.67	302.62
386.049	309.62
386.429	297.42
386.809	316.63
387.189	303.52
387.568	325.44
387.948	305.1
388.328	314.37
388.707	327.7
389.087	321.15
389.466	310.98
389.846	316.63
390.225	308.04
390.605	303.75
390.984	313.24
391.363	306.69
391.743	306.01
392.122	325.22
392.501	333.8
392.881	333.58
393.26	320.02
393.639	312.11
394.018	324.54
394.397	315.95
394.776	315.95
395.155	323.64
395.534	325.67
395.913	319.12
396.292	311.21
396.671	339.91
397.05	339
397.429	316.63
397.808	359.11
398.186	322.96
398.565	315.95
398.944	352.56
399.323	328.83
399.701	314.14
400.08	343.52
400.458	353.69
400.837	352.56
401.215	346.23
401.594	327.93
401.972	349.85
402.351	319.57
402.729	312.34
403.107	332.9
403.486	348.04
403.864	352.79
404.242	346.23
404.62	342.84
404.999	345.56
405.377	356.63
405.755	346.23
406.133	344.65
406.511	334.26
406.889	347.82
407.267	349.17
407.645	352.11
408.023	372
408.401	336.29
408.779	350.3
409.156	346.23
409.534	377.42
409.912	350.75
410.29	345.78
410.667	355.27
411.045	371.77
411.422	382.62
411.8	368.38
412.178	349.62
412.555	373.13
412.933	377.65
413.31	389.17
413.687	381.94
414.065	383.07
414.442	373.35
414.819	379
415.197	381.26
415.574	367.02
415.951	379.91
416.328	363.18
416.705	388.49
417.082	384.2
417.46	378.32
417.837	377.87
418.214	373.8
418.591	408.61
418.967	384.2
419.344	408.38
419.721	369.51
420.098	408.61
420.475	407.25
420.852	404.09
421.228	395.27
421.605	417.42
421.982	399.79
422.358	409.96
422.735	410.41
423.111	409.28
423.488	399.11
423.864	416.29
424.241	412.67
424.617	398.21
424.994	439.11
425.37	426.91
425.746	422.39
426.123	427.36
426.499	425.78
426.875	433.01
427.251	458.77
427.627	426.01
428.003	413.35
428.379	412.67
428.756	436.4
429.132	433.69
429.507	428.27
429.883	437.76
430.259	459
430.635	455.84
431.011	453.58
431.387	448.83
431.763	445.67
432.138	468.26
432.514	461.71
432.89	450.64
433.265	477.08
433.641	460.36
434.016	467.13
434.392	464.65
434.767	478.43
435.143	468.04
435.518	477.08
435.894	476.63
436.269	467.59
436.644	471.88
437.02	455.61
437.395	488.6
437.77	469.39
438.145	497.64
438.52	507.13
438.895	503.52
439.271	481.37
439.646	492.9
440.021	499.68
440.395	501.03
440.77	506.46
441.145	514.37
441.52	510.07
441.895	507.59
442.27	505.55
442.645	523.18
443.019	518.88
443.394	495.83
443.769	534.93
444.143	533.35
444.518	523.86
444.892	545.32
445.267	534.93
445.641	546.23
446.016	541.71
446.39	500.35
446.764	530.64
447.139	539.45
447.513	522.95
447.887	522.27
448.262	533.57
448.636	544.42
449.01	541.48
449.384	556.17
449.758	555.04
450.132	546.23
450.506	528.6
450.88	561.82
451.254	569.96
451.628	552.56
452.002	574.93
452.376	563.63
452.75	599.79
453.123	574.02
453.497	567.92
453.871	557.98
454.244	597.07
454.618	585.55
454.992	565.21
455.365	611.54
455.739	583.52
456.112	595.49
456.486	613.35
456.859	607.24
457.232	599.56
457.606	611.09
457.979	612.22
458.352	619.45
458.725	629.16
459.099	621.93
459.472	647.02
459.845	628.71
460.218	634.14
460.591	653.57
460.964	632.1
461.337	654.02
461.71	662.84
462.083	673.23
462.456	634.59
462.829	665.77
463.201	661.25
463.574	699.67
463.947	673.23
464.32	685.21
464.692	682.95
465.065	688.6
465.438	698.31
465.81	680.24
466.183	717.75
466.555	697.86
466.928	712.33
467.3	708.94
467.672	735.83
468.045	709.16
468.417	732.66
468.789	747.81
469.161	743.29
469.534	756.62
469.906	756.84
470.278	774.7
470.65	746.22
471.022	766.79
471.394	780.8
471.766	779.22
472.138	787.58
472.51	794.58
472.882	795.04
473.253	788.71
473.625	806.33
473.997	796.39
474.369	845.88
474.74	839.33
475.112	842.04
475.484	851.76
475.855	863.28
476.227	831.64
476.598	872.55
476.97	881.14
477.341	901.02
477.713	895.82
478.084	898.99
478.455	895.15
478.827	923.85
479.198	927.46
479.569	916.39
479.94	953.22
480.311	938.76
480.682	962.49
481.053	980.34
481.424	989.15
481.795	989.83
482.166	1016.95
482.537	1009.49
482.908	1011.08
483.279	1027.35
483.65	1037.29
484.021	1062.6
484.391	1069.38
484.762	1040.45
485.133	1074.12
485.503	1060.11
485.874	1077.74
486.244	1083.16
486.615	1100.56
486.985	1098.3
487.356	1154.35
487.726	1124.97
488.097	1145.31
488.467	1130.39
488.837	1171.52
489.207	1145.76
489.578	1169.49
489.948	1193.44
490.318	1207.23
490.688	1177.4
491.058	1201.8
491.428	1209.04
491.798	1221.92
492.168	1209.94
492.538	1232.99
492.908	1237.96
493.278	1263.95
493.648	1258.53
494.017	1270.28
494.387	1254.23
494.757	1275.25
495.126	1251.29
495.496	1255.36
495.866	1280.45
496.235	1279.09
496.605	1310.28
496.974	1298.07
497.344	1269.6
497.713	1294.68
498.082	1324.97
498.452	1323.84
498.821	1305.53
499.19	1343.95
499.559	1353.21
499.928	1332.65
500.298	1330.16
500.667	1338.75
501.036	1335.36
501.405	1336.72
501.774	1351.18
502.143	1353.44
502.512	1342.14
502.88	1336.49
503.249	1327.45
503.618	1337.62
503.987	1380.1
504.356	1344.85
504.724	1349.82
505.093	1333.78
505.462	1380.33
505.83	1373.33
506.199	1382.36
506.567	1381.23
506.936	1376.72
507.304	1389.82
507.672	1364.96
508.041	1395.7
508.409	1411.29
508.777	1422.82
509.145	1374.91
509.514	1410.39
509.882	1429.37
510.25	1425.53
510.618	1395.7
510.986	1425.75
511.354	1424.85
511.722	1454.91
512.09	1435.7
512.458	1428.92
512.826	1436.83
513.193	1442.02
513.561	1409.93
513.929	1444.96
514.297	1402.25
514.664	1443.15
515.032	1461.01
515.4	1448.8
515.767	1448.13
516.135	1445.41
516.502	1437.5
516.869	1472.08
517.237	1448.58
517.604	1463.04
517.972	1485.41
518.339	1473.44
518.706	1480.89
519.073	1484.73
519.44	1462.36
519.808	1492.42
520.175	1484.73
520.542	1490.16
520.909	1484.73
521.276	1488.8
521.643	1474.34
522.009	1517.28
522.376	1517.73
522.743	1496.26
523.11	1533.32
523.477	1524.51
523.843	1505.98
524.21	1534.23
524.577	1552.08
524.943	1553.43
525.31	1554.34
525.676	1547.78
526.043	1515.69
526.409	1533.55
526.776	1553.21
527.142	1539.65
527.508	1560.89
527.874	1553.66
528.241	1528.12
528.607	1587.11
528.973	1571.06
529.339	1561.57
529.705	1607.22
530.071	1571.06
530.437	1562.47
530.803	1592.98
531.169	1579.42
531.535	1572.87
531.901	1580.78
532.267	1593.66
532.632	1593.66
532.998	1571.51
533.364	1616.48
533.73	1600.21
534.095	1601.12
534.461	1625.3
534.826	1610.83
535.192	1623.94
535.557	1616.03
535.923	1607.67
536.288	1608.35
536.653	1621.23
537.019	1600.66
537.384	1620.78
537.749	1577.16
538.114	1637.95
538.479	1620.32
538.845	1623.71
539.21	1629.59
539.575	1585.52
539.94	1645.18
540.305	1608.35
540.67	1630.27
541.034	1611.51
541.399	1641.34
541.764	1608.35
542.129	1610.16
542.494	1639.99
542.858	1644.96
543.223	1613.77
543.587	1634.11
543.952	1629.36
544.316	1614.22
544.681	1624.62
545.045	1612.42
545.41	1635.47
545.774	1648.12
546.138	1636.37
546.503	1608.12
546.867	1636.14
547.231	1622.81
547.595	1635.24
547.959	1637.27
548.324	1642.02
548.688	1637.05
549.052	1610.16
549.416	1646.54
549.779	1651.74
550.143	1644.28
550.507	1649.7
550.871	1657.39
551.235	1650.15
551.599	1650.15
551.962	1656.26
552.326	1664.62
552.689	1655.13
553.053	1645.41
553.417	1671.85
553.78	1659.65
554.143	1641.57
554.507	1670.27
554.87	1645.41
555.234	1676.82
555.597	1679.98
555.96	1666.65
556.323	1656.71
556.686	1629.36
557.05	1641.12
557.413	1684.05
557.776	1676.14
558.139	1638.63
558.502	1662.81
558.865	1681.57
559.228	1637.5
559.59	1685.86
559.953	1679.31
560.316	1657.84
560.679	1696.71
561.041	1690.83
561.404	1696.25
561.767	1696.25
562.129	1711.4
562.492	1708.68
562.854	1720.43
563.217	1675.92
563.579	1689.7
563.941	1717.95
564.304	1705.97
564.666	1702.58
565.028	1687.89
565.39	1714.56
565.753	1745.29
566.115	1745.75
566.477	1766.31
566.839	1750.04
567.201	1752.52
567.563	1736.03
567.925	1744.62
568.287	1755.01
568.648	1761.34
569.01	1775.12
569.372	1759.08
569.734	1754.56
570.095	1749.81
570.457	1772.86
570.819	1769.7
571.18	1788.68
571.542	1765.86
571.903	1778.74
572.265	1746.65
572.626	1791.39
572.987	1780.09
573.349	1789.36
573.71	1782.35
574.071	1779.42
574.432	1773.77
574.794	1785.52
575.155	1818.74
575.516	1797.5
575.877	1832.75
576.238	1796.37
576.599	1800.21
576.96	1774.22
577.32	1797.5
577.681	1797.04
578.042	1825.07
578.403	1808.12
578.763	1817.61
579.124	1836.82
579.485	1837.95
579.845	1820.55
580.206	1830.49
580.566	1825.74
580.927	1826.87
581.287	1847.89
581.648	1808.34
582.008	1834.33
582.368	1832.52
582.728	1866.19
583.089	1822.35
583.449	1853.76
583.809	1804.95
584.169	1837.49
584.529	1855.8
584.889	1832.07
585.249	1856.48
585.609	1837.72
585.969	1841.11
586.329	1842.01
586.688	1831.17
587.048	1851.73
587.408	1844.95
587.768	1871.84
588.127	1839.98
588.487	1831.39
588.846	1835.01
589.206	1858.28
589.565	1848.34
589.925	1873.65
590.284	1830.04
590.643	1832.75
591.003	1824.84
591.362	1866.65
591.721	1883.14
592.08	1883.59
592.44	1854.22
592.799	1841.34
593.158	1865.29
593.517	1852.63
593.876	1874.78
594.235	1855.8
594.593	1861
594.952	1875.01
595.311	1857.38
595.67	1869.81
596.029	1896.02
596.387	1887.44
596.746	1919.75
597.104	1847.89
597.463	1855.57
597.822	1859.64
598.18	1869.13
598.538	1852.86
598.897	1904.61
599.255	1863.03
599.613	1908.9
599.972	1876.59
600.33	1859.64
600.688	1881.79
601.046	1898.96
601.404	1908
601.762	1890.15
602.12	1908.23
602.478	1908.9
602.836	1884.05
603.194	1914.33
603.552	1906.64
603.91	1888.57
604.268	1870.94
604.625	1926.08
604.983	1934.67
605.341	1913.88
605.698	1912.75
606.056	1948.9
606.413	1939.41
606.771	1956.81
607.128	1928.34
607.485	1941.67
607.843	1936.7
608.2	1920.66
608.557	1976.02
608.914	1958.17
609.272	1952.97
609.629	1966.3
609.986	1974.44
610.343	1943.93
610.7	1962.24
611.057	1931.95
611.414	1953.42
611.771	1975.57
612.127	1957.94
612.484	2020.31
612.841	1974.67
613.198	1959.75
613.554	1954.1
613.911	2000.65
614.267	1973.54
614.624	1965.85
614.98	2005.17
615.337	2004.04
615.693	1977.6
616.05	1985.06
616.406	1977.83
616.762	2018.73
617.118	2023.25
617.475	2006.08
617.831	2000.88
618.187	1977.38
618.543	2013.53
618.899	2011.73
619.255	1991.39
619.611	2026.42
619.967	2052.63
620.323	2033.42
620.678	2020.77
621.034	2055.57
621.39	2015.12
621.746	2011.05
622.101	2084.72
622.457	2040.2
622.812	2045.17
623.168	2087.43
623.523	2050.6
623.879	2065.28
624.234	2032.52
624.589	2069.13
624.945	2071.61
625.3	2066.19
625.655	2108.67
626.01	2082.01
626.365	2063.48
626.72	2061.89
627.075	2058.73
627.43	2100.09
627.785	2068.45
628.14	2053.31
628.495	2097.83
628.85	2077.04
629.205	2104.15
629.559	2087.88
629.914	2083.82
630.269	2101.89
630.623	2090.59
630.978	2087.66
631.332	2083.59
631.687	2129.01
632.041	2111.84
632.396	2084.49
632.75	2106.64
633.104	2066.19
633.459	2137.6
633.813	2151.38
634.167	2141.44
634.521	2115
634.875	2131.72
635.229	2116.58
635.583	2130.82
635.937	2156.36
636.291	2139.18
636.645	2174.43
636.999	2152.97
637.352	2155.9
637.706	2146.86
638.06	2162.23
638.413	2180.76
638.767	2180.08
639.121	2160.2
639.474	2195.22
639.828	2217.6
640.181	2169.46
640.534	2207.65
640.888	2203.81
641.241	2175.11
641.594	2202.91
641.947	2223.02
642.301	2210.59
642.654	2217.15
643.007	2239.52
643.36	2208.33
643.713	2212.63
644.066	2250.82
644.419	2238.84
644.771	2214.89
645.124	2218.28
645.477	2229.57
645.83	2249.69
646.182	2212.4
646.535	2228.9
646.888	2258.27
647.24	2277.48
647.593	2277.03
647.945	2278.16
648.298	2229.35
648.65	2250.14
649.002	2272.74
649.355	2281.32
649.707	2312.51
650.059	2310.7
650.411	2361.32
650.763	2317.03
651.115	2384.15
651.467	2367.42
651.819	2390.47
652.171	2406.52
652.523	2407.2
652.875	2380.08
653.227	2447.2
653.578	2439.29
653.93	2415.78
654.282	2443.13
654.633	2460.98
654.985	2439.29
655.337	2493.75
655.688	2489.45
656.039	2531.26
656.391	2511.37
656.742	2503.01
657.094	2541.43
657.445	2552.28
657.796	2566.29
658.147	2558.15
658.498	2553.63
658.849	2571.94
659.2	2572.84
659.551	2594.54
659.902	2618.94
660.253	2642.22
660.604	2658.94
660.955	2668.88
661.306	2661.2
661.656	2670.69
662.007	2692.84
662.358	2726.28
662.708	2705.95
663.059	2716.34
663.409	2698.71
663.76	2764.02
664.11	2802.21
664.461	2764.7
664.811	2774.87
665.161	2812.84
665.511	2800.41
665.862	2777.36
666.212	2852.38
666.562	2866.17
666.912	2848.99
667.262	2870.24
667.612	2880.4
667.962	2861.2
668.312	2917.24
668.662	2909.56
669.011	2897.13
669.361	2939.16
669.711	2938.71
670.06	2982.55
670.41	2935.09
670.76	2985.71
671.109	3005.6
671.459	3031.59
671.808	3062.55
672.157	3025.03
672.507	3069.78
672.856	3061.42
673.205	3074.75
673.554	3096.22
673.904	3065.03
674.253	3128.31
674.602	3133.28
674.951	3143.22
675.3	3132.83
675.649	3139.83
675.998	3189.55
676.346	3177.12
676.695	3197.46
677.044	3164.01
677.393	3209.21
677.741	3181.41
678.09	3208.98
678.438	3207.18
678.787	3240.17
679.135	3250.34
679.484	3265.48
679.832	3282.2
680.181	3289.66
680.529	3288.76
680.877	3328.3
681.225	3284.24
681.573	3348.19
681.922	3325.36
682.27	3350
682.618	3362.65
682.966	3395.65
683.314	3416.66
683.661	3380.5
684.009	3372.14
684.357	3395.87
684.705	3412.59
685.053	3393.84
685.4	3411.24
685.748	3421.63
686.095	3477.22
686.443	3400.16
686.79	3432.48
687.138	3495.53
687.485	3481.97
687.832	3511.35
688.18	3460.5
688.527	3464.34
688.874	3467.06
689.221	3465.02
689.568	3503.44
689.915	3506.15
690.262	3505.92
690.609	3463.21
690.956	3527.39
691.303	3521.97
691.65	3497.79
691.997	3498.69
692.344	3517.22
692.69	3504.57
693.037	3528.52
693.383	3528.98
693.73	3514.29
694.077	3456.89
694.423	3521.74
694.769	3518.81
695.116	3543.89
695.462	3554.06
695.808	3538.24
696.155	3531.23
696.501	3535.3
696.847	3494.17
697.193	3491.69
697.539	3535.98
697.885	3531.01
698.231	3552.93
698.577	3518.58
698.923	3524.23
699.269	3497.11
699.614	3507.51
699.96	3507.96
700.306	3467.96
700.651	3527.17
700.997	3524.91
701.342	3496.21
701.688	3478.13
702.033	3502.76
702.379	3515.42
702.724	3494.4
703.069	3502.54
703.415	3484.68
703.76	3481.97
704.105	3507.05
704.45	3464.57
704.795	3461.86
705.14	3466.38
705.485	3453.72
705.83	3480.39
706.175	3474.51
706.52	3465.25
706.865	3465.02
707.209	3453.72
707.554	3455.3
707.899	3481.74
708.243	3445.59
708.588	3416.66
708.932	3440.62
709.277	3451.91
709.621	3401.97
709.966	3422.99
710.31	3445.36
710.654	3368.75
710.998	3425.47
711.342	3400.39
711.687	3400.16
712.031	3407.62
712.375	3405.81
712.719	3417.79
713.063	3421.86
713.407	3421.41
713.75	3381.63
714.094	3415.76
714.438	3420.5
714.782	3407.4
715.125	3403.33
715.469	3383.89
715.812	3418.24
716.156	3380.05
716.499	3368.08
716.843	3387.06
717.186	3413.05
717.53	3370.34
717.873	3408.53
718.216	3400.84
718.559	3385.48
718.902	3373.27
719.246	3372.37
719.589	3360.17
719.932	3393.84
720.275	3382.54
720.617	3396.78
720.96	3357.91
721.303	3372.59
721.646	3377.34
721.989	3380.73
722.331	3371.24
722.674	3390
723.016	3406.94
723.359	3401.07
723.701	3391.35
724.044	3374.4
724.386	3371.69
724.729	3371.69
725.071	3374.85
725.413	3349.77
725.755	3391.13
726.097	3419.37
726.439	3367.17
726.782	3403.78
727.124	3448.53
727.465	3372.82
727.807	3428.86
728.149	3370.34
728.491	3381.86
728.833	3412.37
729.175	3419.6
729.516	3429.32
729.858	3402.88
730.199	3412.37
730.541	3409.66
730.882	3413.27
731.224	3425.93
731.565	3385.25
731.906	3415.08
732.248	3404.91
732.589	3422.31
732.93	3445.14
733.271	3426.38
733.612	3441.07
733.953	3412.59
734.294	3402.88
734.635	3454.63
734.976	3452.37
735.317	3435.19
735.658	3420.05
735.999	3447.17
736.339	3455.53
736.68	3462.08
737.021	3460.73
737.361	3479.26
737.702	3463.44
738.042	3507.05
738.383	3486.49
738.723	3486.04
739.063	3506.38
739.404	3535.75
739.744	3502.99
740.084	3522.65
740.424	3521.97
740.764	3549.99
741.104	3557.22
741.444	3556.54
741.784	3514.06
742.124	3587.28
742.464	3543.44
742.804	3548.18
743.143	3579.37
743.483	3615.07
743.823	3604.45
744.162	3597.22
744.502	3649.2
744.841	3611.46
745.181	3651.91
745.52	3629.54
745.86	3655.98
746.199	3688.07
746.538	3696.43
746.877	3699.37
747.216	3722.19
747.556	3727.39
747.895	3765.58
748.234	3765.35
748.573	3735.75
748.911	3828.85
749.25	3818.91
749.589	3779.59
749.928	3858.01
750.267	3827.05
750.605	3848.29
750.944	3891.23
751.283	3898.46
751.621	3871.79
751.96	3925.57
752.298	3937.78
752.636	3988.62
752.975	3985.69
753.313	3966.25
753.651	4025.69
753.989	4040.15
754.327	4058.68
754.666	4095.51
755.004	4087.38
755.342	4115.85
755.679	4148.85
756.017	4170.99
756.355	4173.48
756.693	4202.18
757.031	4182.07
757.368	4194.95
757.706	4201.05
758.044	4246.7
758.381	4266.81
758.719	4227.26
759.056	4281.05
759.394	4355.17
759.731	4301.84
760.068	4316.07
760.405	4345.68
760.743	4281.05
761.08	4405.34
761.417	4342.29
761.754	4380.7
762.091	4372.12
762.428	4391.55
762.765	4396.07
763.102	4442.85
763.438	4427.48
763.775	4426.35
764.112	4405.34
764.449	4478.33
764.785	4445.79
765.122	4417.77
765.458	4480.81
765.795	4446.92
766.131	4458.67
766.467	4443.3
766.804	4413.7
767.14	4442.85
767.476	4463.87
767.812	4487.59
768.148	4493.47
768.485	4489.63
768.821	4458.89
769.157	4432.68
769.492	4514.03
769.828	4472.68
770.164	4433.81
770.5	4459.8
770.836	4453.02
771.171	4469.97
771.507	4460.02
771.842	4435.39
772.178	4439.69
772.513	4498.22
772.849	4425.45
773.184	4419.57
773.519	4393.36
773.855	4446.01
774.19	4372.57
774.525	4379.12
774.86	4364.89
775.195	4355.39
775.53	4352.46
775.865	4352.46
776.2	4305.68
776.535	4357.65
776.87	4333.93
777.205	4308.84
777.539	4297.54
777.874	4319.91
778.209	4262.74
778.543	4245.79
778.878	4241.95
779.212	4241.27
779.547	4226.36
779.881	4244.21
780.215	4243.98
780.55	4227.94
780.884	4217.77
781.218	4216.64
781.552	4195.17
781.886	4172.35
782.22	4185.91
782.554	4167.15
782.888	4175.74
783.222	4107.72
783.556	4124.67
783.889	4111.78
784.223	4071.79
784.557	4090.32
784.89	4102.52
785.224	4065.91
785.557	4033.82
785.891	4054.38
786.224	4024.56
786.558	3988.4
786.891	3996.76
787.224	3989.98
787.557	3966.93
787.891	3959.02
788.224	3986.14
788.557	3959.02
788.89	3995.18
789.223	3938.23
789.556	3927.61
789.888	3918.57
790.221	3880.38
790.554	3925.35
790.887	3872.47
791.219	3874.05
791.552	3841.06
791.884	3841.74
792.217	3840.15
792.549	3801.06
792.882	3801.51
793.214	3790.44
793.546	3791.34
793.879	3800.38
794.211	3772.36
794.543	3805.8
794.875	3798.57
795.207	3764.68
795.539	3766.48
795.871	3729.42
796.203	3727.39
796.535	3713.83
796.867	3672.47
797.198	3680.61
797.53	3648.29
797.862	3651.46
798.193	3677.22
798.525	3614.85
798.856	3626.37
799.188	3624.79
799.519	3621.63
799.85	3582.98
800.182	3618.46
800.513	3581.85
800.844	3588.41
801.175	3580.27
801.506	3532.59
801.837	3563.32
802.168	3550.22
802.499	3516.32
802.83	3558.35
803.161	3550.67
803.491	3562.65
803.822	3534.17
804.153	3519.94
804.483	3472.71
804.814	3471.58
805.145	3498.92
805.475	3421.18
805.805	3474.29
806.136	3463.67
806.466	3433.61
806.796	3466.15
807.126	3400.16
807.457	3397.91
807.787	3415.53
808.117	3400.62
808.447	3408.53
808.777	3393.39
809.107	3366.49
809.436	3380.5
809.766	3339.6
810.096	3342.31
810.426	3362.65
810.755	3310
811.085	3326.27
811.414	3341.41
811.744	3306.61
812.073	3361.07
812.403	3289.21
812.732	3291.24
813.061	3306.61
813.39	3273.16
813.719	3257.12
814.049	3258.25
814.378	3227.74
814.707	3217.57
815.036	3259.6
815.365	3219.38
815.693	3213.28
816.022	3179.61
816.351	3220.51
816.68	3208.08
817.008	3166.5
817.337	3186.61
817.665	3158.59
817.994	3196.55
818.322	3170.79
818.651	3150.68
818.979	3127.4
819.307	3160.17
819.636	3118.82
819.964	3142.54
820.292	3143.67
820.62	3143.22
820.948	3123.79
821.276	3128.53
821.604	3124.24
821.932	3151.81
822.259	3124.01
822.587	3129.66
822.915	3111.58
823.243	3134.86
823.57	3130.12
823.898	3092.15
824.225	3085.14
824.553	3084.69
824.88	3162.66
825.207	3100.74
825.535	3144.8
825.862	3094.41
826.189	3094.64
826.516	3151.81
826.843	3124.69
827.17	3119.72
827.497	3119.72
827.824	3105.03
828.151	3168.53
828.478	3100.29
828.805	3087.4
829.131	3123.11
829.458	3088.76
829.785	3119.04
830.111	3077.46
830.438	3112.26
830.764	3110.91
831.09	3133.96
831.417	3068.42
831.743	3122.43
832.069	3109.55
832.395	3088.99
832.722	3088.76
833.048	3077.46
833.374	3091.7
833.7	3059.61
834.026	3061.64
834.351	3083.11
834.677	3083.79
835.003	3126.95
835.329	3088.76
835.654	3068.42
835.98	3073.39
836.306	3093.51
836.631	3067.29
836.956	3078.37
837.282	3073.39
837.607	3044.92
837.932	3054.41
838.258	3051.7
838.583	3038.14
838.908	2994.98
839.233	3031.81
839.558	2987.75
839.883	3010.34
840.208	3035.88
840.533	3008.31
840.858	3001.31
841.182	3027.29
841.507	3015.54
841.832	2998.14
842.156	3007.18
842.481	2963.79
842.805	2986.62
843.13	2979.16
843.454	2961.53
843.778	2955.2
844.103	3011.02
844.427	2970.12
844.751	2938.48
845.075	2939.61
845.399	2928.31
845.723	2923.34
846.047	2905.04
846.371	2918.37
846.695	2925.38
847.019	2849.22
847.343	2876.34
847.666	2876.56
847.99	2839.73
848.313	2841.54
848.637	2804.93
848.96	2818.94
849.284	2835.89
849.607	2786.62
849.931	2844.93
850.254	2773.74
850.577	2785.04
850.9	2775.32
851.223	2729.67
851.546	2724.93
851.869	2762.89
852.192	2753.4
852.515	2710.24
852.838	2705.72
853.161	2713.86
853.483	2682.44
853.806	2660.07
854.129	2662.78
854.451	2673.86
854.774	2659.39
855.096	2671.6
855.419	2659.85
855.741	2628.43
856.063	2660.75
856.385	2641.54
856.708	2633.86
857.03	2617.13
857.352	2656.91
857.674	2620.75
857.996	2605.61
858.318	2552.05
858.64	2602.45
858.961	2565.61
859.283	2607.19
859.605	2568.32
859.926	2577.36
860.248	2561.54
860.57	2535.33
860.891	2551.37
861.212	2530.58
861.534	2511.6
861.855	2523.58
862.176	2538.49
862.498	2531.04
862.819	2527.65
863.14	2489.91
863.461	2506.85
863.782	2528.32
864.103	2546.18
864.424	2498.49
864.745	2511.6
865.065	2497.36
865.386	2467.31
865.707	2492.39
866.027	2502.34
866.348	2502.11
866.668	2484.71
866.989	2486.74
867.309	2461.43
867.63	2479.51
867.95	2449
868.27	2446.29
868.59	2435.9
868.91	2412.39
869.23	2431.83
869.55	2392.73
869.87	2470.02
870.19	2426.41
870.51	2439.96
870.83	2407.87
871.15	2411.04
871.469	2409.68
871.789	2420.76
872.109	2426.63
872.428	2409
872.748	2399.74
873.067	2395.45
873.386	2404.48
873.706	2372.85
874.025	2398.38
874.344	2412.17
874.663	2416.46
874.982	2383.47
875.301	2355.45
875.62	2373.07
875.939	2384.6
876.258	2364.26
876.577	2399.29
876.896	2393.41
877.214	2371.04
877.533	2360.42
877.852	2378.95
878.17	2359.74
878.489	2343.02
878.807	2356.8
879.125	2348.67
879.444	2347.76
879.762	2325.16
880.08	2327.2
880.398	2324.94
880.716	2331.94
881.034	2350.93
881.352	2319.52
881.67	2327.88
881.988	2329.01
882.306	2279.97
882.624	2268.9
882.941	2296.24
883.259	2291.27
883.577	2285.62
883.894	2292.62
884.212	2238.16
884.529	2224.15
884.846	2280.19
885.164	2252.17
885.481	2230.7
885.798	2239.97
886.115	2214.89
886.432	2246.52
886.75	2228.67
887.067	2225.73
887.383	2223.02
887.7	2244.94
888.017	2215.34
888.334	2215.11
888.651	2190.25
888.967	2195.45
889.284	2214.89
889.6	2163.81
889.917	2159.29
890.233	2192.96
890.55	2206.98
890.866	2201.55
891.182	2187.77
891.498	2159.07
891.815	2163.81
892.131	2161.78
892.447	2160.65
892.763	2162.68
893.079	2124.49
893.395	2137.37
893.71	2122.46
894.026	2136.47
894.342	2132.85
894.657	2101.67
894.973	2121.1
895.289	2115.9
895.604	2120.2
895.92	2126.53
896.235	2109.58
896.55	2102.35
896.865	2073.19
897.181	2083.82
897.496	2072.06
897.811	2058.51
898.126	2091.05
898.441	2056.92
898.756	2047.66
899.071	2007.89
899.386	2045.4
899.7	2022.8
900.015	2038.17
900.33	2002.01
900.644	2003.59
900.959	1996.13
901.273	1962.01
901.588	1979.19
901.902	1970.6
902.216	1965.4
902.531	1942.12
902.845	1937.6
903.159	1966.98
903.473	1956.36
903.787	1938.51
904.101	1953.42
904.415	1954.78
904.729	1936.93
905.042	1887.44
905.356	1924.27
905.67	1908.68
905.984	1904.61
906.297	1889.47
906.611	1864.84
906.924	1878.85
907.237	1885.18
907.551	1878.62
907.864	1882.01
908.177	1866.42
908.491	1868.91
908.804	1849.25
909.117	1833.43
909.43	1850.38
909.743	1846.76
910.056	1814.44
910.368	1855.57
910.681	1807.89
910.994	1802.01
911.307	1815.35
911.619	1837.95
911.932	1777.16
912.244	1759.76
912.557	1746.2
912.869	1748.68
913.181	1789.36
913.494	1746.42
913.806	1740.55
914.118	1743.03
914.43	1724.05
914.742	1750.94
915.054	1731.28
915.366	1745.75
915.678	1712.75
915.99	1715.24
916.302	1705.75
916.613	1701.9
916.925	1691.28
917.236	1705.52
917.548	1664.62
917.859	1680.66
918.171	1670.04
918.482	1664.84
918.794	1675.46
919.105	1671.4
919.416	1656.03
919.727	1636.6
920.038	1671.17
920.349	1619.19
920.66	1635.24
920.971	1651.28
921.282	1607.9
921.593	1617.61
921.903	1602.7
922.214	1574.68
922.525	1611.96
922.835	1606.99
923.146	1601.12
923.456	1616.71
923.767	1594.11
924.077	1588.91
924.387	1557.73
924.697	1557.28
925.008	1539.65
925.318	1533.77
925.628	1550.5
925.938	1543.49
926.248	1530.16
926.558	1518.63
926.867	1522.02
927.177	1527.45
927.487	1533.55
927.796	1513.21
928.106	1503.72
928.416	1506.43
928.725	1467.79
929.034	1483.15
929.344	1481.35
929.653	1456.04
929.962	1467.33
930.271	1424.4
930.581	1477.28
930.89	1466.2
931.199	1461.01
931.508	1461.01
931.817	1450.39
932.125	1426.88
932.434	1463.04
932.743	1439.31
933.051	1428.24
933.36	1423.04
933.669	1396.83
933.977	1433.66
934.286	1416.49
934.594	1423.49
934.902	1425.3
935.21	1388.47
935.519	1395.47
935.827	1395.47
936.135	1369.71
936.443	1395.25
936.751	1375.36
937.059	1351.86
937.367	1360.44
937.674	1394.12
937.982	1339.65
938.29	1341.91
938.597	1339.2
938.905	1334.46
939.213	1339.88
939.52	1329.94
939.827	1348.69
940.135	1329.03
940.442	1320.67
940.749	1295.36
941.056	1294.23
941.363	1300.33
941.67	1296.94
941.977	1307.56
942.284	1272.31
942.591	1265.98
942.898	1279.77
943.205	1268.92
943.511	1290.62
943.818	1244.97
944.125	1262.37
944.431	1275.7
944.738	1245.65
945.044	1233.44
945.35	1262.14
945.657	1247.68
945.963	1230.05
946.269	1227.79
946.575	1216.95
946.881	1250.62
947.187	1229.15
947.493	1207.23
947.799	1214.46
948.105	1225.76
948.41	1169.04
948.716	1222.82
949.022	1208.58
949.327	1207
949.633	1186.66
949.938	1190.28
950.244	1169.49
950.549	1157.51
950.854	1187.57
951.16	1161.58
951.465	1166.78
951.77	1148.02
952.075	1167.46
952.38	1153.67
952.685	1163.16
952.99	1152.09
953.294	1112.77
953.599	1122.03
953.904	1144.4
954.209	1130.17
954.513	1128.13
954.818	1140.56
955.122	1118.87
955.426	1108.02
955.731	1122.26
956.035	1111.86
956.339	1109.15
956.643	1078.64
956.948	1077.51
957.252	1093.11
957.556	1096.95
957.86	1090.4
958.163	1098.98
958.467	1080
958.771	1092.88
959.075	1090.17
959.378	1065.54
959.682	1068.47
959.985	1065.08
960.289	1079.77
960.592	1083.39
960.896	1034.8
961.199	1063.73
961.502	1049.72
961.805	1042.71
962.108	1052.43
962.411	1029.83
962.714	1029.83
963.017	1030.28
963.32	1019.89
963.623	1041.36
963.926	1026.22
964.228	1016.72
964.531	1014.46
964.833	1033.67
965.136	999.1
965.438	1023.96
965.741	1009.04
966.043	1016.95
966.345	997.52
966.648	1002.26
966.95	1018.98
967.252	987.57
967.554	979.44
967.856	997.29
968.158	990.06
968.46	971.08
968.761	980.79
969.063	989.83
969.365	971.53
969.666	955.94
969.968	971.3
970.269	978.76
970.571	949.61
970.872	966.33
971.174	937.63
971.475	960.23
971.776	930.63
972.077	949.16
972.378	944.86
972.679	938.99
972.98	937.63
973.281	949.16
973.582	899.21
973.883	899.44
974.183	906.9
974.484	957.74
974.785	914.13
975.085	925.43
975.386	909.61
975.686	883.39
975.986	892.66
976.287	899.44
976.587	899.44
976.887	894.47
977.187	879.55
977.487	906.67
977.787	872.32
978.087	881.14
978.387	880.46
978.687	889.72
978.987	859.21
979.286	869.38
979.586	863.96
979.885	873.9
980.185	874.13
980.484	849.95
980.784	854.47
981.083	852.66
981.382	876.16
981.682	855.6
981.981	859.89
982.28	838.42
982.579	832.32
982.878	829.61
983.177	846.79
983.475	831.19
983.774	838.42
984.073	817.63
984.372	824.41
984.67	830.06
984.969	834.36
985.267	816.05
985.566	807.01
985.864	818.76
986.162	811.31
986.461	804.75
986.759	811.08
987.057	796.39
987.355	801.82
987.653	802.49
987.951	781.93
988.249	809.72
988.547	816.73
988.844	789.39
989.142	770.86
989.44	795.94
989.737	786.67
990.035	796.17
990.332	801.14
990.63	774.92
990.927	777.41
991.224	781.7
991.521	776.51
991.819	803.4
992.116	772.44
992.413	752.32
992.71	759.56
993.006	760.23
993.303	769.73
993.6	758.88
993.897	778.09
994.193	739.9
994.49	742.16
994.787	776.73
995.083	755.04
995.379	733.79
995.676	724.08
995.972	765.21
996.268	730.4
996.565	720.46
996.861	708.48
997.157	722.27
997.453	718.88
997.749	724.08
998.044	715.72
998.34	702.61
998.636	706.68
998.932	709.39
999.227	691.99
999.523	720.01
999.818	694.47
1000.114	717.07
1000.409	705.77
1000.704	685.21
1001	724.98
1001.295	700.12
1001.59	689.05
1001.885	694.02
1002.18	678.2
1002.475	689.5
1002.77	683.17
1003.065	706.45
1003.359	680.91
1003.654	672.1
1003.949	666
1004.243	670.07
1004.538	655.15
1004.832	656.73
1005.127	675.49
1005.421	663.06
1005.715	648.82
1006.009	684.98
1006.304	651.76
1006.598	650.18
1006.892	653.8
1007.186	637.07
1007.48	663.74
1007.773	621.25
1008.067	654.25
1008.361	636.62
1008.655	631.2
1008.948	607.92
1009.242	639.11
1009.535	620.8
1009.829	620.12
1010.122	644.31
1010.415	641.14
1010.708	638.66
1011.001	616.28
1011.295	615.83
1011.588	632.78
1011.881	612.67
1012.173	617.64
1012.466	626
1012.759	605.66
1013.052	606.11
1013.344	596.17
1013.637	605.44
1013.93	630.07
1014.222	591.2
1014.514	581.71
1014.807	571.76
1015.099	595.72
1015.391	609.5
1015.683	596.4
1015.976	577.64
1016.268	583.06
1016.56	578.77
1016.851	582.16
1017.143	583.06
1017.435	584.42
1017.727	588.04
1018.018	583.97
1018.31	584.42
1018.602	560.92
1018.893	548.26
1019.185	592.33
1019.476	572.89
1019.767	557.3
1020.058	569.28
1020.35	562.27
1020.641	558.21
1020.932	532.67
1021.223	563.63
1021.514	548.71
1021.804	541.71
1022.095	547.58
1022.386	550.07
1022.677	540.35
1022.967	538.32
1023.258	543.29
1023.548	535.16
1023.839	534.48
1024.129	504.42
1024.419	521.6
1024.709	532.9
1025	548.26
1025.29	513.46
1025.58	529.96
1025.87	521.82
1026.16	491.77
1026.449	536.06
1026.739	529.96
1027.029	509.85
1027.319	502.61
1027.608	494.03
1027.898	501.71
1028.187	492.22
1028.477	498.77
1028.766	490.41
1029.055	487.7
1029.344	521.82
1029.634	497.64
1029.923	481.15
1030.212	490.64
1030.501	482.28
1030.79	478.66
1031.078	493.35
1031.367	499
1031.656	470.98
1031.945	511.43
1032.233	479.79
1032.522	503.07
1032.81	479.34
1033.099	483.63
1033.387	470.98
1033.675	464.65
1033.963	496.96
1034.251	478.66
1034.54	475.04
1034.828	482.95
1035.116	466
1035.403	450.19
1035.691	470.07
1035.979	451.54
1036.267	463.97
1036.554	460.13
1036.842	456.97
1037.129	447.7
1037.417	465.1
1037.704	456.97
1037.992	435.27
1038.279	457.42
1038.566	459
1038.853	459
1039.14	459
