Data from blue_clamp_base_FLMS001491_00008.txt Node
Date: Wed Feb 08 15:15:29 GMT 2017
User: dcchb
Spectrometer: FLMS00149
Trigger mode: 0
Integration Time (sec): 2.000000E-2
Scans to average: 10
Electric dark correction enabled: true
Nonlinearity correction enabled: false
Boxcar width: 0
XAxis mode: Wavelengths
Number of Pixels in Spectrum: 2048
>>>>>Begin Spectral Data<<<<<
341.393	-11.58
341.776	-11.58
342.16	-11.58
342.543	-50.22
342.927	-56.1
343.31	-81.18
343.693	-67.4
344.077	-64.69
344.46	-53.39
344.843	-31.02
345.226	-31.69
345.61	-54.07
345.993	-24.01
346.376	5.59
346.759	3.79
347.142	29.77
347.525	31.58
347.908	63.9
348.291	70.68
348.674	87.85
349.057	114.29
349.44	143.89
349.823	166.27
350.206	160.39
350.588	160.62
350.971	218.69
351.354	235.42
351.737	245.81
352.119	245.13
352.502	259.15
352.884	274.74
353.267	287.85
353.65	310.67
354.032	291.46
354.414	309.09
354.797	314.06
355.179	322.42
355.562	321.52
355.944	333.95
356.326	334.17
356.709	338.92
357.091	333.95
357.473	345.7
357.855	338.24
358.238	334.85
358.62	334.17
359.002	339.14
359.384	326.49
359.766	359.93
360.148	359.26
360.53	317.68
360.912	340.73
361.294	330.1
361.676	341.18
362.057	336.43
362.439	349.09
362.821	342.31
363.203	319.94
363.584	337.56
363.966	322.19
364.348	301.18
364.729	321.97
365.111	322.65
365.493	316.09
365.874	316.77
366.256	306.83
366.637	322.87
367.019	341.63
367.4	327.84
367.781	305.47
368.163	322.42
368.544	315.42
368.925	323.55
369.306	316.77
369.688	332.59
370.069	322.42
370.45	308.64
370.831	312.48
371.212	311.35
371.593	299.6
371.974	305.02
372.355	309.99
372.736	313.16
373.117	303.66
373.498	297.56
373.879	322.87
374.26	327.17
374.641	312.48
375.021	299.82
375.402	304.79
375.783	314.96
376.163	338.47
376.544	334.4
376.925	349.76
377.305	319.71
377.686	316.77
378.066	319.71
378.447	337.56
378.827	338.24
379.208	327.17
379.588	329.43
379.968	338.24
380.349	342.08
380.729	336.43
381.109	326.49
381.489	350.44
381.87	334.85
382.25	352.48
382.63	321.97
383.01	341.86
383.39	328.75
383.77	334.4
384.15	347.05
384.53	354.74
384.91	345.25
385.29	335.98
385.67	338.92
386.049	367.62
386.429	367.39
386.809	350.22
387.189	355.64
387.568	361.97
387.948	364.45
388.328	374.85
388.707	387.96
389.087	386.37
389.466	380.27
389.846	393.15
390.225	376.88
390.605	372.36
390.984	382.08
391.363	372.36
391.743	378.69
392.122	376.43
392.501	399.93
392.881	414.85
393.26	392.02
393.639	399.93
394.018	388.41
394.397	411.68
394.776	413.04
395.155	427.73
395.534	388.63
395.913	416.88
396.292	422.08
396.671	446.94
397.05	433.83
397.429	433.83
397.808	429.08
398.186	424.34
398.565	438.12
398.944	433.83
399.323	462.76
399.701	472.02
400.08	454.39
400.458	461.85
400.837	461.63
401.215	468.86
401.594	473.15
401.972	468.86
402.351	470.89
402.729	482.64
403.107	503.66
403.486	514.51
403.864	500.5
404.242	515.18
404.62	545.47
404.999	515.86
405.377	528.29
405.755	540.72
406.133	542.75
406.511	521.74
406.889	531.91
407.267	545.01
407.645	551.12
408.023	556.09
408.401	552.7
408.779	569.19
409.156	556.54
409.534	585.01
409.912	599.02
410.29	600.38
410.667	613.26
411.045	589.08
411.422	611.68
411.8	611
412.178	629.08
412.555	644.45
412.933	650.77
413.31	646.03
413.687	650.1
414.065	669.76
414.442	649.87
414.819	675.18
415.197	681.96
415.574	695.74
415.951	713.37
416.328	700.04
416.705	713.37
417.082	723.31
417.46	726.03
417.837	723.09
418.214	699.81
418.591	719.7
418.967	742.97
419.344	758.12
419.721	758.57
420.098	750.88
420.475	777.78
420.852	775.06
421.228	772.58
421.605	791.34
421.982	776.87
422.358	802.41
422.735	798.57
423.111	846.93
423.488	838.57
423.864	841.96
424.241	825.68
424.617	847.6
424.994	862.97
425.37	872.46
425.746	874.95
426.123	872.24
426.499	895.51
426.875	910.88
427.251	905.91
427.627	927.15
428.003	943.42
428.379	938.68
428.756	962.63
429.132	949.52
429.507	973.25
429.883	1002.63
430.259	1026.58
430.635	1007.15
431.011	1023.42
431.387	1045.11
431.763	1072.23
432.138	1049.63
432.514	1089.86
432.89	1079.01
433.265	1119.91
433.641	1096.86
434.016	1120.82
434.392	1143.42
434.767	1169.4
435.143	1161.04
435.518	1159.24
435.894	1184.32
436.269	1213.7
436.644	1223.87
437.02	1243.3
437.395	1252.34
437.77	1279.46
438.145	1287.59
438.52	1319.23
438.895	1309.97
439.271	1309.97
439.646	1333.47
440.021	1367.37
440.395	1353.81
440.77	1329.4
441.145	1352
441.52	1409.62
441.895	1390.19
442.27	1415.05
442.645	1392.22
443.019	1425.89
443.394	1427.48
443.769	1477.19
444.143	1463.63
444.518	1499.11
444.892	1477.19
445.267	1484.2
445.641	1515.84
446.016	1516.97
446.39	1524.65
446.764	1556.29
447.139	1538.89
447.513	1562.39
447.887	1575.5
448.262	1594.7
448.636	1599.22
449.01	1625.44
449.384	1634.48
449.758	1626.12
450.132	1662.72
450.506	1679.45
450.88	1644.65
451.254	1682.84
451.628	1695.27
452.002	1733.91
452.376	1714.7
452.75	1740.91
453.123	1768.71
453.497	1793.79
453.871	1799.9
454.244	1828.82
454.618	1869.27
454.992	1886.45
455.365	1870.18
455.739	1949.72
456.112	1963.28
456.486	1990.4
456.859	2005.31
457.232	2006.22
457.606	1991.98
457.979	2024.3
458.352	2062.26
458.725	2072.66
459.099	2114.92
459.472	2119.21
459.845	2128.48
460.218	2172.99
460.591	2167.12
460.964	2187.68
461.337	2248.25
461.71	2223.84
462.083	2306.32
462.456	2301.13
462.829	2360.79
463.201	2313.1
463.574	2316.72
463.947	2375.25
464.32	2440.78
464.692	2424.06
465.065	2453.89
465.438	2510.84
465.81	2517.84
466.183	2533.89
466.555	2613.43
466.928	2545.41
467.3	2615.02
467.672	2630.16
468.045	2723.04
468.417	2673.77
468.789	2729.14
469.161	2727.78
469.534	2789.02
469.906	2825.63
470.278	2810.72
470.65	2849.81
471.022	2906.31
471.394	2956.48
471.766	2974.78
472.138	3008.9
472.51	3071.5
472.882	3101.33
473.253	3099.3
473.625	3191.95
473.997	3168.22
474.369	3210.93
474.74	3273.76
475.112	3299.97
475.484	3336.8
475.855	3400.76
476.227	3435.56
476.598	3497.93
476.97	3527.76
477.341	3616.12
477.713	3634.88
478.084	3632.39
478.455	3716
478.827	3751.26
479.198	3848.88
479.569	3842.1
479.94	3920.29
480.311	3958.48
480.682	3997.13
481.053	4084.13
481.424	4123
481.795	4160.29
482.166	4233.28
482.537	4234.18
482.908	4318.25
483.279	4370.45
483.65	4408.42
484.021	4473.27
484.391	4527.51
484.762	4525.93
485.133	4559.6
485.503	4563.89
485.874	4700.16
486.244	4678.69
486.615	4769.76
486.985	4815.18
487.356	4875.52
487.726	4885.01
488.097	4956.88
488.467	4977.89
488.837	5091.56
489.207	5082.75
489.578	5116.42
489.948	5181.95
490.318	5217.21
490.688	5215.4
491.058	5288.84
491.428	5321.84
491.798	5370.2
492.168	5444.09
492.538	5406.36
492.908	5416.07
493.278	5531.78
493.648	5564.54
494.017	5546.92
494.387	5580.81
494.757	5611.55
495.126	5635.5
495.496	5597.54
495.866	5668.72
496.235	5752.56
496.605	5717.76
496.974	5732.9
497.344	5763.86
497.713	5811.32
498.082	5820.13
498.452	5874.59
498.821	5896.96
499.19	5880.47
499.559	5866.46
499.928	5913.01
500.298	5921.6
500.667	5976.06
501.036	5969.5
501.405	5962.95
501.774	5960.69
502.143	6015.6
502.512	6027.36
502.88	6065.55
503.249	6026.68
503.618	6070.97
503.987	6090.18
504.356	6113
504.724	6072.33
505.093	6150.06
505.462	6107.13
505.83	6225.54
506.199	6187.13
506.567	6289.72
506.936	6250.17
507.304	6276.39
507.672	6289.27
508.041	6310.74
508.409	6323.62
508.777	6395.26
509.145	6388.25
509.514	6398.42
509.882	6421.24
510.25	6433.9
510.618	6389.38
510.986	6529.26
511.354	6514.57
511.722	6504.18
512.09	6520
512.458	6491.3
512.826	6526.1
513.193	6529.49
513.561	6537.85
513.929	6636.38
514.297	6578.08
514.664	6637.74
515.032	6644.29
515.4	6675.02
515.767	6734.46
516.135	6732.65
516.502	6628.47
516.869	6777.62
517.237	6738.75
517.604	6762.25
517.972	6835.47
518.339	6804.06
518.706	6845.64
519.073	6796.37
519.44	6829.14
519.808	6905.3
520.175	6854.9
520.542	6959.76
520.909	7010.38
521.276	6981.23
521.643	7000.21
522.009	6965.41
522.376	7019.42
522.743	7016.03
523.11	7149.59
523.477	7161.79
523.843	7202.24
524.21	7221.9
524.577	7243.82
524.943	7268
525.31	7308.23
525.676	7327.43
526.043	7402.01
526.409	7344.38
526.776	7457.83
527.142	7463.7
527.508	7451.5
527.874	7515.9
528.241	7539.63
528.607	7550.71
528.973	7558.61
529.339	7592.06
529.705	7688.78
530.071	7661.21
530.437	7676.13
530.803	7756.8
531.169	7799.96
531.535	7759.06
531.901	7767.65
532.267	7768.1
532.632	7784.15
532.998	7850.58
533.364	7845.39
533.73	7872.5
534.095	7954.99
534.461	7939.4
534.826	7950.92
535.192	7950.47
535.557	8048.77
535.923	8010.58
536.288	8059.17
536.653	8076.12
537.019	8113.63
537.384	8101.2
537.749	8186.39
538.114	8106.62
538.479	8132.84
538.845	8190.46
539.21	8142.78
539.575	8186.39
539.94	8204.25
540.305	8246.51
540.67	8256.9
541.034	8241.99
541.399	8263
541.764	8240.63
542.129	8353.85
542.494	8301.42
542.858	8400.63
543.223	8346.16
543.587	8417.12
543.952	8384.58
544.316	8399.72
544.681	8370.8
545.045	8418.93
545.41	8503.9
545.774	8519.72
546.138	8481.08
546.503	8568.53
546.867	8548.19
547.231	8565.37
547.595	8578.7
547.959	8617.57
548.324	8563.33
548.688	8517.01
549.052	8605.37
549.416	8655.54
549.779	8605.14
550.143	8670.45
550.507	8725.82
550.871	8783.22
551.235	8715.42
551.599	8767.4
551.962	8774.85
552.326	8848.52
552.689	8799.26
553.053	8773.27
553.417	8764.91
553.78	8871.12
554.143	8850.78
554.507	8871.8
554.87	8836.55
555.234	8958.8
555.597	8857.56
555.96	8957.45
556.323	9002.64
556.686	8963.32
557.05	8974.85
557.413	9040.84
557.776	9005.13
558.139	9012.81
558.502	9023.89
558.865	9077.44
559.228	9094.85
559.59	9099.59
559.953	9130.55
560.316	9217.33
560.679	9192.92
561.041	9262.98
561.404	9193.15
561.767	9228.4
562.129	9268.4
562.492	9309.08
562.854	9314.05
563.217	9375.74
563.579	9397.66
563.941	9453.25
564.304	9409.64
564.666	9445.8
565.028	9424.78
565.39	9465.46
565.753	9495.74
566.115	9505
566.477	9580.26
566.839	9588.62
567.201	9642.63
567.563	9723.53
567.925	9727.6
568.287	9737.77
568.648	9738.9
569.01	9757.2
569.372	9835.62
569.734	9756.98
570.095	9838.55
570.457	9890.76
570.819	9889.85
571.18	9876.75
571.542	9936.18
571.903	9971.43
572.265	9997.65
572.626	10002.84
572.987	10062.28
573.349	10043.52
573.71	10082.84
574.071	10184.99
574.432	10208.26
574.794	10239.22
575.155	10198.09
575.516	10170.3
575.877	10240.13
576.238	10256.4
576.599	10311.76
576.96	10272.22
577.32	10260.01
577.681	10334.36
578.042	10393.57
578.403	10370.97
578.763	10389.05
579.124	10449.39
579.485	10499.1
579.845	10446.22
580.206	10533.9
580.566	10495.03
580.927	10504.75
581.287	10570.51
581.648	10572.09
582.008	10634.69
582.368	10549.27
582.728	10610.06
583.089	10587.91
583.449	10508.82
583.809	10577.07
584.169	10621.81
584.529	10554.02
584.889	10675.14
585.249	10598.31
585.609	10558.99
585.969	10633.34
586.329	10654.13
586.688	10657.52
587.048	10621.59
587.408	10742.26
587.768	10658.65
588.127	10713.56
588.487	10632.21
588.846	10713.79
589.206	10688.7
589.565	10752.2
589.925	10805.54
590.284	10700.45
590.643	10731.64
591.003	10758.98
591.362	10815.93
591.721	10722.6
592.08	10766.89
592.44	10806.21
592.799	10791.3
593.158	10759.66
593.517	10883.05
593.876	10725.09
594.235	10769.83
594.593	10855.03
594.952	10841.01
595.311	10779.1
595.67	10863.39
596.029	10845.31
596.387	10748.59
596.746	10861.8
597.104	10872.65
597.463	10811.86
597.822	10892.09
598.18	10799.43
598.538	10872.88
598.897	10880.34
599.255	10856.16
599.613	10939.99
599.972	10922.14
600.33	10961.46
600.688	10842.37
601.046	10887.11
601.404	11008.24
601.762	11040.56
602.12	10927.57
602.478	11043.49
602.836	10979.99
603.194	10996.26
603.552	10995.81
603.91	10877.4
604.268	11002.59
604.625	10904.97
604.983	11009.82
605.341	10961.69
605.698	11072.87
606.056	11033.55
606.413	11038.98
606.771	11038.98
607.128	11086.66
607.485	11068.13
607.843	11075.36
608.2	11141.12
608.557	11146.54
608.914	11060.9
609.272	11122.81
609.629	11085.3
609.986	11239.42
610.343	11181.34
610.7	11191.74
611.057	11272.64
611.414	11120.56
611.771	11256.37
612.127	11241.46
612.484	11250.5
612.841	11316.93
613.198	11236.26
613.554	11223.6
613.911	11247.56
614.267	11365.29
614.624	11310.61
614.98	11309.48
615.337	11391.73
615.693	11315.35
616.05	11357.84
616.406	11437.83
616.762	11412.3
617.118	11338.4
617.475	11404.84
617.831	11370.27
618.187	11387.67
618.543	11443.26
618.899	11419.3
619.255	11479.87
619.611	11489.58
619.967	11530.71
620.323	11543.59
620.678	11513.99
621.034	11538.17
621.39	11462.69
621.746	11410.26
622.101	11593.76
622.457	11581.11
622.812	11555.12
623.168	11592.41
623.523	11571.62
623.879	11634.21
624.234	11645.96
624.589	11628.11
624.945	11595.8
625.3	11643.71
625.655	11595.8
626.01	11641.45
626.365	11647.32
626.72	11610.49
627.075	11650.03
627.43	11695
627.785	11702.23
628.14	11659.07
628.495	11666.76
628.85	11697.26
629.205	11717.38
629.559	11742.46
629.914	11804.15
630.269	11836.69
630.623	11713.99
630.978	11793.31
631.332	11873.3
631.687	11798.73
632.041	11825.17
632.396	11837.15
632.75	11797.83
633.104	11897.71
633.459	11836.02
633.813	11889.12
634.167	11866.07
634.521	11873.98
634.875	11857.94
635.229	11909.69
635.583	11820.88
635.937	11800.54
636.291	11877.6
636.645	11890.48
636.999	11910.82
637.352	11828.79
637.706	11840.08
638.06	11907.2
638.413	11929.35
638.767	11868.78
639.121	11836.24
639.474	11826.98
639.828	11879.86
640.181	11944.71
640.534	11963.24
640.888	11891.61
641.241	11917.37
641.594	11881.89
641.947	12012.51
642.301	11949.23
642.654	12000.31
643.007	12039.4
643.36	12010.93
643.713	12003.02
644.066	12109.68
644.419	11994.88
644.771	12061.32
645.124	11900.42
645.477	11974.77
645.83	11882.34
646.182	11798.5
646.535	11757.37
646.888	11777.03
647.24	11783.59
647.593	11858.61
647.945	11783.36
648.298	11708.11
648.65	11751.27
649.002	11772.74
649.355	11848.9
649.707	11857.26
650.059	12000.98
650.411	12167.99
650.763	12107.65
651.115	12265.84
651.467	12286.4
651.819	12172.28
652.171	12244.59
652.523	12284.14
652.875	12280.52
653.227	12249.11
653.578	12356
653.93	12347.19
654.282	12321.65
654.633	12310.35
654.985	12378.6
655.337	12322.56
655.688	12387.19
656.039	12464.02
656.391	12358.04
656.742	12384.7
657.094	12365.27
657.445	12385.15
657.796	12410.24
658.147	12457.7
658.498	12438.26
658.849	12466.73
659.2	12432.38
659.551	12388.54
659.902	12556.68
660.253	12528.65
660.604	12588.09
660.955	12385.83
661.306	12466.73
661.656	12478.26
662.007	12488.2
662.358	12480.75
662.708	12468.32
663.059	12533.63
663.409	12500.63
663.76	12616.79
664.11	12542.44
664.461	12553.74
664.811	12612.95
665.161	12536.79
665.511	12443.46
665.862	12494.98
666.212	12550.12
666.562	12567.52
666.912	12520.52
667.262	12560.74
667.612	12533.17
667.962	12521.42
668.312	12547.41
668.662	12565.26
669.011	12479.39
669.361	12447.75
669.711	12459.73
670.06	12326.17
670.41	12439.16
670.76	12305.16
671.109	12397.13
671.459	12404.59
671.808	12299.73
672.157	12328.66
672.507	12281.2
672.856	12229.23
673.205	12305.38
673.554	12297.7
673.904	12219.28
674.253	12224.71
674.602	12168.21
674.951	12063.36
675.3	11934.32
675.649	12196.46
675.998	12093.18
676.346	12129.12
676.695	12223.12
677.044	12053.41
677.393	12062
677.741	12031.94
678.09	12043.69
678.438	11985.39
678.787	11998.05
679.135	11984.26
679.484	11817.26
679.832	11961.66
680.181	11852.51
680.529	11885.05
680.877	11836.92
681.225	11746.98
681.573	11861.1
681.922	11785.85
682.27	11726.64
682.618	11733.19
682.966	11700.43
683.314	11655.23
683.661	11687.09
684.009	11598.06
684.357	11616.59
684.705	11559.64
685.053	11530.49
685.4	11554.22
685.748	11500.66
686.095	11566.19
686.443	11468.79
686.79	11434.67
687.138	11473.77
687.485	11411.17
687.832	11422.92
688.18	11436.7
688.527	11330.49
688.874	11403.03
689.221	11333.66
689.568	11307.89
689.915	11288.01
690.262	11175.47
690.609	11289.82
690.956	11228.35
691.303	11234.22
691.65	11247.11
691.997	11250.72
692.344	11122.14
692.69	11152.64
693.037	11174.56
693.383	11142.25
693.73	11167.33
694.077	11074.68
694.423	11042.59
694.769	11007.11
695.116	11039.65
695.462	11010.5
695.808	10970.73
696.155	10953.33
696.501	10957.62
696.847	10912.42
697.193	10860.9
697.539	11017.51
697.885	10831.98
698.231	10871.3
698.577	10819.32
698.923	10814.8
699.269	10783.84
699.614	10693
699.96	10711.3
700.306	10799.43
700.651	10745.42
700.997	10676.72
701.342	10694.35
701.688	10664.75
702.033	10611.64
702.379	10712.88
702.724	10657.74
703.069	10718.08
703.415	10605.77
703.76	10638.99
704.105	10574.35
704.45	10596.5
704.795	10571.42
705.14	10536.62
705.485	10543.17
705.83	10513.34
706.175	10482.83
706.52	10553.11
706.865	10578.2
707.209	10532.1
707.554	10500.68
707.899	10516.73
708.243	10483.51
708.588	10459.78
708.932	10365.32
709.277	10406.45
709.621	10367.35
709.966	10274.7
710.31	10383.4
710.654	10334.59
710.998	10377.3
711.342	10364.42
711.687	10322.61
712.031	10387.47
712.375	10314.25
712.719	10294.81
713.063	10356.96
713.407	10371.65
713.75	10343.4
714.094	10323.06
714.438	10302.05
714.782	10297.75
715.125	10234.02
715.469	10301.37
715.812	10244.19
716.156	10154.25
716.499	10169.39
716.843	10274.02
717.186	10170.98
717.53	10207.13
717.873	10222.27
718.216	10229.28
718.559	10182.95
718.902	10145.44
719.246	10194.48
719.589	10143.41
719.932	10196.06
720.275	10191.31
720.617	10195.83
720.96	10183.4
721.303	10205.78
721.646	10212.33
721.989	10100.24
722.331	10212.33
722.674	10147.25
723.016	10178.66
723.359	10136.63
723.701	10173.69
724.044	10126
724.386	10061.83
724.729	10176.17
725.071	10206.68
725.413	10152.9
725.755	10126
726.097	10099.11
726.439	10056.4
726.782	10104.76
727.124	10166.46
727.465	10135.04
727.807	10169.39
728.149	10088.49
728.491	10174.37
728.833	10138.66
729.175	10111.77
729.516	10077.64
729.858	10105.89
730.199	10234.48
730.541	10106.34
730.882	10126.68
731.224	10111.32
731.565	10119.45
731.906	10129.85
732.248	10193.57
732.589	10213.91
732.93	10124.88
733.271	10238.09
733.612	10215.49
733.953	10271.76
734.294	10284.19
734.635	10203.74
734.976	10227.7
735.317	10230.86
735.658	10264.53
735.999	10271.99
736.339	10230.86
736.68	10313.8
737.021	10191.09
737.361	10273.12
737.702	10237.87
738.042	10277.64
738.383	10317.64
738.723	10354.02
739.063	10333.91
739.404	10438.31
739.744	10297.3
740.084	10343.85
740.424	10394.02
740.764	10404.64
741.104	10427.24
741.444	10468.14
741.784	10466.33
742.124	10518.76
742.464	10524.86
742.804	10525.54
743.143	10496.84
743.483	10587.91
743.823	10563.96
744.162	10655.26
744.502	10672.88
744.841	10641.02
745.181	10722.15
745.52	10702.94
745.86	10726.44
746.199	10665.2
746.538	10809.15
746.877	10856.38
747.216	10825.87
747.556	10803.5
747.895	10918.3
748.234	10900.45
748.573	10949.26
748.911	10909.71
749.25	11010.28
749.589	10981.8
749.928	11003.04
750.267	11106.77
750.605	11073.1
750.944	11048.69
751.283	11150.61
751.621	11126.88
751.96	11063.83
752.298	11185.64
752.636	11275.35
752.975	11180.67
753.313	11240.55
753.651	11280.78
753.989	11281.68
754.327	11346.09
754.666	11347.44
755.004	11424.73
755.342	11406.42
755.679	11431.28
756.017	11495.69
756.355	11548.79
756.693	11509.92
757.031	11543.82
757.368	11564.84
757.706	11523.26
758.044	11561.9
758.381	11601.22
758.719	11536.59
759.056	11679.41
759.394	11682.35
759.731	11598.28
760.068	11669.69
760.405	11703.59
760.743	11680.09
761.08	11739.97
761.417	11680.09
761.754	11718.05
762.091	11714.44
762.428	11786.75
762.765	11728.9
763.102	11821.1
763.438	11741.33
763.775	11806.41
764.112	11862.91
764.449	11866.75
764.785	11815.23
765.122	11786.3
765.458	11833.08
765.795	11850.48
766.131	11895.68
766.467	11880.99
766.804	11809.8
767.14	11868.11
767.476	11954.43
767.812	11940.65
768.148	11927.54
768.485	11854.1
768.821	11885.05
769.157	11904.04
769.492	11920.08
769.828	11926.18
770.164	11881.89
770.5	11950.14
770.836	11892.06
771.171	11974.77
771.507	11949.01
771.842	12001.89
772.178	11903.36
772.513	11890.25
772.849	11863.13
773.184	11907.2
773.519	11891.83
773.855	11927.09
774.19	11900.87
774.525	11936.58
774.86	11922.79
775.195	11923.25
775.53	11889.35
775.865	11861.1
776.2	11742.69
776.535	11772.97
776.87	11822.23
777.205	11802.35
777.539	11709.24
777.874	11790.37
778.209	11761.89
778.543	11776.36
778.878	11739.75
779.212	11860.2
779.547	11755.79
779.881	11846.19
780.215	11673.99
780.55	11754.66
780.884	11725.74
781.218	11753.76
781.552	11774.78
781.886	11714.21
782.22	11788.56
782.554	11739.3
782.888	11630.82
783.222	11577.94
783.556	11565.74
783.889	11591.96
784.223	11559.19
784.557	11601.22
784.89	11603.03
785.224	11639.41
785.557	11581.56
785.891	11565.29
786.224	11528.91
786.558	11597.38
786.891	11486.2
787.224	11433.77
787.557	11444.39
787.891	11510.6
788.224	11438.74
788.557	11483.03
788.89	11446.87
789.223	11425.63
789.556	11417.27
789.888	11439.64
790.221	11385.86
790.554	11389.7
790.887	11414.56
791.219	11425.86
791.552	11370.94
791.884	11278.29
792.217	11299.53
792.549	11281.45
792.882	11261.12
793.214	11194.23
793.546	11305.86
793.879	11270.38
794.211	11220.21
794.543	11213.66
794.875	11193.77
795.207	11275.35
795.539	11198.07
795.871	11228.12
796.203	11148.8
796.535	11104.96
796.867	11080.78
797.198	11064.74
797.53	11177.28
797.862	11094.12
798.193	11125.98
798.525	11056.38
798.856	11114.23
799.188	10897.28
799.519	10968.24
799.85	10955.81
800.182	10957.17
800.513	10952.65
800.844	10901.58
801.175	11009.37
801.506	10994
801.837	10930.5
802.168	10932.99
802.499	10878.53
802.83	10820.9
803.161	10861.35
803.491	10862.26
803.822	10789.49
804.153	10800.79
804.483	10744.75
804.814	10680.57
805.145	10734.58
805.475	10734.58
805.805	10663.62
806.136	10704.29
806.466	10735.25
806.796	10683.28
807.126	10712.88
807.457	10596.28
807.787	10608.03
808.117	10598.76
808.447	10530.29
808.777	10629.27
809.107	10633.11
809.436	10540.91
809.766	10508.14
810.096	10502.27
810.426	10535.26
810.755	10553.56
811.085	10548.37
811.414	10520.12
811.744	10471.31
812.073	10411.65
812.403	10495.03
812.732	10330.97
813.061	10374.81
813.39	10321.25
813.719	10375.26
814.049	10410.52
814.378	10355.15
814.707	10330.52
815.036	10310.18
815.365	10297.53
815.693	10328.49
816.022	10243.97
816.351	10204.65
816.68	10152.44
817.008	10223.63
817.337	10110.41
817.665	10113.58
817.994	10157.42
818.322	10160.81
818.651	10053.92
818.979	10095.72
819.307	10130.3
819.636	10085.1
819.964	10130.75
820.292	10057.08
820.62	10102.28
820.948	10038.32
821.276	10105.21
821.604	10056.4
821.932	10095.72
822.259	10119.68
822.587	10082.39
822.915	10044.88
823.243	10114.48
823.57	10043.97
823.898	10075.16
824.225	10113.8
824.553	10006.01
824.88	10079.9
825.207	10033.13
825.535	10019.57
825.862	10233.12
826.189	10032.22
826.516	10147.93
826.843	10138.21
827.17	10183.18
827.497	10171.65
827.824	10178.43
828.151	10145.67
828.478	10152.9
828.805	10254.14
829.131	10091.2
829.458	10126.91
829.785	10117.19
830.111	10120.81
830.438	10191.77
830.764	10158.09
831.09	10214.14
831.417	10149.73
831.743	10141.82
832.069	10142.95
832.395	10083.29
832.722	10177.53
833.048	10113.35
833.374	10119.23
833.7	10131.88
834.026	10185.66
834.351	10111.09
834.677	10059.79
835.003	10120.58
835.329	10108.38
835.654	10142.05
835.98	10109.06
836.306	10103.18
836.631	10114.93
836.956	10098.89
837.282	10191.31
837.607	10054.82
837.932	10050.75
838.258	10081.49
838.583	10049.17
838.908	10001.71
839.233	10004.65
839.558	9984.99
839.883	9963.3
840.208	9896.18
840.533	9939.12
840.858	9956.97
841.182	9956.97
841.507	9963.75
841.832	9855.96
842.156	9869.74
842.481	9884.66
842.805	9830.87
843.13	9846.01
843.454	9843.3
843.778	9767.14
844.103	9754.26
844.427	9779.8
844.751	9752.23
845.075	9677.88
845.399	9779.8
845.723	9678.33
846.047	9661.61
846.371	9566.47
846.695	9637.43
847.019	9575.51
847.343	9481.5
847.666	9430.2
847.99	9478.79
848.313	9412.13
848.637	9403.99
848.96	9417.55
849.284	9369.87
849.607	9293.03
849.931	9272.92
850.254	9193.83
850.577	9167.16
850.9	9172.36
851.223	9090.1
851.546	9089.42
851.869	9031.8
852.192	8983.89
852.515	8956.77
852.838	8983.66
853.161	8925.58
853.483	8887.17
853.806	8811.01
854.129	8810.11
854.451	8828.86
854.774	8796.1
855.096	8810.79
855.419	8747.28
855.741	8794.51
856.063	8717
856.385	8681.3
856.708	8607.17
857.03	8563.11
857.352	8618.47
857.674	8589.55
857.996	8531.24
858.318	8461.64
858.64	8449.66
858.961	8443.79
859.283	8486.27
859.605	8427.74
859.926	8453.05
860.248	8398.14
860.57	8363.34
860.891	8402.21
861.212	8347.29
861.534	8371.02
861.855	8292.38
862.176	8321.08
862.498	8276.34
862.819	8302.55
863.14	8229.78
863.461	8276.56
863.782	8280.86
864.103	8288.54
864.424	8173.97
864.745	8248.99
865.065	8150.69
865.386	8140.07
865.707	8138.94
866.027	8154.76
866.348	8176.9
866.668	8165.6
866.989	8148.88
867.309	8098.94
867.63	8072.5
867.95	8057.58
868.27	8006.96
868.59	8079.51
868.91	8015.78
869.23	8024.82
869.55	7969.9
869.87	8038.15
870.19	8002.67
870.51	8025.5
870.83	7988.66
871.15	7988.21
871.469	7978.26
871.789	7921.54
872.109	7882.45
872.428	7898.27
872.748	7921.09
873.067	7968.32
873.386	7909.34
873.706	7859.4
874.025	7882.45
874.344	7839.74
874.663	7821.88
874.982	7811.49
875.301	7828.44
875.62	7746.18
875.939	7788.67
876.258	7774.65
876.577	7775.11
876.896	7700.53
877.214	7730.59
877.533	7691.27
877.852	7784.6
878.17	7673.19
878.489	7767.42
878.807	7667.99
879.125	7710.25
879.444	7653.3
879.762	7637.48
880.08	7645.62
880.398	7572.17
880.716	7620.08
881.034	7558.39
881.352	7548.9
881.67	7571.95
881.988	7569.24
882.306	7523.59
882.624	7498.96
882.941	7433.87
883.259	7524.49
883.577	7467.09
883.894	7478.39
884.212	7487.2
884.529	7449.69
884.846	7364.5
885.164	7363.14
885.481	7337.6
885.798	7397.94
886.115	7303.03
886.432	7347.09
886.75	7332.18
887.067	7306.19
887.383	7259.41
887.7	7303.71
888.017	7249.24
888.334	7295.57
888.651	7249.47
888.967	7178.74
889.284	7209.02
889.6	7157.72
889.917	7100.32
890.233	7082.92
890.55	7074.11
890.866	7115.24
891.182	7056.03
891.498	7024.84
891.815	7064.84
892.131	7026.65
892.447	7000.66
892.763	6942.81
893.079	6966.31
893.395	6926.09
893.71	6877.5
894.026	6856.03
894.342	6843.38
894.657	6842.48
894.973	6808.13
895.289	6814.91
895.604	6811.74
895.92	6730.84
896.235	6746.43
896.55	6692.87
896.865	6699.88
897.181	6627.34
897.496	6704.63
897.811	6630.5
898.126	6620.79
898.441	6584.4
898.756	6587.79
899.071	6528.36
899.386	6584.63
899.7	6499.89
900.015	6472.09
900.33	6430.73
900.644	6458.53
900.959	6406.78
901.273	6369.72
901.588	6302.6
901.902	6333.56
902.216	6287.01
902.531	6291.53
902.845	6249.95
903.159	6281.81
903.473	6220.12
903.787	6158.43
904.101	6159.78
904.415	6193.45
904.729	6117.3
905.042	6174.24
905.356	6143.74
905.67	6048.15
905.984	6061.71
906.297	6068.03
906.611	5973.57
906.924	6014.25
907.237	5948.26
907.551	5931.09
907.864	5946
908.177	5955.72
908.491	5914.14
908.804	5888.38
909.117	5888.38
909.43	5839.79
909.743	5849.06
910.056	5828.94
910.368	5791.66
910.681	5721.83
910.994	5737.42
911.307	5653.81
911.619	5602.28
911.932	5711.21
912.244	5607.71
912.557	5614.49
912.869	5601.38
913.181	5558.67
913.494	5533.13
913.806	5504.66
914.118	5527.71
914.43	5467.14
914.742	5466.24
915.054	5409.52
915.366	5412.23
915.678	5364.32
915.99	5401.61
916.302	5326.81
916.613	5345.57
916.925	5307.83
917.236	5315.96
917.548	5218.79
917.859	5253.59
918.171	5246.59
918.482	5217.89
918.794	5157.55
919.105	5207.72
919.416	5161.16
919.727	5147.6
920.038	5117.55
920.349	5080.71
920.66	5051.79
920.971	5076.87
921.282	5026.48
921.593	4979.47
921.903	4970.21
922.214	4968.4
922.525	4950.77
922.835	4879.82
923.146	4899.93
923.456	4898.35
923.767	4844.11
924.077	4838.91
924.387	4814.28
924.697	4772.93
925.008	4783.09
925.318	4762.08
925.628	4748.75
925.938	4725.47
926.248	4661.52
926.558	4619.26
926.867	4686.37
927.177	4662.19
927.487	4620.61
927.796	4591.69
928.106	4586.72
928.416	4577.22
928.725	4562.76
929.034	4581.52
929.344	4514.18
929.653	4474.63
929.962	4448.64
930.271	4415.87
930.581	4461.52
930.89	4417.68
931.199	4367.51
931.508	4390.34
931.817	4338.36
932.125	4346.95
932.434	4344.24
932.743	4312.6
933.051	4256.1
933.36	4289.55
933.669	4228.08
933.977	4275.99
934.286	4225.14
934.594	4195.09
934.902	4180.4
935.21	4128.42
935.519	4174.52
935.827	4162.55
936.135	4100.63
936.443	4100.4
936.751	4090.91
937.059	4087.07
937.367	4052.94
937.674	4054.07
937.982	4034.87
938.29	3988.99
938.597	4015.21
938.905	3954.19
939.213	3934.53
939.52	3935.43
939.827	3960.29
940.135	3882.55
940.442	3874.42
940.749	3888.88
941.056	3871.93
941.363	3819.73
941.67	3881.88
941.977	3824.25
942.284	3804.14
942.591	3784.25
942.898	3802.33
943.205	3745.61
943.511	3719.62
943.818	3697.25
944.125	3760.07
944.431	3696.12
944.738	3713.29
945.044	3642.79
945.35	3664.25
945.657	3603.92
945.963	3617.48
946.269	3601.2
946.575	3597.59
946.881	3589.68
947.187	3560.75
947.493	3512.85
947.799	3520.3
948.105	3511.04
948.41	3494.09
948.716	3497.7
949.022	3440.76
949.327	3482.11
949.633	3423.13
949.938	3419.06
950.244	3436.92
950.549	3391.04
950.854	3388.1
951.16	3360.08
951.465	3355.34
951.77	3370.7
952.075	3334.55
952.38	3346.97
952.685	3309.46
952.99	3281.21
953.294	3273.3
953.599	3245.51
953.904	3213.42
954.209	3225.17
954.513	3224.72
954.818	3237.15
955.122	3211.16
955.426	3167.09
955.731	3148.79
956.035	3170.93
956.339	3138.17
956.643	3142.69
956.948	3094.78
957.252	3082.12
957.556	3078.28
957.86	3095.23
958.163	3072.18
958.467	3049.81
958.771	3043.93
959.075	3066.98
959.378	2980.2
959.682	3002.58
959.985	2985.4
960.289	2956.25
960.592	2985.4
960.896	2917.38
961.199	2932.97
961.502	2884.84
961.805	2908.12
962.108	2878.96
962.411	2885.29
962.714	2866.53
963.017	2876.03
963.32	2877.16
963.623	2884.84
963.926	2840.77
964.228	2833.77
964.531	2793.32
964.833	2797.38
965.136	2747.67
965.438	2772.75
965.741	2739.76
966.043	2763.03
966.345	2750.15
966.648	2700.44
966.95	2715.13
967.252	2688.46
967.554	2706.76
967.856	2715.35
968.158	2652.98
968.46	2663.83
968.761	2676.48
969.063	2626.09
969.365	2620.21
969.666	2600.1
969.968	2585.86
970.269	2587.45
970.571	2564.62
970.872	2569.14
971.174	2548.58
971.475	2541.12
971.776	2514.23
972.077	2558.52
972.378	2511.06
972.679	2511.29
972.98	2522.14
973.281	2503.61
973.582	2505.87
973.883	2494.34
974.183	2462.03
974.484	2443.72
974.785	2442.37
975.085	2448.01
975.386	2452.08
975.686	2413.44
975.986	2382.71
976.287	2405.08
976.587	2354.46
976.887	2378.64
977.187	2364.18
977.487	2326.44
977.787	2333.67
978.087	2313.78
978.387	2344.29
978.687	2350.84
978.987	2315.81
979.286	2297.74
979.586	2269.26
979.885	2256.16
980.185	2253.67
980.484	2253.44
980.784	2241.01
981.083	2214.12
981.382	2200.34
981.682	2191.75
981.981	2237.62
982.28	2220.22
982.579	2181.58
982.878	2189.49
983.177	2150.4
983.475	2174.12
983.774	2124.63
984.073	2151.07
984.372	2128.25
984.67	2130.96
984.969	2148.59
985.267	2105.42
985.566	2092.09
985.864	2139.77
986.162	2082.6
986.461	2086.44
986.759	2064.07
987.057	2053.9
987.355	2076.27
987.653	2031.53
987.951	2018.42
988.249	2020.91
988.547	1998.31
988.844	2007.8
989.142	2022.49
989.44	1973.22
989.737	1967.35
990.035	1973.68
990.332	1990.4
990.63	1945.2
990.927	1936.16
991.224	1922.83
991.521	1956.05
991.819	1926.67
992.116	1895.26
992.413	1910.85
992.71	1885.09
993.006	1898.65
993.303	1868.37
993.6	1857.52
993.897	1836.73
994.193	1878.54
994.49	1818.2
994.787	1815.94
995.083	1809.16
995.379	1813.23
995.676	1818.65
995.972	1799.22
996.268	1810.52
996.565	1751.54
996.861	1790.86
997.157	1749.73
997.453	1757.41
997.749	1745.43
998.044	1746.11
998.34	1722.16
998.636	1719.45
998.932	1721.71
999.227	1734.36
999.523	1693.46
999.818	1686
1000.114	1693.23
1000.409	1686.45
1000.704	1667.7
1001	1668.37
1001.295	1644.42
1001.59	1656.4
1001.885	1651.2
1002.18	1604.2
1002.475	1618.21
1002.77	1615.04
1003.065	1585.44
1003.359	1613.01
1003.654	1590.86
1003.949	1594.7
1004.243	1554.25
1004.538	1565.78
1004.832	1549.51
1005.127	1561.48
1005.421	1569.39
1005.715	1547.7
1006.009	1515.84
1006.304	1530.07
1006.598	1509.28
1006.892	1503.18
1007.186	1475.16
1007.48	1474.03
1007.773	1503.41
1008.067	1464.54
1008.361	1445.56
1008.655	1449.62
1008.948	1420.02
1009.242	1420.25
1009.535	1456.18
1009.829	1438.55
1010.122	1410.53
1010.415	1391.55
1010.708	1398.1
1011.001	1401.49
1011.295	1428.38
1011.588	1371.43
1011.881	1365.11
1012.173	1347.03
1012.466	1375.05
1012.759	1345.22
1013.052	1359.68
1013.344	1331.21
1013.637	1318.78
1013.93	1333.47
1014.222	1307.48
1014.514	1302.06
1014.807	1289.63
1015.099	1281.94
1015.391	1285.33
1015.683	1281.04
1015.976	1290.76
1016.268	1273.36
1016.56	1250.08
1016.851	1250.76
1017.143	1219.8
1017.435	1222.74
1017.727	1221.61
1018.018	1239.46
1018.31	1193.13
1018.602	1184.32
1018.893	1186.13
1019.185	1177.54
1019.476	1192.91
1019.767	1176.18
1020.058	1179.57
1020.35	1156.3
1020.641	1146.58
1020.932	1139.57
1021.223	1135.05
1021.514	1142.51
1021.804	1121.95
1022.095	1104.32
1022.386	1108.61
1022.677	1111.33
1022.967	1107.71
1023.258	1090.99
1023.548	1095.06
1023.839	1080.14
1024.129	1070.2
1024.419	1048.05
1024.709	1055.73
1025	1054.38
1025.29	1029.75
1025.58	1033.59
1025.87	1052.8
1026.16	1025.23
1026.449	1027.26
1026.739	1022.06
1027.029	1010.54
1027.319	994.27
1027.608	1014.83
1027.898	990.43
1028.187	978.22
1028.477	989.52
1028.766	988.17
1029.055	982.52
1029.344	984.32
1029.634	951.1
1029.923	949.3
1030.212	942.07
1030.501	943.42
1030.79	915.85
1031.078	946.13
1031.367	955.17
1031.656	936.87
1031.945	930.31
1032.233	924.66
1032.522	868.4
1032.81	921.73
1033.099	880.6
1033.387	892.58
1033.675	869.3
1033.963	891.9
1034.251	877.66
1034.54	876.3
1034.828	876.08
1035.116	848.96
1035.403	857.32
1035.691	853.71
1035.979	857.1
1036.267	831.11
1036.554	837.89
1036.842	835.4
1037.129	823.65
1037.417	823.2
1037.704	817.78
1037.992	794.5
1038.279	810.54
1038.566	814.39
1038.853	814.39
1039.14	814.39
