Data from blue_surface_keyboard_FLMS001491_095.txt Node
Date: Tue Feb 07 11:13:55 GMT 2017
User: dcchb
Spectrometer: FLMS00149
Trigger mode: 0
Integration Time (sec): 2.000000E-2
Scans to average: 10
Electric dark correction enabled: true
Nonlinearity correction enabled: false
Boxcar width: 0
XAxis mode: Wavelengths
Number of Pixels in Spectrum: 2048
>>>>>Begin Spectral Data<<<<<
341.393	-17.03
341.776	-17.03
342.16	-17.03
342.543	-53.42
342.927	-81.21
343.31	-68.11
343.693	-76.47
344.077	-55.68
344.46	-53.19
344.843	-62.46
345.226	-59.74
345.61	-24.94
345.993	-18.16
346.376	-0.99
346.759	25.68
347.142	21.61
347.525	47.82
347.908	55.73
348.291	79.24
348.674	82.85
349.057	106.81
349.44	105.22
349.823	138.67
350.206	167.82
350.588	180.25
350.971	174.83
351.354	197.2
351.737	227.93
352.119	237.42
352.502	255.73
352.884	262.28
353.267	259.12
353.65	272.22
354.032	267.03
354.414	273.13
354.797	303.41
355.179	294.37
355.562	298.44
355.944	307.03
356.326	310.87
356.709	314.03
357.091	312.22
357.473	312
357.855	314.48
358.238	302.28
358.62	312
359.002	319.68
359.384	308.83
359.766	337.76
360.148	333.47
360.53	328.49
360.912	308.16
361.294	298.44
361.676	311.55
362.057	301.83
362.439	314.48
362.821	319.23
363.203	305.22
363.584	309.96
363.966	324.65
364.348	305.22
364.729	294.14
365.111	305.9
365.493	293.24
365.874	283.75
366.256	286.24
366.637	294.82
367.019	292.56
367.4	300.02
367.781	292.79
368.163	285.33
368.544	284.65
368.925	285.11
369.306	284.2
369.688	277.87
370.069	307.25
370.45	312.9
370.831	276.52
371.212	280.81
371.593	268.38
371.974	279
372.355	269.96
372.736	281.26
373.117	275.84
373.498	288.27
373.879	299.57
374.26	287.59
374.641	283.3
375.021	287.37
375.402	297.31
375.783	299.57
376.163	291.88
376.544	284.88
376.925	305.67
377.305	295.27
377.686	310.42
378.066	285.33
378.447	317.87
378.827	295.5
379.208	317.87
379.588	298.66
379.968	293.69
380.349	303.18
380.729	295.73
381.109	307.7
381.489	296.18
381.87	309.51
382.25	314.03
382.63	301.6
383.01	307.93
383.39	300.25
383.77	297.76
384.15	293.01
384.53	308.38
384.91	317.2
385.29	314.94
385.67	329.85
386.049	306.8
386.429	313.81
386.809	310.64
387.189	303.86
387.568	322.84
387.948	317.65
388.328	316.97
388.707	312.22
389.087	305.9
389.466	297.53
389.846	314.03
390.225	324.88
390.605	328.72
390.984	312
391.363	316.29
391.743	316.74
392.122	328.49
392.501	321.04
392.881	324.65
393.26	339.12
393.639	307.7
394.018	332.56
394.397	313.81
394.776	321.26
395.155	331.21
395.534	310.42
395.913	331.88
396.292	343.41
396.671	329.62
397.05	333.01
397.429	322.39
397.808	311.55
398.186	330.98
398.565	331.43
398.944	348.61
399.323	330.3
399.701	330.08
400.08	351.09
400.458	346.12
400.837	353.35
401.215	342.05
401.594	340.7
401.972	325.33
402.351	350.19
402.729	349.96
403.107	368.04
403.486	349.96
403.864	349.28
404.242	352.9
404.62	342.28
404.999	355.16
405.377	363.75
405.755	369.17
406.133	340.02
406.511	345.67
406.889	344.09
407.267	358.55
407.645	332.56
408.023	361.71
408.401	353.35
408.779	359
409.156	348.38
409.534	368.95
409.912	355.84
410.29	358.55
410.667	385.67
411.045	358.32
411.422	368.72
411.8	369.62
412.178	367.82
412.555	389.06
412.933	383.86
413.31	371.66
413.687	377.53
414.065	366.91
414.442	377.76
414.819	368.49
415.197	368.27
415.574	376.18
415.951	383.41
416.328	406.46
416.705	368.72
417.082	386.35
417.46	394.93
417.837	403.52
418.214	387.93
418.591	386.35
418.967	394.26
419.344	398.1
419.721	377.31
420.098	403.97
420.475	403.75
420.852	426.8
421.228	405.78
421.605	427.93
421.982	412.56
422.358	400.36
422.735	431.54
423.111	420.02
423.488	416.85
423.864	422.05
424.241	419.57
424.617	420.7
424.994	435.61
425.37	443.75
425.746	409.85
426.123	439
426.499	441.94
426.875	440.36
427.251	438.77
427.627	442.39
428.003	443.07
428.379	428.83
428.756	446.46
429.132	433.8
429.507	445.33
429.883	446.01
430.259	425.21
430.635	462.05
431.011	442.16
431.387	440.58
431.763	464.54
432.138	475.61
432.514	462.5
432.89	456.4
433.265	461.6
433.641	470.41
434.016	487.81
434.392	474.48
434.767	482.39
435.143	460.02
435.518	489.85
435.894	482.84
436.269	489.62
436.644	483.29
437.02	487.81
437.395	492.56
437.77	488.04
438.145	481.48
438.52	498.21
438.895	498.21
439.271	512.9
439.646	494.14
440.021	488.94
440.395	505.89
440.77	516.06
441.145	519
441.52	503.63
441.895	517.42
442.27	521.94
442.645	519.22
443.019	517.42
443.394	511.99
443.769	511.77
444.143	513.57
444.518	526.46
444.892	533.69
445.267	514.03
445.641	527.81
446.016	518.32
446.39	544.31
446.764	548.6
447.139	530.52
447.513	546.79
447.887	531.2
448.262	544.08
448.636	537.3
449.01	535.04
449.384	550.41
449.758	550.18
450.132	573.23
450.506	567.13
450.88	559
451.254	567.36
451.628	552.9
452.002	574.82
452.376	568.04
452.75	580.01
453.123	584.76
453.497	557.41
453.871	578.66
454.244	600.8
454.618	576.85
454.992	598.54
455.365	578.21
455.739	609.62
456.112	611.88
456.486	610.75
456.859	604.87
457.232	610.52
457.606	617.07
457.979	637.19
458.352	645.77
458.725	623.85
459.099	643.06
459.472	636.06
459.845	644.42
460.218	641.03
460.591	652.1
460.964	655.04
461.337	642.84
461.71	649.39
462.083	653.23
462.456	683.74
462.829	692.55
463.201	663.63
463.574	688.94
463.947	669.28
464.32	686.45
464.692	683.97
465.065	699.11
465.438	715.15
465.81	699.33
466.183	699.11
466.555	711.99
466.928	735.49
467.3	728.71
467.672	753.79
468.045	729.39
468.417	736.62
468.789	726.68
469.161	733.46
469.534	727.35
469.906	775.71
470.278	773
470.65	756.05
471.022	781.82
471.394	798.31
471.766	799.44
472.138	775.49
472.51	794.02
472.882	802.38
473.253	822.27
473.625	825.66
473.997	824.07
474.369	833.11
474.74	839.44
475.112	834.92
475.484	862.27
475.855	856.84
476.227	852.32
476.598	878.99
476.97	890.06
477.341	914.92
477.713	913.34
478.084	919.21
478.455	928.7
478.827	927.35
479.198	959.44
479.569	937.07
479.94	958.31
480.311	951.98
480.682	960.79
481.053	984.3
481.424	1010.51
481.795	1003.96
482.166	1012.54
482.537	987.23
482.908	1016.39
483.279	1028.36
483.65	1032.2
484.021	1070.62
484.391	1032.2
484.762	1099.77
485.133	1079.21
485.503	1076.5
485.874	1102.03
486.244	1097.29
486.615	1106.78
486.985	1104.29
487.356	1134.12
487.726	1155.59
488.097	1161.47
488.467	1152.43
488.837	1188.13
489.207	1167.79
489.578	1176.83
489.948	1175.93
490.318	1197.17
490.688	1183.16
491.058	1184.97
491.428	1203.27
491.798	1226.1
492.168	1235.36
492.538	1241.46
492.908	1226.1
493.278	1269.71
493.648	1260.67
494.017	1262.48
494.387	1269.26
494.757	1254.8
495.126	1254.35
495.496	1270.39
495.866	1269.26
496.235	1296.15
496.605	1271.29
496.974	1280.11
497.344	1311.75
497.713	1291.41
498.082	1301.8
498.452	1305.87
498.821	1321.24
499.19	1307.23
499.559	1309.26
499.928	1328.02
500.298	1338.64
500.667	1330.95
501.036	1347.9
501.405	1337.06
501.774	1326.43
502.143	1348.13
502.512	1330.73
502.88	1357.39
503.249	1334.34
503.618	1361.24
503.987	1368.24
504.356	1394.23
504.724	1379.54
505.093	1378.64
505.462	1359.88
505.83	1401.01
506.199	1379.99
506.567	1365.08
506.936	1384.06
507.304	1396.26
507.672	1416.83
508.041	1392.2
508.409	1372.53
508.777	1402.14
509.145	1412.08
509.514	1392.87
509.882	1407.56
510.25	1426.32
510.618	1415.7
510.986	1421.8
511.354	1391.52
511.722	1422.7
512.09	1422.02
512.458	1429.48
512.826	1411.4
513.193	1423.38
513.561	1436.94
513.929	1414.12
514.297	1445.98
514.664	1441.23
515.032	1479.2
515.4	1460.44
515.767	1462.93
516.135	1460.44
516.502	1436.71
516.869	1479.65
517.237	1447.79
517.604	1433.78
517.972	1460.44
518.339	1467.9
518.706	1452.98
519.073	1509.03
519.44	1465.87
519.808	1475.13
520.175	1496.83
520.542	1507.9
520.909	1499.31
521.276	1493.44
521.643	1493.66
522.009	1502.93
522.376	1521.91
522.743	1486.88
523.11	1507.45
523.477	1491.18
523.843	1523.27
524.21	1515.36
524.577	1528.46
524.943	1506.09
525.31	1534.56
525.676	1539.31
526.043	1524.85
526.409	1570.04
526.776	1561
527.142	1565.52
527.508	1537.95
527.874	1559.87
528.241	1591.96
528.607	1570.27
528.973	1570.04
529.339	1570.95
529.705	1574.11
530.071	1563.49
530.437	1574.79
530.803	1586.99
531.169	1576.6
531.535	1549.93
531.901	1590.83
532.267	1590.83
532.632	1600.33
532.998	1599.65
533.364	1592.64
533.73	1606.43
534.095	1613.43
534.461	1586.77
534.826	1606.43
535.192	1633.09
535.557	1618.63
535.923	1594.9
536.288	1615.69
536.653	1636.03
537.019	1596.71
537.384	1601.23
537.749	1618.4
538.114	1598.07
538.479	1606.2
538.845	1618.86
539.21	1619.99
539.575	1593.77
539.94	1604.84
540.305	1620.21
540.67	1601.68
541.034	1647.78
541.399	1626.77
541.764	1631.06
542.129	1625.18
542.494	1621.79
542.858	1647.1
543.223	1621.57
543.587	1613.43
543.952	1630.61
544.316	1646.88
544.681	1632.41
545.045	1627.67
545.41	1608.23
545.774	1620.44
546.138	1632.64
546.503	1620.89
546.867	1610.49
547.231	1641.91
547.595	1628.35
547.959	1624.96
548.324	1633.32
548.688	1607.56
549.052	1629.48
549.416	1599.87
549.779	1614.56
550.143	1650.27
550.507	1610.04
550.871	1650.95
551.235	1623.15
551.599	1644.62
551.962	1644.62
552.326	1652.98
552.689	1643.04
553.053	1603.49
553.417	1638.74
553.78	1652.3
554.143	1611.85
554.507	1665.18
554.87	1659.76
555.234	1663.6
555.597	1648.23
555.96	1659.31
556.323	1674.67
556.686	1629.93
557.05	1668.35
557.413	1673.77
557.776	1626.09
558.139	1670.15
558.502	1654.56
558.865	1678.06
559.228	1687.33
559.59	1672.19
559.953	1643.04
560.316	1691.85
560.679	1695.69
561.041	1681
561.404	1704.28
561.767	1702.47
562.129	1673.54
562.492	1740.89
562.854	1708.8
563.217	1677.16
563.579	1677.61
563.941	1698.63
564.304	1721.45
564.666	1726.88
565.028	1737.95
565.39	1718.97
565.753	1716.03
566.115	1725.29
566.477	1716.93
566.839	1735.24
567.201	1754.67
567.563	1727.55
567.925	1736.37
568.287	1738.85
568.648	1730.27
569.01	1765.97
569.372	1748.57
569.734	1732.53
570.095	1767.55
570.457	1768.68
570.819	1756.03
571.18	1732.53
571.542	1754.67
571.903	1763.48
572.265	1764.16
572.626	1762.35
572.987	1763.71
573.349	1775.69
573.71	1791.28
574.071	1759.64
574.432	1777.5
574.794	1829.47
575.155	1789.92
575.516	1775.69
575.877	1779.3
576.238	1777.27
576.599	1779.53
576.96	1801.9
577.32	1796.03
577.681	1784.5
578.042	1801.9
578.403	1799.19
578.763	1781.34
579.124	1796.03
579.485	1821.56
579.845	1821.79
580.206	1808
580.566	1812.97
580.927	1787.44
581.287	1780.66
581.648	1808.46
582.008	1818.85
582.368	1828.79
582.728	1829.92
583.089	1826.53
583.449	1839.19
583.809	1837.38
584.169	1837.83
584.529	1814.1
584.889	1821.11
585.249	1848.45
585.609	1820.21
585.969	1824.73
586.329	1846.42
586.688	1855.91
587.048	1840.54
587.408	1834.44
587.768	1840.32
588.127	1829.02
588.487	1830.6
588.846	1847.78
589.206	1825.86
589.565	1811.62
589.925	1853.43
590.284	1798.74
590.643	1831.73
591.003	1831.96
591.362	1832.86
591.721	1849.81
592.08	1815.23
592.44	1851.62
592.799	1880.32
593.158	1865.18
593.517	1826.76
593.876	1843.26
594.235	1861.56
594.593	1848.23
594.952	1863.14
595.311	1865.63
595.67	1861.56
596.029	1869.24
596.387	1862.01
596.746	1879.19
597.104	1845.52
597.463	1847.32
597.822	1887.78
598.18	1850.04
598.538	1850.71
598.897	1876.93
599.255	1865.63
599.613	1873.09
599.972	1907.44
600.33	1870.15
600.688	1884.61
601.046	1884.16
601.404	1875.35
601.762	1892.07
602.12	1904.72
602.478	1897.27
602.836	1914.22
603.194	1879.87
603.552	1891.39
603.91	1895.46
604.268	1861.79
604.625	1872.18
604.983	1892.29
605.341	1889.13
605.698	1916.48
606.056	1893.88
606.413	1890.04
606.771	1912.86
607.128	1927.1
607.485	1917.15
607.843	1916.7
608.2	1926.42
608.557	1904.05
608.914	1928.9
609.272	1898.17
609.629	1937.04
609.986	1948.79
610.343	1938.85
610.7	1938.17
611.057	1966.19
611.414	1964.38
611.771	1935.23
612.127	1959.41
612.484	1941.11
612.841	1968.9
613.198	1973.2
613.554	1946.3
613.911	1955.12
614.267	1989.69
614.624	1992.86
614.98	1943.37
615.337	2002.35
615.693	1999.86
616.05	1937.94
616.406	2008.68
616.762	1970.26
617.118	2006.19
617.475	1999.64
617.831	2005.06
618.187	1997.38
618.543	1993.54
618.899	2017.04
619.255	1990.37
619.611	1999.86
619.967	2001.44
620.323	2010.26
620.678	2016.13
621.034	1997.6
621.39	2020.2
621.746	2033.76
622.101	2027.88
622.457	2005.96
622.812	2004.16
623.168	2038.96
623.523	2024.72
623.879	2054.32
624.234	2027.21
624.589	2081.22
624.945	2047.09
625.3	2038.05
625.655	2038.05
626.01	2047.32
626.365	2056.36
626.72	2066.3
627.075	2027.88
627.43	2083.25
627.785	2106.07
628.14	2066.98
628.495	2075.11
628.85	2092.06
629.205	2068.34
629.559	2081.44
629.914	2085.96
630.269	2092.06
630.623	2111.95
630.978	2103.36
631.332	2122.35
631.687	2106.3
632.041	2091.39
632.396	2137.49
632.75	2118.05
633.104	2109.46
633.459	2069.01
633.813	2148.11
634.167	2122.8
634.521	2120.54
634.875	2126.64
635.229	2135.9
635.583	2130.25
635.937	2167.54
636.291	2106.3
636.645	2150.14
636.999	2156.47
637.352	2150.14
637.706	2195.11
638.06	2163.02
638.413	2170.25
638.767	2198.73
639.121	2159.63
639.474	2173.87
639.828	2163.02
640.181	2186.07
640.534	2202.57
640.888	2158.73
641.241	2197.37
641.594	2227.2
641.947	2197.82
642.301	2209.8
642.654	2226.75
643.007	2227.43
643.36	2237.6
643.713	2247.99
644.066	2278.27
644.419	2280.31
644.771	2252.51
645.124	2242.34
645.477	2236.69
645.83	2221.33
646.182	2192.4
646.535	2250.03
646.888	2253.42
647.24	2270.82
647.593	2283.02
647.945	2243.92
648.298	2266.52
648.65	2252.96
649.002	2283.02
649.355	2300.42
649.707	2282.79
650.059	2315.33
650.411	2319.63
650.763	2351.49
651.115	2392.62
651.467	2395.11
651.819	2393.98
652.171	2421.09
652.523	2425.39
652.875	2407.99
653.227	2402.11
653.578	2439.85
653.93	2463.13
654.282	2462.22
654.633	2472.84
654.985	2468.1
655.337	2460.64
655.688	2485.95
656.039	2492.51
656.391	2511.94
656.742	2564.82
657.094	2547.87
657.445	2522.56
657.796	2588.77
658.147	2545.84
658.498	2593.52
658.849	2582.67
659.2	2574.99
659.551	2598.94
659.902	2626.51
660.253	2633.74
660.604	2660.86
660.955	2667.64
661.306	2626.51
661.656	2669.45
662.007	2712.84
662.358	2725.49
662.708	2687.53
663.059	2737.92
663.409	2741.31
663.76	2719.62
664.11	2754.19
664.461	2787.64
664.811	2805.72
665.161	2785.83
665.511	2824.47
665.862	2859.05
666.212	2837.58
666.562	2844.13
666.912	2900.63
667.262	2874.19
667.612	2890.91
667.962	2911.7
668.312	2933.85
668.662	2959.61
669.011	2944.24
669.361	2977.69
669.711	2943.79
670.06	2987.63
670.41	3016.11
670.76	3005.03
671.109	3035.54
671.459	3046.39
671.808	3074.41
672.157	3076.9
672.507	3049.78
672.856	3068.54
673.205	3090.91
673.554	3090.68
673.904	3100.4
674.253	3139.27
674.602	3126.39
674.951	3077.57
675.3	3108.99
675.649	3166.84
675.998	3161.64
676.346	3156.67
676.695	3228.53
677.044	3228.53
677.393	3215.42
677.741	3266.95
678.09	3252.03
678.438	3279.38
678.787	3280.96
679.135	3279.15
679.484	3276.21
679.832	3286.61
680.181	3342.65
680.529	3297.68
680.877	3288.19
681.225	3357.57
681.573	3347.17
681.922	3361.41
682.27	3344.69
682.618	3372.93
682.966	3358.7
683.314	3421.75
683.661	3393.05
684.009	3379.71
684.357	3403.67
684.705	3415.64
685.053	3434.63
685.4	3403.44
685.748	3463.55
686.095	3434.85
686.443	3476.66
686.79	3422.88
687.138	3457.68
687.485	3440.28
687.832	3424.91
688.18	3526.6
688.527	3498.13
688.874	3478.02
689.221	3497.68
689.568	3481.18
689.915	3515.3
690.262	3522.76
690.609	3509.2
690.956	3513.5
691.303	3520.27
691.65	3484.57
691.997	3540.39
692.344	3540.39
692.69	3495.87
693.037	3560.5
693.383	3481.18
693.73	3492.7
694.077	3515.08
694.423	3534.96
694.769	3493.16
695.116	3527.96
695.462	3532.93
695.808	3548.3
696.155	3521.86
696.501	3511.69
696.847	3496.09
697.193	3498.58
697.539	3553.27
697.885	3512.14
698.231	3545.36
698.577	3514.63
698.923	3522.99
699.269	3485.47
699.614	3507.62
699.96	3488.19
700.306	3551.23
700.651	3484.57
700.997	3520.95
701.342	3520.5
701.688	3482.31
702.033	3483.44
702.379	3509.2
702.724	3500.39
703.069	3508.52
703.415	3456.32
703.76	3465.13
704.105	3490.22
704.45	3512.14
704.795	3461.97
705.14	3423.78
705.485	3485.02
705.83	3442.54
706.175	3435.76
706.52	3439.6
706.865	3422.65
707.209	3447.96
707.554	3433.27
707.899	3480.95
708.243	3420.16
708.588	3414.06
708.932	3438.24
709.277	3425.14
709.621	3453.16
709.966	3398.47
710.31	3421.07
710.654	3386.49
710.998	3443.21
711.342	3420.16
711.687	3390.56
712.031	3381.52
712.375	3379.04
712.719	3400.73
713.063	3401.63
713.407	3448.19
713.75	3411.35
714.094	3408.64
714.438	3379.49
714.782	3365.93
715.125	3421.07
715.469	3397.57
715.812	3377
716.156	3419.03
716.499	3392.37
716.843	3396.21
717.186	3367.96
717.53	3384.01
717.873	3416.55
718.216	3378.81
718.559	3426.04
718.902	3397.11
719.246	3401.63
719.589	3388.75
719.932	3402.99
720.275	3394.18
720.617	3411.8
720.96	3388.53
721.303	3398.24
721.646	3398.24
721.989	3381.75
722.331	3406.83
722.674	3370.67
723.016	3381.3
723.359	3397.34
723.701	3388.3
724.044	3383.78
724.386	3364.35
724.729	3332.48
725.071	3390.11
725.413	3398.02
725.755	3407.51
726.097	3388.98
726.439	3384.91
726.782	3344.46
727.124	3437.56
727.465	3354.63
727.807	3446.6
728.149	3402.54
728.491	3379.94
728.833	3412.93
729.175	3346.49
729.516	3370
729.858	3432.37
730.199	3412.48
730.541	3427.85
730.882	3385.36
731.224	3410.22
731.565	3444.34
731.906	3414.74
732.248	3436.66
732.589	3420.16
732.93	3441.18
733.271	3416.55
733.612	3419.94
733.953	3449.54
734.294	3424.01
734.635	3443.89
734.976	3431.92
735.317	3420.16
735.658	3420.39
735.999	3468.98
736.339	3440.73
736.68	3454.51
737.021	3465.81
737.361	3468.52
737.702	3484.8
738.042	3455.42
738.383	3471.24
738.723	3502.87
739.063	3469.2
739.404	3471.69
739.744	3498.58
740.084	3501.74
740.424	3512.59
740.764	3520.27
741.104	3575.41
741.444	3502.65
741.784	3527.96
742.124	3565.7
742.464	3597.33
742.804	3596.66
743.143	3567.51
743.483	3583.32
743.823	3602.08
744.162	3554.17
744.502	3621.74
744.841	3562.76
745.181	3653.38
745.52	3605.47
745.86	3672.81
746.199	3718.01
746.538	3711.91
746.877	3689.54
747.216	3681.63
747.556	3712.59
747.895	3739.48
748.234	3751.91
748.573	3797.1
748.911	3709.42
749.25	3813.37
749.589	3813.15
749.928	3852.47
750.267	3818.35
750.605	3828.74
750.944	3848.63
751.283	3906.48
751.621	3941.51
751.96	3935.86
752.298	3980.6
752.636	3960.04
752.975	3955.74
753.313	4002.97
753.651	4033.93
753.989	4028.28
754.327	4021.73
754.666	4045.91
755.004	4045.46
755.342	4164.33
755.679	4122.29
756.017	4149.64
756.355	4125.91
756.693	4151.9
757.031	4240.71
757.368	4185.12
757.706	4268.5
758.044	4245.23
758.381	4275.96
758.719	4301.5
759.056	4287.26
759.394	4305.11
759.731	4268.5
760.068	4334.94
760.405	4334.04
760.743	4353.7
761.08	4425.11
761.417	4393.92
761.754	4383.98
762.091	4416.97
762.428	4388.73
762.765	4450.87
763.102	4433.92
763.438	4452.68
763.775	4418.56
764.112	4446.8
764.449	4407.48
764.785	4424.43
765.122	4460.14
765.458	4495.39
765.795	4455.62
766.131	4457.88
766.467	4478.67
766.804	4507.37
767.14	4448.84
767.476	4477.09
767.812	4480.93
768.148	4510.53
768.485	4480.7
768.821	4480.7
769.157	4458.78
769.492	4462.4
769.828	4485.22
770.164	4471.44
770.5	4512.34
770.836	4516.41
771.171	4494.26
771.507	4440.93
771.842	4416.75
772.178	4506.24
772.513	4476.18
772.849	4445.45
773.184	4448.84
773.519	4426.24
773.855	4425.34
774.19	4425.56
774.525	4413.58
774.86	4403.87
775.195	4398.9
775.53	4395.73
775.865	4402.29
776.2	4328.39
776.535	4323.87
776.87	4332.46
777.205	4347.15
777.539	4306.92
777.874	4302.63
778.209	4306.47
778.543	4268.73
778.878	4275.28
779.212	4301.27
779.547	4283.19
779.881	4227.83
780.215	4209.52
780.55	4202.52
780.884	4248.39
781.218	4201.39
781.552	4167.04
781.886	4216.08
782.22	4193.25
782.554	4161.84
782.888	4109.19
783.222	4121.84
783.556	4095.85
783.889	4186.7
784.223	4113.71
784.557	4148.51
784.89	4105.57
785.224	4086.36
785.557	4035.29
785.891	4066.25
786.224	4031.45
786.558	4048.62
786.891	4004.1
787.224	4007.72
787.557	4020.83
787.891	3985.8
788.224	3971.34
788.557	4009.08
788.89	3935.63
789.223	3915.29
789.556	3962.52
789.888	3928.4
790.221	3914.84
790.554	3906.48
790.887	3895.63
791.219	3859.7
791.552	3857.21
791.884	3876.42
792.217	3833.94
792.549	3855.63
792.882	3808.18
793.214	3828.74
793.546	3842.98
793.879	3789.65
794.211	3745.81
794.543	3819.02
794.875	3796.43
795.207	3768.86
795.539	3761.62
795.871	3754.17
796.203	3738.8
796.535	3718.46
796.867	3707.16
797.198	3704.45
797.53	3666.94
797.862	3674.62
798.193	3707.39
798.525	3662.87
798.856	3689.08
799.188	3607.96
799.519	3602.31
799.85	3608.86
800.182	3641.18
800.513	3578.13
800.844	3577.45
801.175	3573.38
801.506	3598.01
801.837	3551.69
802.168	3533.61
802.499	3523.21
802.83	3547.17
803.161	3579.48
803.491	3513.5
803.822	3540.61
804.153	3501.07
804.483	3468.52
804.814	3468.07
805.145	3469.43
805.475	3469.65
805.805	3443.21
806.136	3468.98
806.466	3449.54
806.796	3471.69
807.126	3433.95
807.457	3373.84
807.787	3420.39
808.117	3419.03
808.447	3390.79
808.777	3414.74
809.107	3373.16
809.436	3365.48
809.766	3349.88
810.096	3386.27
810.426	3331.35
810.755	3317.34
811.085	3359.37
811.414	3342.65
811.744	3311.01
812.073	3307.85
812.403	3248.87
812.732	3272.6
813.061	3271.92
813.39	3264.69
813.719	3262.65
814.049	3257.91
814.378	3287.06
814.707	3275.76
815.036	3242.77
815.365	3237.12
815.693	3229.66
816.022	3232.37
816.351	3209.77
816.68	3221.75
817.008	3196.67
817.337	3233.05
817.665	3181.75
817.994	3218.59
818.322	3189.89
818.651	3145.82
818.979	3172.94
819.307	3158.02
819.636	3139.72
819.964	3124.13
820.292	3142.43
820.62	3143.11
820.948	3128.19
821.276	3154.41
821.604	3142.88
821.932	3116.44
822.259	3116.67
822.587	3139.72
822.915	3123.67
823.243	3158.93
823.57	3103.56
823.898	3133.39
824.225	3180.17
824.553	3173.17
824.88	3104.01
825.207	3147.4
825.535	3109.89
825.862	3146.95
826.189	3139.04
826.516	3165.03
826.843	3147.86
827.17	3111.92
827.497	3095.43
827.824	3098.14
828.151	3148.98
828.478	3108.53
828.805	3125.26
829.131	3133.62
829.458	3128.87
829.785	3087.52
830.111	3170.68
830.438	3130.23
830.764	3122.77
831.09	3107.18
831.417	3125.48
831.743	3128.19
832.069	3096.56
832.395	3132.49
832.722	3152.6
833.048	3117.8
833.374	3115.77
833.7	3098.82
834.026	3096.11
834.351	3076.67
834.677	3133.17
835.003	3120.51
835.329	3107.4
835.654	3087.52
835.98	3094.3
836.306	3066.73
836.631	3051.81
836.956	3097.23
837.282	3120.06
837.607	3075.31
837.932	3041.42
838.258	3086.84
838.583	3063.34
838.908	3016.11
839.233	3077.8
839.558	3060.17
839.883	3044.13
840.208	3026.5
840.533	3056.33
840.858	3045.94
841.182	3049.55
841.507	3010.01
841.832	3014.75
842.156	3012.94
842.481	2971.81
842.805	2989.44
843.13	3005.71
843.454	2956.45
843.778	2929.33
844.103	2981.98
844.427	2936.56
844.751	2970.46
845.075	2966.62
845.399	2884.36
845.723	2909.22
846.047	2917.58
846.371	2899.05
846.695	2906.73
847.019	2889.56
847.343	2875.32
847.666	2854.08
847.99	2843
848.313	2870.57
848.637	2832.84
848.96	2827.64
849.284	2815.43
849.607	2809.78
849.931	2806.85
850.254	2777.92
850.577	2780.63
850.9	2768.43
851.223	2752.39
851.546	2719.62
851.869	2772.05
852.192	2747.19
852.515	2767.3
852.838	2719.84
853.161	2707.64
853.483	2699.05
853.806	2706.74
854.129	2661.77
854.451	2648.43
854.774	2664.7
855.096	2634.2
855.419	2668.77
855.741	2640.98
856.063	2649.11
856.385	2644.59
856.708	2641.88
857.03	2603.01
857.352	2629.22
857.674	2619.96
857.996	2611.15
858.318	2602.78
858.64	2584.48
858.961	2600.3
859.283	2584.25
859.605	2591.49
859.926	2549.9
860.248	2572.95
860.57	2539.74
860.891	2562.33
861.212	2530.47
861.534	2539.74
861.855	2544.26
862.176	2549.68
862.498	2534.76
862.819	2533.18
863.14	2543.8
863.461	2526.85
863.782	2505.39
864.103	2480.98
864.424	2481.88
864.745	2478.49
865.065	2487.76
865.386	2488.89
865.707	2460.87
866.027	2476.01
866.348	2499.06
866.668	2464.03
866.989	2519.17
867.309	2452.05
867.63	2464.48
867.95	2442.34
868.27	2440.3
868.59	2443.92
868.91	2431.26
869.23	2469
869.55	2413.19
869.87	2440.08
870.19	2443.47
870.51	2420.19
870.83	2438.27
871.15	2433.52
871.469	2435.11
871.789	2416.12
872.109	2404.15
872.428	2447.31
872.748	2400.08
873.067	2429.91
873.386	2427.42
873.706	2402.79
874.025	2375.9
874.344	2377.93
874.663	2375.22
874.982	2363.92
875.301	2391.49
875.62	2373.64
875.939	2370.02
876.258	2339.74
876.577	2379.29
876.896	2382.68
877.214	2349.23
877.533	2341.1
877.852	2362.56
878.17	2370.25
878.489	2371.6
878.807	2374.77
879.125	2360.31
879.444	2341.32
879.762	2319.85
880.08	2319.18
880.398	2342.68
880.716	2321.44
881.034	2332.96
881.352	2323.47
881.67	2334.54
881.988	2315.33
882.306	2333.19
882.624	2322.57
882.941	2301.78
883.259	2288.22
883.577	2269.69
883.894	2295.22
884.212	2255
884.529	2266.07
884.846	2255.68
885.164	2272.85
885.481	2255.68
885.798	2283.92
886.115	2275.79
886.432	2271.72
886.75	2224.04
887.067	2234.21
887.383	2212.51
887.7	2233.08
888.017	2206.86
888.334	2226.75
888.651	2225.62
888.967	2209.8
889.284	2200.99
889.6	2212.74
889.917	2189.01
890.233	2213.19
890.55	2193.98
890.866	2184.26
891.182	2162.57
891.498	2190.37
891.815	2151.72
892.131	2121.89
892.447	2148.79
892.763	2131.84
893.079	2132.74
893.395	2130.03
893.71	2157.6
894.026	2157.37
894.342	2144.27
894.657	2099.52
894.973	2100.2
895.289	2148.56
895.604	2116.92
895.92	2079.41
896.235	2060.2
896.55	2077.15
896.865	2089.58
897.181	2085.06
897.496	2077.15
897.811	2062.69
898.126	2054.78
898.441	2040.77
898.756	2044.38
899.071	2068.79
899.386	2052.97
899.7	1996.02
900.015	2032.18
900.33	2000.31
900.644	2040.31
900.959	2031.5
901.273	1993.99
901.588	1972.29
901.902	1994.44
902.216	1963.25
902.531	2000.77
902.845	1976.13
903.159	1957.83
903.473	1936.36
903.787	1935.68
904.101	1933.2
904.415	1941.33
904.729	1916.25
905.042	1923.25
905.356	1921.67
905.67	1906.76
905.984	1928.23
906.297	1896.59
906.611	1891.62
906.924	1901.11
907.237	1899.98
907.551	1893.88
907.864	1871.05
908.177	1888
908.491	1908.11
908.804	1822.92
909.117	1845.97
909.43	1814.33
909.743	1804.16
910.056	1817.95
910.368	1837.61
910.681	1829.47
910.994	1819.53
911.307	1828.79
911.619	1765.52
911.932	1799.87
912.244	1764.84
912.557	1799.42
912.869	1778.63
913.181	1775.24
913.494	1777.04
913.806	1768.68
914.118	1774.78
914.43	1746.08
914.742	1727.78
915.054	1747.67
915.366	1729.14
915.678	1740.89
915.99	1736.14
916.302	1691.17
916.613	1679.87
916.925	1716.25
917.236	1706.09
917.548	1657.5
917.859	1708.34
918.171	1748.57
918.482	1686.65
918.794	1670.83
919.105	1664.5
919.416	1680.55
919.727	1686.42
920.038	1649.82
920.349	1651.4
920.66	1626.77
920.971	1621.79
921.282	1612.98
921.593	1625.64
921.903	1608.69
922.214	1610.27
922.525	1590.61
922.835	1593.09
923.146	1591.06
923.456	1543.6
923.767	1555.35
924.077	1583.38
924.387	1564.62
924.697	1572.3
925.008	1569.37
925.318	1551.96
925.628	1572.08
925.938	1559.42
926.248	1531.17
926.558	1503.6
926.867	1533.89
927.177	1522.14
927.487	1519.2
927.796	1514.68
928.106	1513.32
928.416	1497.73
928.725	1507.45
929.034	1494.79
929.344	1506.32
929.653	1474.23
929.962	1466.09
930.271	1476.71
930.581	1464.28
930.89	1454.11
931.199	1495.92
931.508	1452.98
931.817	1448.69
932.125	1458.63
932.434	1426.77
932.743	1440.56
933.051	1418.41
933.36	1427.22
933.669	1428.13
933.977	1424.74
934.286	1412.31
934.594	1384.29
934.902	1405.53
935.21	1389.26
935.519	1413.44
935.827	1387.22
936.135	1381.35
936.443	1369.82
936.751	1398.75
937.059	1365.3
937.367	1377.28
937.674	1351.29
937.982	1359.88
938.29	1356.94
938.597	1335.25
938.905	1355.36
939.213	1348.35
939.52	1304.06
939.827	1306.32
940.135	1331.63
940.442	1329.6
940.749	1317.62
941.056	1327.56
941.363	1322.59
941.67	1301.58
941.977	1289.15
942.284	1280.33
942.591	1287.11
942.898	1250.5
943.205	1279.43
943.511	1294.34
943.818	1267.23
944.125	1273.1
944.431	1276.04
944.738	1273.33
945.044	1256.15
945.35	1254.12
945.657	1232.65
945.963	1213.67
946.269	1232.65
946.575	1237.4
946.881	1208.25
947.187	1219.32
947.493	1211.41
947.799	1241.69
948.105	1183.61
948.41	1194.46
948.716	1200.11
949.022	1194.91
949.327	1219.54
949.633	1188.13
949.938	1194.23
950.244	1168.92
950.549	1188.36
950.854	1180.22
951.16	1175.03
951.465	1176.83
951.77	1150.17
952.075	1143.84
952.38	1148.13
952.685	1152.65
952.99	1127.12
953.294	1163.27
953.599	1156.27
953.904	1155.59
954.209	1133.9
954.513	1107
954.818	1130.96
955.122	1131.18
955.426	1126.44
955.731	1135.03
956.035	1123.95
956.339	1148.81
956.643	1090.06
956.948	1089.38
957.252	1096.84
957.556	1119.66
957.86	1109.94
958.163	1107.68
958.467	1122.15
958.771	1078.53
959.075	1079.21
959.378	1086.44
959.682	1058.19
959.985	1070.62
960.289	1043.73
960.592	1051.86
960.896	1074.01
961.199	1069.04
961.502	1063.39
961.805	1029.72
962.108	1027.91
962.411	1031.07
962.714	1030.62
963.017	1050.28
963.32	1014.58
963.623	1024.07
963.926	1026.1
964.228	1051.19
964.531	1013.22
964.833	1033.33
965.136	977.52
965.438	991.98
965.741	1005.76
966.043	1007.57
966.345	1019.78
966.648	1028.36
966.95	1007.8
967.252	1001.24
967.554	996.5
967.856	989.04
968.158	976.61
968.46	970.06
968.761	991.75
969.063	980.23
969.365	952.88
969.666	957.18
969.968	986.56
970.269	928.25
970.571	957.18
970.872	946.11
971.174	981.36
971.475	935.26
971.776	936.61
972.077	936.16
972.378	972.32
972.679	954.01
972.98	926.44
973.281	942.04
973.582	910.17
973.883	937.52
974.183	942.26
974.484	897.52
974.785	911.98
975.085	905.2
975.386	923.96
975.686	906.78
975.986	900.91
976.287	919.67
976.587	890.06
976.887	886.22
977.187	891.87
977.487	908.82
977.787	873.11
978.087	881.7
978.387	895.48
978.687	870.63
978.987	873.34
979.286	889.84
979.586	882.6
979.885	842.15
980.185	881.47
980.484	859.1
980.784	885.32
981.083	895.48
981.382	856.84
981.682	843.06
981.981	889.84
982.28	865.43
982.579	848.25
982.878	823.85
983.177	820.46
983.475	835.6
983.774	817.07
984.073	837.86
984.372	831.76
984.67	845.99
984.969	813.91
985.267	840.57
985.566	831.08
985.864	827.92
986.162	819.78
986.461	810.06
986.759	831.98
987.057	805.09
987.355	797.63
987.653	786.56
987.951	793.79
988.249	796.73
988.547	810.29
988.844	776.17
989.142	777.75
989.44	791.53
989.737	803.51
990.035	789.72
990.332	781.59
990.63	799.44
990.927	764.19
991.224	782.04
991.521	782.95
991.819	751.99
992.116	760.8
992.413	768.93
992.71	776.17
993.006	742.49
993.303	759.9
993.6	763.29
993.897	754.7
994.193	757.41
994.49	740.91
994.787	769.84
995.083	742.49
995.379	732.33
995.676	726.45
995.972	739.33
996.268	756.51
996.565	732.1
996.861	721.03
997.157	733.68
997.453	733.91
997.749	707.92
998.044	726.68
998.34	716.51
998.636	730.07
998.932	709.73
999.227	705.43
999.523	728.94
999.818	697.07
1000.114	697.3
1000.409	710.63
1000.704	704.53
1001	699.11
1001.295	689.16
1001.59	688.48
1001.885	695.72
1002.18	684.42
1002.475	704.3
1002.77	678.77
1003.065	679.67
1003.359	704.08
1003.654	685.09
1003.949	684.87
1004.243	677.19
1004.538	689.61
1004.832	675.15
1005.127	671.76
1005.421	655.72
1005.715	664.76
1006.009	679.22
1006.304	627.02
1006.598	669.5
1006.892	664.76
1007.186	662.5
1007.48	652.33
1007.773	671.54
1008.067	665.66
1008.361	652.55
1008.655	638.09
1008.948	634.7
1009.242	622.72
1009.535	629.96
1009.829	614.14
1010.122	629.73
1010.415	624.98
1010.708	637.19
1011.001	623.4
1011.295	624.53
1011.588	634.25
1011.881	627.02
1012.173	612.55
1012.466	602.39
1012.759	608.71
1013.052	613.68
1013.344	631.09
1013.637	602.84
1013.93	590.41
1014.222	591.31
1014.514	577.3
1014.807	589.28
1015.099	588.6
1015.391	597.41
1015.683	582.27
1015.976	589.05
1016.268	614.59
1016.56	588.83
1016.851	609.84
1017.143	584.98
1017.435	595.83
1017.727	573.23
1018.018	571.65
1018.31	582.72
1018.602	573.91
1018.893	554.02
1019.185	578.43
1019.476	552.67
1019.767	563.52
1020.058	582.27
1020.35	575.72
1020.641	548.83
1020.932	574.36
1021.223	555.83
1021.514	540.24
1021.804	561.26
1022.095	536.4
1022.386	536.17
1022.677	543.4
1022.967	542.73
1023.258	543.4
1023.548	533.69
1023.839	538.66
1024.129	547.02
1024.419	516.06
1024.709	519.9
1025	540.01
1025.29	533.91
1025.58	528.26
1025.87	545.66
1026.16	503.63
1026.449	547.7
1026.739	503.18
1027.029	521.03
1027.319	527.36
1027.608	518.55
1027.898	532.56
1028.187	503.18
1028.477	496.85
1028.766	517.64
1029.055	503.86
1029.344	506.34
1029.634	480.13
1029.923	503.4
1030.212	493.24
1030.501	504.53
1030.79	480.58
1031.078	480.35
1031.367	502.95
1031.656	475.38
1031.945	491.2
1032.233	508.38
1032.522	496.85
1032.81	484.2
1033.099	467.47
1033.387	462.73
1033.675	496.85
1033.963	500.02
1034.251	480.81
1034.54	483.52
1034.828	475.61
1035.116	485.1
1035.403	460.92
1035.691	466.57
1035.979	478.77
1036.267	489.17
1036.554	446.23
1036.842	465.67
1037.129	449.62
1037.417	471.77
1037.704	486.68
1037.992	469.51
1038.279	480.13
1038.566	439
1038.853	439
1039.14	439
