Data from blue_shiny_book_FLMS001491_00023.txt Node
Date: Wed Feb 08 15:26:44 GMT 2017
User: dcchb
Spectrometer: FLMS00149
Trigger mode: 0
Integration Time (sec): 2.000000E-2
Scans to average: 10
Electric dark correction enabled: true
Nonlinearity correction enabled: false
Boxcar width: 0
XAxis mode: Wavelengths
Number of Pixels in Spectrum: 2048
>>>>>Begin Spectral Data<<<<<
341.393	-4.89
341.776	-4.89
342.16	-4.89
342.543	-61.61
342.927	-67.03
343.31	-62.51
343.693	-79.69
344.077	-71.1
344.46	-69.74
344.843	-62.74
345.226	-49.86
345.61	-32.23
345.993	-10.99
346.376	-1.27
346.759	28.11
347.142	17.26
347.525	45.51
347.908	56.35
348.291	76.24
348.674	99.97
349.057	116.69
349.44	132.96
349.823	137.26
350.206	172.74
350.588	195.56
350.971	207.76
351.354	245.28
351.737	231.72
352.119	245.5
352.502	262.22
352.884	297.93
353.267	308.55
353.65	320.53
354.032	308.33
354.414	311.71
354.797	309.46
355.179	326.63
355.562	319.85
355.944	337.03
356.326	354.65
356.709	348.78
357.091	347.87
357.473	350.58
357.855	335.67
358.238	370.47
358.62	362.56
359.002	350.13
359.384	354.43
359.766	344.71
360.148	362.56
360.53	346.06
360.912	345.16
361.294	340.19
361.676	344.71
362.057	359.4
362.439	347.19
362.821	336.8
363.203	344.26
363.584	350.13
363.966	330.47
364.348	327.31
364.729	340.41
365.111	329.12
365.493	334.54
365.874	349.45
366.256	338.61
366.637	342.67
367.019	345.61
367.4	333.18
367.781	340.19
368.163	332.05
368.544	324.37
368.925	359.17
369.306	346.29
369.688	337.48
370.069	351.26
370.45	349.23
370.831	340.19
371.212	329.34
371.593	348.78
371.974	358.72
372.355	336.8
372.736	354.65
373.117	343.35
373.498	353.52
373.879	348.55
374.26	358.04
374.641	360.75
375.021	365.27
375.402	357.82
375.783	359.4
376.163	380.41
376.544	401.43
376.925	390.36
377.305	389.23
377.686	355.1
378.066	383.35
378.447	397.14
378.827	361.43
379.208	360.3
379.588	362.34
379.968	396.01
380.349	372.96
380.729	402.56
381.109	415.44
381.489	400.98
381.87	397.36
382.25	417.47
382.63	393.52
383.01	405.5
383.39	419.51
383.77	416.57
384.15	416.34
384.53	426.51
384.91	422.9
385.29	440.53
385.67	439.62
386.049	468.1
386.429	449.11
386.809	421.99
387.189	460.64
387.568	468.32
387.948	459.28
388.328	464.48
388.707	473.74
389.087	474.65
389.466	498.15
389.846	490.47
390.225	478.04
390.605	487.53
390.984	488.43
391.363	482.33
391.743	501.99
392.122	525.27
392.501	533.4
392.881	534.08
393.26	509.9
393.639	523.69
394.018	539.73
394.397	543.35
394.776	556
395.155	563.23
395.534	572.05
395.913	541.77
396.292	581.54
396.671	580.18
397.05	575.89
397.429	560.97
397.808	570.24
398.186	575.89
398.565	598.71
398.944	619.5
399.323	612.27
399.701	628.99
400.08	652.72
400.458	629.9
400.837	619.73
401.215	647.75
401.594	629.22
401.972	649.79
402.351	659.73
402.729	669.9
403.107	672.38
403.486	691.14
403.864	690.01
404.242	696.79
404.62	699.95
404.999	694.76
405.377	717.58
405.755	713.51
406.133	751.25
406.511	730.91
406.889	767.75
407.267	774.3
407.645	762.32
408.023	816.79
408.401	810.23
408.779	819.5
409.156	852.72
409.534	819.05
409.912	840.97
410.29	866.73
410.667	859.5
411.045	893.17
411.422	899.5
411.8	908.76
412.178	951.25
412.555	970
412.933	955.31
413.31	995.09
413.687	964.58
414.065	976.33
414.442	996.22
414.819	1039.38
415.197	1010.23
415.574	1016.1
415.951	1055.65
416.328	1091.36
416.705	1077.34
417.082	1066.5
417.46	1125.7
417.837	1124.8
418.214	1127.51
418.591	1128.64
418.967	1141.52
419.344	1137.46
419.721	1187.17
420.098	1183.33
420.475	1195.76
420.852	1195.99
421.228	1245.7
421.605	1252.48
421.982	1276.44
422.358	1302.88
422.735	1251.35
423.111	1271.69
423.488	1315.3
423.864	1341.97
424.241	1377.68
424.617	1339.94
424.994	1377.9
425.37	1399.82
425.746	1403.89
426.123	1469.88
426.499	1470.78
426.875	1464.23
427.251	1508.75
427.627	1538.58
428.003	1549.2
428.379	1553.72
428.756	1566.15
429.132	1564.11
429.507	1616.31
429.883	1649.98
430.259	1684.56
430.635	1723.66
431.011	1738.57
431.387	1789.64
431.763	1795.52
432.138	1797.33
432.514	1783.77
432.89	1843.43
433.265	1857.44
433.641	1899.24
434.016	1893.14
434.392	1947.83
434.767	2003.65
435.143	2000.71
435.518	2015.4
435.894	2062.4
436.269	2102.18
436.644	2139.46
437.02	2158.22
437.395	2163.19
437.77	2191.89
438.145	2214.49
438.52	2220.82
438.895	2254.26
439.271	2286.58
439.646	2341.04
440.021	2354.83
440.395	2386.01
440.77	2370.64
441.145	2416.29
441.52	2446.57
441.895	2471.66
442.27	2504.43
442.645	2517.08
443.019	2527.02
443.394	2503.07
443.769	2557.98
444.143	2520.24
444.518	2608.6
444.892	2586.46
445.267	2642.28
445.641	2673.91
446.016	2695.16
446.39	2741.93
446.764	2727.92
447.139	2739.45
447.513	2763.18
447.887	2771.99
448.262	2800.69
448.636	2824.87
449.01	2868.03
449.384	2908.48
449.758	2901.25
450.132	2965.66
450.506	3003.4
450.88	3035.03
451.254	3023.06
451.628	3091.53
452.002	3124.3
452.376	3166.1
452.75	3188.02
453.123	3203.16
453.497	3238.87
453.871	3309.15
454.244	3355.7
454.618	3356.61
454.992	3457.85
455.365	3452.2
455.739	3522.7
456.112	3574.45
456.486	3605.64
456.859	3692.42
457.232	3733.55
457.606	3730.83
457.979	3804.28
458.352	3837.27
458.725	3909.59
459.099	3907.78
459.472	4020.77
459.845	4057.83
460.218	4063.93
460.591	4146.19
460.964	4113.65
461.337	4295.34
461.71	4373.3
462.083	4412.62
462.456	4426.41
462.829	4487.88
463.201	4565.84
463.574	4571.49
463.947	4621.21
464.32	4734.42
464.692	4771.26
465.065	4801.09
465.438	4863.23
465.81	4954.98
466.183	4994.98
466.555	5135.99
466.928	5109.78
467.3	5161.08
467.672	5236.56
468.045	5444.91
468.417	5469.09
468.789	5484.91
469.161	5566.72
469.534	5703.44
469.906	5784.57
470.278	5780.95
470.65	5916.31
471.022	5980.27
471.394	6095.74
471.766	6168.06
472.138	6205.57
472.51	6343.87
472.882	6523.3
473.253	6558.56
473.625	6700.47
473.997	6831.32
474.369	6908.83
474.74	6958.77
475.112	7107.02
475.484	7214.58
475.855	7307.24
476.227	7431.53
476.598	7606.44
476.97	7699.09
477.341	7904.74
477.713	8005.07
478.084	8043.72
478.455	8238.51
478.827	8427.43
479.198	8584.27
479.569	8655.9
479.94	8897.03
480.311	8959.17
480.682	9162.33
481.053	9365.26
481.424	9466.05
481.795	9619.27
482.166	9751.92
482.537	9878.24
482.908	10160.04
483.279	10186.48
483.65	10417.21
484.021	10615.4
484.391	10748.28
484.762	10891.1
485.133	10953.92
485.503	11237.3
485.874	11365.66
486.244	11498.77
486.615	11763.17
486.985	11917.74
487.356	12173.78
487.726	12268.91
488.097	12492.86
488.467	12559.08
488.837	12820.76
489.207	13021.66
489.578	13206.74
489.948	13324.93
490.318	13540.75
490.688	13550.01
491.058	13771.7
491.428	14006.27
491.798	14226.83
492.168	14453.72
492.538	14566.48
492.908	14694.61
493.278	14833.14
493.648	14969.63
494.017	15122.85
494.387	15318.78
494.757	15449.85
495.126	15680.35
495.496	15761.25
495.866	15831.08
496.235	16070.4
496.605	16257.06
496.974	16374.8
497.344	16475.13
497.713	16571.4
498.082	16811.62
498.452	16883.48
498.821	17049.81
499.19	17123.93
499.559	17265.17
499.928	17386.52
500.298	17514.2
500.667	17727.3
501.036	17722.1
501.405	17977.24
501.774	17911.48
502.143	18216.78
502.512	18388.53
502.88	18528.64
503.249	18478.92
503.618	18649.99
503.987	18760.04
504.356	18919.81
504.724	18896.31
505.093	19048.62
505.462	19115.29
505.83	19299.24
506.199	19502.17
506.567	19659
506.936	19701.04
507.304	19961.14
507.672	20008.82
508.041	20175.37
508.409	20393.45
508.777	20567.91
509.145	20750.5
509.514	20803.83
509.882	21054.22
510.25	21177.61
510.618	21251.5
510.986	21321.33
511.354	21566.07
511.722	21662.57
512.09	21912.28
512.458	21813.52
512.826	22093.52
513.193	22137.13
513.561	22216.68
513.929	22406.5
514.297	22627.06
514.664	22791.35
515.032	22874.51
515.4	23225.01
515.767	23438.11
516.135	23620.48
516.502	23481.28
516.869	23950.19
517.237	24050.75
517.604	23999
517.972	24345.66
518.339	24489.84
518.706	24460.23
519.073	24595.14
519.44	24711.98
519.808	25090.27
520.175	24981.8
520.542	25500.66
520.909	25589.24
521.276	25579.3
521.643	25861.55
522.009	26084.14
522.376	26357.81
522.743	26490.91
523.11	26848.42
523.477	27158.24
523.843	27297.9
524.21	27627.61
524.577	27802.29
524.943	27869.63
525.31	28034.6
525.676	28173.13
526.043	28354.59
526.409	28367.47
526.776	28675.26
527.142	28853.56
527.508	28913.9
527.874	29322.25
528.241	29385.75
528.607	29493.55
528.973	29848.79
529.339	29875.46
529.705	30278.84
530.071	30568.77
530.437	30753.4
530.803	30988.87
531.169	31194.74
531.535	31214.63
531.901	31378.92
532.267	31549.09
532.632	31903.88
532.998	31797.21
533.364	32049.19
533.73	32000.83
534.095	32279.46
534.461	32322.62
534.826	32431.77
535.192	32542.05
535.557	32767.13
535.923	32725.78
536.288	32899.33
536.653	33175.94
537.019	33168.93
537.384	33433.56
537.749	33662.25
538.114	33925.97
538.479	33999.87
538.845	34163.71
539.21	34150.15
539.575	34309.47
539.94	34527.09
540.305	34574.09
540.67	34664.94
541.034	34656.12
541.399	34704.03
541.764	34808.89
542.129	34890.47
542.494	34834.88
542.858	34967.98
543.223	34999.84
543.587	35286.61
543.952	35385.14
544.316	35540.62
544.681	35481.86
545.045	35944.22
545.41	36138.34
545.774	36089.98
546.138	36119.36
546.503	36386.47
546.867	36430.09
547.231	36848.83
547.595	36772.45
547.959	36884.99
548.324	36948.27
548.688	36953.01
549.052	37103.06
549.416	36980.58
549.779	36909.17
550.143	37105.32
550.507	37169.05
550.871	37341.48
551.235	37280.01
551.599	37477.29
551.962	37529.95
552.326	37762.48
552.689	37954.34
553.053	37915.92
553.417	38140.78
553.78	38638.39
554.143	38642.91
554.507	38780.99
554.87	38949.34
555.234	39326.96
555.597	39117.25
555.96	39430.23
556.323	39419.61
556.686	39460.06
557.05	39715.42
557.413	39782.77
557.776	39628.42
558.139	39836.33
558.502	39879.71
558.865	39826.16
559.228	40130.33
559.59	40130.55
559.953	40248.97
560.316	40674.04
560.679	40613.93
561.041	40926.92
561.404	41242.84
561.767	41460.01
562.129	41428.37
562.492	41985.2
562.854	42009.83
563.217	42051.63
563.579	42340.21
563.941	42558.51
564.304	42667.44
564.666	42741.33
565.028	42850.94
565.39	42820.88
565.753	43021.1
566.115	43044.6
566.477	43229.91
566.839	43243.02
567.201	43303.58
567.563	43350.36
567.925	43624.93
568.287	43543.8
568.648	43620.86
569.01	43852.49
569.372	44108.53
569.734	44008.42
570.095	44330.9
570.457	44710.1
570.819	44825.35
571.18	44896.98
571.542	45332.9
571.903	45385.56
572.265	45526.8
572.626	45567.93
572.987	45809.05
573.349	45904.19
573.71	45985.77
574.071	46101.25
574.432	46051.3
574.794	46274.12
575.155	46148.48
575.516	46009.5
575.877	46176.05
576.238	46102.6
576.599	46268.02
576.96	46287
577.32	46188.02
577.681	46409.49
578.042	46515.25
578.403	46576.49
578.763	46602.48
579.124	46729.03
579.485	47114.78
579.845	47269.12
580.206	47204.95
580.566	47367.43
580.927	47343.02
581.287	47603.8
581.648	47454.88
582.008	47655.1
582.368	47605.84
582.728	47708.66
583.089	47732.39
583.449	47464.83
583.809	47509.34
584.169	47599.51
584.529	47459.18
584.889	47697.59
585.249	47240.42
585.609	47140.09
585.969	47444.26
586.329	47335.56
586.688	47223.7
587.048	47241.33
587.408	47246.3
587.768	47384.6
588.127	47595.22
588.487	47515.67
588.846	47802.9
589.206	47670.92
589.565	47774.87
589.925	48024.36
590.284	47957.92
590.643	47999.95
591.003	48185.48
591.362	48290.79
591.721	48228.42
592.08	48165.15
592.44	48114.75
592.799	48119.72
593.158	48060.52
593.517	48002.89
593.876	48004.92
594.235	47913.18
594.593	47915.66
594.952	47936.9
595.311	47722.9
595.67	47850.58
596.029	47874.53
596.387	47907.98
596.746	47999.5
597.104	47767.64
597.463	47941.65
597.822	47999.73
598.18	48031.36
598.538	48115.43
598.897	48380.06
599.255	48172.6
599.613	48656.66
599.972	48533.5
600.33	48618.69
600.688	48605.59
601.046	48811.68
601.404	48897.1
601.762	48723.32
602.12	48938.46
602.478	48796.99
602.836	48928.29
603.194	48634.29
603.552	48658.24
603.91	48500.05
604.268	48606.04
604.625	48507.96
604.983	48348.42
605.341	48294.63
605.698	48302.32
606.056	48456.44
606.413	48399.94
606.771	48698.24
607.128	48692.36
607.485	48584.8
607.843	48603.78
608.2	48944.79
608.557	49168.06
608.914	48944.11
609.272	49207.38
609.629	49255.96
609.986	49482.4
610.343	49371.22
610.7	49680.36
611.057	49594.71
611.414	49690.53
611.771	49698.89
612.127	49917.64
612.484	49755.39
612.841	49788.83
613.198	49714.03
613.554	49678.33
613.911	49810.3
614.267	49633.58
614.624	49574.37
614.98	49591.1
615.337	49705.44
615.693	49675.16
616.05	49590.42
616.406	49726.91
616.762	49608.27
617.118	49596.52
617.475	49570.08
617.831	49636.75
618.187	49805.55
618.543	49728.49
618.899	50019.79
619.255	50129.16
619.611	50258.65
619.967	50258.88
620.323	50449.61
620.678	50335.94
621.034	50406.67
621.39	50522.37
621.746	50463.62
622.101	50683.5
622.457	50446.67
622.812	50547.46
623.168	50601.24
623.523	50591.75
623.879	50646.21
624.234	50377.29
624.589	50448.93
624.945	50451.87
625.3	50310.63
625.655	50258.2
626.01	50098.43
626.365	50112.89
626.72	50091.65
627.075	50048.49
627.43	50156.96
627.785	50016.85
628.14	50032.67
628.495	50096.85
628.85	50038.09
629.205	49926.46
629.559	50163.51
629.914	50068.6
630.269	50206
630.623	50221.82
630.978	50137.07
631.332	50463.84
631.687	50544.07
632.041	50387.69
632.396	50504.52
632.75	50372.55
633.104	50479.89
633.459	50358.53
633.813	50150.63
634.167	50185.66
634.521	49994.48
634.875	49954.7
635.229	49899.56
635.583	49725.56
635.937	49854.59
636.291	49615.96
636.645	49721.26
636.999	49469.07
637.352	49570.98
637.706	49213.48
638.06	49373.93
638.413	49205.57
638.767	48996.08
639.121	49157.44
639.474	48778.92
639.828	48927.39
640.181	48859.37
640.534	49004.67
640.888	48816.43
641.241	48868.4
641.594	49137.32
641.947	49266.59
642.301	49142.52
642.654	49218.9
643.007	49238.11
643.36	49223.65
643.713	48994.73
644.066	49252.35
644.419	49128.51
644.771	49168.51
645.124	48968.97
645.477	48996.08
645.83	48533.72
646.182	48220.51
646.535	48092.83
646.888	47644.48
647.24	47379.63
647.593	47423.92
647.945	47321.55
648.298	47035.01
648.65	46884.5
649.002	46797.05
649.355	46908.46
649.707	47061.9
650.059	47279.07
650.411	47750.92
650.763	47870.01
651.115	48138.25
651.467	47897.13
651.819	47975.09
652.171	47909.56
652.523	47737.81
652.875	47949.11
653.227	47916.56
653.578	48309.55
653.93	48223.9
654.282	47970.57
654.633	47903.68
654.985	48125.6
655.337	48067.07
655.688	48126.5
656.039	48219.16
656.391	47960.63
656.742	47996.34
657.094	48048.99
657.445	48058.71
657.796	47998.14
658.147	47818.49
658.498	47794.08
658.849	47858.71
659.2	47796.57
659.551	47586.4
659.902	47737.13
660.253	47512.73
660.604	47517.71
660.955	47358.61
661.306	47470.93
661.656	47304.6
662.007	47234.32
662.358	47192.52
662.708	47209.01
663.059	47215.34
663.409	47081.78
663.76	47333.53
664.11	47192.74
664.461	47276.13
664.811	47147.55
665.161	47183.02
665.511	47249.92
665.862	47551.38
666.212	47648.78
666.562	47657.36
666.912	47506.41
667.262	47570.59
667.612	47576.69
667.962	47783.24
668.312	47645.39
668.662	47875.66
669.011	47833.18
669.361	47749.56
669.711	47681.54
670.06	47512.51
670.41	47370.82
670.76	47489.01
671.109	47385.05
671.459	47251.95
671.808	47138.73
672.157	47269.8
672.507	46906.65
672.856	46959.53
673.205	46896.93
673.554	46923.37
673.904	46666.65
674.253	47004.72
674.602	46700.1
674.951	46092.88
675.3	45801.59
675.649	46477.73
675.998	46376.94
676.346	46349.83
676.695	46467.79
677.044	46228.7
677.393	46493.1
677.741	46465.53
678.09	46443.16
678.438	46358.19
678.787	46563.83
679.135	46377.17
679.484	46303.95
679.832	46607.67
680.181	46315.25
680.529	46497.17
680.877	46581.91
681.225	46475.7
681.573	46630.72
681.922	46303.27
682.27	46198.19
682.618	46196.61
682.966	46267.34
683.314	46121.36
683.661	45959.33
684.009	45699.67
684.357	45600.24
684.705	45435.73
685.053	45423.52
685.4	45346.69
685.748	45013.36
686.095	45039.58
686.443	44878.23
686.79	44604.11
687.138	44549.42
687.485	44637.56
687.832	44346.94
688.18	44386.49
688.527	44324.34
688.874	43939.27
689.221	43979.72
689.568	43918.25
689.915	43941.53
690.262	43700.4
690.609	43672.83
690.956	43709.67
691.303	43709.67
691.65	43541.54
691.997	43759.84
692.344	43398.04
692.69	43419.96
693.037	43506.74
693.383	43243.02
693.73	43516.45
694.077	43241.21
694.423	43181.1
694.769	43135.9
695.116	42822.69
695.462	42793.99
695.808	42801.9
696.155	42955.79
696.501	42443.71
696.847	42410.27
697.193	42129.82
697.539	42306.77
697.885	41967.79
698.231	41690.29
698.577	41670.85
698.923	41436.06
699.269	41249.4
699.614	40936.86
699.96	40964.66
700.306	40778.67
700.651	40549.53
700.997	40342.53
701.342	40188.63
701.688	40091.01
702.033	39892.37
702.379	39869.77
702.724	39961.07
703.069	40146.15
703.415	39617.57
703.76	39651.7
704.105	39586.39
704.45	39553.62
704.795	39419.39
705.14	39394.76
705.485	39353.17
705.83	39338.49
706.175	39489.67
706.52	39270.24
706.865	39275.21
707.209	39235.66
707.554	39145.27
707.899	39331.71
708.243	39109.56
708.588	39062.33
708.932	38849.46
709.277	38766.75
709.621	38830.7
709.966	38515
710.31	38625.28
710.654	38061.68
710.998	38255.35
711.342	38195.46
711.687	38138.07
712.031	37950.5
712.375	37692.65
712.719	37660.11
713.063	37581.7
713.407	37485.65
713.75	37204.08
714.094	37203.85
714.438	36865.56
714.782	36910.75
715.125	36784.43
715.469	36809.06
715.812	36539.69
716.156	36291.79
716.499	36341.73
716.843	36320.26
717.186	36022.87
717.53	36224.22
717.873	36240.04
718.216	36241.17
718.559	36126.37
718.902	35933.15
719.246	36195.74
719.589	36194.61
719.932	36177.89
720.275	36181.05
720.617	36073.71
720.96	35996.88
721.303	35998.69
721.646	36083.66
721.989	36136.99
722.331	36268.96
722.674	36132.02
723.016	36148.74
723.359	36123.88
723.701	36136.54
724.044	35834.62
724.386	35721.41
724.729	35920.5
725.071	35859.48
725.413	35661.29
725.755	35614.97
726.097	35513.95
726.439	35096.11
726.782	35136.11
727.124	35240.29
727.465	34882.11
727.807	34677.82
728.149	34703.13
728.491	34646.63
728.833	34547.65
729.175	34551.49
729.516	34409.58
729.858	34427.2
730.199	34422.23
730.541	34364.83
730.882	34263.59
731.224	34512.17
731.565	34051.62
731.906	34186.08
732.248	34264.49
732.589	34052.52
732.93	33941.34
733.271	34082.35
733.612	34217.26
733.953	34280.99
734.294	34251.61
734.635	34298.62
734.976	34327.09
735.317	34269.47
735.658	34341.55
735.999	34440.76
736.339	34565.05
736.68	34634.88
737.021	34421.1
737.361	34341.1
737.702	34598.95
738.042	34307.88
738.383	34405.96
738.723	34524.83
739.063	34428.56
739.404	34437.37
739.744	34194.89
740.084	34159.64
740.424	34257.04
740.764	34195.8
741.104	34328
741.444	33884.62
741.784	33948.34
742.124	33934.56
742.464	33886.2
742.804	33775.69
743.143	33673.32
743.483	33942.02
743.823	33443.73
744.162	33549.03
744.502	33662.25
744.841	33372.99
745.181	33603.95
745.52	33366.67
745.86	33471.52
746.199	33304.97
746.538	33345.65
746.877	33544.74
747.216	33483.95
747.556	33547.68
747.895	33463.61
748.234	33459.54
748.573	33458.87
748.911	33442.37
749.25	33534.34
749.589	33541.58
749.928	33715.58
750.267	33720.33
750.605	33599.2
750.944	33662.7
751.283	33689.37
751.621	33809.37
751.96	33791.74
752.298	33821.79
752.636	34022.47
752.975	33863.15
753.313	33840.1
753.651	34128.68
753.989	33957.38
754.327	33952.19
754.666	33854.11
755.004	33917.39
755.342	33987.67
755.679	33957.16
756.017	33875.58
756.355	33907.89
756.693	33722.81
757.031	33819.31
757.368	33653.21
757.706	33492.31
758.044	33448.92
758.381	33578.41
758.719	33302.49
759.056	33375.03
759.394	33183.17
759.731	32982.27
760.068	32990.18
760.405	32929.84
760.743	32855.04
761.08	32944.3
761.417	32799.45
761.754	32861.14
762.091	32787.25
762.428	32715.38
762.765	32494.82
763.102	32722.39
763.438	32573.92
763.775	32366.92
764.112	32538.21
764.449	32532.79
764.785	32498.44
765.122	32298.44
765.458	32327.14
765.795	32537.76
766.131	32490.98
766.467	32428.84
766.804	32356.07
767.14	32345.67
767.476	32375.05
767.812	32346.13
768.148	32502.51
768.485	32213.7
768.821	32104.78
769.157	31985.46
769.492	32003.99
769.828	31898.91
770.164	31770.32
770.5	31663.21
770.836	31630.89
771.171	31457.79
771.507	31409.2
771.842	31439.26
772.178	31334.85
772.513	31238.81
772.849	31230.9
773.184	30982.77
773.519	30963.79
773.855	30800.63
774.19	30596.34
774.525	30482.22
774.86	30666.4
775.195	30543.01
775.53	30347.76
775.865	30141.67
776.2	29956.36
776.535	29813.54
776.87	29778.74
777.205	29614.45
777.539	29409.48
777.874	29450.16
778.209	29101.24
778.543	29218.07
778.878	28915.93
779.212	28868.03
779.547	28807.46
779.881	28832.77
780.215	28669.16
780.55	28672.78
780.884	28536.06
781.218	28543.97
781.552	28462.61
781.886	28363.86
782.22	28252.45
782.554	28118.67
782.888	27929.07
783.222	27974.94
783.556	27903.53
783.889	27858.79
784.223	27748.51
784.557	27702.18
784.89	27729.53
785.224	27694.27
785.557	27445.46
785.891	27452.24
786.224	27485.46
786.558	27496.31
786.891	27100.16
787.224	26963.44
787.557	27041.18
787.891	26954.86
788.224	26878.25
788.557	26907.85
788.89	26825.14
789.223	26766.84
789.556	26683.68
789.888	26434.64
790.221	26431.48
790.554	26156.69
790.887	26236.68
791.219	26048.89
791.552	25824.04
791.884	25685.96
792.217	25640.99
792.549	25546.53
792.882	25457.95
793.214	25383.15
793.546	25332.3
793.879	25124.62
794.211	25007.79
794.543	25008.24
794.875	24884.85
795.207	24936.6
795.539	24702.94
795.871	24628.14
796.203	24297.75
796.535	24200.8
796.867	24320.35
797.198	24296.85
797.53	24261.14
797.862	24085.33
798.193	24129.17
798.525	23897.99
798.856	24133.69
799.188	23805.33
799.519	23783.64
799.85	23707.48
800.182	23651.21
800.513	23860.47
800.844	23532.57
801.175	23587.49
801.506	23647.6
801.837	23492.8
802.168	23482.63
802.499	23406.7
802.83	23364.22
803.161	23316.08
803.491	23315.86
803.822	23326.93
804.153	23043.55
804.483	23009.2
804.814	22885.13
805.145	22975.75
805.475	23014.62
805.805	22839.94
806.136	22777.34
806.466	22897.79
806.796	22860.05
807.126	22531.92
807.457	22543.22
807.787	22553.62
808.117	22394.07
808.447	22349.33
808.777	22383.68
809.107	22258.03
809.436	22051.03
809.766	22131.48
810.096	21939.17
810.426	21917.02
810.755	21874.76
811.085	21787.31
811.414	21716.12
811.744	21554.09
812.073	21358.39
812.403	21441.33
812.732	21355.91
813.061	21204.95
813.39	21097.84
813.719	21071.85
814.049	21246.31
814.378	21012.41
814.707	20870.27
815.036	20897.61
815.365	20794.11
815.693	20707.79
816.022	20665.3
816.351	20653.1
816.68	20518.42
817.008	20635.02
817.337	20411.07
817.665	20376.27
817.994	20437.97
818.322	20346.22
818.651	20300.79
818.979	20193.23
819.307	20412.2
819.636	20374.69
819.964	20179.22
820.292	20351.87
820.62	20223.73
820.948	20200.46
821.276	20254.69
821.604	20253.11
821.932	20256.73
822.259	20292.21
822.587	20287.46
822.915	20297.18
823.243	20318.19
823.57	20292.43
823.898	20410.4
824.225	20212.43
824.553	20293.11
824.88	20369.49
825.207	20404.52
825.535	20306.22
825.862	20428.93
826.189	20248.82
826.516	20402.26
826.843	20477.06
827.17	20324.52
827.497	20360.91
827.824	20332.66
828.151	20356.16
828.478	20287.46
828.805	20346.67
829.131	20162.94
829.458	20038.43
829.785	20011.31
830.111	20041.37
830.438	20190.06
830.764	20041.14
831.09	20071.2
831.417	20010.41
831.743	20055.83
832.069	19891.77
832.395	19800.69
832.722	19922.27
833.048	19791.88
833.374	19847.92
833.7	19706.46
834.026	19632.34
834.351	19733.58
834.677	19621.49
835.003	19696.97
835.329	19739.68
835.654	19565.45
835.98	19585.56
836.306	19545.11
836.631	19581.94
836.956	19602.28
837.282	19548.5
837.607	19445.68
837.932	19449.52
838.258	19496.97
838.583	19426.69
838.908	19415.85
839.233	19438.67
839.558	19370.87
839.883	19329.07
840.208	19252.01
840.533	19261.73
840.858	19406.35
841.182	19296.75
841.507	19327.49
841.832	19280.03
842.156	19209.07
842.481	19267.15
842.805	19299.01
843.13	19146.93
843.454	19139.69
843.778	19067.83
844.103	19050.88
844.427	18965.24
844.751	19022.18
845.075	18898.57
845.399	18901.28
845.723	18808.18
846.047	18848.18
846.371	18591.69
846.695	18601.86
847.019	18487.28
847.343	18474.18
847.666	18360.96
847.99	18213.84
848.313	18175.43
848.637	18021.98
848.96	18064.47
849.284	17986.05
849.607	17838.49
849.931	17827.41
850.254	17654.54
850.577	17493.41
850.9	17386.07
851.223	17344.49
851.546	17223.59
851.869	17122.8
852.192	17253.42
852.515	17022.24
852.838	16916.48
853.161	16899.3
853.483	16780.21
853.806	16640.78
854.129	16654.34
854.451	16576.37
854.774	16580.44
855.096	16436.71
855.419	16385.19
855.741	16351.29
856.063	16308.58
856.385	16327.79
856.708	16214.35
857.03	16050.96
857.352	16107.91
857.674	16064.52
857.996	16183.39
858.318	16005.54
858.64	16029.95
858.961	15910.4
859.283	15974.13
859.605	15895.49
859.926	15965.09
860.248	15873.34
860.57	15776.17
860.891	15852.78
861.212	15819.33
861.534	15781.36
861.855	15736.39
862.176	15806
862.498	15732.55
862.819	15676.51
863.14	15697.53
863.461	15642.16
863.782	15629.96
864.103	15644.42
864.424	15660.01
864.745	15631.09
865.065	15548.15
865.386	15546.12
865.707	15467.47
866.027	15492.56
866.348	15438.1
866.668	15380.7
866.989	15337.53
867.309	15246.24
867.63	15298.67
867.95	15300.25
868.27	15138.44
868.59	15203.07
868.91	15114.94
869.23	15111.33
869.55	15082.63
869.87	15092.8
870.19	15138.22
870.51	15005.34
870.83	14967.83
871.15	14776.42
871.469	14825.23
871.789	14830.66
872.109	14726.93
872.428	14594.96
872.748	14623.43
873.067	14600.38
873.386	14498.23
873.706	14568.74
874.025	14500.49
874.344	14449.2
874.663	14438.8
874.982	14376.88
875.301	14366.03
875.62	14303.21
875.939	14349.99
876.258	14255.08
876.577	14199.26
876.896	14293.95
877.214	14162.65
877.533	14270.9
877.852	14171.24
878.17	14256.21
878.489	14232.7
878.807	14131.46
879.125	14199.26
879.444	14145.93
879.762	14162.65
880.08	14143.44
880.398	14022.77
880.716	14095.08
881.034	14029.55
881.352	13995.42
881.67	13928.08
881.988	14024.8
882.306	14073.84
882.624	13925.14
882.941	13835.88
883.259	13932.6
883.577	13856.9
883.894	13921.98
884.212	13881.08
884.529	13813.73
884.846	13775.32
885.164	13823.9
885.481	13868.42
885.798	13873.17
886.115	13808.54
886.432	13764.24
886.75	13753.85
887.067	13667.75
887.383	13594.08
887.7	13613.51
888.017	13630.01
888.334	13625.72
888.651	13444.03
888.967	13462.1
889.284	13435.44
889.6	13387.08
889.917	13291.03
890.233	13188.66
890.55	13226.86
890.866	13316.57
891.182	13168.55
891.498	13150.7
891.815	13089.68
892.131	12983.02
892.447	12979.63
892.763	12914.32
893.079	12800.65
893.395	12756.13
893.71	12740.54
894.026	12708.23
894.342	12723.59
894.657	12522.47
894.973	12551.39
895.289	12508.23
895.604	12366.77
895.92	12241.8
896.235	12280.44
896.55	12261.46
896.865	12205.64
897.181	12144.4
897.496	12047
897.811	12071.41
898.126	12041.12
898.441	11830.51
898.756	11929.71
899.071	11921.81
899.386	11920.9
899.7	11799.1
900.015	11791.64
900.33	11721.58
900.644	11687.24
900.959	11782.15
901.273	11668.48
901.588	11618.08
901.902	11527.01
902.216	11435.94
902.531	11596.39
902.845	11525.66
903.159	11508.48
903.473	11345.32
903.787	11412.67
904.101	11275.27
904.415	11443.17
904.729	11273.46
905.042	11251.99
905.356	11308.26
905.67	11226.23
905.984	11203.86
906.297	11168.15
906.611	11071.43
906.924	11086.35
907.237	11088.15
907.551	11055.39
907.864	10980.14
908.177	10959.12
908.491	11002.28
908.804	10852.45
909.117	10795.96
909.43	10758.67
909.743	10713.02
910.056	10710.99
910.368	10677.54
910.681	10552.12
910.994	10573.37
911.307	10504.44
911.619	10454.95
911.932	10482.3
912.244	10329.08
912.557	10325.91
912.869	10269.87
913.181	10256.09
913.494	10176.77
913.806	10126.37
914.118	10026.04
914.43	9939.48
914.742	10028.75
915.054	9881.18
915.366	9860.39
915.678	9855.42
915.99	9834.85
916.302	9678.47
916.613	9672.37
916.925	9696.1
917.236	9588.76
917.548	9540.17
917.859	9525.03
918.171	9465.15
918.482	9451.59
918.794	9364.58
919.105	9308.77
919.416	9241.2
919.727	9203.46
920.038	9186.51
920.349	9151.93
920.66	9091.6
920.971	9048.89
921.282	9052.5
921.593	9003.24
921.903	8908.55
922.214	8882.56
922.525	8887.76
922.835	8777.03
923.146	8761.21
923.456	8772.28
923.767	8740.19
924.077	8662.23
924.387	8641.44
924.697	8567.77
925.008	8673.53
925.318	8586.53
925.628	8592.4
925.938	8509.24
926.248	8433.08
926.558	8470.14
926.867	8404.16
927.177	8394.21
927.487	8426.76
927.796	8297.95
928.106	8261.11
928.416	8291.17
928.725	8206.2
929.034	8185.63
929.344	8206.2
929.653	8176.14
929.962	8146.09
930.271	8115.35
930.581	8099.08
930.89	8048.69
931.199	7994.22
931.508	7969.82
931.817	7985.41
932.125	7960.78
932.434	7958.52
932.743	7896.15
933.051	7788.13
933.36	7838.3
933.669	7745.19
933.977	7759.88
934.286	7732.76
934.594	7717.85
934.902	7618.64
935.21	7577.74
935.519	7598.98
935.827	7524.86
936.135	7518.98
936.443	7431.53
936.751	7437.4
937.059	7394.69
937.367	7355.6
937.674	7316.28
937.982	7321.02
938.29	7183.17
938.597	7236.5
938.905	7162.83
939.213	7115.38
939.52	7097.98
939.827	7044.87
940.135	7034.48
940.442	6987.47
940.749	6937.98
941.056	6907.25
941.363	6841.71
941.67	6820.92
941.977	6838.77
942.284	6732.56
942.591	6712.45
942.898	6665.22
943.205	6692.11
943.511	6599.91
943.818	6573.47
944.125	6562.17
944.431	6479.01
944.738	6532.79
945.044	6447.6
945.35	6374.38
945.657	6359.24
945.963	6399.92
946.269	6302.07
946.575	6293.7
946.881	6327.6
947.187	6254.61
947.493	6194.95
947.799	6221.16
948.105	6180.04
948.41	6191.11
948.716	6206.7
949.022	6178.23
949.327	6120.15
949.633	6062.3
949.938	6080.15
950.244	6056.42
950.549	5997.67
950.854	5982.53
951.16	6015.97
951.465	5967.84
951.77	5939.59
952.075	5932.36
952.38	5913.15
952.685	5856.43
952.99	5817.78
953.294	5863.43
953.599	5838.12
953.904	5820.95
954.209	5747.96
954.513	5776.88
954.818	5699.82
955.122	5717.67
955.426	5704.34
955.731	5712.48
956.035	5644.68
956.339	5557.68
956.643	5675.87
956.948	5583.21
957.252	5549.32
957.556	5521.75
957.86	5478.58
958.163	5467.96
958.467	5520.84
958.771	5463.9
959.075	5408.76
959.378	5421.86
959.682	5366.05
959.985	5380.73
960.289	5326.72
960.592	5280.85
960.896	5271.13
961.199	5258.03
961.502	5233.39
961.805	5226.16
962.108	5125.6
962.411	5150.23
962.714	5096.22
963.017	5121.08
963.32	5141.64
963.623	5081.53
963.926	5067.75
964.228	4985.72
964.531	4954.76
964.833	4971.25
965.136	4935.55
965.438	4865.27
965.741	4847.41
966.043	4849.67
966.345	4806.51
966.648	4758.83
966.95	4772.61
967.252	4702.11
967.554	4739.62
967.856	4685.16
968.158	4618.72
968.46	4640.19
968.761	4650.81
969.063	4572.62
969.365	4551.6
969.666	4525.16
969.968	4487.2
970.269	4488.78
970.571	4510.7
970.872	4437.48
971.174	4438.61
971.475	4433.64
971.776	4439.74
972.077	4405.84
972.378	4430.7
972.679	4389.12
972.98	4379.18
973.281	4333.53
973.582	4291.27
973.883	4289.69
974.183	4292.63
974.484	4265.06
974.785	4240.2
975.085	4198.39
975.386	4239.52
975.686	4194.32
975.986	4126.08
976.287	4149.58
976.587	4134.67
976.887	4135.57
977.187	4143.25
977.487	4099.86
977.787	4064.61
978.087	4059.41
978.387	4069.13
978.687	4042.69
978.987	4052.18
979.286	4019.87
979.586	4036.14
979.885	3973.77
980.185	3983.03
980.484	3928.57
980.784	3934.67
981.083	3955.23
981.382	3943.71
981.682	3922.92
981.981	3900.77
982.28	3833.43
982.579	3829.59
982.878	3841.34
983.177	3776.71
983.475	3820.55
983.774	3806.99
984.073	3742.81
984.372	3757.27
984.67	3745.75
984.969	3731.96
985.267	3700.1
985.566	3721.57
985.864	3683.15
986.162	3699.65
986.461	3625.98
986.759	3637.73
987.057	3576.04
987.355	3586.21
987.653	3578.07
987.951	3564.51
988.249	3521.8
988.547	3504.85
988.844	3443.61
989.142	3496.26
989.44	3436.6
989.737	3454.68
990.035	3413.78
990.332	3430.05
990.63	3365.87
990.927	3377.17
991.224	3345.31
991.521	3333.78
991.819	3325.42
992.116	3281.13
992.413	3298.53
992.71	3269.6
993.006	3240.9
993.303	3238.64
993.6	3177.63
993.897	3188.7
994.193	3179.66
994.49	3139.21
994.787	3152.32
995.083	3066.67
995.379	3094.47
995.676	3040.23
995.972	3062.6
996.268	3053.79
996.565	3008.14
996.861	3019.44
997.157	3022.15
997.453	3008.37
997.749	2988.71
998.044	2923.4
998.34	2906.45
998.636	2928.37
998.932	2873.68
999.227	2878.88
999.523	2883.62
999.818	2861.25
1000.114	2829.16
1000.409	2810.18
1000.704	2809.73
1001	2813.12
1001.295	2786.23
1001.59	2742.16
1001.885	2796.4
1002.18	2747.13
1002.475	2753.46
1002.77	2730.41
1003.065	2729.96
1003.359	2681.37
1003.654	2700.13
1003.949	2613.58
1004.243	2697.87
1004.538	2650.64
1004.832	2640.24
1005.127	2596.4
1005.421	2588.04
1005.715	2592.56
1006.009	2571.77
1006.304	2548.94
1006.598	2514.37
1006.892	2538.1
1007.186	2523.86
1007.48	2527.25
1007.773	2477.31
1008.067	2512.79
1008.361	2465.56
1008.655	2421.49
1008.948	2423.52
1009.242	2418.55
1009.535	2442.51
1009.829	2421.49
1010.122	2377.88
1010.415	2355.5
1010.708	2342.4
1011.001	2346.01
1011.295	2318.22
1011.588	2329.74
1011.881	2282.74
1012.173	2302.17
1012.466	2329.74
1012.759	2280.93
1013.052	2247.26
1013.344	2231.66
1013.637	2225.79
1013.93	2256.52
1014.222	2210.87
1014.514	2183.76
1014.807	2195.96
1015.099	2162.06
1015.391	2136.3
1015.683	2119.35
1015.976	2102.85
1016.268	2101.95
1016.56	2079.58
1016.851	2093.36
1017.143	2072.35
1017.435	2062.18
1017.727	2047.71
1018.018	2022.63
1018.31	2071.89
1018.602	2015.62
1018.893	2007.26
1019.185	1965.23
1019.476	1964.1
1019.767	1975.17
1020.058	1951.22
1020.35	1941.5
1020.641	1908.28
1020.932	1897.89
1021.223	1856.76
1021.514	1859.47
1021.804	1848.62
1022.095	1835.29
1022.386	1811.11
1022.677	1849.53
1022.967	1814.27
1023.258	1774.95
1023.548	1787.38
1023.839	1798.23
1024.129	1730.21
1024.419	1727.95
1024.709	1735.86
1025	1689.53
1025.29	1693.15
1025.58	1701.73
1025.87	1675.07
1026.16	1662.87
1026.449	1650.66
1026.739	1651.11
1027.029	1629.87
1027.319	1608.18
1027.608	1606.6
1027.898	1609.08
1028.187	1586.03
1028.477	1556.88
1028.766	1558.46
1029.055	1563.89
1029.344	1547.39
1029.634	1549.42
1029.923	1514.4
1030.212	1516.66
1030.501	1500.16
1030.79	1477.79
1031.078	1464
1031.367	1481.63
1031.656	1462.65
1031.945	1437.56
1032.233	1440.5
1032.522	1438.24
1032.81	1435.53
1033.099	1427.84
1033.387	1391.23
1033.675	1409.77
1033.963	1395.53
1034.251	1398.01
1034.54	1406.15
1034.828	1355.08
1035.116	1338.81
1035.403	1388.52
1035.691	1333.38
1035.979	1366.38
1036.267	1325.93
1036.554	1324.34
1036.842	1328.41
1037.129	1292.25
1037.417	1275.76
1037.704	1282.31
1037.992	1266.72
1038.279	1272.14
1038.566	1241.63
1038.853	1241.63
1039.14	1241.63
