Data from blue_clamp_base_FLMS001491_00072.txt Node
Date: Wed Feb 08 15:16:29 GMT 2017
User: dcchb
Spectrometer: FLMS00149
Trigger mode: 0
Integration Time (sec): 2.000000E-2
Scans to average: 10
Electric dark correction enabled: true
Nonlinearity correction enabled: false
Boxcar width: 0
XAxis mode: Wavelengths
Number of Pixels in Spectrum: 2048
>>>>>Begin Spectral Data<<<<<
341.393	-3.83
341.776	-3.83
342.16	-3.83
342.543	-53.54
342.927	-59.87
343.31	-63.94
343.693	-67.1
344.077	-84.28
344.46	-53.09
344.843	-55.8
345.226	-40.21
345.61	-29.59
345.993	-25.3
346.376	-0.44
346.759	21.93
347.142	37.75
347.525	41.82
347.908	49.96
348.291	67.81
348.674	89.05
349.057	111.42
349.44	141.71
349.823	150.74
350.206	163.63
350.588	193.91
350.971	223.51
351.354	222.38
351.737	251.98
352.119	259.22
352.502	286.33
352.884	277.75
353.267	269.61
353.65	292.89
354.032	305.77
354.414	318.2
354.797	330.63
355.179	326.11
355.562	345.77
355.944	317.75
356.326	324.75
356.709	329.5
357.091	329.95
357.473	336.05
357.855	361.13
358.238	362.04
358.62	334.92
359.002	352.1
359.384	322.04
359.766	344.19
360.148	352.1
360.53	341.47
360.912	343.96
361.294	337.86
361.676	341.93
362.057	357.07
362.439	345.99
362.821	314.58
363.203	322.72
363.584	346.9
363.966	332.43
364.348	315.03
364.729	328.37
365.111	328.37
365.493	308.93
365.874	311.64
366.256	340.12
366.637	303.51
367.019	331.76
367.4	322.49
367.781	318.65
368.163	322.72
368.544	325.2
368.925	321.59
369.306	337.18
369.688	338.99
370.069	296.73
370.45	328.82
370.831	323.4
371.212	322.72
371.593	321.59
371.974	318.88
372.355	322.72
372.736	328.82
373.117	355.49
373.498	318.42
373.879	311.42
374.26	308.93
374.641	296.73
375.021	331.98
375.402	336.73
375.783	345.54
376.163	360.68
376.544	345.99
376.925	351.42
377.305	338.08
377.686	356.39
378.066	356.61
378.447	327.92
378.827	337.18
379.208	368.37
379.588	353
379.968	383.05
380.349	355.49
380.729	362.72
381.109	354.58
381.489	371.3
381.87	352.1
382.25	369.27
382.63	360.91
383.01	365.43
383.39	358.87
383.77	370.63
384.15	384.41
384.53	384.64
384.91	386.9
385.29	398.87
385.67	374.92
386.049	411.53
386.429	366.11
386.809	377.41
387.189	390.51
387.568	394.81
387.948	390.06
388.328	400.46
388.707	402.26
389.087	408.59
389.466	388.03
389.846	401.59
390.225	414.47
390.605	426.22
390.984	411.08
391.363	413.11
391.743	424.64
392.122	438.42
392.501	421.47
392.881	444.52
393.26	450.4
393.639	447.23
394.018	444.75
394.397	461.47
394.776	454.69
395.155	459.21
395.534	476.39
395.913	442.49
396.292	449.04
396.671	464.41
397.05	460.57
397.429	505.54
397.808	493.56
398.186	500.79
398.565	504.63
398.944	492.2
399.323	498.31
399.701	510.51
400.08	531.98
400.458	517.06
400.837	501.24
401.215	503.73
401.594	545.99
401.972	523.62
402.351	525.65
402.729	526.1
403.107	544.63
403.486	550.73
403.864	566.55
404.242	593.67
404.62	586.67
404.999	597.06
405.377	581.02
405.755	585.99
406.133	591.64
406.511	613.11
406.889	628.92
407.267	632.54
407.645	654.91
408.023	639.77
408.401	637.06
408.779	646.32
409.156	661.24
409.534	674.35
409.912	680.45
410.29	685.19
410.667	697.85
411.045	680.9
411.422	702.82
411.8	716.83
412.178	734.46
412.555	726.77
412.933	751.63
413.31	738.98
413.687	746.89
414.065	767
414.442	774.46
414.819	754.57
415.197	783.5
415.574	809.03
415.951	802.7
416.328	812.42
416.705	811.97
417.082	838.18
417.46	806.77
417.837	832.53
418.214	846.55
418.591	846.32
418.967	839.54
419.344	855.36
419.721	868.47
420.098	888.8
420.475	886.77
420.852	900.56
421.228	894.68
421.605	922.25
421.982	916.6
422.358	921.35
422.735	929.71
423.111	982.36
423.488	987.56
423.864	973.1
424.241	997.05
424.617	999.54
424.994	996.6
425.37	1001.12
425.746	1025.98
426.123	1037.27
426.499	1062.59
426.875	1072.98
427.251	1033.66
427.627	1103.71
428.003	1102.58
428.379	1103.04
428.756	1116.37
429.132	1124.28
429.507	1148.23
429.883	1181
430.259	1181.45
430.635	1192.07
431.011	1188.68
431.387	1225.29
431.763	1246.54
432.138	1244.5
432.514	1267.33
432.89	1283.14
433.265	1278.85
433.641	1304.16
434.016	1328.34
434.392	1360.2
434.767	1371.5
435.143	1375.57
435.518	1382.35
435.894	1419.86
436.269	1430.03
436.644	1463.03
437.02	1476.36
437.395	1495.34
437.77	1484.95
438.145	1512.52
438.52	1519.97
438.895	1528.79
439.271	1554.1
439.646	1593.87
440.021	1591.84
440.395	1582.8
440.77	1598.39
441.145	1623.25
441.52	1653.98
441.895	1625.73
442.27	1703.25
442.645	1658.5
443.019	1671.61
443.394	1680.87
443.769	1741.66
444.143	1743.02
444.518	1727.88
444.892	1734.66
445.267	1763.36
445.641	1773.53
446.016	1818.27
446.39	1780.08
446.764	1806.52
447.139	1817.59
447.513	1838.38
447.887	1853.52
448.262	1858.5
448.636	1859.4
449.01	1889
449.384	1912.73
449.758	1936.23
450.132	1942.11
450.506	1934.2
450.88	1990.7
451.254	1991.83
451.628	2011.26
452.002	2044.03
452.376	2058.49
452.75	2049.45
453.123	2078.6
453.497	2093.74
453.871	2111.37
454.244	2162.9
454.618	2198.15
454.992	2176.91
455.365	2209.22
455.739	2240.63
456.112	2267.75
456.486	2321.31
456.859	2297.81
457.232	2342.55
457.606	2349.56
457.979	2393.85
458.352	2412.15
458.725	2458.71
459.099	2474.07
459.472	2505.48
459.845	2495.32
460.218	2548.42
460.591	2578.93
460.964	2561.75
461.337	2607.86
461.71	2686.72
462.083	2744.12
462.456	2731.69
462.829	2721.52
463.201	2772.6
463.574	2776.44
463.947	2780.73
464.32	2909.54
464.692	2881.97
465.065	2907.06
465.438	2954.96
465.81	2954.96
466.183	2976.21
466.555	3060.5
466.928	3064.34
467.3	3059.37
467.672	3089.2
468.045	3188.86
468.417	3184.11
468.789	3196.77
469.161	3251.68
469.534	3270.44
469.906	3337.78
470.278	3334.62
470.65	3438.79
471.022	3504.33
471.394	3499.36
471.766	3543.65
472.138	3583.87
472.51	3666.58
472.882	3657.77
473.253	3698.9
473.625	3781.16
473.997	3795.17
474.369	3857.77
474.74	3889.18
475.112	3957.65
475.484	3987.93
475.855	4054.14
476.227	4091.66
476.598	4201.26
476.97	4197.64
477.341	4260.02
477.713	4325.55
478.084	4332.78
478.455	4453.23
478.827	4512.44
479.198	4595.15
479.569	4516.05
479.94	4665.43
480.311	4736.39
480.682	4800.11
481.053	4846.44
481.424	4939.55
481.795	4976.61
482.166	5051.86
482.537	5103.61
482.908	5158.97
483.279	5155.13
483.65	5290.95
484.021	5393.09
484.391	5395.13
484.762	5396.71
485.133	5451.62
485.503	5524.39
485.874	5626.76
486.244	5707.21
486.615	5693.42
486.985	5762.57
487.356	5862.91
487.726	5817.04
488.097	5967.77
488.467	5966.86
488.837	6093.87
489.207	6126.41
489.578	6212.28
489.948	6211.83
490.318	6304.48
490.688	6302.45
491.058	6378.15
491.428	6444.59
491.798	6435.55
492.168	6593.51
492.538	6622.44
492.908	6663.12
493.278	6633.96
493.648	6673.06
494.017	6708.76
494.387	6776.79
494.757	6803.68
495.126	6854.52
495.496	6817.91
495.866	6884.35
496.235	6928.42
496.605	6910.79
496.974	7006.38
497.344	7002.09
497.713	7026.5
498.082	7083.9
498.452	7136.78
498.821	7117.57
499.19	7091.13
499.559	7136.32
499.928	7201.63
500.298	7294.74
500.667	7250.9
501.036	7274.4
501.405	7307.39
501.774	7321.63
502.143	7362.31
502.512	7302.65
502.88	7396.66
503.249	7396.88
503.618	7360.5
503.987	7444.34
504.356	7512.58
504.724	7487.73
505.093	7542.64
505.462	7517.78
505.83	7542.64
506.199	7612.92
506.567	7651.56
506.936	7698.34
507.304	7730.66
507.672	7731.56
508.041	7717.55
508.409	7809.07
508.777	7821.28
509.145	7878.45
509.514	7918.22
509.882	7889.07
510.25	7916.19
510.618	7952.35
510.986	7956.19
511.354	8037.77
511.722	8118.44
512.09	8068.95
512.458	8077.32
512.826	8167.93
513.193	8132.23
513.561	8162.06
513.929	8152.12
514.297	8260.14
514.664	8269.4
515.032	8262.85
515.4	8356.4
515.767	8360.25
516.135	8331.09
516.502	8289.06
516.869	8498.32
517.237	8440.7
517.604	8450.87
517.972	8525.21
518.339	8505.1
518.706	8574.25
519.073	8636.62
519.44	8541.03
519.808	8667.36
520.175	8640.24
520.542	8770.86
520.909	8700.35
521.276	8705.1
521.643	8835.49
522.009	8843.85
522.376	8834.81
522.743	8894.7
523.11	8984.41
523.477	9042.26
523.843	9053.11
524.21	9106.89
524.577	9156.61
524.943	9143.28
525.31	9208.36
525.676	9322.48
526.043	9325.87
526.409	9309.15
526.776	9456.26
527.142	9449.26
527.508	9484.51
527.874	9528.13
528.241	9601.8
528.607	9478.63
528.973	9691.28
529.339	9625.98
529.705	9676.37
530.071	9839.76
530.437	9773.09
530.803	9771.28
531.169	9830.49
531.535	9860.32
531.901	9935.57
532.267	9980.09
532.632	9998.62
532.998	10046.3
533.364	10093.76
533.73	10134.21
534.095	10142.8
534.461	10172.18
534.826	10241.33
535.192	10267.09
535.557	10247.2
535.923	10343.92
536.288	10338.27
536.653	10382.79
537.019	10327.2
537.384	10425.95
537.749	10501.88
538.114	10453.52
538.479	10527.19
538.845	10644.93
539.21	10546.63
539.575	10618.72
539.94	10550.25
540.305	10609.68
540.67	10643.58
541.034	10710.47
541.399	10792.95
541.764	10738.49
542.129	10757.7
542.494	10760.86
542.858	10835.66
543.223	10870.46
543.587	10910.24
543.952	10941.42
544.316	10909.11
544.681	10932.83
545.045	10958.6
545.41	11077.01
545.774	11088.99
546.138	11018.03
546.503	11166.95
546.867	11117.46
547.231	11124.47
547.595	11153.62
547.959	11241.3
548.324	11229.1
548.688	11200.85
549.052	11313.16
549.416	11245.37
549.779	11297.12
550.143	11315.87
550.507	11428.19
550.871	11326.95
551.235	11404.01
551.599	11550.44
551.962	11529.43
552.326	11485.36
552.689	11589.09
553.053	11502.76
553.417	11541.86
553.78	11694.17
554.143	11705.92
554.507	11717.45
554.87	11779.82
555.234	11781.85
555.597	11768.29
555.96	11846.71
556.323	11836.09
556.686	11879.93
557.05	11893.71
557.413	11967.84
557.776	12023.43
558.139	12008.96
558.502	12027.27
558.865	12071.34
559.228	12177.55
559.59	12170.09
559.953	12234.95
560.316	12329.41
560.679	12362.63
561.041	12400.37
561.404	12456.41
561.767	12471.1
562.129	12479.69
562.492	12553.81
562.854	12461.16
563.217	12535.05
563.579	12617.54
563.941	12737.98
564.304	12721.71
564.666	12863.63
565.028	12924.19
565.39	12880.58
565.753	12949.73
566.115	12975.27
566.477	13077.18
566.839	13088.71
567.201	13115.83
567.563	13114.02
567.925	13267.69
568.287	13253.22
568.648	13279.89
569.01	13354.92
569.372	13439.89
569.734	13419.1
570.095	13420.68
570.457	13526.89
570.819	13598.98
571.18	13476.72
571.542	13633.33
571.903	13690.95
572.265	13732.31
572.626	13836.03
572.987	13813.66
573.349	13825.19
573.71	13888.91
574.071	13896.37
574.432	13915.81
574.794	14081
575.155	14066.76
575.516	13967.56
575.877	14083.49
576.238	14110.15
576.599	14155.35
576.96	14257.94
577.32	14197.38
577.681	14284.61
578.042	14272.63
578.403	14310.15
578.763	14318.06
579.124	14337.94
579.485	14460.65
579.845	14482.8
580.206	14542.91
580.566	14473.31
580.927	14513.53
581.287	14597.14
581.648	14483.48
582.008	14563.92
582.368	14536.13
582.728	14629.46
583.089	14675.11
583.449	14677.14
583.809	14643.7
584.169	14683.24
584.529	14655
584.889	14758.27
585.249	14647.99
585.609	14610.03
585.969	14826.29
586.329	14706.07
586.688	14751.49
587.048	14756.24
587.408	14661.55
587.768	14707.42
588.127	14774.31
588.487	14782.22
588.846	14889.34
589.206	14789.46
589.565	14779.74
589.925	14857.02
590.284	14881.66
590.643	14875.33
591.003	14919.62
591.362	14972.05
591.721	14894.09
592.08	14937.7
592.44	14978.83
592.799	14929.34
593.158	14988.32
593.517	14991.71
593.876	14891.37
594.235	14998.04
594.593	14985.61
594.952	15024.03
595.311	15007.08
595.67	15034.65
596.029	15053.86
596.387	15049.79
596.746	15116.45
597.104	14958.72
597.463	15099.28
597.822	15131.82
598.18	15135.66
598.538	15031.94
598.897	15189.67
599.255	14972.95
599.613	15228.99
599.972	15157.81
600.33	15188.54
600.688	15182.67
601.046	15177.24
601.404	15301.76
601.762	15195.32
602.12	15256.56
602.478	15357.35
602.836	15257.01
603.194	15226.05
603.552	15291.36
603.91	15207.98
604.268	15405.71
604.625	15241.87
604.983	15286.84
605.341	15300.85
605.698	15357.12
606.056	15423.34
606.413	15331.36
606.771	15410.46
607.128	15499.04
607.485	15385.6
607.843	15407.07
608.2	15542.43
608.557	15526.39
608.914	15475.99
609.272	15540.4
609.629	15569.55
609.986	15568.42
610.343	15513.5
610.7	15580.17
611.057	15652.94
611.414	15564.12
611.771	15618.59
612.127	15632.15
612.484	15808.41
612.841	15755.08
613.198	15623.33
613.554	15711.01
613.911	15783.78
614.267	15743.33
614.624	15775.64
614.98	15760.05
615.337	15941.52
615.693	15828.75
616.05	15878.24
616.406	15918.24
616.762	15958.01
617.118	15954.85
617.475	15894.74
617.831	15929.54
618.187	15957.56
618.543	15944.45
618.899	16068.97
619.255	16075.3
619.611	16105.13
619.967	16145.35
620.323	16122.08
620.678	16049.99
621.034	16068.74
621.39	16128.4
621.746	16110.32
622.101	16190.32
622.457	16158.46
622.812	16127.05
623.168	16322.75
623.523	16213.37
623.879	16327.72
624.234	16242.75
624.589	16345.57
624.945	16201.17
625.3	16276.42
625.655	16285.01
626.01	16310.32
626.365	16325.69
626.72	16366.14
627.075	16414.95
627.43	16284.78
627.785	16332.47
628.14	16356.19
628.495	16382.18
628.85	16335.86
629.205	16357.32
629.559	16463.31
629.914	16348.28
630.269	16410.43
630.623	16462.63
630.978	16432.8
631.332	16500.82
631.687	16494.72
632.041	16520.03
632.396	16527.49
632.75	16453.14
633.104	16432.12
633.459	16421.5
633.813	16511.67
634.167	16471.22
634.521	16468.73
634.875	16488.17
635.229	16489.07
635.583	16608.39
635.937	16550.77
636.291	16489.07
636.645	16561.39
636.999	16428.51
637.352	16565.91
637.706	16547.38
638.06	16637.32
638.413	16561.39
638.767	16435.97
639.121	16583.76
639.474	16514.61
639.828	16500.6
640.181	16594.15
640.534	16639.8
640.888	16560.48
641.241	16472.8
641.594	16621.95
641.947	16671.67
642.301	16586.24
642.654	16737.88
643.007	16700.59
643.36	16656.53
643.713	16725
644.066	16767.71
644.419	16604.55
644.771	16531.56
645.124	16347.38
645.477	16408.85
645.83	16292.24
646.182	16294.95
646.535	16237.78
646.888	16393.71
647.24	16249.98
647.593	16405.23
647.945	16409.3
648.298	16314.39
648.65	16346.7
649.002	16263.54
649.355	16408.17
649.707	16396.65
650.059	16415.63
650.411	16599.8
650.763	16668.28
651.115	16932.9
651.467	16835.73
651.819	17000.25
652.171	16853.13
652.523	16869.4
652.875	16855.39
653.227	16867.14
653.578	16897.2
653.93	16945.78
654.282	16889.06
654.633	16836.63
654.985	16933.81
655.337	16958.66
655.688	17002.96
656.039	17060.36
656.391	16918.44
656.742	16889.51
657.094	16990.75
657.445	17144.42
657.796	17070.75
658.147	17035.27
658.498	17028.94
658.849	17090.19
659.2	17089.06
659.551	17049.96
659.902	17042.73
660.253	17076.18
660.604	17125.44
660.955	17070.07
661.306	17072.56
661.656	17085.44
662.007	17069.85
662.358	17009.06
662.708	17116.85
663.059	17134.25
663.409	17000.47
663.76	17148.26
664.11	17109.85
664.461	17118.43
664.811	17111.2
665.161	17061.03
665.511	17136.06
665.862	17202.27
666.212	17131.32
666.562	17078.21
666.912	17205.66
667.262	16954.14
667.612	17019.91
667.962	17203.63
668.312	17091.77
668.662	17103.29
669.011	17052.9
669.361	17021.04
669.711	16969.06
670.06	16961.83
670.41	16971.77
670.76	16884.99
671.109	16967.93
671.459	16842.51
671.808	16852.23
672.157	16879.8
672.507	16827.82
672.856	16803.87
673.205	16784.43
673.554	16800.48
673.904	16781.04
674.253	16793.47
674.602	16664.89
674.951	16527.72
675.3	16428.73
675.649	16703.76
675.998	16608.84
676.346	16566.36
676.695	16621.95
677.044	16455.17
677.393	16547.15
677.741	16610.2
678.09	16473.93
678.438	16443.2
678.787	16498.11
679.135	16341.51
679.484	16308.74
679.832	16326.14
680.181	16329.53
680.529	16308.51
680.877	16220.38
681.225	16246.37
681.573	16334.5
681.922	16127.73
682.27	16155.3
682.618	16126.6
682.966	16112.36
683.314	16116.43
683.661	15930.89
684.009	15967.96
684.357	15903.55
684.705	15805.47
685.053	15841.41
685.4	15833.5
685.748	15879.82
686.095	15768.41
686.443	15687.96
686.79	15714.63
687.138	15807.96
687.485	15864
687.832	15700.84
688.18	15747.85
688.527	15599.38
688.874	15601.64
689.221	15541.75
689.568	15511.24
689.915	15556.67
690.262	15537.91
690.609	15487.74
690.956	15513.96
691.303	15442.55
691.65	15338.82
691.997	15367.07
692.344	15361.87
692.69	15236.45
693.037	15300.18
693.383	15151.71
693.73	15274.19
694.077	15198.48
694.423	15169.78
694.769	15168.88
695.116	15074.87
695.462	15140.41
695.808	14996.91
696.155	15131.82
696.501	14947.42
696.847	15018.6
697.193	14961.65
697.539	15046.4
697.885	14899.06
698.231	14887.08
698.577	14838.04
698.923	14908.77
699.269	14780.64
699.614	14688.67
699.96	14757.59
700.306	14788.78
700.651	14680.98
700.997	14717.59
701.342	14650.02
701.688	14737.48
702.033	14554.89
702.379	14616.8
702.724	14560.99
703.069	14649.35
703.415	14508.11
703.76	14550.37
704.105	14533.64
704.45	14533.19
704.795	14391.95
705.14	14351.95
705.485	14384.27
705.83	14314.44
706.175	14435.11
706.52	14383.82
706.865	14349.02
707.209	14310.6
707.554	14296.59
707.899	14374.1
708.243	14289.13
708.588	14165.07
708.932	14147.66
709.277	14182.01
709.621	14167.1
709.966	14192.64
710.31	14254.1
710.654	14070.83
710.998	14186.76
711.342	14116.25
711.687	14117.84
712.031	14100.89
712.375	14113.54
712.719	14076.25
713.063	14028.57
713.407	14086.42
713.75	14036.03
714.094	14066.76
714.438	14062.92
714.782	14053.88
715.125	13997.61
715.469	14045.29
715.812	14021.34
716.156	13988.12
716.499	13916.71
716.843	13970.49
717.186	13919.65
717.53	13954.9
717.873	13962.13
718.216	13907.67
718.559	13822.7
718.902	13830.38
719.246	13852.53
719.589	13822.7
719.932	13861.12
720.275	13888.69
720.617	13801.91
720.96	13783.83
721.303	13834
721.646	13825.19
721.989	13699.31
722.331	13840.55
722.674	13711.52
723.016	13710.61
723.359	13798.75
723.701	13785.19
724.044	13652.54
724.386	13574.35
724.729	13734.34
725.071	13666.1
725.413	13747
725.755	13684.63
726.097	13621.8
726.439	13533.22
726.782	13705.64
727.124	13690.28
727.465	13679.43
727.807	13655.47
728.149	13623.84
728.491	13560.56
728.833	13679.43
729.175	13618.64
729.516	13613.44
729.858	13632.2
730.199	13640.33
730.541	13621.12
730.882	13580.67
731.224	13609.83
731.565	13561.69
731.906	13622.71
732.248	13627.23
732.589	13641.46
732.93	13605.31
733.271	13576.38
733.612	13667.68
733.953	13670.84
734.294	13561.24
734.635	13613.22
734.976	13630.39
735.317	13666.32
735.658	13669.94
735.999	13677.17
736.339	13674.46
736.68	13689.6
737.021	13587.23
737.361	13666.55
737.702	13768.47
738.042	13638.3
738.383	13733.66
738.723	13759.65
739.063	13734.34
739.404	13787.45
739.744	13795.81
740.084	13751.06
740.424	13815.24
740.764	13816.6
741.104	13916.26
741.444	13875.13
741.784	13878.07
742.124	13955.35
742.464	13949.48
742.804	13906.54
743.143	13940.89
743.483	13940.89
743.823	13988.57
744.162	13963.04
744.502	14055.92
744.841	14012.3
745.181	14093.65
745.52	14070.38
745.86	14160.55
746.199	14172.3
746.538	14159.64
746.877	14205.06
747.216	14166.2
747.556	14234.89
747.895	14289.36
748.234	14306.76
748.573	14303.82
748.911	14331.39
749.25	14317.6
749.589	14313.76
749.928	14341.33
750.267	14487.09
750.605	14371.39
750.944	14424.27
751.283	14527.99
751.621	14520.99
751.96	14459.75
752.298	14463.81
752.636	14581.1
752.975	14468.56
753.313	14521.44
753.651	14598.27
753.989	14504.04
754.327	14637.82
754.666	14555.56
755.004	14597.14
755.342	14679.4
755.679	14772.73
756.017	14634.66
756.355	14723.47
756.693	14668.33
757.031	14687.76
757.368	14734.32
757.706	14795.78
758.044	14727.31
758.381	14790.59
758.719	14775.67
759.056	14822.45
759.394	14863.35
759.731	14845.05
760.068	14843.24
760.405	14838.04
760.743	14893.18
761.08	14939.51
761.417	14907.64
761.754	14911.71
762.091	14962.78
762.428	14977.02
762.765	14852.73
763.102	15026.06
763.438	14903.8
763.775	14954.65
764.112	14958.49
764.449	14917.59
764.785	14988.32
765.122	14917.81
765.458	14887.31
765.795	14960.07
766.131	14965.04
766.467	15000.75
766.804	14946.29
767.14	14895.44
767.476	14915.55
767.812	14975.21
768.148	14986.29
768.485	14795.33
768.821	14880.3
769.157	14858.61
769.492	14849.34
769.828	14951.03
770.164	14791.49
770.5	14804.82
770.836	14841.43
771.171	14840.3
771.507	14855.67
771.842	14740.42
772.178	14814.09
772.513	14835.1
772.849	14829.68
773.184	14843.47
773.519	14772.06
773.855	14764.15
774.19	14769.34
774.525	14747.42
774.86	14751.26
775.195	14855.44
775.53	14725.28
775.865	14703.13
776.2	14601.89
776.535	14655.9
776.87	14609.8
777.205	14631.04
777.539	14537.94
777.874	14675.79
778.209	14579.97
778.543	14629.01
778.878	14541.1
779.212	14521.67
779.547	14492.51
779.881	14536.58
780.215	14454.78
780.55	14501.1
780.884	14440.31
781.218	14500.65
781.552	14484.38
781.886	14472.85
782.22	14363.48
782.554	14458.39
782.888	14314.89
783.222	14204.39
783.556	14323.93
783.889	14286.19
784.223	14181.34
784.557	14259.07
784.89	14196.03
785.224	14163.94
785.557	14158.51
785.891	14143.37
786.224	14160.77
786.558	14151.73
786.891	14066.31
787.224	14040.55
787.557	13975.92
787.891	13984.05
788.224	14018.85
788.557	14049.81
788.89	13978.63
789.223	13973.21
789.556	13939.53
789.888	13980.66
790.221	13859.08
790.554	13760.78
790.887	13820.67
791.219	13771.4
791.552	13856.15
791.884	13784.51
792.217	13764.62
792.549	13775.47
792.882	13699.99
793.214	13627.23
793.546	13745.87
793.879	13673.55
794.211	13521.01
794.543	13640.56
794.875	13666.77
795.207	13592.2
795.539	13577.74
795.871	13635.81
796.203	13516.27
796.535	13463.84
796.867	13420.9
797.198	13411.19
797.53	13497.51
797.862	13392.66
798.193	13445.76
798.525	13316.95
798.856	13348.59
799.188	13285.31
799.519	13247.35
799.85	13178.88
800.182	13228.82
800.513	13282.6
800.844	13165.32
801.175	13175.71
801.506	13205.77
801.837	13193.11
802.168	13100.46
802.499	13118.77
802.83	13074.7
803.161	13103.85
803.491	13045.32
803.822	12960.8
804.153	12964.64
804.483	12994.93
804.814	12862.5
805.145	12856.17
805.475	12861.14
805.805	12810.98
806.136	12875.16
806.466	12866.79
806.796	12807.14
807.126	12761.71
807.457	12694.14
807.787	12689.62
808.117	12656.63
808.447	12730.98
808.777	12767.81
809.107	12724.65
809.436	12652.34
809.766	12684.43
810.096	12559.91
810.426	12561.04
810.755	12530.31
811.085	12563.53
811.414	12526.92
811.744	12480.14
812.073	12438.11
812.403	12436.52
812.732	12403.53
813.061	12429.74
813.39	12373.7
813.719	12374.83
814.049	12347.71
814.378	12348.39
814.707	12336.64
815.036	12319.92
815.365	12289.86
815.693	12124.44
816.022	12188.85
816.351	12151.56
816.68	12083.54
817.008	12197.66
817.337	11985.69
817.665	12038.34
817.994	12126.02
818.322	12028.85
818.651	11993.82
818.979	11964.22
819.307	12013.71
819.636	11881.96
819.964	11933.71
820.292	11931
820.62	11911.79
820.948	11911.57
821.276	11966.25
821.604	11959.25
821.932	11946.82
822.259	11887.61
822.587	11946.37
822.915	11922.41
823.243	11931.23
823.57	11831.79
823.898	12011.45
824.225	11898.46
824.553	11952.02
824.88	11955.63
825.207	11949.53
825.535	11904.79
825.862	11961.73
826.189	12002.64
826.516	11990.66
826.843	12024.1
827.17	11941.4
827.497	12048.74
827.824	11975.97
828.151	11997.66
828.478	12047.38
828.805	12092.58
829.131	11988.63
829.458	12025.69
829.785	11971.68
830.111	11948.4
830.438	12113.14
830.764	11990.66
831.09	12046.03
831.417	12022.75
831.743	12028.85
832.069	12030.88
832.395	12020.72
832.722	12031.34
833.048	11918.8
833.374	11988.85
833.7	11939.81
834.026	11964.67
834.351	11981.17
834.677	11893.94
835.003	11976.2
835.329	12006.93
835.654	11935.29
835.98	11848.97
836.306	11963.32
836.631	11909.53
836.956	11947.72
837.282	11901.85
837.607	11876.31
837.932	11828.18
838.258	11823.21
838.583	11839.02
838.908	11692.81
839.233	11772.36
839.558	11712.25
839.883	11697.33
840.208	11642.42
840.533	11711.34
840.858	11705.02
841.182	11752.02
841.507	11678.58
841.832	11620.95
842.156	11693.27
842.481	11616.21
842.805	11600.16
843.13	11616.88
843.454	11591.12
843.778	11502.76
844.103	11566.26
844.427	11467.51
844.751	11474.97
845.075	11420.73
845.399	11419.15
845.723	11331.24
846.047	11419.83
846.371	11269.77
846.695	11298.25
847.019	11193.17
847.343	11251.7
847.666	11149.33
847.99	11070.23
848.313	11054.19
848.637	11034.3
848.96	10997.01
849.284	11024.58
849.607	10959.5
849.931	10868.65
850.254	10757.02
850.577	10741.88
850.9	10743.23
851.223	10707.76
851.546	10574.2
851.869	10543.92
852.192	10662.56
852.515	10512.05
852.838	10503.01
853.161	10481.77
853.483	10392.51
853.806	10444.26
854.129	10404.26
854.451	10367.43
854.774	10290.37
855.096	10297.37
855.419	10174.44
855.741	10265.51
856.063	10184.38
856.385	10136.7
856.708	10086.53
857.03	10066.42
857.352	10042.46
857.674	10059.41
857.996	9944.16
858.318	9940.32
858.64	9947.1
858.961	9908.68
859.283	9871.17
859.605	9818.51
859.926	9922.92
860.248	9855.8
860.57	9846.08
860.891	9853.54
861.212	9783.71
861.534	9718.18
861.855	9791.4
862.176	9752.53
862.498	9787.55
862.819	9792.53
863.14	9696.26
863.461	9712.75
863.782	9639.31
864.103	9669.14
864.424	9608.8
864.745	9667.78
865.065	9585.3
865.386	9490.16
865.707	9584.85
866.027	9622.81
866.348	9546.66
866.668	9544.62
866.989	9432.99
867.309	9383.95
867.63	9439.54
867.95	9487.22
868.27	9412.65
868.59	9402.03
868.91	9422.14
869.23	9391.18
869.55	9375.13
869.87	9367
870.19	9298.75
870.51	9326.77
870.83	9328.36
871.15	9288.58
871.469	9307.57
871.789	9294.01
872.109	9310.96
872.428	9240
872.748	9210.62
873.067	9197.74
873.386	9204.07
873.706	9201.81
874.025	9090.17
874.344	9142.6
874.663	9188.93
874.982	9185.99
875.301	9114.8
875.62	9070.74
875.939	9094.24
876.258	9066.89
876.577	9042.04
876.896	9037.29
877.214	9017.18
877.533	9062.15
877.852	9022.6
878.17	9009.95
878.489	9013.11
878.807	8989.83
879.125	8933.56
879.444	8884.3
879.762	8927.24
880.08	8897.86
880.398	8890.18
880.716	8887.92
881.034	8873.68
881.352	8847.01
881.67	8815.6
881.988	8863.74
882.306	8732.89
882.624	8722.5
882.941	8721.82
883.259	8743.51
883.577	8716.17
883.894	8742.61
884.212	8698.77
884.529	8636.62
884.846	8655.15
885.164	8694.25
885.481	8574.25
885.798	8611.31
886.115	8538.32
886.432	8564.53
886.75	8505.55
887.067	8568.6
887.383	8508.04
887.7	8486.34
888.017	8430.07
888.334	8502.39
888.651	8453.8
888.967	8462.84
889.284	8293.58
889.6	8313.69
889.917	8311.43
890.233	8302.62
890.55	8212.91
890.866	8321.83
891.182	8235.05
891.498	8267.14
891.815	8245.67
892.131	8165.45
892.447	8159.57
892.763	8151.44
893.079	8036.64
893.395	8131.78
893.71	8031.22
894.026	8059.69
894.342	7968.39
894.657	7948.73
894.973	7912.57
895.289	7918.45
895.604	7921.84
895.92	7882.74
896.235	7812.01
896.55	7896.08
896.865	7788.06
897.181	7768.17
897.496	7797.55
897.811	7753.26
898.126	7686.59
898.441	7688.63
898.756	7649.08
899.071	7632.13
899.386	7587.39
899.7	7594.84
900.015	7539.02
900.33	7518.46
900.644	7448.63
900.959	7433.72
901.273	7438.46
901.588	7385.13
901.902	7341.74
902.216	7327.73
902.531	7350.33
902.845	7271.01
903.159	7237.34
903.473	7292.25
903.787	7208.41
904.101	7176.1
904.415	7137.68
904.729	7103.33
905.042	7089.55
905.356	7112.37
905.67	7037.12
905.984	7045.7
906.297	7060.39
906.611	7014.74
906.924	6956.44
907.237	6964.8
907.551	6948.98
907.864	6966.38
908.177	6871.47
908.491	6842.32
908.804	6757.8
909.117	6786.5
909.43	6744.02
909.743	6701.76
910.056	6725.49
910.368	6695.43
910.681	6617.24
910.994	6613.63
911.307	6574.98
911.619	6541.31
911.932	6544.02
912.244	6525.72
912.557	6470.35
912.869	6466.96
913.181	6472.39
913.494	6441.88
913.806	6427.87
914.118	6371.37
914.43	6337.47
914.742	6339.96
915.054	6311.71
915.366	6236.01
915.678	6210.02
915.99	6204.37
916.302	6215.44
916.613	6155.11
916.925	6135.22
917.236	6080.76
917.548	6115.33
917.859	6039.63
918.171	6029.69
918.482	6007.31
918.794	5966.64
919.105	5967.99
919.416	5945.39
919.727	5903.59
920.038	5923.7
920.349	5812.06
920.66	5848.45
920.971	5867.88
921.282	5795.34
921.593	5801.44
921.903	5704.95
922.214	5729.58
922.525	5718.73
922.835	5677.6
923.146	5638.74
923.456	5624.72
923.767	5563.03
924.077	5572.07
924.387	5512.86
924.697	5551.51
925.008	5490.72
925.318	5510.15
925.628	5466.09
925.938	5462.47
926.248	5400.78
926.558	5358.97
926.867	5358.74
927.177	5350.61
927.487	5299.99
927.796	5294.34
928.106	5266.99
928.416	5310.38
928.725	5227.45
929.034	5229.26
929.344	5240.33
929.653	5184.51
929.962	5147.22
930.271	5116.49
930.581	5085.08
930.89	5082.37
931.199	5067.45
931.508	5020
931.817	5008.02
932.125	5035.14
932.434	5003.05
932.743	4961.24
933.051	4951.07
933.36	4920.34
933.669	4913.33
933.977	4861.13
934.286	4870.39
934.594	4829.27
934.902	4801.02
935.21	4778.87
935.519	4762.6
935.827	4759.21
936.135	4721.02
936.443	4708.36
936.751	4686.44
937.059	4678.54
937.367	4637.41
937.674	4648.48
937.982	4634.92
938.29	4592.66
938.597	4605.54
938.905	4563.96
939.213	4503.4
939.52	4509.27
939.827	4548.82
940.135	4515.83
940.442	4492.78
940.749	4447.13
941.056	4454.59
941.363	4376.62
941.67	4357.64
941.977	4350.18
942.284	4328.94
942.591	4350.18
942.898	4307.92
943.205	4307.47
943.511	4320.13
943.818	4293.91
944.125	4269.51
944.431	4274.48
944.738	4199.23
945.044	4220.24
945.35	4165.55
945.657	4164.2
945.963	4159.9
946.269	4121.26
946.575	4117.87
946.881	4108.38
947.187	4016.63
947.493	4088.27
947.799	4063.18
948.105	4029.96
948.41	3979.8
948.716	3987.93
949.022	3937.99
949.327	3919.01
949.633	3929.85
949.938	3907.26
950.244	3914.94
950.549	3882.62
950.854	3904.32
951.16	3843.75
951.465	3805.11
951.77	3785.45
952.075	3776.86
952.38	3797.88
952.685	3768.95
952.99	3736.19
953.294	3754.94
953.599	3746.58
953.904	3712.91
954.209	3683.08
954.513	3640.82
954.818	3640.6
955.122	3637.66
955.426	3651.44
955.731	3624.78
956.035	3652.8
956.339	3613.03
956.643	3540.94
956.948	3543.65
957.252	3528.96
957.556	3555.63
957.86	3520.37
958.163	3476.08
958.467	3501.17
958.771	3489.87
959.075	3447.83
959.378	3474.73
959.682	3435.18
959.985	3395.86
960.289	3385.69
960.592	3337.33
960.896	3349.76
961.199	3377.78
961.502	3320.83
961.805	3346.82
962.108	3268.63
962.411	3303.66
962.714	3274.5
963.017	3242.64
963.32	3291.23
963.623	3263.66
963.926	3201.51
964.228	3181.4
964.531	3187.27
964.833	3206.03
965.136	3117.67
965.438	3136.65
965.741	3123.1
966.043	3115.86
966.345	3106.15
966.648	3079.48
966.95	3077.22
967.252	3050.33
967.554	3078.13
967.856	3041.29
968.158	3043.55
968.46	3013.27
968.761	3025.02
969.063	3004.45
969.365	2980.95
969.666	2993.38
969.968	2954.51
970.269	2945.7
970.571	2894.18
970.872	2907.28
971.174	2894.63
971.475	2892.37
971.776	2850.79
972.077	2882.88
972.378	2826.15
972.679	2817.34
972.98	2855.08
973.281	2795.87
973.582	2820.28
973.883	2781.41
974.183	2784.35
974.484	2782.77
974.785	2750.45
975.085	2778.7
975.386	2725.59
975.686	2716.33
975.986	2723.11
976.287	2749.55
976.587	2701.41
976.887	2671.36
977.187	2718.59
977.487	2699.15
977.787	2642.88
978.087	2632.49
978.387	2616.22
978.687	2637.46
978.987	2565.82
979.286	2581.42
979.586	2561.75
979.885	2557.46
980.185	2557.69
980.484	2506.39
980.784	2537.8
981.083	2512.72
981.382	2519.27
981.682	2506.16
981.981	2505.26
982.28	2458.71
982.579	2481.53
982.878	2468.88
983.177	2424.13
983.475	2421.65
983.774	2451.93
984.073	2430.46
984.372	2426.84
984.67	2411.7
984.969	2389.1
985.267	2400.63
985.566	2353.85
985.864	2359.95
986.162	2343.91
986.461	2337.58
986.759	2335.32
987.057	2298.26
987.355	2324.02
987.653	2302.33
987.951	2301.42
988.249	2245.15
988.547	2223.23
988.844	2258.26
989.142	2264.36
989.44	2230.46
989.737	2233.18
990.035	2207.87
990.332	2205.15
990.63	2183.69
990.927	2206.51
991.224	2171.93
991.521	2156.79
991.819	2166.51
992.116	2169.67
992.413	2118.38
992.71	2120.18
993.006	2121.31
993.303	2126.51
993.6	2122.22
993.897	2058.94
994.193	2092.39
994.49	2071.6
994.787	2014.88
995.083	2023.24
995.379	2041.54
995.676	2034.31
995.972	2009.23
996.268	2015.33
996.565	2013.75
996.861	2011.03
997.157	1972.84
997.453	1954.09
997.749	1968.32
998.044	1938.49
998.34	1948.44
998.636	1925.61
998.932	1907.53
999.227	1895.56
999.523	1892.62
999.818	1862.79
1000.114	1866.18
1000.409	1872.73
1000.704	1885.16
1001	1858.27
1001.295	1862.56
1001.59	1799.51
1001.885	1825.5
1002.18	1795.9
1002.475	1795.45
1002.77	1806.75
1003.065	1796.58
1003.359	1788.22
1003.654	1804.49
1003.949	1786.86
1004.243	1770.36
1004.538	1714.55
1004.832	1737.37
1005.127	1726.52
1005.421	1689.01
1005.715	1691.04
1006.009	1699.63
1006.304	1680.2
1006.598	1669.8
1006.892	1667.54
1007.186	1689.46
1007.48	1655.11
1007.773	1669.57
1008.067	1639.75
1008.361	1624.83
1008.655	1621.67
1008.948	1614.66
1009.242	1579.18
1009.535	1608.56
1009.829	1597.49
1010.122	1602.01
1010.415	1544.38
1010.708	1547.09
1011.001	1528.34
1011.295	1549.35
1011.588	1546.41
1011.881	1515.91
1012.173	1530.37
1012.466	1488.79
1012.759	1494.66
1013.052	1509.35
1013.344	1476.36
1013.637	1485.17
1013.93	1458.05
1014.222	1451.73
1014.514	1442.01
1014.807	1433.87
1015.099	1418.06
1015.391	1421.45
1015.683	1416.7
1015.976	1404.05
1016.268	1416.25
1016.56	1387.55
1016.851	1380.99
1017.143	1359.07
1017.435	1370.15
1017.727	1351.62
1018.018	1332.41
1018.31	1331.5
1018.602	1335.35
1018.893	1305.74
1019.185	1288.79
1019.476	1288.12
1019.767	1316.14
1020.058	1300.54
1020.35	1286.76
1020.641	1265.97
1020.932	1279.53
1021.223	1246.99
1021.514	1276.82
1021.804	1223.94
1022.095	1234.11
1022.386	1225.52
1022.677	1218.51
1022.967	1226.2
1023.258	1183.49
1023.548	1184.16
1023.839	1194.11
1024.129	1171.28
1024.419	1147.33
1024.709	1157.95
1025	1142.81
1025.29	1147.33
1025.58	1136.71
1025.87	1135.8
1026.16	1127.44
1026.449	1157.72
1026.739	1122.47
1027.029	1100.32
1027.319	1115.47
1027.608	1094
1027.898	1084.96
1028.187	1096.26
1028.477	1087.44
1028.766	1077.05
1029.055	1054.22
1029.344	1070.27
1029.634	1046.99
1029.923	1051.96
1030.212	1015.35
1030.501	1014
1030.79	1035.47
1031.078	1032.98
1031.367	1034.34
1031.656	1013.55
1031.945	990.04
1032.233	955.47
1032.522	983.72
1032.81	1013.32
1033.099	1001.12
1033.387	974.23
1033.675	955.92
1033.963	965.19
1034.251	938.52
1034.54	927.9
1034.828	932.42
1035.116	916.15
1035.403	905.53
1035.691	909.59
1035.979	928.35
1036.267	919.54
1036.554	906.2
1036.842	940.33
1037.129	871.4
1037.417	860.33
1037.704	872.99
1037.992	878.18
1038.279	862.14
1038.566	873.21
1038.853	873.21
1039.14	873.21
