Data from blue_shiny_book_FLMS001491_00059.txt Node
Date: Wed Feb 08 15:27:14 GMT 2017
User: dcchb
Spectrometer: FLMS00149
Trigger mode: 0
Integration Time (sec): 2.000000E-2
Scans to average: 10
Electric dark correction enabled: true
Nonlinearity correction enabled: false
Boxcar width: 0
XAxis mode: Wavelengths
Number of Pixels in Spectrum: 2048
>>>>>Begin Spectral Data<<<<<
341.393	-16.62
341.776	-16.62
342.16	-16.62
342.543	-41.71
342.927	-46.68
343.31	-73.8
343.693	-74.48
344.077	-75.15
344.46	-62.95
344.843	-50.97
345.226	-49.84
345.61	-30.63
345.993	-35.61
346.376	2.36
346.759	4.62
347.142	35.13
347.525	60.21
347.908	60.66
348.291	62.7
348.674	103.82
349.057	123.94
349.44	141.34
349.823	156.25
350.206	186.99
350.588	215.23
350.971	224.73
351.354	258.85
351.737	265.63
352.119	243.26
352.502	290.03
352.884	295.91
353.267	309.47
353.65	313.54
354.032	325.97
354.414	323.93
354.797	312.41
355.179	352.41
355.562	354.44
355.944	345.63
356.326	356.93
356.709	370.48
357.091	353.08
357.473	374.55
357.855	346.08
358.238	372.74
358.62	370.71
359.002	373.87
359.384	374.33
359.766	366.87
360.148	383.82
360.53	385.4
360.912	370.48
361.294	368.68
361.676	367.55
362.057	351.5
362.439	352.18
362.821	372.29
363.203	347.21
363.584	379.3
363.966	349.92
364.348	359.41
364.729	359.64
365.111	353.99
365.493	339.98
365.874	369.13
366.256	359.64
366.637	368.45
367.019	354.89
367.4	361.67
367.781	353.08
368.163	381.11
368.544	372.74
368.925	363.48
369.306	381.78
369.688	363.48
370.069	349.92
370.45	366.42
370.831	348.11
371.212	342.24
371.593	360.32
371.974	365.51
372.355	381.11
372.736	377.26
373.117	377.94
373.498	358.73
373.879	394.89
374.26	384.04
374.641	398.73
375.021	332.97
375.402	366.64
375.783	379.75
376.163	416.13
376.544	409.81
376.925	404.61
377.305	406.64
377.686	412.74
378.066	408.22
378.447	390.37
378.827	405.29
379.208	411.16
379.588	406.64
379.968	416.81
380.349	415.91
380.729	440.99
381.109	422.23
381.489	430.37
381.87	435.79
382.25	449.58
382.63	458.39
383.01	436.25
383.39	448.67
383.77	451.61
384.15	469.92
384.53	454.55
384.91	461.1
385.29	471.72
385.67	454.55
386.049	493.65
386.429	489.35
386.809	485.28
387.189	509.46
387.568	488.67
387.948	527.77
388.328	519.41
388.707	515.79
389.087	521.89
389.466	512.4
389.846	525.96
390.225	530.25
390.605	538.84
390.984	547.66
391.363	533.19
391.743	553.53
392.122	546.3
392.501	576.81
392.881	577.48
393.26	563.47
393.639	572.97
394.018	610.93
394.397	598.73
394.776	593.3
395.155	609.12
395.534	624.04
395.913	626.07
396.292	622.68
396.671	618.16
397.05	624.04
397.429	637.6
397.808	669.46
398.186	663.58
398.565	647.31
398.944	669.46
399.323	704.49
399.701	680.76
400.08	716.92
400.458	734.32
400.837	732.73
401.215	720.76
401.594	737.48
401.972	700.65
402.351	725.73
402.729	753.75
403.107	758.72
403.486	777.71
403.864	764.15
404.242	778.84
404.62	775.45
404.999	796.24
405.377	810.47
405.755	815.22
406.133	835.33
406.511	818.61
406.889	825.84
407.267	877.14
407.645	871.49
408.023	906.97
408.401	917.81
408.779	905.61
409.156	957.14
409.534	912.62
409.912	940.87
410.29	982.45
410.667	977.93
411.045	1006.4
411.422	1024.7
411.8	1032.61
412.178	1061.54
412.555	1045.04
412.933	1062.44
413.31	1073.29
413.687	1087.3
414.065	1098.6
414.442	1105.61
414.819	1152.84
415.197	1151.71
415.574	1192.84
415.951	1196.68
416.328	1222.21
416.705	1203.01
417.082	1226.73
417.46	1253.63
417.837	1270.12
418.214	1292.49
418.591	1269.9
418.967	1280.07
419.344	1296.11
419.721	1320.29
420.098	1313.28
420.475	1347.18
420.852	1360.29
421.228	1414.52
421.605	1414.07
421.982	1444.58
422.358	1444.35
422.735	1476.22
423.111	1466.5
423.488	1481.19
423.864	1479.61
424.241	1494.52
424.617	1511.7
424.994	1550.79
425.37	1579.27
425.746	1594.63
426.123	1617.68
426.499	1640.73
426.875	1644.12
427.251	1673.05
427.627	1723.67
428.003	1729.32
428.379	1750.56
428.756	1743.1
429.132	1785.36
429.507	1824.91
429.883	1828.53
430.259	1859.49
430.635	1885.47
431.011	1947.62
431.387	1964.34
431.763	1980.61
432.138	1981.52
432.514	2073.04
432.89	2052.47
433.265	2103.55
433.641	2094.06
434.016	2136.54
434.392	2188.74
434.767	2259.25
435.143	2265.8
435.518	2259.47
435.894	2292.92
436.269	2361.62
436.644	2409.08
437.02	2392.58
437.395	2398.91
437.77	2420.83
438.145	2456.31
438.52	2518.22
438.895	2559.35
439.271	2559.58
439.646	2626.7
440.021	2618.34
440.395	2685.9
440.77	2666.24
441.145	2686.81
441.52	2770.42
441.895	2738.11
442.27	2800.25
442.645	2782.85
443.019	2817.2
443.394	2820.14
443.769	2846.13
444.143	2861.49
444.518	2929.06
444.892	2930.42
445.267	2970.42
445.641	3030.08
446.016	3057.42
446.39	3052
446.764	3055.16
447.139	3068.04
447.513	3099.23
447.887	3124.31
448.262	3110.53
448.636	3157.98
449.01	3199.56
449.384	3248.38
449.758	3228.26
450.132	3294.25
450.506	3359.78
450.88	3378.09
451.254	3409.95
451.628	3460.12
452.002	3522.49
452.376	3513
452.75	3528.37
453.123	3595.94
453.497	3635.48
453.871	3664.18
454.244	3727.68
454.618	3781.24
454.992	3826.89
455.365	3835.03
455.739	3952.54
456.112	4012.87
456.486	3990.73
456.859	4107.79
457.232	4153.66
457.606	4181.91
457.979	4193.43
458.352	4319.99
458.725	4365.18
459.099	4358.85
459.472	4505.97
459.845	4491.51
460.218	4597.94
460.591	4569.7
460.964	4619.86
461.337	4751.61
461.71	4813.31
462.083	4925.62
462.456	4944.6
462.829	4987.09
463.201	5043.81
463.574	5036.8
463.947	5157.7
464.32	5259.17
464.692	5280.41
465.065	5356.34
465.438	5447.19
465.81	5493.06
466.183	5571.93
466.555	5711.81
466.928	5764.02
467.3	5783.68
467.672	5932.6
468.045	6065.02
468.417	6064.8
468.789	6167.39
469.161	6210.78
469.534	6290.33
469.906	6483.77
470.278	6448.74
470.65	6543.88
471.022	6723.54
471.394	6842.4
471.766	6876.08
472.138	6977.99
472.51	7155.62
472.882	7218.67
473.253	7267.7
473.625	7427.47
473.997	7580.46
474.369	7570.75
474.74	7707.92
475.112	7855.26
475.484	7998.53
475.855	8112.88
476.227	8255.48
476.598	8407.79
476.97	8518.29
477.341	8739.76
477.713	8921.22
478.084	8897.27
478.455	9177.71
478.827	9318.95
479.198	9612.95
479.569	9643.46
479.94	9771.82
480.311	9924.13
480.682	10085.03
481.053	10369.77
481.424	10499.48
481.795	10697.67
482.166	10804.33
482.537	10921.85
482.908	11269.41
483.279	11416.97
483.65	11555.5
484.021	11802.95
484.391	11924.76
484.762	12049.05
485.133	12126.11
485.503	12310.28
485.874	12665.75
486.244	12693.55
486.615	13068.91
486.985	13131.73
487.356	13423.47
487.726	13460.54
488.097	13821.43
488.467	13868.21
488.837	14230.46
489.207	14281.53
489.578	14566.27
489.948	14704.35
490.318	14942.53
490.688	15067.73
491.058	15296.65
491.428	15541.39
491.798	15676.3
492.168	15959
492.538	15955.39
492.908	16078.55
493.278	16398.09
493.648	16490.74
494.017	16729.15
494.387	16838.07
494.757	17086.2
495.126	17312.41
495.496	17422.69
495.866	17585.17
496.235	17847.54
496.605	18001.21
496.974	18160.98
497.344	18261.99
497.713	18408.65
498.082	18502.21
498.452	18772.94
498.821	18836.67
499.19	18921.18
499.559	18992.37
499.928	19151.69
500.298	19330.66
500.667	19494.05
501.036	19447.5
501.405	19793.48
501.774	19983.3
502.143	20073.7
502.512	20338.1
502.88	20472.33
503.249	20478.2
503.618	20560.46
503.987	20748.71
504.356	20895.59
504.724	20943.05
505.093	21005.87
505.462	21104.4
505.83	21251.52
506.199	21471.85
506.567	21698.96
506.936	21700.09
507.304	21969.92
507.672	22170.82
508.041	22243.36
508.409	22607.19
508.777	22740.07
509.145	23046.27
509.514	23097.12
509.882	23270.45
510.25	23286.27
510.618	23543.21
510.986	23686.93
511.354	23832.47
511.722	23937.77
512.09	24173.47
512.458	24098.9
512.826	24263.42
513.193	24448.5
513.561	24587.7
513.929	24764.65
514.297	25035.15
514.664	25283.05
515.032	25476.49
515.4	25750.16
515.767	25958.51
516.135	26205.74
516.502	26201.22
516.869	26570.25
517.237	26713.97
517.604	26688.89
517.972	26897.47
518.339	27060.86
518.706	27025.6
519.073	27143.34
519.44	27233.73
519.808	27596.44
520.175	27559.15
520.542	28049.98
520.909	28102.86
521.276	28146.25
521.643	28540.82
522.009	28778.33
522.376	29043.18
522.743	29264.87
523.11	29496.5
523.477	29998.63
523.843	30198.17
524.21	30577.37
524.577	30824.83
524.943	30997.25
525.31	30984.14
525.676	31138.94
526.043	31364.92
526.409	31495.32
526.776	31865.25
527.142	31893.27
527.508	32078.35
527.874	32244.9
528.241	32425.69
528.607	32485.8
528.973	33088.04
529.339	33148.83
529.705	33549.27
530.071	33878.53
530.437	34146.55
530.803	34350.61
531.169	34621.79
531.535	34582.47
531.901	34899.75
532.267	35087.54
532.632	35303.8
532.998	35368.89
533.364	35455.21
533.73	35445.27
534.095	35695.88
534.461	35711.48
534.826	35853.85
535.192	35937.01
535.557	36182.88
535.923	36082.09
536.288	36303.55
536.653	36686.59
537.019	36537.9
537.384	36906.47
537.749	37310.08
538.114	37420.36
538.479	37494.25
538.845	37713.68
539.21	37785.77
539.575	37901.02
539.94	37947.35
540.305	38235.48
540.67	38196.38
541.034	38180.11
541.399	38353.89
541.764	38415.59
542.129	38321.8
542.494	38442.25
542.858	38505.98
543.223	38550.05
543.587	38880.21
543.952	38874.33
544.316	39185.28
544.681	39228.9
545.045	39564.71
545.41	39763.35
545.774	39937.58
546.138	40175.77
546.503	40340.73
546.867	40326.95
547.231	40778.24
547.595	40846.71
547.959	40865.69
548.324	40889.65
548.688	40883.54
549.052	40989.98
549.416	40876.99
549.779	40893.26
550.143	41017.78
550.507	41173.25
550.871	41214.61
551.235	41175.74
551.599	41538.67
551.962	41481.27
552.326	41726.91
552.689	41987.7
553.053	41888.26
553.417	42143.85
553.78	42741.8
554.143	42665.87
554.507	42832.87
554.87	43027.22
555.234	43548.11
555.597	43285.29
555.96	43417.04
556.323	43508.11
556.686	43596.69
557.05	43776.8
557.413	43767.31
557.776	43736.35
558.139	43846.63
558.502	43928.44
558.865	43876.69
559.228	44173.85
559.59	44008.89
559.953	44201.65
560.316	44746.04
560.679	44620.39
561.041	45114.84
561.404	45367.95
561.767	45837.54
562.129	45696.52
562.492	46163.4
562.854	46204.99
563.217	46328.15
563.579	46617.86
563.941	46862.14
564.304	47061.46
564.666	47286.77
565.028	47175.13
565.39	47428.46
565.753	47574.67
566.115	47617.38
566.477	47691.95
566.839	47593.88
567.201	47741.44
567.563	47671.39
567.925	47894.21
568.287	47827.32
568.648	48063.69
569.01	48376.68
569.372	48572.16
569.734	48521.08
570.095	48803.11
570.457	48894.41
570.819	49200.39
571.18	49273.83
571.542	49596.08
571.903	49721.05
572.265	49775.97
572.626	49854.83
572.987	49919.24
573.349	50080.82
573.71	50238.55
574.071	50217.54
574.432	50208.27
574.794	50423.18
575.155	50203.52
575.516	50067.48
575.877	50129.85
576.238	50035.17
576.599	50249.85
576.96	50096.86
577.32	50252.11
577.681	50403.07
578.042	50523.97
578.403	50668.37
578.763	50587.02
579.124	50817.29
579.485	51061.36
579.845	51031.75
580.206	51121.24
580.566	51309.03
580.927	51363.27
581.287	51545.86
581.648	51431.29
582.008	51589.02
582.368	51533.89
582.728	51718.06
583.089	51669.47
583.449	51496.6
583.809	51562.36
584.169	51569.82
584.529	51506.54
584.889	51684.84
585.249	51398.75
585.609	51321.46
585.969	51433.1
586.329	51420.89
586.688	51391.97
587.048	51472.87
587.408	51567.1
587.768	51561.45
588.127	51612.75
588.487	51584.96
588.846	51955.79
589.206	51761.45
589.565	51885.29
589.925	52028.56
590.284	51976.13
590.643	52027.21
591.003	52292.74
591.362	52167.77
591.721	52184.49
592.08	52034.44
592.44	52224.49
592.799	52194.66
593.158	52040.76
593.517	52017.26
593.876	52069.92
594.235	51957.38
594.593	51919.86
594.952	52014.32
595.311	51779.98
595.67	51762.58
596.029	52095
596.387	52012.29
596.746	51992.4
597.104	51936.13
597.463	51874.89
597.822	52166.18
598.18	52053.65
598.538	52044.15
598.897	52306.97
599.255	52163.02
599.613	52566.63
599.972	52313.75
600.33	52525.27
600.688	52459.28
601.046	52629
601.404	52626.51
601.762	52572.95
602.12	52758.94
602.478	52586.29
602.836	52661.99
603.194	52485.95
603.552	52600.07
603.91	52504.93
604.268	52500.64
604.625	52345.84
604.983	52464.71
605.341	52295
605.698	52302.45
606.056	52504.26
606.413	52383.35
606.771	52568.66
607.128	52662.89
607.485	52457.7
607.843	52696.34
608.2	52909.44
608.557	53004.81
608.914	52989.44
609.272	53161.41
609.629	53273.27
609.986	53363.67
610.343	53329.54
610.7	53525.7
611.057	53527.05
611.414	53483.89
611.771	53609.99
612.127	53649.76
612.484	53601.4
612.841	53683.43
613.198	53586.71
613.554	53560.5
613.911	53747.84
614.267	53573.83
614.624	53508.07
614.98	53495.87
615.337	53679.59
615.693	53506.04
616.05	53485.25
616.406	53713.04
616.762	53610.89
617.118	53566.15
617.475	53499.48
617.831	53546.94
618.187	53562.76
618.543	53697.67
618.899	53878.46
619.255	53866.25
619.611	53777.67
619.967	53933.6
620.323	54008.4
620.678	53907.38
621.034	53994.61
621.39	54005.46
621.746	53984.67
622.101	54292
622.457	54111.9
622.812	54030.77
623.168	54042.75
623.523	54172.69
623.879	54149.18
624.234	53758.91
624.589	53958.68
624.945	53963.65
625.3	54003.65
625.655	53850.43
626.01	53855.41
626.365	53823.32
626.72	53740.61
627.075	53735.64
627.43	53751.23
627.785	53645.02
628.14	53740.15
628.495	53723.66
628.85	53655.41
629.205	53624.45
629.559	53816.76
629.914	53698.35
630.269	53874.84
630.623	53858.8
630.978	53881.17
631.332	53970.21
631.687	53995.29
632.041	54020.6
632.396	54094.95
632.75	53835.52
633.104	53990.09
633.459	53867.16
633.813	53919.13
634.167	54015.63
634.521	53862.86
634.875	53817.21
635.229	53791.23
635.583	53622.19
635.937	53600.27
636.291	53536.09
636.645	53539.26
636.999	53377.9
637.352	53430.33
637.706	53189.43
638.06	53310.56
638.413	53176.33
638.767	53092.94
639.121	52980.63
639.474	52728.43
639.828	52898.14
640.181	52819.73
640.534	52853.85
640.888	52847.97
641.241	52831.48
641.594	52807.07
641.947	52915.32
642.301	52901.76
642.654	52970.91
643.007	52974.07
643.36	52929.33
643.713	52898.82
644.066	52982.21
644.419	52914.41
644.771	52933.62
645.124	52687.3
645.477	52699.5
645.83	52387.2
646.182	51992.18
646.535	51745.63
646.888	51656.82
647.24	51398.75
647.593	51480.1
647.945	51337.73
648.298	51129.15
648.65	50961.7
649.002	50958.98
649.355	51020.68
649.707	51130.28
650.059	51224.97
650.411	51541.34
650.763	51608.46
651.115	52012.97
651.467	51752.86
651.819	51677.16
652.171	51765.74
652.523	51712.41
652.875	51709.93
653.227	51636.26
653.578	51971.84
653.93	52043.25
654.282	51920.99
654.633	51879.19
654.985	51924.38
655.337	51933.65
655.688	52031.95
656.039	52087.77
656.391	52052.74
656.742	52005.74
657.094	52025.17
657.445	52069.92
657.796	52087.32
658.147	51930.71
658.498	51961.44
658.849	51941.33
659.2	51849.81
659.551	51774.78
659.902	51838.96
660.253	51676.48
660.604	51794.44
660.955	51619.08
661.306	51570.49
661.656	51393.55
662.007	51278.52
662.358	51378.86
662.708	51310.16
663.059	51279.88
663.409	51085.99
663.76	51342.03
664.11	51268.81
664.461	51128.92
664.811	51277.39
665.161	51279.43
665.511	51372.31
665.862	51453.89
666.212	51570.49
666.562	51566.88
666.912	51595.35
667.262	51593.09
667.612	51670.15
667.962	51680.1
668.312	51728.46
668.662	51815.69
669.011	51723.94
669.361	51673.09
669.711	51662.02
670.06	51550.61
670.41	51422.48
670.76	51325.08
671.109	51452.53
671.459	51182.03
671.808	51084.86
672.157	51176.83
672.507	50884.86
672.856	50880.12
673.205	50907.23
673.554	50937.52
673.904	50681.03
674.253	50810.51
674.602	50619.11
674.951	50099.8
675.3	49919.69
675.649	50483.74
675.998	50357.19
676.346	50312.22
676.695	50533.69
677.044	50242.85
677.393	50420.69
677.741	50468.83
678.09	50286.69
678.438	50430.86
678.787	50431.54
679.135	50458.21
679.484	50357.19
679.832	50578.88
680.181	50410.07
680.529	50595.6
680.877	50532.1
681.225	50528.94
681.573	50701.59
681.922	50536.4
682.27	50390.19
682.618	50464.08
682.966	50288.27
683.314	50284.43
683.661	50101.38
684.009	49948.16
684.357	49876.3
684.705	49763.99
685.053	49839.92
685.4	49658
685.748	49453.04
686.095	49387.27
686.443	49181.63
686.79	49019.37
687.138	49064.35
687.485	48917
687.832	48830.91
688.18	48827.74
688.527	48534.87
688.874	48528.77
689.221	48411.93
689.568	48271.82
689.915	48327.19
690.262	48279.06
690.609	48234.99
690.956	48228.21
691.303	48208.1
691.65	48237.93
691.997	48134.65
692.344	47911.16
692.69	48035.45
693.037	48037.93
693.383	47797.03
693.73	48059.4
694.077	47702.57
694.423	47723.14
694.769	47571.73
695.116	47463.71
695.462	47411.96
695.808	47217.39
696.155	47368.34
696.501	47196.6
696.847	47075.25
697.193	46705.99
697.539	46837.96
697.885	46322.72
698.231	46138.09
698.577	46126.12
698.923	45917.76
699.269	45725.9
699.614	45480.26
699.96	45314.84
700.306	45142.19
700.651	45056.77
700.997	44870.33
701.342	44674.4
701.688	44617
702.033	44528.65
702.379	44499.95
702.724	44538.14
703.069	44513.73
703.415	44064.25
703.76	44050.24
704.105	43871.49
704.45	43909.45
704.795	43861.54
705.14	43725.05
705.485	43650.25
705.83	43533.87
706.175	43736.58
706.52	43681.89
706.865	43564.83
707.209	43576.13
707.554	43641.66
707.899	43552.85
708.243	43288.68
708.588	43381.11
708.932	43061.79
709.277	43091.17
709.621	43101.11
709.966	42866.09
710.31	43016.37
710.654	42432.2
710.998	42533.9
711.342	42536.83
711.687	42351.3
712.031	42174.36
712.375	41971.42
712.719	42145.21
713.063	41845.33
713.407	41825.21
713.75	41627.48
714.094	41501.15
714.438	41232.91
714.782	41376.86
715.125	40864.34
715.469	40975.29
715.812	40791.57
716.156	40607.39
716.499	40708.63
716.843	40515.87
717.186	40408.53
717.53	40636.54
717.873	40562.2
718.216	40402.43
718.559	40462.54
718.902	40286.72
719.246	40392.48
719.589	40539.15
719.932	40568.75
720.275	40359.04
720.617	40477.9
720.96	40577.11
721.303	40570.33
721.646	40518.36
721.989	40385.48
722.331	40601.07
722.674	40448.98
723.016	40522.2
723.359	40392.94
723.701	40468.64
724.044	40194.52
724.386	39917.02
724.729	40219.38
725.071	40068.2
725.413	40004.02
725.755	40012.15
726.097	39746.62
726.439	39446.75
726.782	39489.46
727.124	39630.7
727.465	39116.13
727.807	39137.37
728.149	38895.8
728.491	38869.59
728.833	38784.62
729.175	38625.52
729.516	38561.12
729.858	38518.18
730.199	38649.48
730.541	38357.51
730.882	38394.57
731.224	38679.31
731.565	38439.54
731.906	38337.85
732.248	38419.43
732.589	38192.09
732.93	38301.92
733.271	38156.38
733.612	38356.15
733.953	38397.06
734.294	38332.65
734.635	38183.05
734.976	38409.94
735.317	38178.76
735.658	38173.78
735.999	38242.71
736.339	38348.92
736.68	38414.68
737.021	38440.67
737.361	38159.1
737.702	38364.51
738.042	38178.08
738.383	38096.72
738.723	38355.93
739.063	38149.15
739.404	38197.51
739.744	38319.32
740.084	38067.8
740.424	38082.26
740.764	38064.86
741.104	38078.42
741.444	37937.18
741.784	37663.06
742.124	37649.96
742.464	37499.23
742.804	37532.67
743.143	37535.38
743.483	37418.1
743.823	37162.06
744.162	37351.21
744.502	37390.53
744.841	37237.31
745.181	37381.49
745.52	37114.83
745.86	37175.84
746.199	37157.77
746.538	37146.92
746.877	37129.29
747.216	37354.82
747.556	37237.76
747.895	37297.88
748.234	37158.22
748.573	37286.35
748.911	37122.96
749.25	37271.21
749.589	37249.51
749.928	37442.05
750.267	37491.99
750.605	37330.19
750.944	37461.26
751.283	37434.82
751.621	37566.57
751.96	37463.75
752.298	37529.96
752.636	37611.09
752.975	37597.98
753.313	37390.08
753.651	37763.4
753.989	37547.81
754.327	37718.66
754.666	37480.02
755.004	37767.47
755.342	37726.34
755.679	37581.71
756.017	37402.96
756.355	37420.36
756.693	37411.32
757.031	37413.8
757.368	37380.13
757.706	37161.61
758.044	37134.49
758.381	37161.16
758.719	36921.61
759.056	36906.93
759.394	36899.47
759.731	36712.35
760.068	36687.5
760.405	36635.75
760.743	36290.67
761.08	36654.28
761.417	36326.15
761.754	36354.17
762.091	36358.69
762.428	36389.88
762.765	36145.36
763.102	36254.29
763.438	36088.19
763.775	35989.44
764.112	36037.8
764.449	36169.77
764.785	36085.25
765.122	35933.62
765.458	35813.62
765.795	35853.17
766.131	35821.76
766.467	35678.26
766.804	35617.92
767.14	35595.77
767.476	35759.61
767.812	35537.24
768.148	35732.72
768.485	35439.62
768.821	35362.56
769.157	35351.03
769.492	35217.03
769.828	35274.43
770.164	35059.74
770.5	35013.64
770.836	35067.2
771.171	34779.52
771.507	34672.86
771.842	34472.41
772.178	34572.52
772.513	34353.09
772.849	34246.66
773.184	34053.44
773.519	34160.56
773.855	33821.58
774.19	33701.81
774.525	33566
774.86	33642.83
775.195	33627.69
775.53	33427.24
775.865	33133.01
776.2	33115.16
776.535	32822.29
776.87	32835.39
777.205	32448.29
777.539	32373.94
777.874	32397.21
778.209	32140.72
778.543	31965.13
778.878	31843.56
779.212	31889.66
779.547	31754.52
779.881	31738.47
780.215	31411.25
780.55	31811.69
780.884	31351.36
781.218	31341.65
781.552	31380.74
781.886	31139.17
782.22	30994.09
782.554	30936.46
782.888	30733.98
783.222	30682.46
783.556	30529.69
783.889	30607.2
784.223	30322.01
784.557	30326.99
784.89	30407.66
785.224	30349.13
785.557	30086.99
785.891	30258.29
786.224	30164.05
786.558	30049.03
786.891	29793.44
787.224	29644.97
787.557	29745.76
787.891	29522.03
788.224	29726.32
788.557	29792.99
788.89	29470.96
789.223	29375.6
789.556	29199.11
789.888	29159.78
790.221	29199.33
790.554	28898.32
790.887	29057.19
791.219	28710.76
791.552	28646.58
791.884	28437.77
792.217	28378.56
792.549	28233.25
792.882	28045.24
793.214	27806.83
793.546	27963.21
793.879	27967.05
794.211	27681.63
794.543	27777.45
794.875	27615.87
795.207	27696.55
795.539	27490.68
795.871	27277.12
796.203	26983.57
796.535	26899.05
796.867	26779.28
797.198	26758.72
797.53	26679.85
797.862	26651.6
798.193	26612.96
798.525	26384.26
798.856	26474.21
799.188	26219.07
799.519	26193.53
799.85	25981.79
800.182	26125.06
800.513	26037.15
800.844	25875.58
801.175	26071.96
801.506	25980.21
801.837	25839.65
802.168	25774.56
802.499	25662.47
802.83	25649.14
803.161	25529.82
803.491	25541.12
803.822	25568.92
804.153	25318.76
804.483	25242.37
804.814	25287.34
805.145	25406.44
805.475	25464.29
805.805	25053.23
806.136	25214.35
806.466	25137.07
806.796	25110.17
807.126	24920.12
807.457	24852.1
807.787	24808.71
808.117	24609.4
808.447	24671.09
808.777	24613.01
809.107	24579.34
809.436	24382.06
809.766	24298.89
810.096	24246.69
810.426	24079.47
810.755	24009.41
811.085	23887.83
811.414	23934.16
811.744	23718.12
812.073	23692.81
812.403	23620.04
812.732	23483.1
813.061	23433.83
813.39	23250.33
813.719	23114.75
814.049	23304.57
814.378	23170.34
814.707	22944.58
815.036	23002.21
815.365	22886.28
815.693	22586.17
816.022	22653.74
816.351	22580.75
816.68	22368.78
817.008	22494.2
817.337	22310.25
817.665	22397.25
817.994	22290.59
818.322	22304.37
818.651	22282.45
818.979	22076.81
819.307	22308.21
819.636	21997.03
819.964	21985.74
820.292	22242.45
820.62	22141.21
820.948	22084.72
821.276	22193.64
821.604	22209.01
821.932	22178.5
822.259	22119.07
822.587	22156.35
822.915	22181.44
823.243	22299.85
823.57	22119.97
823.898	22362.67
824.225	22164.71
824.553	22176.69
824.88	22333.75
825.207	22438.83
825.535	22272.73
825.862	22397.93
826.189	22297.14
826.516	22479.06
826.843	22478.6
827.17	22475.44
827.497	22391.37
827.824	22456.23
828.151	22431.83
828.478	22302.11
828.805	22381.21
829.131	22181.21
829.458	22237.03
829.785	22223.24
830.111	22108.44
830.438	22231.6
830.764	22187.54
831.09	22181.89
831.417	22007.88
831.743	22187.09
832.069	22158.84
832.395	21994.55
832.722	22005.4
833.048	21921.1
833.374	21919.07
833.7	21632.98
834.026	21721.56
834.351	21816.93
834.677	21737.15
835.003	21849.47
835.329	21701.22
835.654	21720.21
835.98	21565.86
836.306	21547.55
836.631	21484.51
836.956	21498.74
837.282	21601.11
837.607	21386.43
837.932	21289.26
838.258	21439.99
838.583	21356.6
838.908	21200.22
839.233	21309.14
839.558	21252.87
839.883	21186.21
840.208	21174.01
840.533	21201.58
840.858	21274.34
841.182	21306.66
841.507	21306.88
841.832	21163.84
842.156	21122.48
842.481	21197.51
842.805	21077.06
843.13	21049.94
843.454	21008.13
843.778	21060.79
844.103	20936.95
844.427	20936.95
844.751	20884.75
845.075	20840.68
845.399	20831.64
845.723	20742.83
846.047	20646.11
846.371	20575.83
846.695	20483.18
847.019	20292.22
847.343	20346.46
847.666	20174.94
847.99	20043.19
848.313	20029.4
848.637	19888.16
848.96	19864.89
849.284	19713.48
849.607	19603.43
849.931	19576.76
850.254	19391.68
850.577	19174.96
850.9	19056.55
851.223	19050.22
851.546	18936.1
851.869	18840.73
852.192	18829.66
852.515	18555.77
852.838	18575.2
853.161	18502.21
853.483	18395.77
853.806	18308.32
854.129	18254.31
854.451	18194.87
854.774	18050.92
855.096	17996.69
855.419	18000.53
855.741	17982
856.063	17793.08
856.385	17725.06
856.708	17704.72
857.03	17586.98
857.352	17674.44
857.674	17641.89
857.996	17546.98
858.318	17474.44
858.64	17608.22
858.961	17408.91
859.283	17480.09
859.605	17332.98
859.926	17443.26
860.248	17390.38
860.57	17315.12
860.891	17226.31
861.212	17243.04
861.534	17205.97
861.855	17238.97
862.176	17276.71
862.498	17273.99
862.819	17276.03
863.14	17149.48
863.461	17175.24
863.782	17178.86
864.103	17157.39
864.424	17124.39
864.745	17145.18
865.065	17128.24
865.386	17044.62
865.707	17003.04
866.027	16994.45
866.348	17034.23
866.668	16892.99
866.989	16931.41
867.309	16806.44
867.63	16825.42
867.95	16824.29
868.27	16688.7
868.59	16830.39
868.91	16799.88
869.23	16731.86
869.55	16626.1
869.87	16630.85
870.19	16635.14
870.51	16534.35
870.83	16538.2
871.15	16373.91
871.469	16334.13
871.789	16420.91
872.109	16327.35
872.428	16097.3
872.748	16199.9
873.067	16092.11
873.386	16242.16
873.706	16116.74
874.025	16015.5
874.344	15936.63
874.663	15994.71
874.982	15942.96
875.301	15907.03
875.62	15798.33
875.939	15768.95
876.258	15791.77
876.577	15787.93
876.896	15678.56
877.214	15581.38
877.533	15651.44
877.852	15580.48
878.17	15650.99
878.489	15548.39
878.807	15584.77
879.125	15534.38
879.444	15656.41
879.762	15476.08
880.08	15578.45
880.398	15453.7
880.716	15461.16
881.034	15417.55
881.352	15417.32
881.67	15462.07
881.988	15524.66
882.306	15460.94
882.624	15323.54
882.941	15406.02
883.259	15262.3
883.577	15252.81
883.894	15363.08
884.212	15350.2
884.529	15314.72
884.846	15276.76
885.164	15355.4
885.481	15259.13
885.798	15375.97
886.115	15184.56
886.432	15194.5
886.75	15137.33
887.067	15087.16
887.383	15056.88
887.7	15152.47
888.017	14974.39
888.334	15060.95
888.651	14999.25
888.967	15000.16
889.284	14880.61
889.6	14826.38
889.917	14720.62
890.233	14701.63
890.55	14697.11
890.866	14629.09
891.182	14558.36
891.498	14422.54
891.815	14407.18
892.131	14365.82
892.447	14275.2
892.763	14232.04
893.079	14164.02
893.395	14080.41
893.71	14032.5
894.026	14017.81
894.342	13864.59
894.657	13825.27
894.973	13876.34
895.289	13753.64
895.604	13783.92
895.92	13598.61
896.235	13579.18
896.55	13568.1
896.865	13468.67
897.181	13414.21
897.496	13314.33
897.811	13293.31
898.126	13273.2
898.441	13231.84
898.756	13080.66
899.071	12980.77
899.386	13098.74
899.7	12989.59
900.015	12970.15
900.33	12846.09
900.644	12794.79
900.959	12997.27
901.273	12780.78
901.588	12739.2
901.902	12745.3
902.216	12719.31
902.531	12676.38
902.845	12717.05
903.159	12622.37
903.473	12618.07
903.787	12548.02
904.101	12477.74
904.415	12491.07
904.729	12346.67
905.042	12340.34
905.356	12324.75
905.67	12311.19
905.984	12295.14
906.297	12224.41
906.611	12109.61
906.924	12222.6
907.237	12177.18
907.551	12131.53
907.864	12058.76
908.177	11985.32
908.491	12069.61
908.804	12018.31
909.117	11898.32
909.43	11913.68
909.743	11788.72
910.056	11801.37
910.368	11754.59
910.681	11721.6
910.994	11643.41
911.307	11578.33
911.619	11514.37
911.932	11501.94
912.244	11499.68
912.557	11397.77
912.869	11368.16
913.181	11379.01
913.494	11240.71
913.806	11169.52
914.118	11110.77
914.43	10995.97
914.742	10963.88
915.054	10901.51
915.366	10907.16
915.678	10835.97
915.99	10742.42
916.302	10699.25
916.613	10656.77
916.925	10586.04
917.236	10590.78
917.548	10535.42
917.859	10515.98
918.171	10469.65
918.482	10359.15
918.794	10234.63
919.105	10235.54
919.416	10217.46
919.727	10099.04
920.038	10113.96
920.349	10028.76
920.66	9962.32
920.971	9890.91
921.282	9839.39
921.593	9801.2
921.903	9733.4
922.214	9762.1
922.525	9718.04
922.835	9650.69
923.146	9677.81
923.456	9561.88
923.767	9560.75
924.077	9585.61
924.387	9505.84
924.697	9440.08
925.008	9398.5
925.318	9427.42
925.628	9455.67
925.938	9338.38
926.248	9285.28
926.558	9279.63
926.867	9271.95
927.177	9233.3
927.487	9221.1
927.796	9148.33
928.106	9142.23
928.416	9160.54
928.725	9111.72
929.034	9052.74
929.344	8996.25
929.653	9002.57
929.962	8931.84
930.271	8987.89
930.581	8909.47
930.89	8932.07
931.199	8837.15
931.508	8846.65
931.817	8868.34
932.125	8828.34
932.434	8803.48
932.743	8748.12
933.051	8705.86
933.36	8654.33
933.669	8624.28
933.977	8554.22
934.286	8546.31
934.594	8491.18
934.902	8477.16
935.21	8428.58
935.519	8467.45
935.827	8421.8
936.135	8350.16
936.443	8309.03
936.751	8231.75
937.059	8332.99
937.367	8229.26
937.674	8212.31
937.982	8083.5
938.29	8091.86
938.597	8032.66
938.905	7951.08
939.213	7877.86
939.52	7872.66
939.827	7913.34
940.135	7746.11
940.442	7722.16
940.749	7737.3
941.056	7678.32
941.363	7554.25
941.67	7563.74
941.977	7500.01
942.284	7430.86
942.591	7445.78
942.898	7392.45
943.205	7408.72
943.511	7312.9
943.818	7372.33
944.125	7227.48
944.431	7204.66
944.738	7184.32
945.044	7142.74
945.35	7137.54
945.657	7069.97
945.963	7024.09
946.269	6995.4
946.575	6970.31
946.881	6988.39
947.187	7003.53
947.493	6896.19
947.799	6853.93
948.105	6861.39
948.41	6826.36
948.716	6813.03
949.022	6780.26
949.327	6693.48
949.633	6701.17
949.938	6679.02
950.244	6669.08
950.549	6612.35
950.854	6654.61
951.16	6559.02
951.465	6487.39
951.77	6584.33
952.075	6536.88
952.38	6486.93
952.685	6471.34
952.99	6458.69
953.294	6434.73
953.599	6423.21
953.904	6401.51
954.209	6344.56
954.513	6365.13
954.818	6373.26
955.122	6237.67
955.426	6269.31
955.731	6310.89
956.035	6270.89
956.339	6194.29
956.643	6235.19
956.948	6147.51
957.252	6165.81
957.556	6150.22
957.86	6085.81
958.163	6123.78
958.467	6028.87
958.771	6054.4
959.075	5987.51
959.378	5974.86
959.682	5992.94
959.985	5922.2
960.289	5913.62
960.592	5834.07
960.896	5842.21
961.199	5841.75
961.502	5707.07
961.805	5764.92
962.108	5744.35
962.411	5687.41
962.714	5664.58
963.017	5645.37
963.32	5593.62
963.623	5546.39
963.926	5532.83
964.228	5481.76
964.531	5469.79
964.833	5446.06
965.136	5398.83
965.438	5329.22
965.741	5329.68
966.043	5323.35
966.345	5285.61
966.648	5294.42
966.95	5255.55
967.252	5221.2
967.554	5196.12
967.856	5186.63
968.158	5125.16
968.46	5122
968.761	5049.91
969.063	5058.5
969.365	5000.87
969.666	5013.98
969.968	4940.99
970.269	4962.23
970.571	4911.83
970.872	4878.16
971.174	4865.06
971.475	4884.26
971.776	4842.46
972.077	4811.5
972.378	4786.41
972.679	4770.37
972.98	4794.55
973.281	4742.35
973.582	4733.31
973.883	4671.61
974.183	4684.72
974.484	4607.89
974.785	4620.54
975.085	4596.81
975.386	4575.35
975.686	4571.28
975.986	4553.43
976.287	4540.09
976.587	4534.89
976.887	4522.01
977.187	4501.9
977.487	4495.12
977.787	4453.99
978.087	4445.86
978.387	4460.32
978.687	4446.99
978.987	4416.25
979.286	4363.83
979.586	4363.37
979.885	4343.94
980.185	4354.56
980.484	4379.87
980.784	4338.52
981.083	4283.83
981.382	4336.48
981.682	4276.14
981.981	4238.86
982.28	4225.3
982.579	4185.07
982.878	4250.61
983.177	4196.6
983.475	4191.18
983.774	4182.59
984.073	4167.9
984.372	4180.33
984.67	4138.52
984.969	4091.97
985.267	4107.11
985.566	4123.38
985.864	4047.9
986.162	4084.74
986.461	4082.48
986.759	4016.26
987.057	3983.27
987.355	3975.36
987.653	3971.52
987.951	3960.9
988.249	3943.27
988.547	3910.5
988.844	3847.91
989.142	3863.05
989.44	3776.5
989.737	3805.2
990.035	3736.5
990.332	3753.22
990.63	3791.64
990.927	3735.37
991.224	3722.49
991.521	3701.92
991.819	3618.76
992.116	3658.31
992.413	3613.11
992.71	3598.65
993.006	3572.43
993.303	3583.51
993.6	3534.47
993.897	3528.82
994.193	3467.35
994.49	3439.1
994.787	3428.48
995.083	3404.08
995.379	3384.64
995.676	3397.07
995.972	3346.9
996.268	3385.77
996.565	3317.3
996.861	3327.47
997.157	3307.36
997.453	3260.13
997.749	3220.13
998.044	3265.1
998.34	3217.87
998.636	3175.38
998.932	3180.13
999.227	3153.01
999.523	3147.81
999.818	3143.52
1000.114	3105.78
1000.409	3093.8
1000.704	3064.65
1001	3046.12
1001.295	3037.99
1001.59	3062.84
1001.885	3076.63
1002.18	3006.57
1002.475	3011.55
1002.77	2999.34
1003.065	2974.94
1003.359	2947.14
1003.654	2957.31
1003.949	2899.46
1004.243	2926.58
1004.538	2866.01
1004.832	2864.2
1005.127	2863.98
1005.421	2823.75
1005.715	2808.61
1006.009	2835.05
1006.304	2816.07
1006.598	2790.53
1006.892	2779.69
1007.186	2760.7
1007.48	2766.81
1007.773	2724.1
1008.067	2728.84
1008.361	2677.54
1008.655	2704.21
1008.948	2687.03
1009.242	2683.19
1009.535	2639.8
1009.829	2641.39
1010.122	2610.43
1010.415	2607.71
1010.708	2620.14
1011.001	2588.73
1011.295	2560.71
1011.588	2586.7
1011.881	2546.02
1012.173	2567.04
1012.466	2526.36
1012.759	2513.25
1013.052	2486.59
1013.344	2445.23
1013.637	2442.07
1013.93	2443.88
1014.222	2454.05
1014.514	2408.17
1014.807	2369.3
1015.099	2396.65
1015.391	2339.47
1015.683	2339.47
1015.976	2303.77
1016.268	2330.66
1016.56	2286.37
1016.851	2269.64
1017.143	2297.67
1017.435	2260.6
1017.727	2223.09
1018.018	2211.79
1018.31	2193.04
1018.602	2196.43
1018.893	2181.74
1019.185	2162.3
1019.476	2138.57
1019.767	2145.58
1020.058	2100.38
1020.35	2096.31
1020.641	2057.9
1020.932	2038.69
1021.223	2038.24
1021.514	2038.24
1021.804	2021.51
1022.095	1990.78
1022.386	2013.15
1022.677	1939.48
1022.967	1925.92
1023.258	1926.83
1023.548	1930.67
1023.839	1935.64
1024.129	1874.63
1024.419	1916.66
1024.709	1852.71
1025	1850.67
1025.29	1870.78
1025.58	1835.76
1025.87	1819.49
1026.16	1815.87
1026.449	1770.67
1026.739	1779.94
1027.029	1739.49
1027.319	1744.69
1027.608	1727.96
1027.898	1732.03
1028.187	1716.89
1028.477	1680.28
1028.766	1710.34
1029.055	1659.26
1029.344	1688.19
1029.634	1659.04
1029.923	1662.88
1030.212	1622.66
1030.501	1647.97
1030.79	1589.89
1031.078	1580.17
1031.367	1581.75
1031.656	1548.98
1031.945	1559.38
1032.233	1567.74
1032.522	1579.27
1032.81	1540.17
1033.099	1533.17
1033.387	1518.48
1033.675	1526.39
1033.963	1510.79
1034.251	1504.24
1034.54	1468.99
1034.828	1492.04
1035.116	1471.92
1035.403	1473.96
1035.691	1457.69
1035.979	1467.63
1036.267	1407.75
1036.554	1414.98
1036.842	1384.02
1037.129	1442.77
1037.417	1375.66
1037.704	1372.27
1037.992	1385.83
1038.279	1362.1
1038.566	1358.03
1038.853	1358.03
1039.14	1358.03
