Data from blue_chair_FLMS001491_00050.txt Node
Date: Wed Feb 08 10:30:55 GMT 2017
User: dcchb
Spectrometer: FLMS00149
Trigger mode: 0
Integration Time (sec): 2.000000E-2
Scans to average: 10
Electric dark correction enabled: true
Nonlinearity correction enabled: false
Boxcar width: 0
XAxis mode: Wavelengths
Number of Pixels in Spectrum: 2048
>>>>>Begin Spectral Data<<<<<
341.393	-5.54
341.776	-5.54
342.16	-5.54
342.543	-52.54
342.927	-56.61
343.31	-50.73
343.693	-64.52
344.077	-67.91
344.46	-73.11
344.843	-62.71
345.226	-43.73
345.61	-27.46
345.993	-15.48
346.376	8.7
346.759	27.91
347.142	34.91
347.525	48.25
347.908	46.44
348.291	70.39
348.674	68.59
349.057	100.45
349.44	139.77
349.823	132.54
350.206	140.22
350.588	175.25
350.971	187
351.354	180.22
351.737	205.98
352.119	222.93
352.502	212.31
352.884	254.12
353.267	226.32
353.65	257.28
354.032	274.23
354.414	292.99
354.797	289.14
355.179	298.41
355.562	312.87
355.944	310.61
356.326	295.47
356.709	311.07
357.091	309.94
357.473	312.87
357.855	323.27
358.238	311.07
358.62	314
359.002	330.05
359.384	314.23
359.766	318.3
360.148	314.46
360.53	318.75
360.912	343.38
361.294	317.39
361.676	305.64
362.057	304.29
362.439	324.62
362.821	311.07
363.203	313.78
363.584	301.12
363.966	308.58
364.348	308.81
364.729	297.96
365.111	305.87
365.493	304.74
365.874	289.37
366.256	299.09
366.637	302.03
367.019	283.5
367.4	291.86
367.781	272.87
368.163	289.82
368.544	284.85
368.925	283.27
369.306	306.55
369.688	286.21
370.069	303.61
370.45	292.53
370.831	278.75
371.212	282.82
371.593	286.89
371.974	268.81
372.355	281.24
372.736	289.14
373.117	293.21
373.498	298.64
373.879	302.7
374.26	284.63
374.641	281.91
375.021	301.8
375.402	284.17
375.783	302.25
376.163	302.93
376.544	289.14
376.925	300.22
377.305	306.32
377.686	295.02
378.066	304.06
378.447	293.66
378.827	312.2
379.208	293.89
379.588	307.68
379.968	297.96
380.349	330.27
380.729	297.05
381.109	328.92
381.489	307.68
381.87	310.16
382.25	307.22
382.63	323.49
383.01	308.13
383.39	312.2
383.77	294.57
384.15	307.22
384.53	309.26
384.91	308.58
385.29	321.91
385.67	316.94
386.049	324.4
386.429	327.34
386.809	298.18
387.189	307.22
387.568	316.94
387.948	312.2
388.328	327.79
388.707	300.67
389.087	314.23
389.466	323.72
389.846	321.69
390.225	327.11
390.605	339.77
390.984	342.02
391.363	312.42
391.743	325.3
392.122	321.23
392.501	323.04
392.881	333.21
393.26	325.75
393.639	354
394.018	338.86
394.397	337.96
394.776	304.51
395.155	339.99
395.534	338.41
395.913	361.01
396.292	345.64
396.671	341.35
397.05	364.17
397.429	363.49
397.808	361.91
398.186	359.88
398.565	364.4
398.944	347.22
399.323	347.45
399.701	359.43
400.08	358.3
400.458	361.01
400.837	362.14
401.215	368.46
401.594	356.94
401.972	380.67
402.351	397.39
402.729	387.22
403.107	384.74
403.486	393.77
403.864	396.71
404.242	376.83
404.62	400.55
404.999	385.64
405.377	404.4
405.755	389.26
406.133	401.91
406.511	385.19
406.889	406.2
407.267	415.92
407.645	405.98
408.023	419.76
408.401	406.43
408.779	420.21
409.156	408.92
409.534	432.19
409.912	426.54
410.29	416.15
410.667	434.23
411.045	432.42
411.422	447.78
411.8	453.66
412.178	450.5
412.555	448.46
412.933	449.14
413.31	455.69
413.687	447.78
414.065	455.02
414.442	469.48
414.819	452.08
415.197	477.39
415.574	469.93
415.951	479.87
416.328	478.52
416.705	455.02
417.082	488.24
417.46	489.82
417.837	515.58
418.214	477.61
418.591	503.38
418.967	485.52
419.344	483.94
419.721	502.92
420.098	489.37
420.475	501.57
420.852	503.6
421.228	503.38
421.605	521.23
421.982	491.85
422.358	497.05
422.735	504.51
423.111	533.88
423.488	532.08
423.864	536.37
424.241	563.26
424.617	561
424.994	558.97
425.37	579.98
425.746	585.63
426.123	561.23
426.499	579.98
426.875	584.73
427.251	565.97
427.627	607.33
428.003	579.76
428.379	621.57
428.756	620.89
429.132	606.65
429.507	627.67
429.883	621.57
430.259	637.16
430.635	612.3
431.011	648.46
431.387	657.5
431.763	655.91
432.138	659.53
432.514	681.9
432.89	671.51
433.265	697.72
433.641	717.61
434.016	688
434.392	739.3
434.767	747.89
435.143	715.8
435.518	754.9
435.894	758.51
436.269	761.45
436.644	760.09
437.02	783.6
437.395	770.71
437.77	785.18
438.145	826.76
438.52	823.59
438.895	822.46
439.271	826.76
439.646	844.61
440.021	838.96
440.395	871.95
440.77	853.65
441.145	872.86
441.52	907.66
441.895	887.1
442.27	924.83
442.645	883.03
443.019	931.84
443.394	933.42
443.769	940.2
444.143	922.57
444.518	953.53
444.892	938.39
445.267	965.51
445.641	986.3
446.016	987.21
446.39	993.08
446.764	988.34
447.139	962.35
447.513	972.97
447.887	1009.8
448.262	1019.3
448.636	1024.49
449.01	1019.07
449.384	1033.08
449.758	1050.25
450.132	1049.8
450.506	1052.06
450.88	1069.92
451.254	1068.79
451.628	1085.96
452.002	1098.39
452.376	1126.41
452.75	1117.37
453.123	1096.36
453.497	1158.27
453.871	1161.21
454.244	1163.7
454.618	1159.18
454.992	1195.11
455.365	1181.78
455.739	1211.38
456.112	1229.01
456.486	1232.85
456.859	1205.28
457.232	1251.61
457.606	1262.9
457.979	1254.09
458.352	1293.41
458.725	1287.08
459.099	1313.07
459.472	1344.03
459.845	1332.73
460.218	1328.67
460.591	1356.91
460.964	1366.86
461.337	1374.54
461.71	1403.92
462.083	1414.99
462.456	1410.02
462.829	1417.7
463.201	1447.53
463.574	1441.21
463.947	1465.84
464.32	1495.89
464.692	1532.05
465.065	1538.15
465.438	1539.73
465.81	1553.52
466.183	1550.13
466.555	1582.44
466.928	1593.74
467.3	1621.31
467.672	1610.69
468.045	1644.14
468.417	1679.62
468.789	1638.94
469.161	1711.25
469.534	1718.94
469.906	1734.98
470.278	1713.06
470.65	1726.62
471.022	1758.71
471.394	1776.56
471.766	1816.79
472.138	1822.89
472.51	1842.1
472.882	1890.91
473.253	1873.28
473.625	1925.71
473.997	1952.6
474.369	1920.51
474.74	1963
475.112	2007.97
475.484	2028.08
475.855	2049.78
476.227	2089.1
476.598	2118.7
476.97	2114.41
477.341	2162.32
477.713	2154.86
478.084	2191.69
478.455	2227.63
478.827	2259.71
479.198	2291.58
479.569	2288.41
479.94	2352.59
480.311	2344.68
480.682	2407.96
481.053	2409.77
481.424	2485.92
481.795	2494.28
482.166	2505.81
482.537	2519.37
482.908	2546.94
483.279	2567.28
483.65	2625.81
484.021	2625.35
484.391	2663.55
484.762	2668.97
485.133	2657.44
485.503	2688.18
485.874	2746.48
486.244	2774.5
486.615	2799.59
486.985	2845.01
487.356	2871.22
487.726	2830.32
488.097	2935.18
488.467	2907.61
488.837	2977.66
489.207	2991.67
489.578	3007.49
489.948	3048.85
490.318	3041.84
490.688	3075.51
491.058	3117.32
491.428	3120.71
491.798	3155.74
492.168	3177.88
492.538	3204.32
492.908	3205
493.278	3231.44
493.648	3176.07
494.017	3240.71
494.387	3265.34
494.757	3261.95
495.126	3270.31
495.496	3300.59
495.866	3303.3
496.235	3300.82
496.605	3324.32
496.974	3329.97
497.344	3369.74
497.713	3376.97
498.082	3322.06
498.452	3356.18
498.821	3371.78
499.19	3372.23
499.559	3376.3
499.928	3407.93
500.298	3464.2
500.667	3399.57
501.036	3392.34
501.405	3438.21
501.774	3409.74
502.143	3403.19
502.512	3423.07
502.88	3478.67
503.249	3460.36
503.618	3434.82
503.987	3430.53
504.356	3463.52
504.724	3455.84
505.093	3469.63
505.462	3443.64
505.83	3463.07
506.199	3504.65
506.567	3506.24
506.936	3469.85
507.304	3491.77
507.672	3471.21
508.041	3523.86
508.409	3506.46
508.777	3517.76
509.145	3494.26
509.514	3499.23
509.882	3506.46
510.25	3496.29
510.618	3474.82
510.986	3493.81
511.354	3513.69
511.722	3505.78
512.09	3508.72
512.458	3490.42
512.826	3502.85
513.193	3501.04
513.561	3462.39
513.929	3503.98
514.297	3501.49
514.664	3445.45
515.032	3480.93
515.4	3481.6
515.767	3453.13
516.135	3473.92
516.502	3450.87
516.869	3496.29
517.237	3468.5
517.604	3423.07
517.972	3459.23
518.339	3447.71
518.706	3467.82
519.073	3432.57
519.44	3444.09
519.808	3449.97
520.175	3406.35
520.542	3443.19
520.909	3420.59
521.276	3407.26
521.643	3410.42
522.009	3401.61
522.376	3420.81
522.743	3411.55
523.11	3401.83
523.477	3440.25
523.843	3421.72
524.21	3450.87
524.577	3426.69
524.943	3407.03
525.31	3400.93
525.676	3412.9
526.043	3373.36
526.409	3404.09
526.776	3362.06
527.142	3364.77
527.508	3370.65
527.874	3371.32
528.241	3357.54
528.607	3397.31
528.973	3395.96
529.339	3360.7
529.705	3359.57
530.071	3406.8
530.437	3355.73
530.803	3342.85
531.169	3357.76
531.535	3309.18
531.901	3290.87
532.267	3330.65
532.632	3281.61
532.998	3299.01
533.364	3332
533.73	3287.26
534.095	3321.16
534.461	3279.8
534.826	3261.95
535.192	3259.91
535.557	3269.86
535.923	3269.18
536.288	3259.46
536.653	3274.83
537.019	3232.12
537.384	3213.81
537.749	3229.41
538.114	3217.43
538.479	3169.97
538.845	3169.97
539.21	3178.33
539.575	3158.22
539.94	3151.89
540.305	3174.04
540.67	3129.3
541.034	3137.43
541.399	3121.61
541.764	3094.27
542.129	3106.25
542.494	3115.96
542.858	3082.74
543.223	3080.71
543.587	3043.42
543.952	3065.12
544.316	3013.59
544.681	3050.2
545.045	3033.48
545.41	3008.17
545.774	3044.55
546.138	2974.95
546.503	2963.42
546.867	2952.35
547.231	2962.29
547.595	2922.75
547.959	2953.48
548.324	2903.09
548.688	2897.89
549.052	2937.66
549.416	2849.98
549.779	2868.29
550.143	2831.45
550.507	2843.43
550.871	2879.59
551.235	2837.55
551.599	2837.1
551.962	2836.42
552.326	2801.85
552.689	2804.33
553.053	2776.76
553.417	2778.12
553.78	2789.19
554.143	2761.17
554.507	2732.92
554.87	2776.31
555.234	2771.34
555.597	2743.32
555.96	2758.01
556.323	2737.89
556.686	2713.94
557.05	2727.5
557.413	2711
557.776	2707.39
558.139	2740.15
558.502	2701.96
558.865	2688.18
559.228	2702.41
559.59	2680.04
559.953	2691.57
560.316	2713.49
560.679	2658.57
561.041	2701.74
561.404	2685.69
561.767	2684.34
562.129	2695.64
562.492	2700.38
562.854	2664.45
563.217	2676.2
563.579	2693.6
563.941	2712.81
564.304	2689.08
564.666	2689.99
565.028	2701.06
565.39	2702.87
565.753	2714.62
566.115	2694.05
566.477	2696.31
566.839	2716.88
567.201	2701.06
567.563	2653.6
567.925	2741.28
568.287	2749.42
568.648	2731.79
569.01	2733.15
569.372	2718.23
569.734	2718.01
570.095	2747.16
570.457	2728.63
570.819	2757.33
571.18	2771.79
571.542	2770.89
571.903	2757.33
572.265	2774.28
572.626	2780.38
572.987	2799.81
573.349	2748.52
573.71	2797.33
574.071	2814.5
574.432	2783.77
574.794	2819.7
575.155	2866.93
575.516	2802.75
575.877	2896.53
576.238	2833.26
576.599	2853.6
576.96	2840.49
577.32	2856.76
577.681	2855.18
578.042	2864.9
578.403	2915.52
578.763	2859.47
579.124	2869.64
579.485	2906.25
579.845	2906.93
580.206	2939.24
580.566	2887.04
580.927	2900.15
581.287	2937.66
581.648	2923.43
582.008	2932.01
582.368	2925.91
582.728	2918.45
583.089	2932.69
583.449	2924.56
583.809	2936.31
584.169	2931.56
584.529	2962.75
584.889	2987.83
585.249	2974.72
585.609	2981.28
585.969	2984.22
586.329	2971.11
586.688	2979.92
587.048	2966.81
587.408	2994.84
587.768	3011.79
588.127	2957.55
588.487	2968.17
588.846	2999.58
589.206	2974.95
589.565	3010.66
589.925	3016.98
590.284	3027.15
590.643	3002.75
591.003	2970.88
591.362	3004.1
591.721	2991.22
592.08	3013.82
592.44	3002.97
592.799	2954.39
593.158	2988.96
593.517	2978.34
593.876	2999.58
594.235	2971.11
594.593	2974.27
594.952	2977.21
595.311	2970.43
595.67	2999.36
596.029	3016.53
596.387	3014.5
596.746	2981.05
597.104	2968.17
597.463	2965.23
597.822	2974.5
598.18	2951
598.538	2968.62
598.897	2987.38
599.255	2974.72
599.613	3009.75
599.972	2985.57
600.33	3027.38
600.688	2961.84
601.046	2996.42
601.404	2988.06
601.762	2948.51
602.12	3015.63
602.478	2986.93
602.836	3012.01
603.194	2979.02
603.552	2982.18
603.91	2981.05
604.268	3037.32
604.625	2992.12
604.983	3001.39
605.341	2965.68
605.698	2993.93
606.056	2971.56
606.413	2960.04
606.771	3012.01
607.128	2987.61
607.485	2999.58
607.843	2993.71
608.2	2968.62
608.557	3035.74
608.914	3006.36
609.272	2996.87
609.629	3012.46
609.986	3026.93
610.343	2995.29
610.7	3030.09
611.057	2990.09
611.414	2966.36
611.771	3019.69
612.127	2953.03
612.484	3033.48
612.841	3041.16
613.198	2976.31
613.554	3009.07
613.911	3026.25
614.267	3017.43
614.624	2980.15
614.98	3027.83
615.337	3025.12
615.693	3031.45
616.05	3015.85
616.406	3047.49
616.762	3065.57
617.118	3061.73
617.475	3031.45
617.831	3064.44
618.187	3067.15
618.543	3067.38
618.899	3043.65
619.255	3054.72
619.611	3057.89
619.967	3057.89
620.323	3054.95
620.678	3067.6
621.034	3046.36
621.39	3034.84
621.746	3035.74
622.101	3051.56
622.457	3023.08
622.812	3038.68
623.168	3051.56
623.523	3058.56
623.879	3052.24
624.234	3012.01
624.589	3059.47
624.945	3045.46
625.3	3077.55
625.655	3043.65
626.01	3023.08
626.365	3053.14
626.72	3042.07
627.075	3044.1
627.43	3034.84
627.785	3060.37
628.14	3031.9
628.495	3039.13
628.85	3047.72
629.205	3044.1
629.559	3078
629.914	3063.99
630.269	3031.67
630.623	3007.49
630.978	3017.66
631.332	3030.99
631.687	3060.6
632.041	3021.5
632.396	3032.58
632.75	2998.68
633.104	3012.69
633.459	3014.05
633.813	3036.87
634.167	3045.68
634.521	3028.28
634.875	3016.98
635.229	2981.28
635.583	2977.21
635.937	2973.82
636.291	3033.25
636.645	2939.02
636.999	2996.42
637.352	2998.68
637.706	2982.86
638.06	2954.61
638.413	2957.55
638.767	2977.66
639.121	3001.62
639.474	2976.31
639.828	2974.95
640.181	2994.38
640.534	2967.49
640.888	3008.4
641.241	2978.79
641.594	2975.85
641.947	2943.09
642.301	2946.93
642.654	2970.66
643.007	3002.07
643.36	2978.34
643.713	2990.77
644.066	2951.22
644.419	2965.91
644.771	2979.7
645.124	2956.87
645.477	2901.05
645.83	2949.64
646.182	2906.03
646.535	2895.4
646.888	2953.03
647.24	2872.81
647.593	2898.79
647.945	2892.92
648.298	2883.2
648.65	2874.39
649.002	2882.3
649.355	2930.21
649.707	2874.61
650.059	2911.22
650.411	3004.33
650.763	2923.88
651.115	2975.85
651.467	2995.29
651.819	2998.45
652.171	2993.03
652.523	2957.78
652.875	2960.04
653.227	2927.95
653.578	2937.89
653.93	2980.37
654.282	2927.49
654.633	2945.57
654.985	2964.55
655.337	3004.33
655.688	2959.36
656.039	2960.71
656.391	2943.99
656.742	2969.53
657.094	3008.17
657.445	2955.97
657.796	2944.44
658.147	2981.05
658.498	2971.56
658.849	2948.06
659.2	3001.84
659.551	2959.81
659.902	3000.03
660.253	2992.35
660.604	3028.96
660.955	2952.58
661.306	3021.73
661.656	3012.24
662.007	2949.87
662.358	2976.53
662.708	2988.28
663.059	2980.6
663.409	2973.14
663.76	2997.1
664.11	2975.85
664.461	2970.43
664.811	2976.08
665.161	2980.37
665.511	2966.81
665.862	3018.11
666.212	2998.45
666.562	2983.31
666.912	2973.82
667.262	2962.52
667.612	2955.29
667.962	2955.29
668.312	2963.88
668.662	3013.14
669.011	2963.42
669.361	2976.08
669.711	2967.04
670.06	2947.61
670.41	2979.7
670.76	2956.19
671.109	2980.83
671.459	2951
671.808	2989.86
672.157	2958.91
672.507	2960.04
672.856	2947.61
673.205	2932.69
673.554	2942.63
673.904	2930.43
674.253	2943.76
674.602	2965.23
674.951	2885.01
675.3	2873.03
675.649	2908.74
675.998	2926.36
676.346	2901.05
676.695	2878.46
677.044	2896.53
677.393	2898.79
677.741	2930.43
678.09	2867.16
678.438	2883.43
678.787	2875.97
679.135	2863.77
679.484	2880.49
679.832	2899.02
680.181	2867.61
680.529	2864.67
680.877	2849.53
681.225	2819.93
681.573	2868.06
681.922	2817.21
682.27	2846.82
682.618	2802.3
682.966	2815.41
683.314	2809.76
683.661	2805.01
684.009	2790.32
684.357	2767.27
684.705	2782.64
685.053	2784.45
685.4	2748.74
685.748	2812.92
686.095	2748.74
686.443	2750.32
686.79	2760.72
687.138	2729.98
687.485	2772.7
687.832	2741.74
688.18	2749.65
688.527	2733.15
688.874	2715.52
689.221	2722.3
689.568	2678.91
689.915	2696.09
690.262	2732.7
690.609	2721.62
690.956	2638.46
691.303	2725.69
691.65	2672.59
691.997	2650.66
692.344	2668.52
692.69	2654.73
693.037	2668.74
693.383	2617.22
693.73	2614.96
694.077	2604.34
694.423	2608.86
694.769	2644.11
695.116	2581.74
695.462	2557.11
695.808	2561.4
696.155	2595.75
696.501	2588.75
696.847	2544.23
697.193	2534.06
697.539	2523.66
697.885	2539.48
698.231	2532.93
698.577	2535.19
698.923	2532.02
699.269	2515.3
699.614	2507.84
699.96	2485.02
700.306	2515.3
700.651	2481.18
700.997	2455.64
701.342	2484.34
701.688	2488.18
702.033	2454.74
702.379	2475.53
702.724	2460.39
703.069	2477.79
703.415	2468.07
703.76	2456.32
704.105	2446.83
704.45	2468.97
704.795	2458.81
705.14	2451.35
705.485	2427.17
705.83	2421.29
706.175	2438.01
706.52	2412.25
706.865	2437.34
707.209	2394.63
707.554	2429.65
707.899	2447.73
708.243	2427.85
708.588	2408.86
708.932	2377.9
709.277	2423.55
709.621	2392.14
709.966	2429.43
710.31	2399.15
710.654	2375.87
710.998	2429.43
711.342	2403.89
711.687	2434.85
712.031	2380.84
712.375	2380.62
712.719	2395.76
713.063	2388.75
713.407	2414.74
713.75	2434.85
714.094	2410.22
714.438	2402.76
714.782	2429.2
715.125	2407.28
715.469	2405.7
715.812	2413.16
716.156	2407.96
716.499	2428.98
716.843	2456.55
717.186	2432.37
717.53	2431.46
717.873	2435.08
718.216	2461.74
718.559	2461.29
718.902	2452.48
719.246	2441.18
719.589	2468.3
719.932	2471.46
720.275	2457
720.617	2452.03
720.96	2482.76
721.303	2449.77
721.646	2490.89
721.989	2474.17
722.331	2472.36
722.674	2489.09
723.016	2508.52
723.359	2524.34
723.701	2498.58
724.044	2522.53
724.386	2493.38
724.729	2528.63
725.071	2533.83
725.413	2479.14
725.755	2530.89
726.097	2548.07
726.439	2528.86
726.782	2541.52
727.124	2588.07
727.465	2555.3
727.807	2575.64
728.149	2576.99
728.491	2568.41
728.833	2595.98
729.175	2569.31
729.516	2600.5
729.858	2622.19
730.199	2638.46
730.541	2645.24
730.882	2606.37
731.224	2639.37
731.565	2670.1
731.906	2626.48
732.248	2636.43
732.589	2642.98
732.93	2623.77
733.271	2713.49
733.612	2679.82
733.953	2646.15
734.294	2674.84
734.635	2695.18
734.976	2687.95
735.317	2743.54
735.658	2746.71
735.999	2718.01
736.339	2791.68
736.68	2769.98
737.021	2791.23
737.361	2825.12
737.702	2820.6
738.042	2783.99
738.383	2844.11
738.723	2874.39
739.063	2897.89
739.404	2889.98
739.744	2911.22
740.084	2938.57
740.424	2954.39
740.764	2908.51
741.104	3038.68
741.444	3003.88
741.784	3051.33
742.124	3063.76
742.464	3081.61
742.804	3108.05
743.143	3106.25
743.483	3148.5
743.823	3171.1
744.162	3214.04
744.502	3259.91
744.841	3227.82
745.181	3319.57
745.52	3365.67
745.86	3385.56
746.199	3432.57
746.538	3445.67
746.877	3481.6
747.216	3524.99
747.556	3530.64
747.895	3620.81
748.234	3594.37
748.573	3722.5
748.911	3735.16
749.25	3806.34
749.589	3838.66
749.928	3922.5
750.267	3949.84
750.605	3997.52
750.944	4054.02
751.283	4091.76
751.621	4201.13
751.96	4250.4
752.298	4367.46
752.636	4398.64
752.975	4453.56
753.313	4524.97
753.651	4560.67
753.989	4625.3
754.327	4690.16
754.666	4756.15
755.004	4886.99
755.342	4985.07
755.679	5051.28
756.017	5091.5
756.355	5205.17
756.693	5309.58
757.031	5390.93
757.368	5417.82
757.706	5605.39
758.044	5622.56
758.381	5708.21
758.719	5771.49
759.056	5925.38
759.394	5955.66
759.731	6032.27
760.068	6144.36
760.405	6245.82
760.743	6281.08
761.08	6401.3
761.417	6473.39
761.754	6556.78
762.091	6691.91
762.428	6766.26
762.765	6795.41
763.102	6869.76
763.438	6948.63
763.775	7003.54
764.112	7104.56
764.449	7270.43
764.785	7272.24
765.122	7336.87
765.458	7417.32
765.795	7442.18
766.131	7525.34
766.467	7652.57
766.804	7662.74
767.14	7701.38
767.476	7897.31
767.812	7857.76
768.148	7934.82
768.485	8000.81
768.821	8052.33
769.157	8081.03
769.492	8136.62
769.828	8255.49
770.164	8222.04
770.5	8318.99
770.836	8428.37
771.171	8397.18
771.507	8457.74
771.842	8445.77
772.178	8533.67
772.513	8616.61
772.849	8608.93
773.184	8674.91
773.519	8661.81
773.855	8719.43
774.19	8765.31
774.525	8820.22
774.86	8772.76
775.195	8877.17
775.53	8906.55
775.865	8886.88
776.2	8786.32
776.535	8840.11
776.87	8888.01
777.205	8941.35
777.539	8865.64
777.874	8891.63
778.209	8907
778.543	8927.79
778.878	8957.84
779.212	8959.43
779.547	8932.08
779.881	9023.15
780.215	8979.99
780.55	9102.7
780.884	9040.55
781.218	9007.33
781.552	9076.26
781.886	9132.08
782.22	9064.06
782.554	9065.19
782.888	9023.83
783.222	9006.88
783.556	9040.1
783.889	8944.28
784.223	8931.4
784.557	8996.71
784.89	9086.43
785.224	8956.49
785.557	8986.77
785.891	9013.21
786.224	8991.97
786.558	9058.63
786.891	8939.99
787.224	9035.81
787.557	8962.59
787.891	8981.12
788.224	8964.85
788.557	9012.76
788.89	8963.95
789.223	9019.08
789.556	8912.42
789.888	8942.25
790.221	8946.32
790.554	8887.56
790.887	8897.05
791.219	8901.8
791.552	8859.32
791.884	8944.74
792.217	8870.84
792.549	8890.27
792.882	8845.76
793.214	8751.75
793.546	8836.04
793.879	8782.93
794.211	8736.83
794.543	8821.8
794.875	8748.36
795.207	8857.96
795.539	8752.2
795.871	8765.76
796.203	8723.27
796.535	8676.27
796.867	8678.98
797.198	8722.82
797.53	8645.08
797.862	8627
798.193	8642.37
798.525	8662.03
798.856	8601.02
799.188	8562.15
799.519	8588.36
799.85	8453.68
800.182	8506.33
800.513	8617.74
800.844	8532.54
801.175	8558.31
801.506	8545.2
801.837	8461.81
802.168	8422.04
802.499	8406.45
802.83	8348.59
803.161	8443.73
803.491	8457.52
803.822	8322.83
804.153	8446.22
804.483	8357.63
804.814	8330.06
805.145	8371.64
805.475	8303.85
805.805	8332.1
806.136	8328.93
806.466	8361.48
806.796	8294.81
807.126	8256.39
807.457	8200.58
807.787	8279.9
808.117	8210.52
808.447	8165.1
808.777	8250.29
809.107	8199.22
809.436	8135.94
809.766	8156.96
810.096	8200.58
810.426	8135.27
810.755	8151.54
811.085	8170.52
811.414	8126.9
811.744	8118.54
812.073	8074.7
812.403	8070.64
812.732	8067.02
813.061	8038.32
813.39	7994.03
813.719	8017.98
814.049	8045.1
814.378	8050.97
814.707	8006.46
815.036	8011.43
815.365	8005.78
815.693	7982.28
816.022	7937.08
816.351	7879.91
816.68	7824.54
817.008	7893.69
817.337	7851.43
817.665	7882.84
817.994	7855.95
818.322	7863.41
818.651	7789.29
818.979	7794.03
819.307	7891.2
819.636	7763.07
819.964	7690.08
820.292	7801.49
820.62	7774.82
820.948	7763.98
821.276	7742.06
821.604	7709.51
821.932	7798.78
822.259	7813.69
822.587	7805.33
822.915	7752.23
823.243	7792.9
823.57	7754.49
823.898	7782.28
824.225	7750.19
824.553	7801.26
824.88	7819.79
825.207	7815.5
825.535	7726.01
825.862	7817.08
826.189	7808.95
826.516	7857.08
826.843	7858.66
827.17	7869.96
827.497	7821.83
827.824	7821.15
828.151	7863.41
828.478	7860.7
828.805	7910.41
829.131	7809.85
829.458	7829.51
829.785	7822.96
830.111	7829.29
830.438	7843.75
830.764	7905.89
831.09	7924.42
831.417	7813.24
831.743	7852.11
832.069	7874.03
832.395	7836.29
832.722	7885.1
833.048	7819.79
833.374	7845.33
833.7	7812.56
834.026	7872.67
834.351	7814.82
834.677	7815.27
835.003	7880.81
835.329	7889.17
835.654	7785.45
835.98	7791.55
836.306	7864.76
836.631	7728.95
836.956	7872.45
837.282	7802.17
837.607	7756.75
837.932	7745.45
838.258	7726.46
838.583	7832.68
838.908	7723.53
839.233	7759.46
839.558	7719.01
839.883	7648.95
840.208	7651.21
840.533	7709.97
840.858	7698.44
841.182	7680.59
841.507	7628.84
841.832	7656.63
842.156	7640.36
842.481	7646.92
842.805	7679.69
843.13	7529.41
843.454	7605.56
843.778	7507.94
844.103	7592
844.427	7549.29
844.751	7599.46
845.075	7494.83
845.399	7463.87
845.723	7432.01
846.047	7445.34
846.371	7405.79
846.695	7408.28
847.019	7276.08
847.343	7340.94
847.666	7297.32
847.99	7298
848.313	7286.02
848.637	7218.91
848.96	7203.99
849.284	7182.52
849.607	7080.83
849.931	7114.28
850.254	7074.28
850.577	7075.18
850.9	7000.83
851.223	6930.1
851.546	6991.12
851.869	6879.93
852.192	7022.98
852.515	6921.74
852.838	6909.31
853.161	6858.24
853.483	6859.59
853.806	6789.54
854.129	6834.74
854.451	6807.17
854.774	6812.14
855.096	6740.73
855.419	6679.26
855.741	6710.9
856.063	6683.1
856.385	6619.83
856.708	6630
857.03	6672.48
857.352	6641.29
857.674	6559.94
857.996	6547.06
858.318	6528.98
858.64	6539.38
858.961	6505.7
859.283	6479.04
859.605	6502.99
859.926	6459.38
860.248	6447.85
860.57	6412.15
860.891	6397.91
861.212	6417.35
861.534	6412.37
861.855	6399.27
862.176	6359.49
862.498	6410.57
862.819	6417.35
863.14	6349.32
863.461	6345.71
863.782	6275.43
864.103	6331.25
864.424	6308.2
864.745	6341.87
865.065	6346.61
865.386	6240.85
865.707	6278.82
866.027	6324.92
866.348	6235.43
866.668	6272.04
866.989	6225.49
867.309	6202.21
867.63	6223
867.95	6195.88
868.27	6183.91
868.59	6177.13
868.91	6194.53
869.23	6166.96
869.55	6095.55
869.87	6170.57
870.19	6129.22
870.51	6138.71
870.83	6160.63
871.15	6066.62
871.469	6108.2
871.789	6064.36
872.109	6103.23
872.428	6060.29
872.748	6045.15
873.067	6069.78
873.386	6081.08
873.706	6047.19
874.025	6077.92
874.344	6041.99
874.663	6023.01
874.982	5984.59
875.301	6026.17
875.62	6000.41
875.939	5983.46
876.258	5999.05
876.577	5929.9
876.896	5987.07
877.214	5969.22
877.533	5951.59
877.852	5952.72
878.17	5920.41
878.489	5959.28
878.807	5950.47
879.125	5931.03
879.444	5891.26
879.762	5924.93
880.08	5865.5
880.398	5823.01
880.716	5864.82
881.034	5825.72
881.352	5825.04
881.67	5794.76
881.988	5785.72
882.306	5764.71
882.624	5742.56
882.941	5732.39
883.259	5736.69
883.577	5744.82
883.894	5737.14
884.212	5728.55
884.529	5678.38
884.846	5678.38
885.164	5650.81
885.481	5701.88
885.798	5665.73
886.115	5696.69
886.432	5619.4
886.75	5637.03
887.067	5608.78
887.383	5597.48
887.7	5562.68
888.017	5595.22
888.334	5535.79
888.651	5487.65
888.967	5592.73
889.284	5533.53
889.6	5472.51
889.917	5529.23
890.233	5487.2
890.55	5514.32
890.866	5496.92
891.182	5376.47
891.498	5435.68
891.815	5409.91
892.131	5380.99
892.447	5353.87
892.763	5381.44
893.079	5308
893.395	5313.42
893.71	5297.15
894.026	5294.44
894.342	5251.5
894.657	5240.2
894.973	5191.16
895.289	5181.45
895.604	5188
895.92	5169.69
896.235	5137.38
896.55	5129.92
896.865	5125.4
897.181	5110.49
897.496	5106.87
897.811	5060.77
898.126	5075.46
898.441	5032.52
898.756	5056.25
899.071	5027.55
899.386	5035.69
899.7	4979.19
900.015	4922.47
900.33	4897.16
900.644	4965.86
900.959	4948.01
901.273	4905.97
901.588	4815.58
901.902	4843.83
902.216	4849.48
902.531	4828.91
902.845	4840.66
903.159	4775.58
903.473	4739.88
903.787	4687.67
904.101	4766.54
904.415	4744.62
904.729	4701.68
905.042	4699.2
905.356	4636.38
905.67	4605.87
905.984	4633.89
906.297	4655.58
906.611	4581.69
906.924	4576.72
907.237	4546.89
907.551	4556.83
907.864	4561.8
908.177	4567.68
908.491	4493.55
908.804	4523.38
909.117	4459.88
909.43	4492.2
909.743	4430.05
910.056	4401.81
910.368	4407.45
910.681	4338.98
910.994	4382.6
911.307	4342.6
911.619	4312.09
911.932	4377.63
912.244	4341.24
912.557	4270.96
912.869	4305.54
913.181	4220.57
913.494	4260.79
913.806	4216.95
914.118	4182.6
914.43	4198.65
914.742	4157.52
915.054	4102.83
915.366	4116.84
915.678	4077.52
915.99	4084.07
916.302	4105.54
916.613	4083.17
916.925	4072.77
917.236	4072.77
917.548	4043.4
917.859	4040.23
918.171	3991.42
918.482	3972.44
918.794	3949.61
919.105	3967.69
919.416	3921.14
919.727	3878.88
920.038	3910.29
920.349	3922.72
920.66	3889.95
920.971	3837.98
921.282	3840.01
921.593	3833.23
921.903	3815.61
922.214	3816.28
922.525	3768.83
922.835	3750.97
923.146	3751.2
923.456	3746
923.767	3724.08
924.077	3725.66
924.387	3703.74
924.697	3687.93
925.008	3688.38
925.318	3691.54
925.628	3682.73
925.938	3683.18
926.248	3608.61
926.558	3621.26
926.867	3616.52
927.177	3576.97
927.487	3550.3
927.796	3550.08
928.106	3607.02
928.416	3558.44
928.725	3504.65
929.034	3526.8
929.344	3468.04
929.653	3503.52
929.962	3463.75
930.271	3483.41
930.581	3414.26
930.89	3405.22
931.199	3412.45
931.508	3405
931.817	3346.92
932.125	3395.5
932.434	3409.74
932.743	3355.05
933.051	3369.06
933.36	3359.35
933.669	3308.95
933.977	3267.15
934.286	3282.51
934.594	3286.13
934.902	3218.11
935.21	3233.7
935.519	3213.14
935.827	3247.49
936.135	3206.58
936.443	3192.35
936.751	3167.94
937.059	3155.51
937.367	3148.96
937.674	3153.48
937.982	3121.16
938.29	3132.69
938.597	3118
938.905	3085.23
939.213	3098.34
939.52	3080.03
939.827	3036.42
940.135	3072.12
940.442	2994.61
940.749	3017.89
941.056	2987.83
941.363	2951.9
941.67	2961.39
941.977	2965.68
942.284	2972.69
942.591	2939.92
942.898	2951.22
943.205	2939.47
943.511	2901.51
943.818	2890.21
944.125	2869.42
944.431	2867.61
944.738	2879.81
945.044	2900.15
945.35	2845.69
945.657	2806.37
945.963	2824.67
946.269	2814.28
946.575	2778.12
946.881	2764.56
947.187	2757.78
947.493	2745.58
947.799	2712.36
948.105	2744
948.41	2721.17
948.716	2756.88
949.022	2713.94
949.327	2753.03
949.633	2677.78
949.938	2680.72
950.244	2677.78
950.549	2662.87
950.854	2643.89
951.16	2668.29
951.465	2576.09
951.77	2633.49
952.075	2567.28
952.38	2623.32
952.685	2601.85
952.99	2563.66
953.294	2601.17
953.599	2581.06
953.904	2545.81
954.209	2523.66
954.513	2537.45
954.818	2502.19
955.122	2505.13
955.426	2504.91
955.731	2478.69
956.035	2481.86
956.339	2464.45
956.643	2483.66
956.948	2448.41
957.252	2457.68
957.556	2433.95
957.86	2442.76
958.163	2399.82
958.467	2424.23
958.771	2383.33
959.075	2376.55
959.378	2384.01
959.682	2332.93
959.985	2365.02
960.289	2351.01
960.592	2325.48
960.896	2352.14
961.199	2330
961.502	2301.07
961.805	2293.16
962.108	2279.6
962.411	2276.89
962.714	2254.97
963.017	2259.04
963.32	2261.52
963.623	2248.42
963.926	2238.47
964.228	2210.9
964.531	2183.56
964.833	2217.68
965.136	2212.94
965.438	2205.7
965.741	2172.71
966.043	2161.19
966.345	2153.28
966.648	2147.4
966.95	2153.95
967.252	2164.58
967.554	2123.9
967.856	2132.94
968.158	2111.92
968.46	2104.46
968.761	2099.04
969.063	2098.14
969.365	2066.95
969.666	2073.28
969.968	2068.99
970.269	2078.7
970.571	2044.35
970.872	2028.31
971.174	2043
971.475	2064.92
971.776	2019.95
972.077	1992.15
972.378	2004.13
972.679	2002.32
972.98	1976.33
973.281	1973.17
973.582	1970.91
973.883	1961.87
974.183	1936.56
974.484	1977.46
974.785	1930.91
975.085	1940.17
975.386	1929.78
975.686	1906.05
975.986	1922.1
976.287	1865.15
976.587	1898.82
976.887	1853.4
977.187	1904.47
977.487	1900.4
977.787	1850.23
978.087	1876.67
978.387	1847.3
978.687	1859.05
978.987	1818.37
979.286	1829.9
979.586	1802.78
979.885	1799.84
980.185	1812.95
980.484	1784.25
980.784	1780.18
981.083	1784.47
981.382	1766.39
981.682	1783.34
981.981	1756
982.28	1768.88
982.579	1725.04
982.878	1753.06
983.177	1726.85
983.475	1719.62
983.774	1719.16
984.073	1711.71
984.372	1683.01
984.67	1696.79
984.969	1686.4
985.267	1696.79
985.566	1661.31
985.864	1669.22
986.162	1674.65
986.461	1661.76
986.759	1660.18
987.057	1628.32
987.355	1644.82
987.653	1611.6
987.951	1624.93
988.249	1607.08
988.547	1631.93
988.844	1571.6
989.142	1609.79
989.44	1608.66
989.737	1536.12
990.035	1559.62
990.332	1590.35
990.63	1539.51
990.927	1563.69
991.224	1549.9
991.521	1539.28
991.819	1534.99
992.116	1526.4
992.413	1511.71
992.71	1476.46
993.006	1480.98
993.303	1498.15
993.6	1484.82
993.897	1487.98
994.193	1483.01
994.49	1495.67
994.787	1486.63
995.083	1436.69
995.379	1457.93
995.676	1462
995.972	1411.15
996.268	1441.43
996.565	1455.67
996.861	1416.12
997.157	1401.21
997.453	1406.86
997.749	1389
998.044	1388.55
998.34	1399.85
998.636	1391.49
998.932	1390.58
999.227	1366.86
999.523	1358.72
999.818	1343.13
1000.114	1345.16
1000.409	1342
1000.704	1327.99
1001	1330.47
1001.295	1346.74
1001.59	1327.08
1001.885	1308.1
1002.18	1306.75
1002.475	1309.91
1002.77	1290.93
1003.065	1307.88
1003.359	1298.38
1003.654	1264.94
1003.949	1254.54
1004.243	1274.88
1004.538	1248.22
1004.832	1242.11
1005.127	1220.87
1005.421	1220.42
1005.715	1228.78
1006.009	1234.88
1006.304	1225.17
1006.598	1225.17
1006.892	1211.61
1007.186	1206.41
1007.48	1211.38
1007.773	1170.7
1008.067	1177.71
1008.361	1191.04
1008.655	1166.64
1008.948	1150.14
1009.242	1146.07
1009.535	1154.43
1009.829	1131.83
1010.122	1129.57
1010.415	1119.41
1010.708	1125.28
1011.001	1111.27
1011.295	1102.46
1011.588	1116.47
1011.881	1108.78
1012.173	1089.35
1012.466	1104.94
1012.759	1050.48
1013.052	1102.23
1013.344	1081.21
1013.637	1070.37
1013.93	1078.95
1014.222	1078.05
1014.514	1060.88
1014.807	1089.12
1015.099	1059.75
1015.391	1027.66
1015.683	1049.58
1015.976	1037.6
1016.268	1026.07
1016.56	1036.02
1016.851	1023.81
1017.143	997.15
1017.435	1015.23
1017.727	1001.67
1018.018	968.68
1018.31	1001.67
1018.602	969.81
1018.893	1002.12
1019.185	973.42
1019.476	946.98
1019.767	954.21
1020.058	958.51
1020.35	924.83
1020.641	941.33
1020.932	952.18
1021.223	948.79
1021.514	912.18
1021.804	904.04
1022.095	899.52
1022.386	900.2
1022.677	917.15
1022.967	888
1023.258	868.79
1023.548	898.85
1023.839	900.65
1024.129	879.86
1024.419	842.35
1024.709	863.14
1025	850.71
1025.29	835.12
1025.58	838.06
1025.87	831.28
1026.16	865.85
1026.449	836.93
1026.739	860.88
1027.029	838.06
1027.319	817.94
1027.608	831.5
1027.898	837.15
1028.187	820.43
1028.477	821.56
1028.766	810.94
1029.055	824.27
1029.344	805.06
1029.634	792.41
1029.923	776.14
1030.212	764.61
1030.501	775.23
1030.79	757.38
1031.078	775.01
1031.367	803.26
1031.656	770.04
1031.945	771.17
1032.233	764.61
1032.522	749.25
1032.81	730.94
1033.099	759.42
1033.387	726.87
1033.675	744.73
1033.963	723.48
1034.251	733.88
1034.54	757.61
1034.828	761.45
1035.116	712.18
1035.403	714.22
1035.691	716.93
1035.979	712.64
1036.267	695.69
1036.554	739.98
1036.842	717.61
1037.129	672.64
1037.417	693.65
1037.704	690.04
1037.992	660.21
1038.279	680.32
1038.566	669.02
1038.853	669.02
1039.14	669.02
