Data from blue_shiny_book_FLMS001491_00094.txt Node
Date: Wed Feb 08 15:27:48 GMT 2017
User: dcchb
Spectrometer: FLMS00149
Trigger mode: 0
Integration Time (sec): 2.000000E-2
Scans to average: 10
Electric dark correction enabled: true
Nonlinearity correction enabled: false
Boxcar width: 0
XAxis mode: Wavelengths
Number of Pixels in Spectrum: 2048
>>>>>Begin Spectral Data<<<<<
341.393	6.65
341.776	6.65
342.16	6.65
342.543	-49.17
342.927	-70.18
343.31	-71.31
343.693	-63.18
344.077	-54.36
344.46	-75.83
344.843	-52.78
345.226	-52.33
345.61	-14.82
345.993	-20.47
346.376	-1.48
346.759	19.76
347.142	8.23
347.525	40.1
347.908	54.11
348.291	76.48
348.674	97.5
349.057	110.38
349.44	136.37
349.823	155.35
350.206	168.23
350.588	177.95
350.971	216.14
351.354	202.81
351.737	232.64
352.119	259.75
352.502	276.02
352.884	263.37
353.267	255.23
353.65	288
354.032	281.45
354.414	297.04
354.797	334.55
355.179	324.61
355.562	318.28
355.944	344.72
356.326	337.49
356.709	351.5
357.091	333.88
357.473	345.4
357.855	338.62
358.238	337.04
358.62	355.12
359.002	351.05
359.384	331.39
359.766	342.69
360.148	352.41
360.53	348.11
360.912	340.2
361.294	333.42
361.676	342.91
362.057	339.52
362.439	346.08
362.821	319.64
363.203	332.07
363.584	318.28
363.966	310.83
364.348	342.24
364.729	338.17
365.111	319.64
365.493	310.83
365.874	315.57
366.256	342.24
366.637	326.19
367.019	316.93
367.4	325.51
367.781	306.08
368.163	326.42
368.544	308.57
368.925	325.29
369.306	325.51
369.688	302.69
370.069	292.97
370.45	321.9
370.831	325.29
371.212	319.19
371.593	331.84
371.974	333.2
372.355	310.15
372.736	309.24
373.117	314.89
373.498	330.94
373.879	322.35
374.26	323.93
374.641	323.48
375.021	337.04
375.402	329.36
375.783	328.9
376.163	327.77
376.544	346.53
376.925	341.78
377.305	328.23
377.686	338.85
378.066	324.38
378.447	372.97
378.827	345.63
379.208	344.72
379.588	332.97
379.968	355.12
380.349	331.84
380.729	354.21
381.109	355.12
381.489	358.51
381.87	376.36
382.25	360.54
382.63	346.98
383.01	363.48
383.39	354.89
383.77	360.54
384.15	361.9
384.53	384.72
384.91	395.79
385.29	373.42
385.67	371.39
386.049	390.37
386.429	385.17
386.809	391.28
387.189	384.95
387.568	379.52
387.948	390.6
388.328	404.38
388.707	383.82
389.087	411.16
389.466	417.04
389.846	419.3
390.225	408.9
390.605	392.63
390.984	431.73
391.363	443.48
391.743	429.01
392.122	414.78
392.501	430.82
392.881	443.7
393.26	452.29
393.639	431.73
394.018	452.06
394.397	456.36
394.776	461.33
395.155	468.56
395.534	449.13
395.913	486.41
396.292	477.37
396.671	469.01
397.05	476.47
397.429	488.67
397.808	499.29
398.186	480.09
398.565	474.44
398.944	497.94
399.323	486.87
399.701	513.08
400.08	508.11
400.458	494.1
400.837	516.92
401.215	518.05
401.594	524.6
401.972	525.96
402.351	520.31
402.729	529.12
403.107	548.79
403.486	525.28
403.864	547.2
404.242	565.96
404.62	563.7
404.999	563.02
405.377	566.64
405.755	592.85
406.133	575.22
406.511	558.95
406.889	580.42
407.267	625.39
407.645	601.89
408.023	604.38
408.401	595.34
408.779	629.91
409.156	636.47
409.534	653.87
409.912	656.8
410.29	643.02
410.667	666.07
411.045	654.32
411.422	663.13
411.8	704.04
412.178	711.72
412.555	717.59
412.933	710.36
413.31	729.8
413.687	728.22
414.065	732.73
414.442	763.24
414.819	762.34
415.197	753.53
415.574	781.77
415.951	794.43
416.328	763.69
416.705	813.18
417.082	810.25
417.46	806.63
417.837	850.25
418.214	846.63
418.591	865.16
418.967	852.28
419.344	869.68
419.721	881.43
420.098	855.9
420.475	855.9
420.852	873.3
421.228	910.13
421.605	906.52
421.982	923.01
422.358	946.06
422.735	931.83
423.111	940.64
423.488	961.66
423.864	959.85
424.241	1002.33
424.617	998.94
424.994	977.7
425.37	1000.07
425.746	1014.54
426.123	1043.46
426.499	1041.43
426.875	1056.79
427.251	1077.58
427.627	1088.66
428.003	1101.31
428.379	1127.98
428.756	1123.69
429.132	1137.02
429.507	1155.55
429.883	1150.58
430.259	1167.3
430.635	1198.71
431.011	1234.64
431.387	1258.6
431.763	1254.3
432.138	1265.83
432.514	1305.83
432.89	1313.96
433.265	1302.66
433.641	1328.65
434.016	1347.86
434.392	1365.03
434.767	1383.57
435.143	1386.28
435.518	1411.59
435.894	1436.9
436.269	1472.15
436.644	1476.22
437.02	1481.19
437.395	1526.16
437.77	1533.84
438.145	1542.21
438.52	1553.73
438.895	1577.01
439.271	1565.93
439.646	1618.81
440.021	1646.84
440.395	1651.81
440.77	1651.58
441.145	1707.85
441.52	1700.39
441.895	1718.02
442.27	1738.13
442.645	1717.79
443.019	1734.74
443.394	1779.26
443.769	1762.99
444.143	1746.72
444.518	1800.05
444.892	1809.54
445.267	1835.3
445.641	1834.63
446.016	1836.43
446.39	1872.37
446.764	1872.37
447.139	1896.55
447.513	1903.33
447.887	1924.34
448.262	1940.39
448.636	1956.88
449.01	1984.68
449.384	1981.74
449.758	2004.11
450.132	2031.91
450.506	2047.73
450.88	2048.41
451.254	2054.06
451.628	2080.72
452.002	2114.17
452.376	2113.49
452.75	2184.67
453.123	2157.1
453.497	2222.64
453.871	2223.32
454.244	2287.04
454.618	2286.37
454.992	2311.9
455.365	2346.03
455.739	2397.78
456.112	2376.31
456.486	2447.27
456.859	2465.12
457.232	2529.75
457.606	2522.97
457.979	2543.31
458.352	2589.86
458.725	2646.13
459.099	2623.08
459.472	2652.01
459.845	2733.81
460.218	2748.5
460.591	2781.49
460.964	2795.73
461.337	2848.61
461.71	2904.43
462.083	2941.94
462.456	2953.24
462.829	2995.05
463.201	3019.91
463.574	3030.98
463.947	3079.79
464.32	3168.83
464.692	3176.29
465.065	3199.79
465.438	3240.24
465.81	3339.67
466.183	3310.07
466.555	3435.71
466.928	3449.95
467.3	3480.23
467.672	3487.01
468.045	3602.49
468.417	3632.55
468.789	3614.47
469.161	3685.65
469.534	3754.12
469.906	3832.09
470.278	3849.94
470.65	3894.69
471.022	3967
471.394	4007.23
471.766	4054.46
472.138	4072.76
472.51	4217.84
472.882	4298.74
473.253	4305.52
473.625	4399.76
473.997	4499.42
474.369	4501.9
474.74	4571.28
475.112	4647.89
475.484	4721.33
475.855	4796.36
476.227	4855.11
476.598	4887.43
476.97	5024.37
477.341	5126.97
477.713	5179.4
478.084	5241.99
478.455	5384.82
478.827	5479.95
479.198	5598.6
479.569	5647.63
479.94	5795.2
480.311	5798.59
480.682	5976.66
481.053	6042.43
481.424	6171.01
481.795	6220.05
482.166	6312.02
482.537	6370.55
482.908	6557.67
483.279	6634.95
483.65	6775.51
484.021	6911.78
484.391	6978.9
484.762	7050.31
485.133	7071.55
485.503	7168.72
485.874	7362.39
486.244	7503.18
486.615	7612.1
486.985	7664.3
487.356	7808.93
487.726	7909.04
488.097	8035.59
488.467	8072.65
488.837	8237.85
489.207	8337.73
489.578	8523.49
489.948	8634.9
490.318	8715.8
490.688	8785.4
491.058	8959.19
491.428	9086.87
491.798	9178.39
492.168	9397.82
492.538	9414.31
492.908	9517.36
493.278	9548.32
493.648	9649.79
494.017	9725.94
494.387	9801.2
494.757	9885.26
495.126	10028.99
495.496	10104.69
495.866	10196.21
496.235	10363.67
496.605	10417
496.974	10571.12
497.344	10636.2
497.713	10745.13
498.082	10881.62
498.452	10916.87
498.821	11097.21
499.19	11089.07
499.559	11109.19
499.928	11099.47
500.298	11285.68
500.667	11289.75
501.036	11317.99
501.405	11446.35
501.774	11558.44
502.143	11651.77
502.512	11691.99
502.88	11897.41
503.249	11899
503.618	12036.39
503.987	12096.73
504.356	12220.34
504.724	12256.73
505.093	12322.03
505.462	12404.07
505.83	12462.37
506.199	12546.44
506.567	12700.56
506.936	12592.08
507.304	12780.55
507.672	12853.55
508.041	12814
508.409	12970.38
508.777	13135.12
509.145	13310.94
509.514	13291.95
509.882	13405.4
510.25	13564.49
510.618	13605.62
510.986	13722
511.354	13923.57
511.722	13973.74
512.09	14109.33
512.458	14178.94
512.826	14225.71
513.193	14314.75
513.561	14245.6
513.929	14427.52
514.297	14424.13
514.664	14598.81
515.032	14596.1
515.4	14706.38
515.767	14816.88
516.135	14984.34
516.502	14954.06
516.869	15284.89
517.237	15258.91
517.604	15392.24
517.972	15653.7
518.339	15646.47
518.706	15776.18
519.073	15734.37
519.44	15968.49
519.808	15990.64
520.175	15927.14
520.542	16231.76
520.909	16307.47
521.276	16351.31
521.643	16399.22
522.009	16470.17
522.376	16645.31
522.743	16790.62
523.11	16932.76
523.477	17209.59
523.843	17296.37
524.21	17548.79
524.577	17782.46
524.943	17870.82
525.31	17934.09
525.676	18080.98
526.043	18182.9
526.409	18342.67
526.776	18396.45
527.142	18313.29
527.508	18417.69
527.874	18565.49
528.241	18685.26
528.607	18726.84
528.973	18996.44
529.339	18794.63
529.705	19070.33
530.071	19346.26
530.437	19446.37
530.803	19671.67
531.169	19770.43
531.535	19840.48
531.901	19970.87
532.267	20149.4
532.632	20210.64
532.998	20337.87
533.364	20395.04
533.73	20567.69
534.095	20682.04
534.461	20654.7
534.826	20717.52
535.192	20668.48
535.557	20815.6
535.923	20846.78
536.288	20814.69
536.653	20987.34
537.019	20898.53
537.384	21173.55
537.749	21324.06
538.114	21348.46
538.479	21459.65
538.845	21595.46
539.21	21720.21
539.575	21814.44
539.94	21915.23
540.305	21991.84
540.67	21907.09
541.034	22064.83
541.399	22152.28
541.764	22169.69
542.129	22234.54
542.494	22169.01
542.858	22269.34
543.223	22159.74
543.587	22268.21
543.952	22253.75
544.316	22415.33
544.681	22436.8
545.045	22606.51
545.41	22636.57
545.774	22809.67
546.138	22702.78
546.503	22924.47
546.867	22829.78
547.231	23248.75
547.595	23355.19
547.959	23536.66
548.324	23367.39
548.688	23484.91
549.052	23590.21
549.416	23621.85
549.779	23473.61
550.143	23498.69
550.507	23592.02
550.871	23643.77
551.235	23528.97
551.599	23754.95
551.962	23609.87
552.326	23752.69
552.689	23799.02
553.053	23716.54
553.417	23906.36
553.78	24281.72
554.143	24176.41
554.507	24406.01
554.87	24419.34
555.234	24877.86
555.597	24679
555.96	24700.69
556.323	24911.53
556.686	24943.85
557.05	25025.43
557.413	25169.38
557.776	25017.52
558.139	25187.23
558.502	25153.56
558.865	25218.42
559.228	25342.94
559.59	25315.14
559.953	25164.41
560.316	25462.71
560.679	25553.78
561.041	25669.25
561.404	25779.53
561.767	25902.02
562.129	25945.18
562.492	26211.39
562.854	26276.47
563.217	26335
563.579	26600.3
563.941	26767.76
564.304	26966.62
564.666	27029.67
565.028	27123.45
565.39	27160.97
565.753	27294.97
566.115	27371.36
566.477	27509.21
566.839	27456.55
567.201	27517.57
567.563	27466.04
567.925	27581.29
568.287	27505.14
568.648	27523.67
569.01	27571.58
569.372	27737.9
569.734	27751.69
570.095	27987.61
570.457	28041.85
570.819	28103.31
571.18	28239.81
571.542	28529.07
571.903	28581.27
572.265	28760.92
572.626	28850.64
572.987	28956.4
573.349	29058.09
573.71	29216.73
574.071	29306.45
574.432	29224.19
574.794	29400.46
575.155	29294.24
575.516	29122.95
575.877	29332.89
576.238	29252.21
576.599	29442.04
576.96	29350.29
577.32	29325.2
577.681	29452.43
578.042	29509.83
578.403	29501.7
578.763	29543.05
579.124	29774.46
579.485	29878.41
579.845	29922.02
580.206	29912.31
580.566	30007.45
580.927	30182.58
581.287	30286.76
581.648	30216.48
582.008	30425.06
582.368	30457.6
582.728	30576.47
583.089	30492.63
583.449	30413.99
583.809	30448.56
584.169	30550.93
584.529	30564.94
584.889	30612.63
585.249	30435
585.609	30380.99
585.969	30432.52
586.329	30428.68
586.688	30322.92
587.048	30291.73
587.408	30263.71
587.768	30283.14
588.127	30421.22
588.487	30441.78
588.846	30643.36
589.206	30480.65
589.565	30612.63
589.925	30739.18
590.284	30733.08
590.643	30663.25
591.003	30920.87
591.362	31056.46
591.721	31040.41
592.08	31087.42
592.44	31081.54
592.799	31102.78
593.158	31142.78
593.517	31099.62
593.876	31138.72
594.235	31118.15
594.593	31049.68
594.952	31003.58
595.311	30962.22
595.67	30897.14
596.029	31093.07
596.387	31116.79
596.746	31039.51
597.104	30984.14
597.463	30882.22
597.822	31089.68
598.18	31023.46
598.538	30838.84
598.897	31221.2
599.255	30939.4
599.613	31475.88
599.972	31259.84
600.33	31497.12
600.688	31421.42
601.046	31507.97
601.404	31819.6
601.762	31536.9
602.12	31740.73
602.478	31700.51
602.836	31777.12
603.194	31636.1
603.552	31673.39
603.91	31589.55
604.268	31721.98
604.625	31464.81
604.983	31654.63
605.341	31399.73
605.698	31528.54
606.056	31588.19
606.413	31594.07
606.771	31715.2
607.128	31721.98
607.485	31572.15
607.843	31595.2
608.2	31860.28
608.557	31982.53
608.914	31836.78
609.272	32010.56
609.629	32022.31
609.986	32256.65
610.343	32053.04
610.7	32346.82
611.057	32364.9
611.414	32441.05
611.771	32499.36
612.127	32667.04
612.484	32654.61
612.841	32733.02
613.198	32643.53
613.554	32549.53
613.911	32841.04
614.267	32730.31
614.624	32657.55
614.98	32726.24
615.337	32939.8
615.693	32667.26
616.05	32594.72
616.406	32810.31
616.762	32567.38
617.118	32767.6
617.475	32610.99
617.831	32795.39
618.187	32795.39
618.543	32755.17
618.899	33027.48
619.255	32904.09
619.611	32922.17
619.967	33126.46
620.323	33264.31
620.678	33094.6
621.034	33070.64
621.39	33410.75
621.746	33213.46
622.101	33555.15
622.457	33351.31
622.812	33373.01
623.168	33573
623.523	33530.52
623.879	33678.08
624.234	33382.27
624.589	33600.8
624.945	33528.26
625.3	33618.88
625.655	33654.36
626.01	33436.06
626.365	33408.71
626.72	33347.92
627.075	33304.99
627.43	33322.61
627.785	33213.01
628.14	33231.99
628.495	33262.5
628.85	33205.55
629.205	33155.16
629.559	33118.55
629.914	33163.29
630.269	33157.19
630.623	33056.63
630.978	33081.71
631.332	33337.08
631.687	33185.89
632.041	33136.63
632.396	33447.81
632.75	33205.1
633.104	33265.66
633.459	33124.65
633.813	33053.92
634.167	33146.12
634.521	33054.82
634.875	33203.97
635.229	33029.29
635.583	32944.32
635.937	32925.79
636.291	33016.86
636.645	32897.31
636.999	32857.77
637.352	32786.13
637.706	32570.99
638.06	32701.16
638.413	32599.69
638.767	32447.61
639.121	32431.11
639.474	32190.66
639.828	32291.68
640.181	32356.99
640.534	32104.57
640.888	32161.51
641.241	31965.59
641.594	32120.38
641.947	32298.91
642.301	32267.27
642.654	32232.25
643.007	32279.48
643.36	32211.23
643.713	32243.32
644.066	32442.64
644.419	32375.07
644.771	32306.59
645.124	32191.79
645.477	32172.59
645.83	32115.41
646.182	31854.63
646.535	31554.3
646.888	31425.26
647.24	31018.72
647.593	31093.74
647.945	31025.05
648.298	30940.75
648.65	30737.14
649.002	30755.22
649.355	30832.96
649.707	30958.15
650.059	31138.26
650.411	31515.65
650.763	31315.21
651.115	31730.56
651.467	31528.31
651.819	31526.28
652.171	31424.36
652.523	31359.05
652.875	31430.91
653.227	31261.42
653.578	31592.71
653.93	31483.79
654.282	31383
654.633	31282.21
654.985	31479.05
655.337	31468.88
655.688	31399.5
656.039	31673.39
656.391	31407.86
656.742	31578.25
657.094	31637.23
657.445	31764.46
657.796	31730.79
658.147	31592.94
658.498	31528.99
658.849	31714.52
659.2	31494.64
659.551	31514.98
659.902	31604.24
660.253	31453.74
660.604	31554.3
660.955	31286.96
661.306	31378.03
661.656	31361.76
662.007	31190.01
662.358	31070.24
662.708	31211.48
663.059	31096.46
663.409	30927.65
663.76	31039.96
664.11	30986.63
664.461	30919.06
664.811	30989.79
665.161	30943.69
665.511	30759.06
665.862	30932.39
666.212	31072.05
666.562	31096
666.912	31007.19
667.262	31196.34
667.612	31227.53
667.962	31233.18
668.312	31276.79
668.662	31402.44
669.011	31406.28
669.361	31360.86
669.711	31479.05
670.06	31276.34
670.41	31322.21
670.76	31360.86
671.109	31341.65
671.459	31228.2
671.808	31152.95
672.157	31199.96
672.507	31001.09
672.856	31003.8
673.205	30953.64
673.554	31020.07
673.904	30779.18
674.253	30883.81
674.602	30750.02
674.951	30078.63
675.3	30177.16
675.649	30611.95
675.998	30414.44
676.346	30294.22
676.695	30352.52
677.044	30032.08
677.393	30230.26
677.741	30149.36
678.09	30275.46
678.438	30203.6
678.787	30208.12
679.135	30191.62
679.484	30041.12
679.832	30278.62
680.181	30084.28
680.529	30183.03
680.877	30317.72
681.225	30244.95
681.573	30490.37
681.922	30386.19
682.27	30291.28
682.618	30343.93
682.966	30254.22
683.314	30367.21
683.661	30178.06
684.009	30111.62
684.357	29918.18
684.705	29905.98
685.053	29844.29
685.4	29747.11
685.748	29587.12
686.095	29459.44
686.443	29454.47
686.79	29322.72
687.138	29386.9
687.485	29191.42
687.832	29130.63
688.18	29078.88
688.527	28813.35
688.874	28633.02
689.221	28490.88
689.568	28485.23
689.915	28509.18
690.262	28409.97
690.609	28380.14
690.956	28288.39
691.303	28174.05
691.65	28049.53
691.997	28045.01
692.344	27863.55
692.69	28001.62
693.037	27887.28
693.383	27693.38
693.73	27838.01
694.077	27567.74
694.423	27873.49
694.769	27707.39
695.116	27548.98
695.462	27671.91
695.808	27558.24
696.155	27699.26
696.501	27660.61
696.847	27415.2
697.193	27238.03
697.539	27283.22
697.885	27048.2
698.231	26923.68
698.577	26918.26
698.923	26873.29
699.269	26769.56
699.614	26606.4
699.96	26527.99
700.306	26456.58
700.651	26284.38
700.997	26210.03
701.342	26055.23
701.688	25933.2
702.033	25829.48
702.379	25787.22
702.724	25506.77
703.069	25699.99
703.415	25354.69
703.76	25409.6
704.105	25438.3
704.45	25321.02
704.795	25232.43
705.14	25126.9
705.485	25195.59
705.83	25038.99
706.175	24993.34
706.52	25069.04
706.865	25075.82
707.209	25123.28
707.554	25067.24
707.899	25130.74
708.243	24870.41
708.588	24991.53
708.932	24753.57
709.277	24987.69
709.621	25012.55
709.966	24677.19
710.31	24919.67
710.654	24502.96
710.998	24626.12
711.342	24652.78
711.687	24449.85
712.031	24417.99
712.375	24339.57
712.719	24269.97
713.063	24196.07
713.407	24199.01
713.75	24018.9
714.094	23947.72
714.438	23744.11
714.782	23772.13
715.125	23656.65
715.469	23636.09
715.812	23445.36
716.156	23388.41
716.499	23414.62
716.843	23348.19
717.186	23124.01
717.53	23298.7
717.873	23256.44
718.216	23144.35
718.559	23054.63
718.902	22962.66
719.246	23080.62
719.589	23049.44
719.932	22952.49
720.275	22983.68
720.617	22930.34
720.96	23094.41
721.303	23094.18
721.646	23143.45
721.989	23069.32
722.331	23182.54
722.674	23182.99
723.016	23213.73
723.359	23162.65
723.701	23109.1
724.044	23088.98
724.386	22927.18
724.729	23174.4
725.071	22961.76
725.413	23051.02
725.755	22989.1
726.097	22890.12
726.439	22701.2
726.782	22748.65
727.124	22828.43
727.465	22616.91
727.807	22587.53
728.149	22507.98
728.491	22541.2
728.833	22586.17
729.175	22489
729.516	22473.63
729.858	22370.58
730.199	22394.54
730.541	22459.62
730.882	22354.99
731.224	22343.01
731.565	22181.89
731.906	22178.27
732.248	22242.23
732.589	22116.58
732.93	22148.9
733.271	22112.74
733.612	22222.34
733.953	22332.39
734.294	22203.58
734.635	22086.3
734.976	22273.86
735.317	22130.14
735.658	22248.78
735.999	22266.18
736.339	22295.33
736.68	22395.22
737.021	22315.9
737.361	22206.75
737.702	22468.89
738.042	22402.9
738.383	22377.82
738.723	22416.46
739.063	22497.13
739.404	22603.57
739.744	22598.15
740.084	22525.16
740.424	22611.71
740.764	22587.08
741.104	22711.59
741.444	22391.15
741.784	22397.02
742.124	22541.2
742.464	22370.13
742.804	22406.29
743.143	22444.25
743.483	22391.15
743.823	22324.48
744.162	22219.4
744.502	22314.31
744.841	22199.52
745.181	22300.76
745.52	22210.14
745.86	22251.72
746.199	22291.26
746.538	22230.47
746.877	22370.58
747.216	22328.33
747.556	22304.37
747.895	22427.31
748.234	22244.03
748.573	22316.8
748.911	22352.73
749.25	22479.06
749.589	22370.36
749.928	22437.93
750.267	22520.64
750.605	22457.81
750.944	22549.56
751.283	22583.23
751.621	22685.15
751.96	22580.52
752.298	22635.44
752.636	22764.92
752.975	22630.92
753.313	22710.91
753.651	22959.72
753.989	22821.87
754.327	22904.13
754.666	22977.35
755.004	23058.02
755.342	23152.48
755.679	23013.28
756.017	23019.15
756.355	23109.77
756.693	23088.98
757.031	23182.31
757.368	23104.12
757.706	23041.07
758.044	23026.84
758.381	23087.63
758.719	23086.95
759.056	23045.59
759.394	22943.68
759.731	22903.45
760.068	22936.44
760.405	22923.34
760.743	22917.24
761.08	23013.96
761.417	22835.2
761.754	22947.29
762.091	22786.62
762.428	22732.61
762.765	22590.24
763.102	22624.59
763.438	22649.67
763.775	22571.71
764.112	22674.76
764.449	22763.12
764.785	22750.24
765.122	22678.6
765.458	22546.17
765.795	22670.69
766.131	22576.23
766.467	22510.24
766.804	22548.21
767.14	22400.19
767.476	22587.98
767.812	22476.12
768.148	22595.66
768.485	22404.03
768.821	22402.9
769.157	22387.76
769.492	22358.16
769.828	22395.67
770.164	22284.48
770.5	22299.63
770.836	22381.88
771.171	22235.67
771.507	22223.47
771.842	21957.71
772.178	21990.71
772.513	22124.71
772.849	21926.53
773.184	21861.44
773.519	21862.12
773.855	21729.25
774.19	21729.92
774.525	21661
774.86	21705.97
775.195	21593.2
775.53	21543.49
775.865	21385.98
776.2	21253.55
776.535	21195.25
776.87	21097.4
777.205	20985.54
777.539	20911.19
777.874	20968.14
778.209	20816.73
778.543	20706.67
778.878	20635.49
779.212	20602.04
779.547	20547.58
779.881	20548.71
780.215	20409.28
780.55	20416.06
780.884	20322.95
781.218	20357.53
781.552	20262.84
781.886	20109.17
782.22	20114.37
782.554	19981.04
782.888	19778.34
783.222	19776.98
783.556	19699.47
783.889	19648.85
784.223	19599.58
784.557	19546.93
784.89	19609.53
785.224	19437.1
785.557	19422.87
785.891	19398.91
786.224	19299.25
786.558	19381.06
786.891	19209.31
787.224	19115.3
787.557	19132.7
787.891	19174.96
788.224	19093.38
788.557	19082.99
788.89	18974.29
789.223	18997.79
789.556	18900.17
789.888	18911.24
790.221	18817.01
790.554	18652.26
790.887	18692.71
791.219	18571.36
791.552	18466.51
791.884	18336.79
792.217	18327.07
792.549	18289.34
792.882	18201.65
793.214	18073.52
793.546	18118.72
793.879	18080.98
794.211	18040.75
794.543	18079.85
794.875	17988.33
795.207	17856.58
795.539	17771.83
795.871	17698.39
796.203	17553.31
796.535	17506.08
796.867	17335.24
797.198	17332.07
797.53	17293.43
797.862	17163.94
798.193	17206.43
798.525	17116.94
798.856	17238.74
799.188	16995.81
799.519	16918.07
799.85	16765.08
800.182	16893.89
800.513	16873.55
800.844	16679.43
801.175	16839.66
801.506	16775.7
801.837	16665.2
802.168	16587.91
802.499	16598.98
802.83	16526.67
803.161	16486.45
803.491	16564.41
803.822	16495.71
804.153	16425.88
804.483	16311.99
804.814	16304.3
805.145	16243.51
805.475	16356.5
805.805	16361.25
806.136	16273.57
806.466	16248.94
806.796	16213.23
807.126	16085.78
807.457	16062.05
807.787	16100.92
808.117	16072.9
808.447	16020.24
808.777	15967.59
809.107	15932.79
809.436	15928.49
809.766	15861.6
810.096	15866.8
810.426	15711.32
810.755	15772.34
811.085	15696.86
811.414	15595.4
811.744	15515.62
812.073	15527.83
812.403	15519.24
812.732	15375.51
813.061	15451.22
813.39	15279.7
813.719	15177.78
814.049	15216.42
814.378	15112.02
814.707	15117.44
815.036	15074.96
815.365	14975.52
815.693	14951.57
816.022	14911.12
816.351	14852.36
816.68	14758.35
817.008	14831.35
817.337	14664.8
817.665	14703.44
817.994	14623.9
818.322	14660.73
818.651	14534.41
818.979	14437.01
819.307	14575.76
819.636	14383
819.964	14406.27
820.292	14551.13
820.62	14391.81
820.948	14382.09
821.276	14531.69
821.604	14461.87
821.932	14540.28
822.259	14445.59
822.587	14499.38
822.915	14484.01
823.243	14585.48
823.57	14555.2
823.898	14599.49
824.225	14407.4
824.553	14474.07
824.88	14551.58
825.207	14617.79
825.535	14553.61
825.862	14737.56
826.189	14587.74
826.516	14673.84
826.843	14639.04
827.17	14648.98
827.497	14731.46
827.824	14661.41
828.151	14627.06
828.478	14631.35
828.805	14580.28
829.131	14574.86
829.458	14570.11
829.785	14541.86
830.111	14599.04
830.438	14622.09
830.764	14578.25
831.09	14578.7
831.417	14419.38
831.743	14486.5
832.069	14533.73
832.395	14451.24
832.722	14501.19
833.048	14388.87
833.374	14321.53
833.7	14390.91
834.026	14279.72
834.351	14345.48
834.677	14299.38
835.003	14297.12
835.329	14245.6
835.654	14161.08
835.98	14097.36
836.306	14132.61
836.631	14053.51
836.956	14020.75
837.282	14089.67
837.607	13990.92
837.932	13962.22
838.258	13971.48
838.583	13957.7
838.908	13907.76
839.233	13927.42
839.558	13858.27
839.883	13728.1
840.208	13901.65
840.533	13907.3
840.858	13828.21
841.182	13921.99
841.507	13886.97
841.832	13767.42
842.156	13808.1
842.481	13784.82
842.805	13707.99
843.13	13680.87
843.454	13667.76
843.778	13726.52
844.103	13678.38
844.427	13585.5
844.751	13582.57
845.075	13577.14
845.399	13590.7
845.723	13455.11
846.047	13550.03
846.371	13485.39
846.695	13432.29
847.019	13276.13
847.343	13298.05
847.666	13236.36
847.99	13113.43
848.313	13185.06
848.637	13089.7
848.96	13061.9
849.284	12918.4
849.607	12939.19
849.931	12855.81
850.254	12778.97
850.577	12632.31
850.9	12566.77
851.223	12604.51
851.546	12536.49
851.869	12411.98
852.192	12452.43
852.515	12314.8
852.838	12217.86
853.161	12303.73
853.483	12194.35
853.806	12026
854.129	12160.91
854.451	12117.29
854.774	11993
855.096	11964.76
855.419	11892.89
855.741	11776.51
856.063	11717.08
856.385	11731.54
856.708	11637.98
857.03	11721.6
857.352	11659.45
857.674	11685.44
857.996	11617.42
858.318	11632.11
858.64	11514.15
858.961	11481.38
859.283	11397.31
859.605	11351.21
859.926	11488.16
860.248	11307.15
860.57	11301.04
860.891	11347.6
861.212	11252.91
861.534	11326.81
861.855	11288.62
862.176	11323.87
862.498	11266.24
862.819	11283.19
863.14	11241.61
863.461	11233.93
863.782	11214.27
864.103	11261.5
864.424	11111.22
864.745	11223.98
865.065	11225.11
865.386	11182.63
865.707	11194.15
866.027	11167.94
866.348	11118.45
866.668	11104.44
866.989	11057.21
867.309	10993.26
867.63	11056.76
867.95	11010.2
868.27	11024.22
868.59	11070.77
868.91	11083.2
869.23	11051.79
869.55	10959.13
869.87	11060.37
870.19	10906.7
870.51	10911.9
870.83	10975.18
871.15	10818.12
871.469	10781.74
871.789	10792.13
872.109	10827.84
872.428	10647.73
872.748	10737.22
873.067	10721.17
873.386	10686.6
873.706	10733.83
874.025	10632.81
874.344	10576.32
874.663	10608.63
874.982	10464.23
875.301	10474.4
875.62	10472.82
875.939	10417
876.258	10387.4
876.577	10358.02
876.896	10397.57
877.214	10352.6
877.533	10352.82
877.852	10244.35
878.17	10336.32
878.489	10333.61
878.807	10231.47
879.125	10263.33
879.444	10214.52
879.762	10208.64
880.08	10150.11
880.398	10191.7
880.716	10100.17
881.034	10041.42
881.352	10087.74
881.67	10086.84
881.988	10089.55
882.306	10082.09
882.624	10025.15
882.941	10029.67
883.259	9904.92
883.577	9993.73
883.894	9970.23
884.212	9986.95
884.529	9997.12
884.846	9934.98
885.164	9919.16
885.481	9820.86
885.798	9939.27
886.115	9906.28
886.432	9921.19
886.75	9864.7
887.067	9906.73
887.383	9900.4
887.7	9902.89
888.017	9809.11
888.334	9820.18
888.651	9790.58
888.967	9815.89
889.284	9763.91
889.6	9659.96
889.917	9611.6
890.233	9677.81
890.55	9607.08
890.866	9641.88
891.182	9612.95
891.498	9578.15
891.815	9558.94
892.131	9565.72
892.447	9512.84
892.763	9445.73
893.079	9313.3
893.395	9289.12
893.71	9345.16
894.026	9302.68
894.342	9208.67
894.657	9223.36
894.973	9169.8
895.289	9147.88
895.604	9067.43
895.92	8971.39
896.235	9050.71
896.55	8964.61
896.865	8984.5
897.181	8928.23
897.496	8910.37
897.811	8831.28
898.126	8730.72
898.441	8726.88
898.756	8703.15
899.071	8657.05
899.386	8675.58
899.7	8554.45
900.015	8532.76
900.33	8472.87
900.644	8451.85
900.959	8521
901.273	8382.03
901.588	8309.94
901.902	8352.65
902.216	8359.2
902.531	8318.75
902.845	8227.45
903.159	8213.44
903.473	8224.06
903.787	8265.42
904.101	8142.48
904.415	8177.28
904.729	8161.92
905.042	8068.81
905.356	8042.6
905.67	8108.81
905.984	8063.39
906.297	8060.9
906.611	8001.92
906.924	8001.92
907.237	8013
907.551	7971.19
907.864	7954.92
908.177	7973
908.491	7891.64
908.804	7904.98
909.117	7874.69
909.43	7753.12
909.743	7773.23
910.056	7763.51
910.368	7771.19
910.681	7715.38
910.994	7687.35
911.307	7665.43
911.619	7629.05
911.932	7626.34
912.244	7518.32
912.557	7547.92
912.869	7520.58
913.181	7495.95
913.494	7502.27
913.806	7389.51
914.118	7384.09
914.43	7433.35
914.742	7356.97
915.054	7331.43
915.366	7301.38
915.678	7241.49
915.99	7248.27
916.302	7176.86
916.613	7134.83
916.925	7119.69
917.236	7110.19
917.548	7060.48
917.859	6988.39
918.171	6950.2
918.482	6978.67
918.794	6867.94
919.105	6879.47
919.416	6796.3
919.727	6774.38
920.038	6786.81
920.349	6675.86
920.66	6681.73
920.971	6653.03
921.282	6632.24
921.593	6588.63
921.903	6568.51
922.214	6531.68
922.525	6494.39
922.835	6462.53
923.146	6420.72
923.456	6436.31
923.767	6386.82
924.077	6352.47
924.387	6318.58
924.697	6348.41
925.008	6279.93
925.318	6264.11
925.628	6222.76
925.938	6226.38
926.248	6172.59
926.558	6130.79
926.867	6116.32
927.177	6076.32
927.487	6053.5
927.796	6043.1
928.106	5993.16
928.416	6013.73
928.725	5982.54
929.034	5942.09
929.344	5950.68
929.653	5915.42
929.962	5900.51
930.271	5886.05
930.581	5866.16
930.89	5863.22
931.199	5858.93
931.508	5815.77
931.817	5862.09
932.125	5806.95
932.434	5801.3
932.743	5741.42
933.051	5725.15
933.36	5710.23
933.669	5709.78
933.977	5723.11
934.286	5666.16
934.594	5636.33
934.902	5592.49
935.21	5565.38
935.519	5577.58
935.827	5604.25
936.135	5572.83
936.443	5508.65
936.751	5493.97
937.059	5452.84
937.367	5434.76
937.674	5460.29
937.982	5409.45
938.29	5381.65
938.597	5308.43
938.905	5277.93
939.213	5271.6
939.52	5193.86
939.827	5202.9
940.135	5199.06
940.442	5165.39
940.749	5141.66
941.056	5168.78
941.363	5124.94
941.67	5063.24
941.977	5041.55
942.284	4985.05
942.591	4947.99
942.898	4960.42
943.205	4962.23
943.511	4934.43
943.818	4909.35
944.125	4846.07
944.431	4811.72
944.738	4841.78
945.044	4750.71
945.35	4799.29
945.657	4660.09
945.963	4680.2
946.269	4699.18
946.575	4684.95
946.881	4628.68
947.187	4642.01
947.493	4557.72
947.799	4529.92
948.105	4564.05
948.41	4536.02
948.716	4514.78
949.022	4517.95
949.327	4519.53
949.633	4446.54
949.938	4437.5
950.244	4431.39
950.549	4378.51
950.854	4369.48
951.16	4354.79
951.465	4345.75
951.77	4331.51
952.075	4315.92
952.38	4359.08
952.685	4322.02
952.99	4280.66
953.294	4258.29
953.599	4268.69
953.904	4298.29
954.209	4245.41
954.513	4262.13
954.818	4221.46
955.122	4226.2
955.426	4181.23
955.731	4148.92
956.035	4150.5
956.339	4138.97
956.643	4153.89
956.948	4148.46
957.252	4134.68
957.556	4111.63
957.86	4091.29
958.163	4094
958.467	4026.89
958.771	3997.96
959.075	4022.59
959.378	3991.63
959.682	4019.2
959.985	4024.17
960.289	3947.79
960.592	3984.4
960.896	3932.65
961.199	3950.28
961.502	3918.41
961.805	3935.81
962.108	3868.7
962.411	3862.6
962.714	3862.6
963.017	3824.18
963.32	3840.22
963.623	3773.11
963.926	3755.93
964.228	3765.88
964.531	3693.11
964.833	3731.75
965.136	3674.58
965.438	3664.64
965.741	3685.65
966.043	3632.77
966.345	3621.92
966.648	3585.54
966.95	3573.11
967.252	3523.85
967.554	3579.21
967.856	3521.81
968.158	3462.38
968.46	3499.44
968.761	3492.44
969.063	3477.07
969.365	3433.91
969.666	3454.47
969.968	3356.39
970.269	3375.15
970.571	3393.23
970.872	3341.48
971.174	3331.76
971.475	3354.13
971.776	3328.6
972.077	3334.93
972.378	3316.85
972.679	3274.59
972.98	3245.21
973.281	3242.95
973.582	3214.25
973.883	3204.31
974.183	3211.09
974.484	3136.29
974.785	3133.8
975.085	3120.92
975.386	3129.28
975.686	3124.08
975.986	3112.11
976.287	3169.96
976.587	3057.87
976.887	3027.59
977.187	3048.15
977.487	3027.14
977.787	3044.76
978.087	3015.61
978.387	3035.95
978.687	2984.65
978.987	3002.05
979.286	2980.81
979.586	2907.14
979.885	2936.97
980.185	2944.2
980.484	2960.47
980.784	2908.5
981.083	2903.98
981.382	2923.64
981.682	2906.69
981.981	2941.04
982.28	2894.03
982.579	2828.05
982.878	2879.8
983.177	2867.37
983.475	2865.79
983.774	2834.83
984.073	2843.19
984.372	2820.14
984.67	2825.11
984.969	2850.19
985.267	2819.23
985.566	2765
985.864	2794.38
986.162	2781.04
986.461	2738.33
986.759	2775.39
987.057	2688.16
987.355	2701.27
987.653	2661.95
987.951	2695.17
988.249	2690.42
988.547	2633.02
988.844	2612.91
989.142	2635.74
989.44	2606.13
989.737	2580.6
990.035	2554.61
990.332	2570.43
990.63	2550.99
990.927	2578.79
991.224	2522.97
991.521	2526.13
991.819	2499.69
992.116	2500.6
992.413	2487.27
992.71	2505.8
993.006	2443.65
993.303	2438.23
993.6	2426.25
993.897	2391.67
994.193	2407.49
994.49	2396.42
994.787	2372.69
995.083	2403.88
995.379	2344.22
995.676	2337.89
995.972	2328.17
996.268	2324.11
996.565	2320.49
996.861	2307.61
997.157	2286.59
997.453	2294.28
997.749	2262.86
998.044	2243.88
998.34	2255.18
998.636	2184.45
998.932	2193.26
999.227	2206.59
999.523	2179.25
999.818	2164.56
1000.114	2127.73
1000.409	2159.36
1000.704	2101.96
1001	2141.29
1001.295	2117.33
1001.59	2119.59
1001.885	2111.68
1002.18	2063.55
1002.475	2076.88
1002.77	2086.37
1003.065	2047.95
1003.359	2059.25
1003.654	2099.7
1003.949	2037.33
1004.243	2017.9
1004.538	2009.09
1004.832	2013.15
1005.127	1991.01
1005.421	1986.71
1005.715	1949.88
1006.009	1949.88
1006.304	1914.17
1006.598	1922.76
1006.892	1929.77
1007.186	1934.06
1007.48	1922.99
1007.773	1899.48
1008.067	1901.29
1008.361	1904.23
1008.655	1878.69
1008.948	1868.52
1009.242	1856.55
1009.535	1834.17
1009.829	1827.62
1010.122	1825.59
1010.415	1798.92
1010.708	1802.99
1011.001	1828.75
1011.295	1809.77
1011.588	1770.45
1011.881	1771.35
1012.173	1765.7
1012.466	1766.15
1012.759	1753.27
1013.052	1735.42
1013.344	1735.19
1013.637	1717.34
1013.93	1699.49
1014.222	1692.48
1014.514	1727.06
1014.807	1699.94
1015.099	1645.48
1015.391	1703.56
1015.683	1658.36
1015.976	1661.98
1016.268	1641.64
1016.56	1650.22
1016.851	1636.44
1017.143	1607.74
1017.435	1590.79
1017.727	1593.96
1018.018	1582.2
1018.31	1539.72
1018.602	1559.83
1018.893	1575.2
1019.185	1537.46
1019.476	1528.42
1019.767	1543.11
1020.058	1481.19
1020.35	1492.49
1020.641	1476.67
1020.932	1476.22
1021.223	1467.4
1021.514	1442.55
1021.804	1439.38
1022.095	1444.35
1022.386	1439.16
1022.677	1397.35
1022.967	1395.09
1023.258	1380.4
1023.548	1373.85
1023.839	1384.47
1024.129	1372.04
1024.419	1373.17
1024.709	1373.4
1025	1367.29
1025.29	1327.97
1025.58	1304.7
1025.87	1311.25
1026.16	1325.94
1026.449	1322.55
1026.739	1285.04
1027.029	1310.57
1027.319	1254.98
1027.608	1252.5
1027.898	1297.24
1028.187	1241.65
1028.477	1236
1028.766	1258.82
1029.055	1213.85
1029.344	1212.95
1029.634	1202.55
1029.923	1195.32
1030.212	1187.41
1030.501	1167.98
1030.79	1174.31
1031.078	1176.57
1031.367	1159.84
1031.656	1161.42
1031.945	1158.71
1032.233	1144.25
1032.522	1125.94
1032.81	1126.4
1033.099	1119.39
1033.387	1128.88
1033.675	1101.09
1033.963	1113.52
1034.251	1125.49
1034.54	1097.47
1034.828	1079.39
1035.116	1107.19
1035.403	1073.52
1035.691	1081.88
1035.979	1073.52
1036.267	1066.96
1036.554	1060.86
1036.842	1025.16
1037.129	1046.4
1037.417	1046.17
1037.704	1033.97
1037.992	1008.43
1038.279	1024.25
1038.566	1013.86
1038.853	1013.86
1039.14	1013.86
