Data from blue_shiny_book_FLMS001491_00080.txt Node
Date: Wed Feb 08 15:27:32 GMT 2017
User: dcchb
Spectrometer: FLMS00149
Trigger mode: 0
Integration Time (sec): 2.000000E-2
Scans to average: 10
Electric dark correction enabled: true
Nonlinearity correction enabled: false
Boxcar width: 0
XAxis mode: Wavelengths
Number of Pixels in Spectrum: 2048
>>>>>Begin Spectral Data<<<<<
341.393	-22.77
341.776	-22.77
342.16	-22.77
342.543	-64.57
342.927	-83.33
343.31	-64.12
343.693	-87.17
344.077	-74.29
344.46	-49.43
344.843	-42.2
345.226	-46.72
345.61	-42.65
345.993	-20.51
346.376	-1.75
346.759	-5.37
347.142	30.34
347.525	50
347.908	72.82
348.291	84.12
348.674	91.35
349.057	105.59
349.44	113.5
349.823	170.22
350.206	154.63
350.588	204.34
350.971	222.88
351.354	240.05
351.737	260.61
352.119	252.03
352.502	262.87
352.884	294.74
353.267	286.15
353.65	310.33
354.032	312.14
354.414	306.26
354.797	321.4
355.179	322.31
355.562	330.44
355.944	341.29
356.326	341.52
356.709	353.72
357.091	338.58
357.473	337.22
357.855	356.88
358.238	352.14
358.62	348.07
359.002	364.11
359.384	362.08
359.766	347.84
360.148	344.91
360.53	354.4
360.912	344
361.294	349.43
361.676	335.41
362.057	343.78
362.439	323.21
362.821	334.96
363.203	335.41
363.584	319.6
363.966	344.45
364.348	341.06
364.729	312.82
365.111	339.48
365.493	336.09
365.874	336.77
366.256	333.38
366.637	330.67
367.019	335.19
367.4	324.79
367.781	322.99
368.163	354.4
368.544	332.7
368.925	324.79
369.306	358.01
369.688	310.33
370.069	341.06
370.45	309.2
370.831	338.35
371.212	342.87
371.593	329.09
371.974	328.41
372.355	355.53
372.736	344.91
373.117	335.64
373.498	345.13
373.879	310.78
374.26	336.54
374.641	335.87
375.021	337
375.402	351.23
375.783	325.25
376.163	350.56
376.544	352.14
376.925	336.77
377.305	354.17
377.686	355.98
378.066	361.63
378.447	369.99
378.827	353.72
379.208	359.6
379.588	374.06
379.968	358.24
380.349	341.97
380.729	365.92
381.109	372.7
381.489	374.96
381.87	363.21
382.25	385.58
382.63	366.83
383.01	387.39
383.39	379.93
383.77	381.52
384.15	406.37
384.53	386.26
384.91	395.3
385.29	386.94
385.67	388.97
386.049	411.8
386.429	421.51
386.809	412.02
387.189	410.22
387.568	437.11
387.948	412.93
388.328	431.46
388.707	426.03
389.087	440.5
389.466	432.36
389.846	440.5
390.225	426.94
390.605	432.14
390.984	443.66
391.363	468.29
391.743	463.77
392.122	452.93
392.501	465.35
392.881	474.39
393.26	454.73
393.639	479.37
394.018	451.8
394.397	484.56
394.776	502.64
395.155	480.72
395.534	490.89
395.913	480.04
396.292	484.34
396.671	488.41
397.05	514.85
397.429	505.58
397.808	521.85
398.186	524.11
398.565	512.81
398.944	517.56
399.323	530.44
399.701	509.87
400.08	537.22
400.458	540.61
400.837	557.78
401.215	562.75
401.594	558.91
401.972	539.03
402.351	585.13
402.729	591.91
403.107	573.15
403.486	603.66
403.864	583.32
404.242	580.15
404.62	610.44
404.999	610.21
405.377	632.13
405.755	630.77
406.133	625.8
406.511	647.72
406.889	632.58
407.267	640.49
407.645	659.25
408.023	663.54
408.401	671.68
408.779	673.03
409.156	694.95
409.534	705.12
409.912	715.52
410.29	697.89
410.667	721.39
411.045	752.81
411.422	756.19
411.8	771.34
412.178	752.81
412.555	778.34
412.933	765.46
413.31	780.15
413.687	789.41
414.065	821.96
414.442	834.38
414.819	824.89
415.197	845.01
415.574	839.81
415.951	877.32
416.328	891.33
416.705	877.55
417.082	910.32
417.46	915.74
417.837	919.13
418.214	896.08
418.591	931.56
418.967	927.26
419.344	944.21
419.721	940.82
420.098	958.68
420.475	982.86
420.852	970.65
421.228	986.92
421.605	1007.94
421.982	1049.97
422.358	1033.02
422.735	1036.19
423.111	1039.13
423.488	1061.05
423.864	1090.42
424.241	1096.3
424.617	1072.57
424.994	1126.35
425.37	1128.39
425.746	1117.09
426.123	1152.34
426.499	1145.79
426.875	1186.69
427.251	1209.74
427.627	1221.27
428.003	1244.32
428.379	1263.3
428.756	1261.04
429.132	1297.42
429.507	1283.19
429.883	1281.83
430.259	1337.42
430.635	1367.03
431.011	1351.89
431.387	1390.08
431.763	1428.04
432.138	1413.13
432.514	1442.28
432.89	1449.51
433.265	1488.83
433.641	1491.32
434.016	1514.59
434.392	1539.9
434.767	1576.96
435.143	1555.04
435.518	1580.35
435.894	1616.96
436.269	1632.56
436.644	1693.57
437.02	1702.38
437.395	1716.17
437.77	1744.87
438.145	1729.95
438.52	1764.08
438.895	1810.63
439.271	1781.03
439.646	1814.7
440.021	1834.81
440.395	1854.02
440.77	1837.75
441.145	1917.29
441.52	1945.32
441.895	1942.6
442.27	1933.79
442.645	1951.42
443.019	1994.58
443.394	1984.19
443.769	2003.17
444.143	1975.6
444.518	2027.57
444.892	2034.35
445.267	2049.49
445.641	2129.49
446.016	2114.8
446.39	2100.57
446.764	2161.13
447.139	2127.46
447.513	2180.11
447.887	2192.32
448.262	2179.89
448.636	2216.95
449.01	2255.59
449.384	2280.67
449.758	2275.02
450.132	2281.35
450.506	2304.18
450.88	2336.27
451.254	2350.5
451.628	2376.49
452.002	2465.53
452.376	2420.56
452.75	2484.74
453.123	2508.24
453.497	2547.79
453.871	2576.26
454.244	2606.32
454.618	2636.6
454.992	2615.81
455.365	2662.36
455.739	2746.42
456.112	2750.04
456.486	2804.28
456.859	2828.46
457.232	2916.82
457.606	2891.96
457.979	2953.65
458.352	2999.53
458.725	3001.33
459.099	3013.31
459.472	3082.69
459.845	3167.2
460.218	3158.17
460.591	3211.95
460.964	3188.67
461.337	3297.14
461.71	3327.43
462.083	3403.81
462.456	3420.76
462.829	3431.38
463.201	3510.02
463.574	3544.14
463.947	3566.74
464.32	3634.99
464.692	3721.31
465.065	3691.71
465.438	3729
465.81	3778.71
466.183	3867.75
466.555	3932.83
466.928	3969.44
467.3	4009.22
467.672	4049.89
468.045	4169.21
468.417	4170.79
468.789	4241.07
469.161	4312.71
469.534	4327.17
469.906	4434.29
470.278	4457.57
470.65	4528.75
471.022	4596.77
471.394	4700.27
471.766	4698.46
472.138	4765.58
472.51	4869.53
472.882	4986.37
473.253	5005.57
473.625	5118.34
473.997	5210.09
474.369	5291.22
474.74	5311.78
475.112	5402.63
475.484	5532.34
475.855	5577.99
476.227	5621.38
476.598	5800.58
476.97	5833.8
477.341	5978.2
477.713	6036.73
478.084	6125.09
478.455	6285.54
478.827	6262.72
479.198	6537.74
479.569	6515.37
479.94	6741.57
480.311	6804.85
480.682	7011.85
481.053	7100.66
481.424	7174.33
481.795	7240.09
482.166	7381.78
482.537	7447.77
482.908	7665.62
483.279	7772.73
483.65	7885.05
484.021	8071.93
484.391	8210.24
484.762	8217.24
485.133	8251.82
485.503	8444.13
485.874	8570.23
486.244	8709.88
486.615	8866.04
486.985	8946.49
487.356	9219.02
487.726	9232.81
488.097	9465.12
488.467	9449.07
488.837	9697.43
489.207	9838.89
489.578	9957.76
489.948	10044.76
490.318	10200.69
490.688	10249.96
491.058	10473.45
491.428	10574.47
491.798	10709.38
492.168	10897.62
492.538	10915.25
492.908	11102.82
493.278	11275.92
493.648	11265.3
494.017	11432.75
494.387	11523.37
494.757	11645.85
495.126	11777.83
495.496	11846.52
495.866	11977.14
496.235	12119.06
496.605	12224.59
496.974	12338.49
497.344	12424.36
497.713	12448.99
498.082	12659.61
498.452	12702.1
498.821	12885.59
499.19	12894.63
499.559	12981.64
499.928	13075.87
500.298	13220.05
500.667	13277.22
501.036	13294.17
501.405	13455.75
501.774	13531.45
502.143	13702.52
502.512	13807.6
502.88	13960.14
503.249	13875.85
503.618	14097.09
503.987	14234.48
504.356	14241.72
504.724	14322.39
505.093	14410.07
505.462	14493.69
505.83	14574.59
506.199	14799.22
506.567	14879.21
506.936	14836.5
507.304	15030.85
507.672	15073.56
508.041	15230.16
508.409	15308.81
508.777	15471.51
509.145	15679.42
509.514	15734.33
509.882	15746.54
510.25	15830.15
510.618	16041.67
510.986	16057.04
511.354	16316.46
511.722	16372.96
512.09	16520.53
512.458	16469.68
512.826	16658.15
513.193	16837.13
513.561	16757.58
513.929	16845.94
514.297	16976.11
514.664	17191.69
515.032	17216.33
515.4	17461.29
515.767	17584
516.135	17631.46
516.502	17515.3
516.869	17981.5
517.237	17988.96
517.604	18076.87
517.972	18191.67
518.339	18428.05
518.706	18421.04
519.073	18558.89
519.44	18684.99
519.808	18862.16
520.175	18884.98
520.542	19128.37
520.909	19110.74
521.276	19138.54
521.643	19394.12
522.009	19559.32
522.376	19614
522.743	19821.91
523.11	19949.36
523.477	20261.22
523.843	20422.34
524.21	20707.31
524.577	20967.64
524.943	21023.68
525.31	21028.88
525.676	21279.05
526.043	21388.65
526.409	21518.13
526.776	21716.55
527.142	21787.96
527.508	21877
527.874	21994.28
528.241	22093.03
528.607	22105.01
528.973	22368.96
529.339	22286.25
529.705	22615.28
530.071	22719.01
530.437	22919.91
530.803	23117.19
531.169	23345.21
531.535	23408.03
531.901	23538.87
532.267	23653.45
532.632	23885.3
532.998	23865.64
533.364	24064.06
533.73	24195.35
534.095	24284.16
534.461	24274.22
534.826	24352.64
535.192	24586.08
535.557	24618.84
535.923	24546.3
536.288	24622.91
536.653	24664.27
537.019	24802.34
537.384	24864.49
537.749	25061.32
538.114	25245.04
538.479	25374.53
538.845	25440.74
539.21	25583.56
539.575	25832.82
539.94	25807.97
540.305	25911.47
540.67	25882.54
541.034	26070.56
541.399	26100.16
541.764	26143.32
542.129	26253.15
542.494	26174.06
542.858	26256.77
543.223	26284.79
543.587	26368.18
543.952	26428.74
544.316	26413.37
544.681	26554.84
545.045	26597.78
545.41	26822.85
545.774	26807.49
546.138	26835.51
546.503	26986.01
546.867	27085.9
547.231	27394.82
547.595	27487.92
547.959	27576.73
548.324	27688.82
548.688	27708.03
549.052	27749.16
549.416	27747.58
549.779	27708.93
550.143	27831.42
550.507	27884.07
550.871	27853.11
551.235	27765.88
551.599	27923.84
551.962	28032.77
552.326	27967.68
552.689	28184.4
553.053	28113.44
553.417	28211.07
553.78	28617.84
554.143	28503.49
554.507	28714.1
554.87	28801.33
555.234	29183.47
555.597	29064.6
555.96	29232.51
556.323	29324.48
556.686	29428.21
557.05	29738.94
557.413	29553.4
557.776	29624.36
558.139	29787.52
558.502	29780.29
558.865	29591.37
559.228	29697.13
559.59	29756.79
559.953	29713.63
560.316	30083.79
560.679	29989.32
561.041	30191.81
561.404	30370.33
561.767	30575.3
562.129	30547.73
562.492	30757.89
562.854	30959.47
563.217	30940.71
563.579	31188.39
563.941	31462.05
564.304	31648.26
564.666	31861.37
565.028	31893.91
565.39	31935.04
565.753	31986.79
566.115	32120.79
566.477	32223.16
566.839	32207.8
567.201	32287.8
567.563	32293.22
567.925	32307.91
568.287	32211.19
568.648	32332.77
569.01	32633.1
569.372	32696.37
569.734	32551.07
570.095	32803.71
570.457	33033.31
570.819	33056.14
571.18	33241.22
571.542	33491.15
571.903	33504.49
572.265	33752.84
572.626	33913.97
572.987	34080.06
573.349	34231.92
573.71	34324.13
574.071	34430.11
574.432	34504.91
574.794	34612.25
575.155	34416.78
575.516	34369.1
575.877	34469.21
576.238	34465.59
576.599	34426.72
576.96	34441.64
577.32	34437.12
577.681	34603.21
578.042	34516.21
578.403	34637.34
578.763	34570.9
579.124	34541.75
579.485	34773.15
579.845	34964.79
580.206	35075.52
580.566	35187.83
580.927	35201.84
581.287	35452.91
581.648	35473.02
582.008	35702.62
582.368	35545.56
582.728	35878.89
583.089	35735.16
583.449	35577.88
583.809	35660.14
584.169	35728.16
584.529	35620.36
584.889	35765.67
585.249	35447.94
585.609	35323.42
585.969	35546.47
586.329	35290.65
586.688	35322.97
587.048	35334.27
587.408	35344.21
587.768	35438.22
588.127	35499.46
588.487	35318.9
588.846	35579.23
589.206	35323.65
589.565	35450.2
589.925	35716.41
590.284	35695.16
590.643	35837.53
591.003	35962.73
591.362	36241.82
591.721	36058.54
592.08	36089.96
592.44	36372.21
592.799	36117.52
593.158	36265.09
593.517	36068.49
593.876	36148.48
594.235	35921.15
594.593	36089.73
594.952	36244.53
595.311	35869.4
595.67	35803.18
596.029	35940.81
596.387	35818.55
596.746	35915.72
597.104	35725.9
597.463	35804.31
597.822	35942.61
598.18	36034.14
598.538	36059
598.897	36190.52
599.255	35798.44
599.613	36417.86
599.972	36311.42
600.33	36471.41
600.688	36545.99
601.046	36561.36
601.404	36707.57
601.762	36697.4
602.12	36843.61
602.478	36830.05
602.836	36872.31
603.194	36599.77
603.552	36678.19
603.91	36452.66
604.268	36611.07
604.625	36412.43
604.983	36402.72
605.341	36305.99
605.698	36313.23
606.056	36509.15
606.413	36441.13
606.771	36581.24
607.128	36400
607.485	36370.85
607.843	36514.8
608.2	36718.41
608.557	36811.74
608.914	36808.35
609.272	37031.85
609.629	37035.69
609.986	37268.23
610.343	37230.94
610.7	37451.5
611.057	37419.19
611.414	37473.65
611.771	37448.11
612.127	37672.96
612.484	37759.29
612.841	37766.75
613.198	37646.3
613.554	37732.4
613.911	37805.62
614.267	37669.8
614.624	37640.42
614.98	37758.61
615.337	37901.43
615.693	37620.54
616.05	37472.97
616.406	37742.79
616.762	37543.48
617.118	37555.23
617.475	37661.44
617.831	37666.41
618.187	37756.8
618.543	37733.08
618.899	38033.63
619.255	37929.23
619.611	37915.44
619.967	38113.4
620.323	38158.38
620.678	38087.87
621.034	38242.44
621.39	38426.62
621.746	38472.04
622.101	38742.77
622.457	38496.67
622.812	38562.43
623.168	38610.11
623.523	38716.1
623.879	38824.12
624.234	38332.83
624.589	38684.69
624.945	38611.24
625.3	38590.45
625.655	38371.7
626.01	38260.97
626.365	38311.37
626.72	38248.09
627.075	38107.53
627.43	38239.5
627.785	37994.54
628.14	38039.96
628.495	38189.33
628.85	38171.71
629.205	38040.64
629.559	38185.04
629.914	37931.49
630.269	38089.22
630.623	38006.06
630.978	38065.5
631.332	38362.44
631.687	38387.07
632.041	38198.83
632.396	38385.04
632.75	38307.98
633.104	38368.09
633.459	38150.01
633.813	38071.15
634.167	38180.75
634.521	38192.95
634.875	38117.92
635.229	37935.56
635.583	37863.24
635.937	37842.23
636.291	37758.84
636.645	37632.74
636.999	37459.41
637.352	37495.12
637.706	37360.88
638.06	37533.98
638.413	37351.16
638.767	37312.07
639.121	37135.35
639.474	36855.81
639.828	36944.4
640.181	36809.71
640.534	36879.31
640.888	36837.96
641.241	36730.62
641.594	37019.42
641.947	37038.63
642.301	36954.34
642.654	37148.46
643.007	37044.96
643.36	37033.21
643.713	37006.77
644.066	37156.37
644.419	37024.39
644.771	37070.49
645.124	36962.7
645.477	36935.58
645.83	36869.37
646.182	36560
646.535	36198.2
646.888	36000.69
647.24	35575.84
647.593	35741.94
647.945	35448.16
648.298	35385.11
648.65	35332.91
649.002	35216.08
649.355	35547.82
649.707	35391.44
650.059	35610.19
650.411	36079.56
650.763	36218.09
651.115	36457.4
651.467	36144.64
651.819	36091.76
652.171	36139.67
652.523	35961.82
652.875	36000.92
653.227	35955.27
653.578	36237.52
653.93	36183.29
654.282	36144.19
654.633	35855.16
654.985	36043.4
655.337	36169.5
655.688	35990.52
656.039	36282.72
656.391	36210.86
656.742	36245.88
657.094	36248.82
657.445	36318.2
657.796	36220.35
658.147	36255.83
658.498	36175.6
658.849	36362.49
659.2	36167.92
659.551	36086.79
659.902	36072.1
660.253	35939.9
660.604	36107.81
660.955	36070.75
661.306	35960.92
661.656	35808.38
662.007	35787.36
662.358	35661.27
662.708	35714.82
663.059	35646.8
663.409	35334.72
663.76	35504.66
664.11	35437.77
664.461	35413.14
664.811	35351.22
665.161	35309.41
665.511	35294.5
665.862	35532.23
666.212	35619.46
666.562	35541.27
666.912	35618.55
667.262	35625.79
667.612	35774.94
667.962	35959.34
668.312	35851.77
668.662	36024.65
669.011	35903.29
669.361	35983.74
669.711	35918.43
670.06	35828.49
670.41	35700.59
670.76	35786.46
671.109	35718.44
671.459	35495.85
671.808	35526.35
672.157	35564.32
672.507	35236.64
672.856	35372.91
673.205	35395.28
673.554	35457.66
673.904	35102.18
674.253	35373.82
674.602	35005.46
674.951	34501.07
675.3	34332.04
675.649	34909.65
675.998	34855.41
676.346	34768.86
676.695	34895.18
677.044	34492.48
677.393	34653.83
677.741	34734.06
678.09	34677.11
678.438	34628.98
678.787	34606.15
679.135	34671.46
679.484	34428.53
679.832	34684.57
680.181	34562.76
680.529	34782.87
680.877	34591.92
681.225	34702.19
681.573	35011.34
681.922	34765.24
682.27	34553.27
682.618	34647.51
682.966	34532.71
683.314	34623.1
683.661	34435.54
684.009	34210.68
684.357	34166.16
684.705	34144.47
685.053	34102.21
685.4	33913.74
685.748	33801.2
686.095	33640.53
686.443	33442.57
686.79	33403.02
687.138	33359.18
687.485	33298.62
687.832	33192.86
688.18	33136.59
688.527	32947.21
688.874	32758.97
689.221	32720.1
689.568	32613.44
689.915	32594.45
690.262	32572.53
690.609	32452.08
690.956	32445.31
691.303	32374.12
691.65	32359.43
691.997	32237.63
692.344	32037.86
692.69	32063.17
693.037	32110.85
693.383	31897.07
693.73	32101.81
694.077	31921.48
694.423	31953.34
694.769	31815.27
695.116	31615.5
695.462	31637.42
695.808	31700.47
696.155	31814.36
696.501	31562.39
696.847	31532.79
697.193	31244.88
697.539	31228.84
697.885	30987.26
698.231	30912.46
698.577	30774.16
698.923	30614.17
699.269	30530.55
699.614	30264.57
699.96	30208.75
700.306	30170.11
700.651	30012.37
700.997	29865.03
701.342	29677.02
701.688	29627.07
702.033	29460.98
702.379	29346.86
702.724	29350.02
703.069	29466.17
703.415	28973.53
703.76	29044.49
704.105	29048.11
704.45	28997.49
704.795	28874.1
705.14	28760.66
705.485	28812.63
705.83	28785.29
706.175	28911.61
706.52	28736.93
706.865	28652.64
707.209	28787.1
707.554	28703.71
707.899	28675.46
708.243	28602.02
708.588	28563.83
708.932	28408.58
709.277	28445.41
709.621	28525.63
709.966	28355.02
710.31	28475.47
710.654	27987.57
710.998	28108.02
711.342	28236.83
711.687	28094.91
712.031	27836.39
712.375	27843.62
712.719	27770.85
713.063	27683.62
713.407	27579.9
713.75	27396.62
714.094	27374.25
714.438	27170.42
714.782	27178.55
715.125	27002.28
715.469	26990.99
715.812	26732.01
716.156	26680.03
716.499	26614.95
716.843	26586.48
717.186	26502.41
717.53	26658.79
717.873	26592.8
718.216	26446.37
718.559	26376.76
718.902	26407.27
719.246	26519.13
719.589	26595.29
719.932	26379.25
720.275	26344.9
720.617	26502.64
720.96	26355.97
721.303	26433.03
721.646	26451.79
721.989	26459.7
722.331	26599.58
722.674	26403.2
723.016	26459.7
723.359	26466.48
723.701	26525.69
724.044	26367.95
724.386	26134.28
724.729	26467.84
725.071	26330.44
725.413	26218.8
725.755	26134.74
726.097	26192.59
726.439	26058.13
726.782	25883.9
727.124	26013.84
727.465	25879.38
727.807	25740.85
728.149	25702.21
728.491	25603.45
728.833	25595.09
729.175	25559.16
729.516	25435.77
729.858	25387.86
730.199	25396.45
730.541	25347.41
730.882	25257.7
731.224	25392.16
731.565	25106.06
731.906	25159.85
732.248	25293.63
732.589	25162.11
732.93	25119.62
733.271	25189.22
733.612	25197.81
733.953	25042.56
734.294	25231.71
734.635	25221.99
734.976	25283.01
735.317	25209.34
735.658	25263.57
735.999	25252.27
736.339	25308.32
736.68	25398.26
737.021	25431.93
737.361	25284.36
737.702	25495.21
738.042	25273.97
738.383	25409.33
738.723	25586.73
739.063	25453.62
739.404	25613.39
739.744	25542.66
740.084	25446.39
740.424	25370.91
740.764	25440.52
741.104	25455.88
741.444	25237.36
741.784	25248.43
742.124	25294.76
742.464	25186.06
742.804	25155.1
743.143	25124.59
743.483	25167.08
743.823	25046.86
744.162	25011.15
744.502	25060.64
744.841	24982.68
745.181	25022.68
745.52	24872.62
745.86	25099.06
746.199	25014.09
746.538	25034.43
746.877	24975.22
747.216	24952.17
747.556	24876.46
747.895	25001.43
748.234	24984.94
748.573	24993.98
748.911	24957.59
749.25	24996.24
749.589	25040.3
749.928	25116.23
750.267	25141.99
750.605	25146.06
750.944	25121.43
751.283	25163.69
751.621	25481.19
751.96	25372.04
752.298	25414.76
752.636	25465.15
752.975	25500.18
753.313	25356.23
753.651	25571.59
753.989	25617.69
754.327	25527.29
754.666	25650.68
755.004	25697.01
755.342	25766.38
755.679	25718.25
756.017	25577.01
756.355	25622.66
756.693	25534.98
757.031	25668.99
757.368	25645.71
757.706	25686.61
758.044	25600.97
758.381	25596.22
758.719	25467.18
759.056	25433.96
759.394	25425.38
759.731	25315.55
760.068	25358.03
760.405	25358.94
760.743	25337.24
761.08	25395.09
761.417	25334.76
761.754	25047.99
762.091	25257.47
762.428	25215.21
762.765	25052.73
763.102	25107.19
763.438	25047.53
763.775	24927.08
764.112	24976.57
764.449	24990.59
764.785	24998.5
765.122	24932.28
765.458	24851.83
765.795	24900.19
766.131	24889.8
766.467	24977.03
766.804	24851.61
767.14	24930.93
767.476	24997.14
767.812	24927.99
768.148	24833.53
768.485	24825.39
768.821	24639.41
769.157	24821.32
769.492	24677.83
769.828	24617.26
770.164	24488
770.5	24590.6
770.836	24549.24
771.171	24350.38
771.507	24287.55
771.842	24256.37
772.178	24261.34
772.513	24219.31
772.849	24087.33
773.184	24118.74
773.519	24024.51
773.855	23854.12
774.19	23800.11
774.525	23783.61
774.86	23724.63
775.195	23629.49
775.53	23490.96
775.865	23413.45
776.2	23219.78
776.535	23173.46
776.87	23128.49
777.205	22967.81
777.539	22974.37
777.874	22975.95
778.209	22669.29
778.543	22676.97
778.878	22713.13
779.212	22553.81
779.547	22407.83
779.881	22452.12
780.215	22207.61
780.55	22346.59
780.884	22181.39
781.218	22092.81
781.552	22072.02
781.886	21983.89
782.22	21878.8
782.554	21768.52
782.888	21614.4
783.222	21602.65
783.556	21638.81
783.889	21499.6
784.223	21444.92
784.557	21497.8
784.89	21443.11
785.224	21323.79
785.557	21248.76
785.891	21276.56
786.224	21225.26
786.558	21225.26
786.891	20992.5
787.224	20830.7
787.557	20814.65
787.891	20896.68
788.224	20917.25
788.557	20816.01
788.89	20811.71
789.223	20792.5
789.556	20533.75
789.888	20580.31
790.221	20564.49
790.554	20426.41
790.887	20419.18
791.219	20306.64
791.552	20123.14
791.884	20047.21
792.217	19910.72
792.549	19861
792.882	19776.94
793.214	19736.94
793.546	19729.48
793.879	19669.82
794.211	19494.69
794.543	19576.26
794.875	19321.13
795.207	19448.36
795.539	19222.15
795.871	19326.33
796.203	19031.65
796.535	18959.78
796.867	19036.84
797.198	18930.86
797.53	19000.69
797.862	18797.75
798.193	18827.58
798.525	18683.41
798.856	18764.53
799.188	18639.34
799.519	18540.81
799.85	18372.68
800.182	18427.37
800.513	18481.83
800.844	18289.07
801.175	18401.15
801.506	18319.35
801.837	18274.15
802.168	18197.09
802.499	18102.18
802.83	18165
803.161	18111.22
803.491	17960.04
803.822	18046.59
804.153	18023.54
804.483	17814.96
804.814	17760.49
805.145	17842.53
805.475	17843.2
805.805	17720.04
806.136	17755.07
806.466	17766.37
806.796	17742.87
807.126	17654.06
807.457	17662.64
807.787	17540.84
808.117	17480.05
808.447	17446.15
808.777	17521.4
809.107	17363.44
809.436	17382.2
809.766	17275.53
810.096	17134.07
810.426	17063.34
810.755	17109.21
811.085	16993.73
811.414	17028.08
811.744	16911.93
812.073	16818.82
812.403	16825.83
812.732	16629.68
813.061	16748.99
813.39	16595.33
813.719	16430.13
814.049	16574.54
814.378	16509.45
814.707	16440.75
815.036	16492.96
815.365	16314.43
815.693	16323.92
816.022	16269.23
816.351	16199.18
816.68	16069.69
817.008	16072.18
817.337	16033.08
817.665	16028.56
817.994	15963.7
818.322	15892.97
818.651	15857.94
818.979	15812.97
819.307	15918.06
819.636	15808.91
819.964	15728
820.292	15811.62
820.62	15747.21
820.948	15665.63
821.276	15883.71
821.604	15740.89
821.932	15794.44
822.259	15789.02
822.587	15753.77
822.915	15783.14
823.243	15885.97
823.57	15798.74
823.898	15750.15
824.225	15691.62
824.553	15727.1
824.88	15878.28
825.207	15894.55
825.535	15824.95
825.862	15802.13
826.189	15907.89
826.516	15862.69
826.843	15903.82
827.17	15991.73
827.497	15933.2
827.824	15905.18
828.151	15932.07
828.478	15887.55
828.805	15942.91
829.131	15883.71
829.458	15874.89
829.785	15700.89
830.111	15822.69
830.438	15808.45
830.764	15840.54
831.09	15793.31
831.417	15661.79
831.743	15712.19
832.069	15662.92
832.395	15592.64
832.722	15715.35
833.048	15594.22
833.374	15593.32
833.7	15488.46
834.026	15459.76
834.351	15448.24
834.677	15339.09
835.003	15410.05
835.329	15419.99
835.654	15472.42
835.98	15332.08
836.306	15352.2
836.631	15253.67
836.956	15312.65
837.282	15235.14
837.607	15198.07
837.932	15156.95
838.258	15191.75
838.583	15165.76
838.908	15030.85
839.233	15080.79
839.558	15067.91
839.883	15049.38
840.208	14910.17
840.533	14967.8
840.858	15096.83
841.182	15034.24
841.507	15102.71
841.832	15020.23
842.156	15048.47
842.481	15030.62
842.805	14897.07
843.13	14887.35
843.454	14965.76
843.778	14773.68
844.103	14832.43
844.427	14758.76
844.751	14742.49
845.075	14769.39
845.399	14729.39
845.723	14619.33
846.047	14623.63
846.371	14500.47
846.695	14532.1
847.019	14416.63
847.343	14439.9
847.666	14375.72
847.99	14281.94
848.313	14289.85
848.637	14207.59
848.96	14146.58
849.284	14047.14
849.607	14069.29
849.931	13895.74
850.254	13882.63
850.577	13830.2
850.9	13740.03
851.223	13660.26
851.546	13591.79
851.869	13474.28
852.192	13438.8
852.515	13317.45
852.838	13350.67
853.161	13208.75
853.483	13084.91
853.806	13108.64
854.129	13065.7
854.451	13013.73
854.774	12989.77
855.096	12959.04
855.419	12927.85
855.741	12870.9
856.063	12750.91
856.385	12783.22
856.708	12660.74
857.03	12616.9
857.352	12722.21
857.674	12621.42
857.996	12601.76
858.318	12494.42
858.64	12569.22
858.961	12465.94
859.283	12381.43
859.605	12322.22
859.926	12405.15
860.248	12373.29
860.57	12294.42
860.891	12305.27
861.212	12314.76
861.534	12298.49
861.855	12211.49
862.176	12109.79
862.498	12205.16
862.819	12312.28
863.14	12194.09
863.461	12198.83
863.782	12136.01
864.103	12250.13
864.424	12153.64
864.745	12226.4
865.065	12138.04
865.386	12178.49
865.707	12070.7
866.027	12119.06
866.348	12105.73
866.668	12039.97
866.989	12015.11
867.309	11912.29
867.63	11922
867.95	11960.65
868.27	11913.87
868.59	11936.69
868.91	11866.86
869.23	11804.49
869.55	11865.06
869.87	11789.8
870.19	11772.85
870.51	11810.59
870.83	11812.4
871.15	11708
871.469	11702.12
871.789	11680.43
872.109	11708
872.428	11545.29
872.748	11647.21
873.067	11646.53
873.386	11515.91
873.706	11606.3
874.025	11440.43
874.344	11362.7
874.663	11385.75
874.982	11365.63
875.301	11354.79
875.62	11242.7
875.939	11185.3
876.258	11226.2
876.577	11140.55
876.896	11228.69
877.214	11079.31
877.533	11172.64
877.852	11164.28
878.17	11131.06
878.489	11085.19
878.807	11083.83
879.125	11105.98
879.444	11082.48
879.762	11087.67
880.08	10990.73
880.398	10909.83
880.716	10962.93
881.034	10902.59
881.352	10928.36
881.67	10868.7
881.988	10868.92
882.306	10779.43
882.624	10834.57
882.941	10828.92
883.259	10751.86
883.577	10736.27
883.894	10796.83
884.212	10799.09
884.529	10743.95
884.846	10764.97
885.164	10723.84
885.481	10631.64
885.798	10681.13
886.115	10666.44
886.432	10676.16
886.75	10686.33
887.067	10622.83
887.383	10658.99
887.7	10645.43
888.017	10533.79
888.334	10557.29
888.651	10569.72
888.967	10572.89
889.284	10510.06
889.6	10542.15
889.917	10428.26
890.233	10429.84
890.55	10431.87
890.866	10420.8
891.182	10400.69
891.498	10334.47
891.815	10268.71
892.131	10262.84
892.447	10227.58
892.763	10173.8
893.079	10136.51
893.395	10118.66
893.71	10023.75
894.026	10000.7
894.342	9979.23
894.657	9854.26
894.973	9812
895.289	9867.14
895.604	9761.16
895.92	9745.79
896.235	9661.27
896.55	9691.78
896.865	9661.95
897.181	9582.18
897.496	9586.02
897.811	9486.36
898.126	9457.43
898.441	9368.4
898.756	9411.33
899.071	9319.36
899.386	9317.33
899.7	9228.06
900.015	9241.4
900.33	9212.7
900.644	9134.05
900.959	9160.95
901.273	9164.56
901.588	9087.05
901.902	8999.14
902.216	9043.66
902.531	9023.32
902.845	8986.49
903.159	8879.82
903.473	8925.47
903.787	8871.24
904.101	8903.55
904.415	8872.82
904.729	8755.98
905.042	8760.73
905.356	8726.61
905.67	8782.42
905.984	8760.5
906.297	8750.79
906.611	8642.99
906.924	8741.52
907.237	8661.07
907.551	8619.72
907.864	8549.66
908.177	8585.14
908.491	8520.28
908.804	8420.4
909.117	8453.17
909.43	8397.35
909.743	8395.99
910.056	8372.27
910.368	8390.34
910.681	8321.87
910.994	8344.24
911.307	8282.32
911.619	8185.38
911.932	8236.9
912.244	8160.75
912.557	8155.77
912.869	8148.09
913.181	8112.39
913.494	8073.52
913.806	8037.59
914.118	8026.06
914.43	7988.1
914.742	7954.2
915.054	7843.69
915.366	7745.16
915.678	7823.81
915.99	7796.69
916.302	7669.69
916.613	7705.39
916.925	7598.27
917.236	7634.66
917.548	7578.39
917.859	7547.65
918.171	7383.59
918.482	7475.79
918.794	7416.81
919.105	7411.61
919.416	7305.18
919.727	7297.94
920.038	7269.7
920.349	7239.87
920.66	7116.71
920.971	7125.97
921.282	7141.79
921.593	7080.55
921.903	7026.76
922.214	7022.7
922.525	6935.02
922.835	6956.48
923.146	6940.21
923.456	6895.02
923.767	6879.65
924.077	6848.24
924.387	6835.81
924.697	6800.56
925.008	6772.76
925.318	6712.87
925.628	6667.45
925.938	6704.74
926.248	6692.31
926.558	6583.61
926.867	6596.27
927.177	6534.57
927.487	6526.21
927.796	6425.88
928.106	6463.84
928.416	6410.96
928.725	6449.15
929.034	6380.91
929.344	6420.45
929.653	6404.41
929.962	6304.07
930.271	6336.61
930.581	6334.13
930.89	6291.87
931.199	6268.14
931.508	6231.98
931.817	6268.14
932.125	6208.48
932.434	6197.86
932.743	6163.96
933.051	6215.49
933.36	6138.65
933.669	6127.13
933.977	6138.43
934.286	6075.15
934.594	6069.28
934.902	5961.48
935.21	5978.88
935.519	5986.79
935.827	5938.43
936.135	5893.46
936.443	5889.85
936.751	5894.36
937.059	5927.58
937.367	5812.79
937.674	5851.43
937.982	5844.87
938.29	5770.53
938.597	5787.93
938.905	5641.72
939.213	5617.54
939.52	5603.07
939.827	5634.26
940.135	5551.32
940.442	5611.21
940.749	5511.78
941.056	5555.62
941.363	5464.55
941.67	5453.47
941.977	5404.43
942.284	5410.08
942.591	5373.7
942.898	5325.34
943.205	5357.2
943.511	5306.58
943.818	5259.58
944.125	5222.07
944.431	5223.65
944.738	5215.06
945.044	5115.4
945.35	5081.96
945.657	5020.49
945.963	5047.16
946.269	5021.62
946.575	5026.82
946.881	4961.73
947.187	5010.32
947.493	4887.84
947.799	4919.25
948.105	4870.89
948.41	4938.01
948.716	4868.18
949.022	4814.39
949.327	4766.94
949.633	4824.11
949.938	4791.12
950.244	4739.37
950.549	4765.13
950.854	4746.82
951.16	4682.42
951.465	4672.48
951.77	4649.2
952.075	4669.31
952.38	4631.8
952.685	4620.73
952.99	4601.97
953.294	4590.44
953.599	4546.15
953.904	4542.08
954.209	4540.95
954.513	4505.47
954.818	4515.64
955.122	4448.98
955.426	4529.88
955.731	4483.78
956.035	4466.83
956.339	4442.43
956.643	4452.37
956.948	4430.45
957.252	4424.35
957.556	4368.08
957.86	4353.16
958.163	4355.42
958.467	4329.66
958.771	4354.52
959.075	4303.9
959.378	4288.08
959.682	4302.99
959.985	4236.33
960.289	4207.63
960.592	4245.37
960.896	4221.87
961.199	4208.99
961.502	4177.57
961.805	4185.26
962.108	4151.13
962.411	4151.81
962.714	4109.33
963.017	4057.35
963.32	4054.64
963.623	4067.75
963.926	4032.72
964.228	3994.53
964.531	3985.26
964.833	3952.04
965.136	3916.56
965.438	3867.75
965.741	3883.57
966.043	3874.08
966.345	3827.53
966.648	3825.94
966.95	3826.17
967.252	3755.89
967.554	3798.6
967.856	3749.34
968.158	3743.46
968.46	3718.6
968.761	3698.72
969.063	3661.2
969.365	3701.88
969.666	3639.73
969.968	3611.49
970.269	3625.95
970.571	3582.34
970.872	3565.39
971.174	3553.41
971.475	3555.22
971.776	3546.63
972.077	3554.09
972.378	3542.56
972.679	3518.38
972.98	3477.25
973.281	3481.09
973.582	3440.64
973.883	3415.11
974.183	3372.62
974.484	3411.72
974.785	3355
975.085	3361.55
975.386	3346.64
975.686	3353.87
975.986	3297.37
976.287	3290.82
976.587	3236.81
976.887	3263.02
977.187	3260.31
977.487	3261.67
977.787	3250.14
978.087	3220.99
978.387	3216.24
978.687	3193.64
978.987	3175.79
979.286	3189.13
979.586	3172.18
979.885	3164.95
980.185	3132.4
980.484	3130.82
980.784	3113.42
981.083	3126.08
981.382	3137.83
981.682	3115
981.981	3095.34
982.28	3102.8
982.579	3029.81
982.878	3055.8
983.177	3072.29
983.475	3018.96
983.774	3043.14
984.073	3024.84
984.372	3006.98
984.67	2980.09
984.969	2991.62
985.267	2986.87
985.566	2942.13
985.864	2957.94
986.162	2978.51
986.461	2958.85
986.759	2911.62
987.057	2857.83
987.355	2874.78
987.653	2872.52
987.951	2824.39
988.249	2829.36
988.547	2821.45
988.844	2846.54
989.142	2820.77
989.44	2743.94
989.737	2791.85
990.035	2720.21
990.332	2736.48
990.63	2748.68
990.927	2693.32
991.224	2728.57
991.521	2690.61
991.819	2670.72
992.116	2683.6
992.413	2639.54
992.71	2649.48
993.006	2617.16
993.303	2639.08
993.6	2615.35
993.897	2587.79
994.193	2579.88
994.49	2523.15
994.787	2540.55
995.083	2512.31
995.379	2500.56
995.676	2497.39
995.972	2449.71
996.268	2480.22
996.565	2442.48
996.861	2418.52
997.157	2436.6
997.453	2405.42
997.749	2382.37
998.044	2374.23
998.34	2365.87
998.636	2329.94
998.932	2365.42
999.227	2337.85
999.523	2302.14
999.818	2283.61
1000.114	2261.69
1000.409	2255.14
1000.704	2229.83
1001	2238.87
1001.295	2236.83
1001.59	2196.16
1001.885	2219.43
1002.18	2245.42
1002.475	2195.7
1002.77	2195.03
1003.065	2184.41
1003.359	2162.03
1003.654	2148.25
1003.949	2148.93
1004.243	2147.12
1004.538	2114.58
1004.832	2110.28
1005.127	2105.54
1005.421	2087.23
1005.715	2104.18
1006.009	2080.91
1006.304	2062.15
1006.598	2065.54
1006.892	2058.99
1007.186	2027.8
1007.48	2034.81
1007.773	1995.48
1008.067	2021.25
1008.361	1983.51
1008.655	1968.59
1008.948	1968.14
1009.242	1960.91
1009.535	1962.26
1009.829	1929.5
1010.122	1956.16
1010.415	1933.56
1010.708	1942.38
1011.001	1917.75
1011.295	1901.93
1011.588	1875.94
1011.881	1877.97
1012.173	1900.12
1012.466	1911.87
1012.759	1868.48
1013.052	1860.35
1013.344	1860.8
1013.637	1854.25
1013.93	1831.19
1014.222	1825.09
1014.514	1792.55
1014.807	1785.77
1015.099	1778.99
1015.391	1830.97
1015.683	1763.85
1015.976	1739.9
1016.268	1708.03
1016.56	1715.27
1016.851	1710.75
1017.143	1693.57
1017.435	1702.84
1017.727	1682.95
1018.018	1675.72
1018.31	1644.98
1018.602	1659.45
1018.893	1647.02
1019.185	1592.56
1019.476	1621.93
1019.767	1624.65
1020.058	1606.79
1020.35	1586.91
1020.641	1574.93
1020.932	1543.97
1021.223	1553.91
1021.514	1545.1
1021.804	1529.73
1022.095	1524.08
1022.386	1521.82
1022.677	1473.69
1022.967	1493.35
1023.258	1493.8
1023.548	1494.93
1023.839	1449.51
1024.129	1456.29
1024.419	1425.56
1024.709	1421.71
1025	1432.56
1025.29	1434.14
1025.58	1395.05
1025.87	1390.98
1026.16	1372.22
1026.449	1369.51
1026.739	1355.05
1027.029	1361.6
1027.319	1334.03
1027.608	1354.82
1027.898	1334.03
1028.187	1310.3
1028.477	1309.17
1028.766	1308.5
1029.055	1274.37
1029.344	1310.53
1029.634	1277.99
1029.923	1295.62
1030.212	1269.4
1030.501	1251.77
1030.79	1257.88
1031.078	1218.1
1031.367	1220.82
1031.656	1195.28
1031.945	1243.64
1032.233	1213.36
1032.522	1184.43
1032.81	1187.37
1033.099	1211.32
1033.387	1193.7
1033.675	1165.68
1033.963	1150.76
1034.251	1157.31
1034.54	1146.24
1034.828	1135.62
1035.116	1137.2
1035.403	1131.33
1035.691	1114.83
1035.979	1125.45
1036.267	1108.05
1036.554	1109.86
1036.842	1081.38
1037.129	1085.68
1037.417	1077.09
1037.704	1094.72
1037.992	1035.51
1038.279	1064.89
1038.566	1079.8
1038.853	1079.8
1039.14	1079.8
