Data from blue_clamp_base_FLMS001491_00037.txt Node
Date: Wed Feb 08 15:15:55 GMT 2017
User: dcchb
Spectrometer: FLMS00149
Trigger mode: 0
Integration Time (sec): 2.000000E-2
Scans to average: 10
Electric dark correction enabled: true
Nonlinearity correction enabled: false
Boxcar width: 0
XAxis mode: Wavelengths
Number of Pixels in Spectrum: 2048
>>>>>Begin Spectral Data<<<<<
341.393	-20.25
341.776	-20.25
342.16	-20.25
342.543	-65.9
342.927	-70.2
343.31	-86.24
343.693	-61.83
344.077	-82.4
344.46	-57.31
344.843	-46.02
345.226	-51.89
345.61	-39.46
345.993	-32.23
346.376	3.93
346.759	27.88
347.142	30.14
347.525	46.64
347.908	55.22
348.291	97.03
348.674	91.61
349.057	104.94
349.44	124.83
349.823	139.52
350.206	155.56
350.588	200.53
350.971	218.84
351.354	245.05
351.737	243.69
352.119	246.86
352.502	265.84
352.884	263.58
353.267	273.07
353.65	287.76
354.032	303.13
354.414	334.31
354.797	330.7
355.179	314.2
355.562	329.12
355.944	336.12
356.326	330.25
356.709	328.66
357.091	347.42
357.473	321.43
357.855	335.22
358.238	349.45
358.62	340.41
359.002	357.36
359.384	352.39
359.766	363.47
360.148	358.72
360.53	329.57
360.912	349.91
361.294	346.29
361.676	336.8
362.057	337.03
362.439	333.41
362.821	349.23
363.203	334.54
363.584	329.79
363.966	311.26
364.348	319.62
364.729	323.47
365.111	332.73
365.493	333.18
365.874	336.57
366.256	312.17
366.637	322.56
367.019	333.18
367.4	297.93
367.781	317.59
368.163	318.72
368.544	330.92
368.925	336.57
369.306	334.99
369.688	312.17
370.069	313.75
370.45	323.47
370.831	321.21
371.212	329.34
371.593	316.69
371.974	330.02
372.355	334.99
372.736	321.43
373.117	342.22
373.498	318.04
373.879	349
374.26	338.15
374.641	362.34
375.021	322.11
375.402	332.05
375.783	335.22
376.163	343.13
376.544	338.61
376.925	358.95
377.305	318.27
377.686	337.25
378.066	323.47
378.447	337.93
378.827	337.03
379.208	349
379.588	327.08
379.968	345.39
380.349	347.42
380.729	365.95
381.109	347.42
381.489	364.37
381.87	376.35
382.25	353.52
382.63	368.89
383.01	367.98
383.39	367.76
383.77	356.91
384.15	369.34
384.53	351.04
384.91	378.15
385.29	401.66
385.67	386.52
386.049	387.42
386.429	386.74
386.809	362.79
387.189	366.4
387.568	389.91
387.948	390.58
388.328	396.23
388.707	393.07
389.087	410.47
389.466	400.3
389.846	384.93
390.225	404.59
390.605	402.56
390.984	403.24
391.363	420.64
391.743	395.78
392.122	398.94
392.501	424.03
392.881	459.28
393.26	439.85
393.639	427.87
394.018	459.06
394.397	442.78
394.776	442.56
395.155	471.26
395.534	448.21
395.913	450.69
396.292	453.18
396.671	465.61
397.05	466.97
397.429	486.85
397.808	466.06
398.186	503.12
398.565	512.61
398.944	480.52
399.323	487.98
399.701	514.2
400.08	494.08
400.458	508.77
400.837	525.04
401.215	493.86
401.594	525.49
401.972	532.27
402.351	534.53
402.729	538.15
403.107	539.05
403.486	551.93
403.864	548.32
404.242	532.05
404.62	587.64
404.999	557.13
405.377	553.29
405.755	581.09
406.133	593.52
406.511	606.62
406.889	591.71
407.267	601.2
407.645	603.23
408.023	628.54
408.401	638.71
408.779	650.01
409.156	636.45
409.534	637.13
409.912	649.11
410.29	681.2
410.667	671.25
411.045	671.25
411.422	691.14
411.8	683.23
412.178	688.2
412.555	727.52
412.933	723.23
413.31	704.92
413.687	736.79
414.065	751.48
414.442	738.82
414.819	781.08
415.197	784.02
415.574	763.45
415.951	769.1
416.328	784.02
416.705	782.89
417.082	791.7
417.46	794.87
417.837	807.07
418.214	818.59
418.591	830.35
418.967	847.29
419.344	835.77
419.721	843.45
420.098	846.39
420.475	860.4
420.852	868.08
421.228	873.96
421.605	896.78
421.982	913.28
422.358	900.63
422.735	900.4
423.111	909.44
423.488	926.61
423.864	944.47
424.241	951.25
424.617	961.42
424.994	981.75
425.37	965.94
425.746	975.88
426.123	995.54
426.499	1036.67
426.875	1009.1
427.251	1023.79
427.627	1045.93
428.003	1068.53
428.379	1063.11
428.756	1087.74
429.132	1108.98
429.507	1099.72
429.883	1115.76
430.259	1128.64
430.635	1138.13
431.011	1173.84
431.387	1193.5
431.763	1180.39
432.138	1217.91
432.514	1221.97
432.89	1234.85
433.265	1272.14
433.641	1265.81
434.016	1298.58
434.392	1314.17
434.767	1323.21
435.143	1345.36
435.518	1340.39
435.894	1353.5
436.269	1377
436.644	1407.51
437.02	1428.52
437.395	1427.17
437.77	1452.7
438.145	1464
438.52	1494.96
438.895	1495.19
439.271	1478.69
439.646	1519.37
440.021	1516.66
440.395	1546.03
440.77	1528.18
441.145	1570.89
441.52	1595.97
441.895	1582.87
442.27	1613.6
442.645	1622.19
443.019	1673.26
443.394	1652.24
443.769	1661.96
444.143	1648.4
444.518	1702.19
444.892	1700.61
445.267	1717.1
445.641	1700.83
446.016	1725.69
446.39	1711
446.764	1732.47
447.139	1742.41
447.513	1756.2
447.887	1773.6
448.262	1779.7
448.636	1798.91
449.01	1854.73
449.384	1859.02
449.758	1838
450.132	1892.46
450.506	1874.16
450.88	1904.67
451.254	1886.14
451.628	1959.58
452.002	1966.59
452.376	1991.44
452.75	2016.53
453.123	2010.2
453.497	2035.74
453.871	2062.86
454.244	2077.09
454.618	2159.8
454.992	2103.08
455.365	2131.1
455.739	2181.72
456.112	2175.39
456.486	2208.16
456.859	2269.63
457.232	2291.32
457.606	2280.48
457.979	2296.3
458.352	2324.77
458.725	2355.96
459.099	2378.1
459.472	2442.96
459.845	2466.46
460.218	2480.47
460.591	2519.79
460.964	2484.99
461.337	2546.23
461.71	2577.64
462.083	2642.5
462.456	2630.98
462.829	2617.64
463.201	2682.5
463.574	2679.56
463.947	2731.99
464.32	2776.06
464.692	2810.63
465.065	2828.71
465.438	2826
465.81	2875.04
466.183	2918.88
466.555	2968.14
466.928	2981.25
467.3	2988.03
467.672	3067.35
468.045	3072.77
468.417	3061.02
468.789	3110.06
469.161	3144.86
469.534	3242.26
469.906	3246.55
470.278	3266.21
470.65	3315.03
471.022	3375.59
471.394	3422.59
471.766	3446.1
472.138	3454.01
472.51	3553.89
472.882	3583.27
473.253	3611.29
473.625	3655.81
473.997	3749.36
474.369	3732.64
474.74	3736.71
475.112	3809.25
475.484	3878.4
475.855	3941
476.227	3950.49
476.598	4078.85
476.97	4082.46
477.341	4197.71
477.713	4160.43
478.084	4201.1
478.455	4310.71
478.827	4385.05
479.198	4444.49
479.569	4449.69
479.94	4532.85
480.311	4623.47
480.682	4647.87
481.053	4810.13
481.424	4841.09
481.795	4898.71
482.166	4952.04
482.537	4952.5
482.908	5092.83
483.279	5094.87
483.65	5132.83
484.021	5227.07
484.391	5237.24
484.762	5307.74
485.133	5349.1
485.503	5427.74
485.874	5521.07
486.244	5502.09
486.615	5631.58
486.985	5676.32
487.356	5695.08
487.726	5728.97
488.097	5859.82
488.467	5868.86
488.837	5949.98
489.207	5950.44
489.578	6060.26
489.948	6129.19
490.318	6168.51
490.688	6170.54
491.058	6291.67
491.428	6325.34
491.798	6383.65
492.168	6410.31
492.538	6408.96
492.908	6449.63
493.278	6545.9
493.648	6563.75
494.017	6612.34
494.387	6644.2
494.757	6720.36
495.126	6737.76
495.496	6755.16
495.866	6806.91
496.235	6839.68
496.605	6878.32
496.974	6896.63
497.344	6920.35
497.713	6942.5
498.082	6970.07
498.452	7073.57
498.821	7054.81
499.19	7029.28
499.559	7094.59
499.928	7137.75
500.298	7147.69
500.667	7218.43
501.036	7186.34
501.405	7236.05
501.774	7244.87
502.143	7308.37
502.512	7208.26
502.88	7320.8
503.249	7355.6
503.618	7312.21
503.987	7415.71
504.356	7420.68
504.724	7424.3
505.093	7460.91
505.462	7446.44
505.83	7505.42
506.199	7505.2
506.567	7601.69
506.936	7572.99
507.304	7663.61
507.672	7681.46
508.041	7680.56
508.409	7699.32
508.777	7778.86
509.145	7815.7
509.514	7779.09
509.882	7817.51
510.25	7831.74
510.618	7858.64
510.986	7892.31
511.354	7940.44
511.722	7961.46
512.09	8062.7
512.458	7982.7
512.826	8034.22
513.193	8112.41
513.561	8088.91
513.929	8176.37
514.297	8197.38
514.664	8225.63
515.032	8255.01
515.4	8309.24
515.767	8333.2
516.135	8392.63
516.502	8281
516.869	8413.65
517.237	8398.51
517.604	8364.38
517.972	8487.32
518.339	8487.32
518.706	8475.79
519.073	8484.61
519.44	8548.33
519.808	8632.4
520.175	8624.94
520.542	8680.76
520.909	8731.15
521.276	8699.97
521.643	8752.85
522.009	8833.52
522.376	8829.68
522.743	8863.81
523.11	8967.98
523.477	8999.4
523.843	9014.99
524.21	9121.43
524.577	9122.78
524.943	9132.95
525.31	9177.24
525.676	9277.35
526.043	9304.25
526.409	9375.88
526.776	9410.23
527.142	9407.3
527.508	9470.57
527.874	9541.75
528.241	9580.62
528.607	9589.89
528.973	9686.38
529.339	9627.4
529.705	9740.62
530.071	9748.75
530.437	9758.92
530.803	9839.6
531.169	9876.66
531.535	9898.81
531.901	9878.92
532.267	9924.12
532.632	10037.33
532.998	10043.66
533.364	10155.07
533.73	10098.8
534.095	10129.99
534.461	10186.26
534.826	10264.22
535.192	10307.61
535.557	10298.35
535.923	10314.39
536.288	10321.4
536.653	10396.2
537.019	10345.12
537.384	10427.61
537.749	10507.61
538.114	10462.63
538.479	10506.48
538.845	10547.6
539.21	10506.02
539.575	10511.67
539.94	10560.26
540.305	10609.52
540.67	10612.01
541.034	10671.22
541.399	10727.03
541.764	10712.12
542.129	10722.51
542.494	10786.69
542.858	10857.2
543.223	10859.46
543.587	10879.8
543.952	10897.88
544.316	10926.58
544.681	10933.36
545.045	11004.99
545.41	11030.3
545.774	11073.92
546.138	11080.92
546.503	11130.41
546.867	11121.83
547.231	11191.65
547.595	11181.94
547.959	11207.93
548.324	11278.43
548.688	11235.5
549.052	11280.01
549.416	11230.52
549.779	11296.74
550.143	11390.29
550.507	11328.6
550.871	11431.65
551.235	11502.16
551.599	11490.4
551.962	11523.4
552.326	11593.23
552.689	11568.37
553.053	11461.03
553.417	11609.95
553.78	11635.49
554.143	11700.57
554.507	11774.01
554.87	11713.22
555.234	11851.07
555.597	11767.91
555.96	11826.44
556.323	11868.7
556.686	11787.57
557.05	11916.38
557.413	11988.02
557.776	11930.39
558.139	12091.07
558.502	12039.54
558.865	12009.94
559.228	12145.08
559.59	12202.25
559.953	12220.78
560.316	12301
560.679	12299.65
561.041	12337.84
561.404	12421
561.767	12451.06
562.129	12433.66
562.492	12532.64
562.854	12578.29
563.217	12585.52
563.579	12653.99
563.941	12671.16
564.304	12774.44
564.666	12770.14
565.028	12815.12
565.39	12872.06
565.753	12913.64
566.115	12901.67
566.477	12965.17
566.839	13036.13
567.201	13077.48
567.563	13110.25
567.925	13140.3
568.287	13155.9
568.648	13145.28
569.01	13323.58
569.372	13368.09
569.734	13297.81
570.095	13395.89
570.457	13475.89
570.819	13387.98
571.18	13576.68
571.542	13594.08
571.903	13583.68
572.265	13597.47
572.626	13699.16
572.987	13712.04
573.349	13776.9
573.71	13771.7
574.071	13824.58
574.432	13892.6
574.794	13999.72
575.155	13955.42
575.516	13978.93
575.877	13993.62
576.238	14036.55
576.599	14100.73
576.96	14168.07
577.32	14176.21
577.681	14118.36
578.042	14135.31
578.403	14224.12
578.763	14215.08
579.124	14273.61
579.485	14304.57
579.845	14347.28
580.206	14250.56
580.566	14388.18
580.927	14373.49
581.287	14426.82
581.648	14417.11
582.008	14472.47
582.368	14457.56
582.728	14500.27
583.089	14520.15
583.449	14449.42
583.809	14502.08
584.169	14579.36
584.529	14476.31
584.889	14672.24
585.249	14487.39
585.609	14495.97
585.969	14575.75
586.329	14660.94
586.688	14636.54
587.048	14612.58
587.408	14520.38
587.768	14648.51
588.127	14563.77
588.487	14543.43
588.846	14729.19
589.206	14589.98
589.565	14678.12
589.925	14666.82
590.284	14696.65
590.643	14640.6
591.003	14704.56
591.362	14721.51
591.721	14723.31
592.08	14698.46
592.44	14724.9
592.799	14755.63
593.158	14694.16
593.517	14849.64
593.876	14825.68
594.235	14738.23
594.593	14841.28
594.952	14759.24
595.311	14693.48
595.67	14830.66
596.029	14872.01
596.387	14872.91
596.746	14899.81
597.104	14762.63
597.463	14827.72
597.822	14838.11
598.18	14909.52
598.538	14862.07
598.897	14863.2
599.255	14782.07
599.613	14949.3
599.972	14907.04
600.33	14961.73
600.688	14855.97
601.046	14939.58
601.404	14903.2
601.762	14921.73
602.12	14961.27
602.478	15096.86
602.836	14981.39
603.194	14919.47
603.552	15005.11
603.91	14928.73
604.268	15036.53
604.625	14975.96
604.983	15084.89
605.341	14989.07
605.698	15085.56
606.056	15094.38
606.413	15121.04
606.771	15092.8
607.128	15215.5
607.485	15101.16
607.843	15113.81
608.2	15182.28
608.557	15326.46
608.914	15174.83
609.272	15284.43
609.629	15304.77
609.986	15323.98
610.343	15260.93
610.7	15282.85
611.057	15378.44
611.414	15341.15
611.771	15397.87
612.127	15417.08
612.484	15440.36
612.841	15461.6
613.198	15414.82
613.554	15395.61
613.911	15549.05
614.267	15554.48
614.624	15430.19
614.98	15549.51
615.337	15469.06
615.693	15519.9
616.05	15597.19
616.406	15567.36
616.762	15596.06
617.118	15654.36
617.475	15586.12
617.831	15625.89
618.187	15611.88
618.543	15706.56
618.899	15768.48
619.255	15757.64
619.611	15698.88
619.967	15827.24
620.323	15833.57
620.678	15749.73
621.034	15708.15
621.39	15720.35
621.746	15730.52
622.101	15808.48
622.457	15848.03
622.812	15846
623.168	15941.81
623.523	15884.64
623.879	16011.64
624.234	15786.11
624.589	16000.79
624.945	15942.04
625.3	16012.09
625.655	15932.32
626.01	15900.23
626.365	16004.86
626.72	15926.22
627.075	15978.65
627.43	15942.26
627.785	15926.9
628.14	16106.33
628.495	16069.04
628.85	16022.04
629.205	16001.25
629.559	16043.73
629.914	16064.75
630.269	16082.15
630.623	16045.09
630.978	16065.2
631.332	16080.11
631.687	16157.17
632.041	16087.57
632.396	16055.26
632.75	16114.01
633.104	16137.51
633.459	16113.79
633.813	16099.32
634.167	16118.98
634.521	16041.47
634.875	16215.93
635.229	16166.21
635.583	16067.68
635.937	16108.36
636.291	16132.77
636.645	16156.72
636.999	16154.91
637.352	16237.4
637.706	16054.13
638.06	16124.86
638.413	16234.69
638.767	16024.97
639.121	16161.24
639.474	16062.94
639.828	16043.73
640.181	16107.23
640.534	16184.74
640.888	16211.41
641.241	16162.15
641.594	16140.9
641.947	16212.54
642.301	16057.06
642.654	16233.78
643.007	16148.13
643.36	16185.42
643.713	16128.02
644.066	16309.71
644.419	16208.02
644.771	16104.97
645.124	15974.13
645.477	15889.38
645.83	15821.82
646.182	15777.3
646.535	15750.86
646.888	15890.97
647.24	15760.57
647.593	15972.32
647.945	15888.71
648.298	15832.21
648.65	15792.66
649.002	15798.77
649.355	15822.04
649.707	15794.7
650.059	15890.06
650.411	16158.08
650.763	16156.72
651.115	16368.92
651.467	16342.71
651.819	16390.84
652.171	16359.43
652.523	16264.97
652.875	16464.51
653.227	16295.7
653.578	16465.87
653.93	16399.43
654.282	16339.32
654.633	16323.27
654.985	16451.18
655.337	16413.66
655.688	16345.87
656.039	16473.55
656.391	16345.64
656.742	16444.4
657.094	16430.16
657.445	16554
657.796	16541.12
658.147	16472.65
658.498	16459.31
658.849	16544.06
659.2	16557.16
659.551	16429.48
659.902	16577.73
660.253	16551.51
660.604	16549.25
660.955	16522.14
661.306	16516.03
661.656	16565.07
662.007	16528.24
662.358	16522.81
662.708	16521.01
663.059	16525.53
663.409	16372.54
663.76	16551.29
664.11	16543.15
664.461	16552.42
664.811	16568.24
665.161	16542.47
665.511	16578.18
665.862	16546.54
666.212	16677.39
666.562	16601.91
666.912	16543.83
667.262	16478.75
667.612	16525.98
667.962	16551.29
668.312	16400.56
668.662	16609.82
669.011	16510.16
669.361	16428.13
669.711	16513.32
670.06	16464.28
670.41	16382.7
670.76	16352.2
671.109	16368.24
671.459	16374.8
671.808	16318.3
672.157	16387.45
672.507	16183.39
672.856	16193.33
673.205	16293.44
673.554	16381.57
673.904	16118.76
674.253	16284.18
674.602	16190.85
674.951	15964.18
675.3	15849.61
675.649	16059.1
675.998	16100.9
676.346	16008.03
676.695	16071.98
677.044	15939.1
677.393	16010.74
677.741	15974.58
678.09	15986.78
678.438	15949.72
678.787	15953.34
679.135	15956.5
679.484	15796.28
679.832	15811.42
680.181	15639.67
680.529	15780.23
680.877	15746.56
681.225	15721.48
681.573	15753.79
681.922	15640.58
682.27	15681.03
682.618	15637.19
682.966	15513.58
683.314	15651.42
683.661	15459.34
684.009	15385.67
684.357	15405.56
684.705	15396.74
685.053	15394.48
685.4	15431.32
685.748	15267.71
686.095	15273.81
686.443	15252.57
686.79	15280.59
687.138	15333.24
687.485	15125.11
687.832	15226.35
688.18	15130.76
688.527	15067.03
688.874	15100.25
689.221	15071.1
689.568	15048.95
689.915	15026.36
690.262	15067.71
690.609	14874.27
690.956	14892.12
691.303	14958.56
691.65	14833.59
691.997	14916.3
692.344	14757.44
692.69	14845.57
693.037	14866.13
693.383	14679.7
693.73	14798.79
694.077	14620.49
694.423	14709.53
694.769	14695.52
695.116	14634.73
695.462	14636.08
695.808	14586.82
696.155	14589.76
696.501	14535.3
696.847	14546.59
697.193	14483.77
697.539	14527.84
697.885	14402.64
698.231	14352.93
698.577	14398.8
698.923	14482.19
699.269	14356.77
699.614	14313.15
699.96	14300.73
700.306	14304.12
700.651	14223.44
700.997	14152.03
701.342	14206.04
701.688	14267.05
702.033	14093.73
702.379	14150.9
702.724	14063.67
703.069	14185.7
703.415	13958.81
703.76	14061.86
704.105	13986.61
704.45	13983.9
704.795	13993.62
705.14	13945.25
705.485	13961.07
705.83	13927.18
706.175	13942.09
706.52	13912.94
706.865	13841.3
707.209	13828.2
707.554	13779.38
707.899	13933.96
708.243	13834.07
708.588	13770.57
708.932	13801.3
709.277	13804.69
709.621	13778.71
709.966	13688.76
710.31	13711.36
710.654	13763.11
710.998	13687.86
711.342	13771.93
711.687	13701.19
712.031	13638.82
712.375	13690.57
712.719	13587.75
713.063	13594.08
713.407	13691.93
713.75	13605.6
714.094	13659.16
714.438	13579.84
714.782	13577.58
715.125	13606.73
715.469	13562.67
715.812	13480.41
716.156	13455.78
716.499	13529.45
716.843	13515.21
717.186	13334.88
717.53	13565.38
717.873	13523.12
718.216	13534.87
718.559	13481.76
718.902	13355.21
719.246	13419.39
719.589	13357.7
719.932	13342.11
720.275	13321.77
720.617	13249.45
720.96	13372.84
721.303	13338.27
721.646	13324.03
721.989	13294.2
722.331	13288.32
722.674	13279.28
723.016	13310.02
723.359	13216.91
723.701	13271.15
724.044	13197.7
724.386	13241.32
724.729	13273.63
725.071	13257.36
725.413	13208.55
725.755	13229.79
726.097	13138.27
726.439	13152.51
726.782	13157.93
727.124	13251.04
727.465	13197.03
727.807	13163.58
728.149	13190.47
728.491	13070.93
728.833	13139.85
729.175	13111.15
729.516	13151.38
729.858	13129.01
730.199	13184.82
730.541	13098.95
730.882	13145.05
731.224	13215.1
731.565	13044.94
731.906	13118.84
732.248	13197.7
732.589	13061.44
732.93	13060.31
733.271	13107.54
733.612	13252.39
733.953	13154.99
734.294	13041.55
734.635	13112.28
734.976	13213.07
735.317	13196.8
735.658	13137.82
735.999	13229.57
736.339	13071.15
736.68	13180.08
737.021	13155.9
737.361	13156.35
737.702	13250.81
738.042	13277.02
738.383	13249.68
738.723	13290.58
739.063	13301.2
739.404	13357.93
739.744	13362.22
740.084	13379.39
740.424	13342.78
740.764	13290.36
741.104	13410.13
741.444	13378.04
741.784	13349.79
742.124	13410.81
742.464	13422.33
742.804	13421.43
743.143	13492.39
743.483	13600.41
743.823	13383.69
744.162	13514.98
744.502	13563.12
744.841	13545.27
745.181	13605.83
745.52	13576.22
745.86	13613.96
746.199	13635.43
746.538	13624.81
746.877	13698.93
747.216	13711.59
747.556	13641.76
747.895	13735.99
748.234	13648.09
748.573	13742.55
748.911	13762.89
749.25	13781.19
749.589	13744.13
749.928	13831.59
750.267	13840.85
750.605	13860.74
750.944	13823.9
751.283	13867.52
751.621	13933.28
751.96	13878.82
752.298	13848.99
752.636	13988.87
752.975	13903.45
753.313	13950.45
753.651	14085.36
753.989	14073.16
754.327	14003.78
754.666	14068.64
755.004	14072.26
755.342	14154.29
755.679	14148.19
756.017	14166.04
756.355	14180.73
756.693	14077.23
757.031	14250.78
757.368	14151.13
757.706	14223.44
758.044	14160.16
758.381	14242.42
758.719	14233.83
759.056	14298.24
759.394	14234.51
759.731	14279.48
760.068	14333.72
760.405	14268.86
760.743	14309.99
761.08	14390.89
761.417	14314.96
761.754	14322.42
762.091	14408.29
762.428	14354.06
762.765	14270.44
763.102	14516.31
763.438	14425.69
763.775	14373.72
764.112	14361.29
764.449	14389.54
764.785	14506.6
765.122	14272.93
765.458	14414.85
765.795	14327.84
766.131	14328.3
766.467	14326.26
766.804	14380.5
767.14	14303.89
767.476	14432.93
767.812	14428.63
768.148	14392.25
768.485	14436.54
768.821	14387.96
769.157	14349.31
769.492	14367.39
769.828	14455.98
770.164	14262.76
770.5	14424.11
770.836	14362.42
771.171	14367.84
771.507	14314.28
771.842	14305.7
772.178	14286.26
772.513	14320.39
772.849	14343.66
773.184	14243.1
773.519	14318.13
773.855	14253.72
774.19	14171.69
774.525	14185.02
774.86	14317.45
775.195	14236.32
775.53	14220.95
775.865	14110.45
776.2	14073.39
776.535	14027.74
776.87	14139.37
777.205	14099.38
777.539	14077.23
777.874	14118.81
778.209	13997.46
778.543	14018.47
778.878	13929.66
779.212	14018.02
779.547	13953.84
779.881	14138.24
780.215	13954.97
780.55	14013.95
780.884	13980.73
781.218	13901.19
781.552	14032.26
781.886	13984.12
782.22	13928.31
782.554	13938.7
782.888	13867.06
783.222	13810.8
783.556	13800.63
783.889	13796.11
784.223	13733.06
784.557	13713.85
784.89	13768.99
785.224	13696.22
785.557	13680.85
785.891	13636.34
786.224	13645.6
786.558	13707.07
786.891	13609.67
787.224	13566.51
787.557	13657.35
787.891	13572.16
788.224	13608.99
788.557	13518.83
788.89	13589.11
789.223	13623.91
789.556	13544.14
789.888	13442.9
790.221	13477.7
790.554	13432.5
790.887	13382.11
791.219	13352.5
791.552	13414.42
791.884	13325.84
792.217	13360.19
792.549	13278.15
792.882	13173.52
793.214	13262.79
793.546	13237.25
793.879	13227.76
794.211	13222.79
794.543	13186.63
794.875	13191.6
795.207	13279.28
795.539	13129.23
795.871	13159.74
796.203	13121.32
796.535	13056.01
796.867	13129.68
797.198	13015.56
797.53	13048.1
797.862	12911.84
798.193	12967.65
798.525	13008.56
798.856	12966.52
799.188	12811.27
799.519	12817.83
799.85	12751.16
800.182	12830.03
800.513	12806.3
800.844	12708.68
801.175	12831.39
801.506	12692.86
801.837	12713.87
802.168	12792.06
802.499	12700.77
802.83	12595.91
803.161	12608.79
803.491	12656.7
803.822	12651.5
804.153	12499.87
804.483	12502.35
804.814	12493.54
805.145	12431.85
805.475	12522.69
805.805	12473.66
806.136	12512.3
806.466	12468.46
806.796	12395.24
807.126	12397.72
807.457	12347.1
807.787	12372.41
808.117	12286.77
808.447	12260.55
808.777	12350.95
809.107	12295.58
809.436	12307.11
809.766	12202.02
810.096	12229.82
810.426	12182.14
810.755	12180.78
811.085	12143.04
811.414	12226.66
811.744	12125.64
812.073	12149.14
812.403	12169.03
812.732	12026.89
813.061	12131.29
813.39	12026.44
813.719	11985.31
814.049	12065.08
814.378	11980.11
814.707	11872.99
815.036	11945.31
815.365	11939.88
815.693	11791.64
816.022	11802.49
816.351	11761.36
816.68	11835.71
817.008	11863.5
817.337	11731.53
817.665	11700.34
817.994	11759.32
818.322	11696.05
818.651	11629.38
818.979	11626.45
819.307	11806.55
819.636	11696.27
819.964	11700.34
820.292	11670.06
820.62	11606.33
820.948	11650.85
821.276	11640.68
821.604	11566.56
821.932	11657.86
822.259	11614.24
822.587	11634.13
822.915	11622.83
823.243	11648.59
823.57	11621.02
823.898	11648.82
824.225	11682.49
824.553	11688.36
824.88	11652.89
825.207	11742.83
825.535	11679.55
825.862	11686.56
826.189	11732.66
826.516	11733.79
826.843	11772.88
827.17	11795.71
827.497	11758.87
827.824	11759.32
828.151	11721.58
828.478	11701.47
828.805	11717.74
829.131	11797.51
829.458	11698.53
829.785	11624.41
830.111	11818.76
830.438	11822.6
830.764	11773.33
831.09	11733.79
831.417	11768.36
831.743	11758.42
832.069	11767.91
832.395	11717.52
832.722	11738.31
833.048	11697.63
833.374	11681.36
833.7	11682.94
834.026	11770.17
834.351	11681.81
834.677	11742.37
835.003	11671.64
835.329	11800
835.654	11734.47
835.98	11634.13
836.306	11647.24
836.631	11672.77
836.956	11712.09
837.282	11710.96
837.607	11622.6
837.932	11583.28
838.258	11598.42
838.583	11492.66
838.908	11539.67
839.233	11493.34
839.558	11527.69
839.883	11500.12
840.208	11412.89
840.533	11516.17
840.858	11444.08
841.182	11478.88
841.507	11473.68
841.832	11404.3
842.156	11409.5
842.481	11401.14
842.805	11372.22
843.13	11371.54
843.454	11307.36
843.778	11297.19
844.103	11331.09
844.427	11334.48
844.751	11299.22
845.075	11173.12
845.399	11163.18
845.723	11207.25
846.047	11122.28
846.371	11083.86
846.695	11163.41
847.019	10991.66
847.343	10987.82
847.666	10891.78
847.99	10872.12
848.313	10897.43
848.637	10810.2
848.96	10843.19
849.284	10798.22
849.607	10650.88
849.931	10677.32
850.254	10606.81
850.577	10554.61
850.9	10515.51
851.223	10469.19
851.546	10453.6
851.869	10397.33
852.192	10457.89
852.515	10338.34
852.838	10353.94
853.161	10294.28
853.483	10296.09
853.806	10219.93
854.129	10245.24
854.451	10160.5
854.774	10091.12
855.096	10052.48
855.419	10005.7
855.741	10024.45
856.063	10008.41
856.385	9998.69
856.708	9931.35
857.03	9927.06
857.352	9881.18
857.674	9885.93
857.996	9857
858.318	9785.36
858.64	9784.91
858.961	9740.17
859.283	9792.82
859.605	9696.55
859.926	9698.36
860.248	9659.49
860.57	9669.21
860.891	9658.81
861.212	9567.97
861.534	9601.64
861.855	9640.51
862.176	9647.51
862.498	9533.17
862.819	9647.51
863.14	9551.25
863.461	9466.73
863.782	9503.56
864.103	9480.06
864.424	9493.62
864.745	9542.21
865.065	9468.31
865.386	9310.12
865.707	9374.08
866.027	9340.18
866.348	9339.73
866.668	9392.61
866.989	9334.3
867.309	9233.29
867.63	9263.8
867.95	9260.63
868.27	9253.85
868.59	9253.85
868.91	9280.97
869.23	9200.29
869.55	9103.8
869.87	9257.47
870.19	9238.71
870.51	9168.21
870.83	9213.18
871.15	9136.34
871.469	9139.96
871.789	9102.9
872.109	9117.13
872.428	9081.88
872.748	9066.96
873.067	9053.63
873.386	9063.12
873.706	9017.7
874.025	9085.5
874.344	9067.64
874.663	9005.95
874.982	9014.99
875.301	9001.66
875.62	8972.05
875.939	8991.03
876.258	8964.14
876.577	8883.47
876.896	8910.13
877.214	8897.93
877.533	8903.13
877.852	8878.95
878.17	8903.13
878.489	8851.15
878.807	8888.44
879.125	8879.17
879.444	8771.15
879.762	8794.2
880.08	8815.9
880.398	8796.01
880.716	8766.41
881.034	8698.39
881.352	8746.52
881.67	8811.15
881.988	8718.05
882.306	8704.94
882.624	8669.24
882.941	8597.37
883.259	8567.54
883.577	8640.76
883.894	8635.79
884.212	8614.77
884.529	8557.83
884.846	8526.41
885.164	8551.05
885.481	8500.2
885.798	8521.89
886.115	8417.04
886.432	8408
886.75	8425.85
887.067	8439.18
887.383	8372.75
887.7	8433.08
888.017	8327.1
888.334	8362.12
888.651	8328
888.967	8281.22
889.284	8272.41
889.6	8220.89
889.917	8201.45
890.233	8259.75
890.55	8249.36
890.866	8172.98
891.182	8168.23
891.498	8118.06
891.815	8104.73
892.131	8133.66
892.447	8057.95
892.763	8050.95
893.079	8058.86
893.395	8024.73
893.71	7931.4
894.026	7978.63
894.342	7956.94
894.657	7887.79
894.973	7831.74
895.289	7868.58
895.604	7763.72
895.92	7749.26
896.235	7808.92
896.55	7723.72
896.865	7752.42
897.181	7724.18
897.496	7655.02
897.811	7628.81
898.126	7678.3
898.441	7623.61
898.756	7527.12
899.071	7531.41
899.386	7483.73
899.7	7488.7
900.015	7471.75
900.33	7453.67
900.644	7421.13
900.959	7423.84
901.273	7373.9
901.588	7300.46
901.902	7227.92
902.216	7276.5
902.531	7173.46
902.845	7187.47
903.159	7213.91
903.473	7196.96
903.787	7158.31
904.101	7071.31
904.415	7147.92
904.729	7119.22
905.042	7051.42
905.356	7040.58
905.67	6975.72
905.984	6975.72
906.297	6972.33
906.611	6953.12
906.924	6913.35
907.237	6884.2
907.551	6932.56
907.864	6800.81
908.177	6773.01
908.491	6821.6
908.804	6714.71
909.117	6691.21
909.43	6719.46
909.743	6658.21
910.056	6643.75
910.368	6615.96
910.681	6602.17
910.994	6613.02
911.307	6534.38
911.619	6491.89
911.932	6503.42
912.244	6426.81
912.557	6467.03
912.869	6465.68
913.181	6426.13
913.494	6373.7
913.806	6399.46
914.118	6351.56
914.43	6279.02
914.742	6304.55
915.054	6229.53
915.366	6224.33
915.678	6203.99
915.99	6158.57
916.302	6112.01
916.613	6118.34
916.925	6114.73
917.236	6098.46
917.548	6046.48
917.859	6015.29
918.171	6029.08
918.482	6021.62
918.794	5979.36
919.105	5980.94
919.416	5886.48
919.727	5908.4
920.038	5866.82
920.349	5862.3
920.66	5785.92
920.971	5834.06
921.282	5824.79
921.593	5710.22
921.903	5743.21
922.214	5698.47
922.525	5680.61
922.835	5679.03
923.146	5616.43
923.456	5597.9
923.767	5570.56
924.077	5528.98
924.387	5580.95
924.697	5470.22
925.008	5500.28
925.318	5486.95
925.628	5475.87
925.938	5468.19
926.248	5375.31
926.558	5377.12
926.867	5371.47
927.177	5343
927.487	5297.12
927.796	5280.62
928.106	5274.97
928.416	5227.29
928.725	5271.81
929.034	5186.62
929.344	5213.28
929.653	5199.95
929.962	5167.18
930.271	5147.07
930.581	5064.36
930.89	5096.22
931.199	5074.08
931.508	5056.22
931.817	5067.3
932.125	4955.43
932.434	5021.2
932.743	4957.69
933.051	4949.11
933.36	4899.16
933.669	4879.96
933.977	4865.27
934.286	4858.71
934.594	4865.49
934.902	4783.01
935.21	4775.33
935.519	4750.02
935.827	4753.63
936.135	4725.38
936.443	4718.15
936.751	4670.7
937.059	4658.27
937.367	4634.09
937.674	4642.22
937.982	4637.48
938.29	4593.41
938.597	4586.18
938.905	4527.2
939.213	4505.05
939.52	4566.07
939.827	4537.82
940.135	4489.46
940.442	4499.85
940.749	4417.37
941.056	4436.8
941.363	4371.95
941.67	4370.14
941.977	4354.09
942.284	4345.51
942.591	4358.84
942.898	4284.04
943.205	4315.23
943.511	4286.75
943.818	4263.25
944.125	4216.02
944.431	4256.24
944.738	4221.44
945.044	4166.75
945.35	4106.64
945.657	4143.7
945.963	4194.1
946.269	4100.54
946.575	4124.95
946.881	4104.16
947.187	4110.03
947.493	4038.17
947.799	4062.58
948.105	4050.6
948.41	3991.17
948.716	3997.72
949.022	3937.38
949.327	3941.68
949.633	3968.79
949.938	3950.26
950.244	3903.03
950.549	3855.8
950.854	3846.54
951.16	3828.01
951.465	3856.93
951.77	3821.91
952.075	3830.94
952.38	3798.4
952.685	3775.58
952.99	3775.58
953.294	3759.76
953.599	3704.39
953.904	3718.41
954.209	3675.47
954.513	3646.09
954.818	3648.12
955.122	3652.42
955.426	3634.11
955.731	3637.73
956.035	3631.4
956.339	3623.49
956.643	3610.16
956.948	3583.95
957.252	3541.23
957.556	3563.61
957.86	3532.2
958.163	3547.79
958.467	3461.91
958.771	3463.72
959.075	3498.98
959.378	3434.8
959.682	3439.77
959.985	3414.91
960.289	3371.97
960.592	3381.01
960.896	3396.83
961.199	3346.44
961.502	3318.64
961.805	3334.23
962.108	3321.81
962.411	3310.28
962.714	3279.32
963.017	3260.79
963.32	3327.45
963.623	3254.24
963.926	3250.62
964.228	3225.76
964.531	3184.41
964.833	3191.64
965.136	3192.32
965.438	3144.18
965.741	3142.6
966.043	3148.48
966.345	3114.58
966.648	3089.72
966.95	3140.79
967.252	3062.6
967.554	3101.92
967.856	3050.17
968.158	3044.07
968.46	2971.08
968.761	3019.44
969.063	3018.54
969.365	3004.53
969.666	2979.44
969.968	2969.05
970.269	2941.7
970.571	2961.14
970.872	2908.93
971.174	2882.04
971.475	2877.07
971.776	2898.09
972.077	2875.04
972.378	2862.61
972.679	2861.93
972.98	2818.32
973.281	2850.18
973.582	2814.47
973.883	2817.19
974.183	2803.63
974.484	2817.41
974.785	2768.37
975.085	2797.07
975.386	2748.94
975.686	2740.58
975.986	2706.91
976.287	2710.75
976.587	2692.67
976.887	2720.01
977.187	2680.92
977.487	2673.91
977.787	2649.05
978.087	2640.47
978.387	2647.7
978.687	2628.04
978.987	2635.04
979.286	2577.64
979.586	2593.24
979.885	2556.63
980.185	2558.66
980.484	2561.15
980.784	2553.69
981.083	2535.84
981.382	2526.12
981.682	2523.63
981.981	2489.74
982.28	2492.9
982.579	2496.52
982.878	2483.41
983.177	2456.52
983.475	2458.33
983.774	2446.57
984.073	2431.89
984.372	2421.72
984.67	2396.63
984.969	2392.34
985.267	2374.94
985.566	2359.8
985.864	2380.59
986.162	2378.33
986.461	2333.36
986.759	2384.65
987.057	2297.88
987.355	2330.64
987.653	2325.67
987.951	2295.39
988.249	2292.23
988.547	2304.2
988.844	2260.14
989.142	2307.82
989.44	2226.47
989.737	2237.09
990.035	2226.24
990.332	2204.55
990.63	2210.87
990.927	2190.76
991.224	2196.86
991.521	2181.5
991.819	2195.51
992.116	2169.29
992.413	2150.99
992.71	2087.94
993.006	2095.17
993.303	2147.37
993.6	2110.76
993.897	2107.6
994.193	2073.93
994.49	2078.9
994.787	2058.79
995.083	2045
995.379	2040.26
995.676	2052.69
995.972	2021.73
996.268	2017.66
996.565	2011.11
996.861	2020.6
997.157	1985.12
997.453	1999.81
997.749	1980.15
998.044	1952.58
998.34	1969.07
998.636	1935.85
998.932	1925.23
999.227	1917.32
999.523	1920.03
999.818	1922.75
1000.114	1899.92
1000.409	1913.93
1000.704	1858.79
1001	1883.65
1001.295	1836.87
1001.59	1863.54
1001.885	1852.47
1002.18	1847.49
1002.475	1830.32
1002.77	1817.89
1003.065	1782.64
1003.359	1806.82
1003.654	1772.69
1003.949	1799.81
1004.243	1785.12
1004.538	1748.74
1004.832	1734.28
1005.127	1729.3
1005.421	1741.28
1005.715	1711
1006.009	1724.33
1006.304	1706.48
1006.598	1707.38
1006.892	1685.69
1007.186	1673.94
1007.48	1680.49
1007.773	1650.44
1008.067	1626.48
1008.361	1647.5
1008.655	1620.61
1008.948	1608.86
1009.242	1646.37
1009.535	1581.74
1009.829	1614.96
1010.122	1591.46
1010.415	1592.36
1010.708	1572.47
1011.001	1544.45
1011.295	1548.07
1011.588	1550.1
1011.881	1544.22
1012.173	1537.9
1012.466	1511.91
1012.759	1506.94
1013.052	1520.5
1013.344	1496.77
1013.637	1496.99
1013.93	1468.29
1014.222	1478.92
1014.514	1452.25
1014.807	1424.23
1015.099	1439.59
1015.391	1428.75
1015.683	1439.37
1015.976	1422.87
1016.268	1420.39
1016.56	1406.83
1016.851	1409.99
1017.143	1422.42
1017.435	1398.01
1017.727	1351.91
1018.018	1353.04
1018.31	1367.05
1018.602	1350.33
1018.893	1331.35
1019.185	1329.54
1019.476	1314.17
1019.767	1331.8
1020.058	1302.65
1020.35	1323.67
1020.641	1264.91
1020.932	1302.2
1021.223	1258.58
1021.514	1228.98
1021.804	1271.92
1022.095	1232.82
1022.386	1252.03
1022.677	1219.71
1022.967	1215.87
1023.258	1231.01
1023.548	1251.8
1023.839	1203.44
1024.129	1214.29
1024.419	1199.38
1024.709	1196.66
1025	1199.38
1025.29	1191.01
1025.58	1142.2
1025.87	1139.49
1026.16	1137.23
1026.449	1132.03
1026.739	1128.19
1027.029	1122.32
1027.319	1128.64
1027.608	1086.16
1027.898	1112.15
1028.187	1085.71
1028.477	1113.28
1028.766	1089.32
1029.055	1068.76
1029.344	1050.23
1029.634	1061.98
1029.923	1054.07
1030.212	1045.26
1030.501	1046.38
1030.79	1023.33
1031.078	1024.24
1031.367	1026.95
1031.656	1004.13
1031.945	1020.85
1032.233	984.24
1032.522	1001.19
1032.81	997.35
1033.099	975.43
1033.387	977.69
1033.675	967.97
1033.963	990.79
1034.251	975.2
1034.54	953.73
1034.828	949.66
1035.116	940.85
1035.403	939.5
1035.691	920.51
1035.979	930
1036.267	916.44
1036.554	913.51
1036.842	925.48
1037.129	935.65
1037.417	891.13
1037.704	888.65
1037.992	885.26
1038.279	874.86
1038.566	870.8
1038.853	870.8
1039.14	870.8
