Data from blue_shiny_book_FLMS001491_00100.txt Node
Date: Wed Feb 08 15:27:49 GMT 2017
User: dcchb
Spectrometer: FLMS00149
Trigger mode: 0
Integration Time (sec): 2.000000E-2
Scans to average: 10
Electric dark correction enabled: true
Nonlinearity correction enabled: false
Boxcar width: 0
XAxis mode: Wavelengths
Number of Pixels in Spectrum: 2048
>>>>>Begin Spectral Data<<<<<
341.393	-18.83
341.776	-18.83
342.16	-18.83
342.543	-64.02
342.927	-72.61
343.31	-69.22
343.693	-76.68
344.077	-64.25
344.46	-60.18
344.843	-59.28
345.226	-29.45
345.61	-45.04
345.993	-35.32
346.376	-0.75
346.759	20.72
347.142	34.5
347.525	43.09
347.908	59.59
348.291	82.87
348.674	93.26
349.057	106.14
349.44	120.15
349.823	140.04
350.206	159.02
350.588	185.46
350.971	193.37
351.354	215.29
351.737	231.11
352.119	236.31
352.502	259.13
352.884	260.71
353.267	276.76
353.65	314.95
354.032	296.19
354.414	299.13
354.797	296.64
355.179	311.56
355.562	307.04
355.944	337.55
356.326	318.11
356.709	350.2
357.091	337.55
357.473	337.55
357.855	321.5
358.238	330.99
358.62	328.51
359.002	339.13
359.384	340.26
359.766	329.64
360.148	346.59
360.53	329.86
360.912	327.6
361.294	337.32
361.676	327.83
362.057	320.6
362.439	326.93
362.821	313.37
363.203	319.24
363.584	349.3
363.966	326.02
364.348	333.71
364.729	330.09
365.111	316.98
365.493	328.06
365.874	297.77
366.256	301.62
366.637	321.95
367.019	317.21
367.4	333.03
367.781	329.64
368.163	316.08
368.544	307.04
368.925	306.36
369.306	340.49
369.688	333.25
370.069	333.71
370.45	334.16
370.831	323.54
371.212	325.34
371.593	323.99
371.974	322.86
372.355	340.71
372.736	298.23
373.117	341.39
373.498	321.28
373.879	321.95
374.26	336.87
374.641	333.48
375.021	311.11
375.402	313.14
375.783	309.75
376.163	326.7
376.544	347.72
376.925	351.78
377.305	330.54
377.686	345.23
378.066	361.05
378.447	366.7
378.827	333.48
379.208	340.94
379.588	363.99
379.968	333.71
380.349	349.98
380.729	352.01
381.109	355.63
381.489	352.46
381.87	368.28
382.25	380.26
382.63	352.01
383.01	373.25
383.39	356.98
383.77	378.9
384.15	358.11
384.53	377.09
384.91	366.25
385.29	383.65
385.67	396.98
386.049	388.39
386.429	381.61
386.809	406.25
387.189	385.91
387.568	384.33
387.948	390.88
388.328	412.8
388.707	393.59
389.087	390.2
389.466	400.6
389.846	418.22
390.225	409.41
390.605	409.64
390.984	407.6
391.363	397.66
391.743	447.6
392.122	434.95
392.501	441.73
392.881	438.56
393.26	431.1
393.639	439.01
394.018	438.79
394.397	435.17
394.776	458.9
395.155	454.38
395.534	451.67
395.913	466.81
396.292	468.17
396.671	459.35
397.05	470.2
397.429	478.33
397.808	475.85
398.186	489.18
398.565	488.73
398.944	479.46
399.323	485.57
399.701	484.89
400.08	495.28
400.458	513.59
400.837	502.74
401.215	507.49
401.594	512.68
401.972	516.53
402.351	519.01
402.729	507.03
403.107	536.41
403.486	554.27
403.864	533.93
404.242	555.62
404.62	561.95
404.999	554.49
405.377	561.5
405.755	578.67
406.133	581.38
406.511	564.43
406.889	588.39
407.267	593.36
407.645	611.44
408.023	626.58
408.401	647.14
408.779	606.47
409.156	633.81
409.534	648.95
409.912	660.7
410.29	660.93
410.667	651.44
411.045	663.64
411.422	685.56
411.8	697.31
412.178	716.52
412.555	711.1
412.933	733.47
413.31	734.15
413.687	726.24
414.065	744.32
414.442	769.4
414.819	759.01
415.197	786.12
415.574	792.9
415.951	766.91
416.328	799.23
416.705	789.06
417.082	792.22
417.46	834.26
417.837	833.35
418.214	843.3
418.591	840.59
418.967	842.17
419.344	821.38
419.721	882.84
420.098	851.66
420.475	891.66
420.852	857.53
421.228	904.76
421.605	923.29
421.982	918.55
422.358	930.07
422.735	921.04
423.111	951.09
423.488	942.05
423.864	963.07
424.241	971.43
424.617	985.67
424.994	1011.2
425.37	1013.69
425.746	1015.72
426.123	1034.93
426.499	1072.9
426.875	1096.4
427.251	1077.19
427.627	1110.63
428.003	1112.44
428.379	1117.64
428.756	1111.09
429.132	1123.06
429.507	1164.42
429.883	1168.26
430.259	1175.04
430.635	1181.82
431.011	1212.1
431.387	1242.38
431.763	1229.95
432.138	1255.94
432.514	1297.07
432.89	1296.84
433.265	1319.89
433.641	1323.96
434.016	1342.94
434.392	1381.81
434.767	1383.85
435.143	1412.1
435.518	1402.15
435.894	1448.25
436.269	1438.76
436.644	1479.44
437.02	1518.99
437.395	1525.09
437.77	1546.33
438.145	1569.83
438.52	1571.41
438.895	1573.9
439.271	1564.63
439.646	1605.76
440.021	1636.72
440.395	1619.32
440.77	1628.36
441.145	1689.83
441.52	1714.46
441.895	1720.79
442.27	1729.6
442.645	1712.88
443.019	1775.02
443.394	1757.62
443.769	1772.99
444.143	1718.08
444.518	1794.23
444.892	1782.03
445.267	1816.6
445.641	1850.73
446.016	1857.96
446.39	1890.73
446.764	1888.02
447.139	1862.48
447.513	1938.64
447.887	1920.33
448.262	1935.7
448.636	1963.72
449.01	2000.33
449.384	2000.1
449.758	1995.13
450.132	2019.09
450.506	2040.1
450.88	2043.04
451.254	2036.49
451.628	2089.37
452.002	2126.88
452.376	2186.54
452.75	2169.82
453.123	2202.36
453.497	2235.35
453.871	2251.62
454.244	2284.16
454.618	2282.36
454.992	2304.73
455.365	2312.18
455.739	2365.97
456.112	2402.8
456.486	2426.53
456.859	2491.84
457.232	2538.62
457.606	2530.26
457.979	2529.35
458.352	2597.15
458.725	2650.93
459.099	2644.38
459.472	2728.22
459.845	2700.88
460.218	2756.69
460.591	2736.13
460.964	2817.48
461.337	2841.89
461.71	2922.34
462.083	2937.71
462.456	2965.28
462.829	3012.28
463.201	3022
463.574	3033.52
463.947	3106.29
464.32	3185.38
464.692	3204.36
465.065	3207.75
465.438	3283.23
465.81	3312.61
466.183	3335.89
466.555	3415.66
466.928	3432.16
467.3	3470.35
467.672	3535.2
468.045	3639.38
468.417	3581.08
468.789	3646.61
469.161	3716.89
469.534	3733.39
469.906	3826.72
470.278	3846.16
470.65	3900.39
471.022	3987.17
471.394	4015.42
471.766	4053.61
472.138	4079.82
472.51	4228.74
472.882	4274.62
473.253	4348.06
473.625	4426.71
473.997	4508.06
474.369	4528.4
474.74	4549.41
475.112	4657.66
475.484	4741.73
475.855	4809.07
476.227	4874.15
476.598	4965.67
476.97	5024.2
477.341	5116.86
477.713	5177.19
478.084	5295.84
478.455	5454.7
478.827	5408.37
479.198	5649.5
479.569	5640.69
479.94	5771.53
480.311	5853.33
480.682	5941.92
481.053	6126.32
481.424	6146.43
481.795	6229.37
482.166	6311.85
482.537	6386.2
482.908	6509.36
483.279	6629.81
483.65	6730.6
484.021	6894.44
484.391	7007.2
484.762	7113.64
485.133	7178.5
485.503	7233.64
485.874	7454.65
486.244	7503.91
486.615	7601.76
486.985	7698.94
487.356	7851.7
487.726	7945.71
488.097	8062.32
488.467	8119.49
488.837	8245.36
489.207	8359.48
489.578	8531.46
489.948	8632.47
490.318	8728.51
490.688	8830.21
491.058	8994.27
491.428	9097.77
491.798	9202.85
492.168	9408.5
492.538	9407.59
492.908	9504.99
493.278	9576.4
493.648	9617.76
494.017	9740.01
494.387	9861.82
494.757	9930.29
495.126	10084.86
495.496	10087.57
495.866	10211.19
496.235	10356.27
496.605	10492.08
496.974	10600.78
497.344	10645.75
497.713	10750.61
498.082	10862.24
498.452	10992.86
498.821	11039.19
499.19	11092.75
499.559	11207.77
499.928	11147.88
500.298	11248.67
500.667	11409.57
501.036	11292.06
501.405	11474.2
501.774	11530.47
502.143	11655.67
502.512	11805.95
502.88	11908.54
503.249	11867.19
503.618	12115.54
503.987	12102.44
504.356	12177.46
504.724	12172.26
505.093	12406.38
505.462	12423.33
505.83	12496.32
506.199	12578.36
506.567	12682.99
506.936	12714.4
507.304	12750.33
507.672	12862.64
508.041	12969.76
508.409	13033.71
508.777	13118
509.145	13285.46
509.514	13463.98
509.882	13473.7
510.25	13569.06
510.618	13746.91
510.986	13882.73
511.354	13994.59
511.722	14051.09
512.09	14102.16
512.458	14219.89
512.826	14287.69
513.193	14312.1
513.561	14298.76
513.929	14443.84
514.297	14559.77
514.664	14644.29
515.032	14727.45
515.4	14839.54
515.767	14872.08
516.135	15096.93
516.502	15017.84
516.869	15282.24
517.237	15347.55
517.604	15380.77
517.972	15634.32
518.339	15701.89
518.706	15793.41
519.073	15911.83
519.44	15952.73
519.808	16111.6
520.175	16039.51
520.542	16223.46
520.909	16213.06
521.276	16268.2
521.643	16451.7
522.009	16599.94
522.376	16631.36
522.743	16806.49
523.11	17054.17
523.477	17240.15
523.843	17437.66
524.21	17724.89
524.577	17746.13
524.943	17846.47
525.31	17860.48
525.676	18167.59
526.043	18161.71
526.409	18243.52
526.776	18328.04
527.142	18492.1
527.508	18510.18
527.874	18572.55
528.241	18688.93
528.607	18784.52
528.973	18863.84
529.339	18984.74
529.705	19135.25
530.071	19275.35
530.437	19482.13
530.803	19665.85
531.169	19769.81
531.535	19917.6
531.901	19996.47
532.267	20129.57
532.632	20393.29
532.998	20400.52
533.364	20517.81
533.73	20573.17
534.095	20672.61
534.461	20779.27
534.826	20802.55
535.192	20745.6
535.557	20926.38
535.923	20849.55
536.288	20887.29
536.653	20944.46
537.019	21078.02
537.384	21149.88
537.749	21324.11
538.114	21452.25
538.479	21468.52
538.845	21739.92
539.21	21813.14
539.575	21930.88
539.94	21960.26
540.305	22133.13
540.67	21999.58
541.034	22191.89
541.399	22245.67
541.764	22266.46
542.129	22256.07
542.494	22255.84
542.858	22209.74
543.223	22244.99
543.587	22335.84
543.952	22326.57
544.316	22387.36
544.681	22471.2
545.045	22630.07
545.41	22735.15
545.774	22743.74
546.138	22822.38
546.503	23004.52
546.867	23025.31
547.231	23297.17
547.595	23380.11
547.959	23389.37
548.324	23484.51
548.688	23490.84
549.052	23682.7
549.416	23654.9
549.779	23578.29
550.143	23640.89
550.507	23671.4
550.871	23686.31
551.235	23656.93
551.599	23772.41
551.962	23703.94
552.326	23890.37
552.689	23935.8
553.053	23819.19
553.417	23943.48
553.78	24416.91
554.143	24124.27
554.507	24385.73
554.87	24493.75
555.234	24813.51
555.597	24668.66
555.96	24801.31
556.323	25044.92
556.686	24916.79
557.05	25221.41
557.413	25083.11
557.776	25136.22
558.139	25288.53
558.502	25254.63
558.865	25239.94
559.228	25300.28
559.59	25307.51
559.953	25314.07
560.316	25463.44
560.679	25660.5
561.041	25835.18
561.404	25877.44
561.767	25951.11
562.129	26021.39
562.492	26335.73
562.854	26331.44
563.217	26458.89
563.579	26681.71
563.941	26858.66
564.304	26985.89
564.666	27233.11
565.028	27181.81
565.39	27132.1
565.753	27428.13
566.115	27512.2
566.477	27448.93
566.839	27479.21
567.201	27596.49
567.563	27558.98
567.925	27584.29
568.287	27566.21
568.648	27631.75
569.01	27659.77
569.372	27913.77
569.734	27822.47
570.095	27984.28
570.457	28116.7
570.819	28271.5
571.18	28469.69
571.542	28488.9
571.903	28682.79
572.265	28778.83
572.626	28933.41
572.987	28913.97
573.349	29141.08
573.71	29303.79
574.071	29276.45
574.432	29329.33
574.794	29465.37
575.155	29433.51
575.516	29269.44
575.877	29438.03
576.238	29285.94
576.599	29466.27
576.96	29378.14
577.32	29465.37
577.681	29503.33
578.042	29562.54
578.403	29603.22
578.763	29677.57
579.124	29713.95
579.485	30028.29
579.845	29979.71
580.206	30040.72
580.566	30143.54
580.927	30233.03
581.287	30503.76
581.648	30298.12
582.008	30666.69
582.368	30584.21
582.728	30525.91
583.089	30614.49
583.449	30608.62
583.809	30583.31
584.169	30679.57
584.529	30560.71
584.889	30775.84
585.249	30491.33
585.609	30438.45
585.969	30576.75
586.329	30412.24
586.688	30397.1
587.048	30422.63
587.408	30382.18
587.768	30451.78
588.127	30473.25
588.487	30415.85
588.846	30876.63
589.206	30564.78
589.565	30598.9
589.925	30810.19
590.284	30636.41
590.643	30823.07
591.003	31042.95
591.362	31192.78
591.721	30946.46
592.08	31195.49
592.44	31242.5
592.799	31391.19
593.158	31240.92
593.517	31237.3
593.876	31176.28
594.235	31117.3
594.593	31066.01
594.952	31207.24
595.311	31013.58
595.67	31057.64
596.029	31304.42
596.387	31250.86
596.746	31244.31
597.104	31061.49
597.463	31054.48
597.822	31178.77
598.18	30939.91
598.538	31073.46
598.897	31270.07
599.255	31106.46
599.613	31567.91
599.972	31342.16
600.33	31570.17
600.688	31560.68
601.046	31733.56
601.404	31634.13
601.762	31579.89
602.12	31915.7
602.478	31830.96
602.836	31813.56
603.194	31698.76
603.552	31878.19
603.91	31681.81
604.268	31802.03
604.625	31617.18
604.983	31749.38
605.341	31532.89
605.698	31684.97
606.056	31703.05
606.413	31614.47
606.771	31765.87
607.128	31734.01
607.485	31491.08
607.843	31621.92
608.2	32027.11
608.557	32116.15
608.914	31994.57
609.272	32191.4
609.629	32238.86
609.986	32258.06
610.343	32198.18
610.7	32559.98
611.057	32509.81
611.414	32459.87
611.771	32586.87
612.127	32807.43
612.484	32774.43
612.841	32849.91
613.198	32724.27
613.554	32795.45
613.911	32939.4
614.267	32861.21
614.624	32672.06
614.98	32771.72
615.337	32905.73
615.693	32783.02
616.05	32693.08
616.406	32901.66
616.762	32850.37
617.118	32760.88
617.475	32766.75
617.831	32780.54
618.187	32804.49
618.543	32822.34
618.899	33030.02
619.255	33072.51
619.611	33008.1
619.967	33120.19
620.323	33365.83
620.678	33140.75
621.034	33231.6
621.39	33337.13
621.746	33259.17
622.101	33659.61
622.457	33370.35
622.812	33504.13
623.168	33664.81
623.523	33547.3
623.879	33615.32
624.234	33590.46
624.589	33617.12
624.945	33583.23
625.3	33643.11
625.655	33492.16
626.01	33619.16
626.365	33590.01
626.72	33549.33
627.075	33486.96
627.43	33514.08
627.785	33261.65
628.14	33409.22
628.495	33330.8
628.85	33220.07
629.205	33188.44
629.559	33304.82
629.914	33236.57
630.269	33153.18
630.623	33212.62
630.978	33114.76
631.332	33392.27
631.687	33462.1
632.041	33303.23
632.396	33376.9
632.75	33219.85
633.104	33281.09
633.459	33236.34
633.813	33217.36
634.167	33263.91
634.521	33075.9
634.875	33091.26
635.229	33340.52
635.583	33061.88
635.937	33223.46
636.291	32985.5
636.645	33169.23
636.999	32846.3
637.352	32899.18
637.706	32888.78
638.06	32824.38
638.413	32765.62
638.767	32496.48
639.121	32569.92
639.474	32396.82
639.828	32338.51
640.181	32355.69
640.534	32293.77
640.888	32110.72
641.241	32218.29
641.594	32134
641.947	32331.73
642.301	32272.53
642.654	32271.62
643.007	32369.02
643.36	32245.41
643.713	32280.44
644.066	32394.78
644.419	32390.72
644.771	32392.98
645.124	32202.47
645.477	32264.17
645.83	32200.44
646.182	31942.37
646.535	31465.77
646.888	31459.89
647.24	31282.72
647.593	31192.56
647.945	31078.89
648.298	31006.12
648.65	30839.34
649.002	30771.1
649.355	30974.71
649.707	31004.76
650.059	31241.59
650.411	31574.01
650.763	31569.49
651.115	31684.97
651.467	31607.91
651.819	31543.51
652.171	31526.56
652.523	31448.59
652.875	31505.77
653.227	31319.78
653.578	31707.12
653.93	31579.89
654.282	31368.82
654.633	31381.93
654.985	31505.77
655.337	31470.06
655.688	31471.64
656.039	31670.96
656.391	31531.53
656.742	31553.45
657.094	31738.98
657.445	31943.04
657.796	31595.48
658.147	31595.03
658.498	31752.54
658.849	31655.59
659.2	31672.32
659.551	31669.38
659.902	31700.11
660.253	31535.6
660.604	31524.75
660.955	31389.61
661.306	31502.38
661.656	31397.97
662.007	31344.42
662.358	31207.02
662.708	31206.79
663.059	31238.43
663.409	30985.1
663.76	31209.28
664.11	31085.67
664.461	31005.67
664.811	30964.76
665.161	31004.09
665.511	30860.59
665.862	30964.31
666.212	31188.94
666.562	31053.12
666.912	31137.19
667.262	31224.42
667.612	31381.93
667.962	31284.76
668.312	31364.53
668.662	31548.48
669.011	31477.75
669.361	31557.74
669.711	31487.46
670.06	31463.28
670.41	31368.6
670.76	31395.49
671.109	31498.76
671.459	31257.64
671.808	31247.92
672.157	31326.79
672.507	31064.42
672.856	31024.88
673.205	31007.93
673.554	31123.18
673.904	30802.28
674.253	31003.86
674.602	30783.98
674.951	30480.71
675.3	30172.02
675.649	30674.6
675.998	30561.84
676.346	30510.99
676.695	30541.05
677.044	30296.31
677.393	30322.75
677.741	30420.82
678.09	30271
678.438	30326.14
678.787	30202.75
679.135	30262.86
679.484	30091.12
679.832	30220.38
680.181	30114.17
680.529	30425.57
680.877	30314.39
681.225	30423.99
681.573	30636.64
681.922	30327.72
682.27	30388.51
682.618	30345.12
682.966	30234.84
683.314	30319.58
683.661	30244.78
684.009	30100.38
684.357	30008.41
684.705	29968.18
685.053	29821.74
685.4	29911.01
685.748	29768.19
686.095	29725.02
686.443	29499.49
686.79	29407.97
687.138	29371.36
687.485	29350.12
687.832	29071.26
688.18	29237.13
688.527	28921.2
688.874	28846.4
689.221	28711.49
689.568	28608.22
689.915	28488.45
690.262	28535.68
690.609	28459.97
690.956	28403.48
691.303	28203.93
691.65	28135.01
691.997	28127.78
692.344	27904.28
692.69	27947.9
693.037	28025.63
693.383	27839.42
693.73	27955.8
694.077	27770.72
694.423	27951.74
694.769	27855.69
695.116	27798.75
695.462	27760.56
695.808	27671.52
696.155	27840.55
696.501	27629.71
696.847	27582.03
697.193	27221.13
697.539	27325.31
697.885	27163.96
698.231	27091.19
698.577	27085.32
698.923	26890.52
699.269	26852.56
699.614	26679.91
699.96	26533.92
700.306	26545.67
700.651	26333.7
700.997	26315.85
701.342	26151.33
701.688	26052.13
702.033	25876.99
702.379	25672.7
702.724	25676.99
703.069	25750.21
703.415	25466.6
703.76	25571.91
704.105	25494.63
704.45	25383.22
704.795	25386.61
705.14	25187.74
705.485	25187.06
705.83	25099.61
706.175	25300.96
706.52	25091.25
706.865	25058.71
707.209	25192.04
707.554	25080.85
707.899	25138.7
708.243	25045.6
708.588	25106.84
708.932	24949.56
709.277	25043.79
709.621	25079.04
709.966	24824.14
710.31	24874.76
710.654	24525.61
710.998	24775.78
711.342	24625.5
711.687	24547.76
712.031	24521.54
712.375	24329.69
712.719	24405.16
713.063	24278.16
713.407	24265.96
713.75	24073.19
714.094	24125.85
714.438	23821.9
714.782	23797.27
715.125	23692.41
715.469	23781.45
715.812	23414.91
716.156	23395.25
716.499	23469.82
716.843	23275.25
717.186	23196.83
717.53	23265.08
717.873	23351.63
718.216	23264.63
718.559	23188.92
718.902	23021.92
719.246	23121.13
719.589	23042.71
719.932	23015.14
720.275	23090.17
720.617	23055.37
720.96	23138.76
721.303	23161.13
721.646	23148.7
721.989	23111.86
722.331	23149.83
722.674	23193.9
723.016	23230.28
723.359	23186.21
723.701	23159.32
724.044	23011.53
724.386	23033.9
724.729	23087.68
725.071	23135.59
725.413	23020.79
725.755	23065.09
726.097	23085.65
726.439	22960.46
726.782	22857.41
727.124	22866.9
727.465	22707.58
727.807	22723.63
728.149	22652.44
728.491	22687.02
728.833	22610.86
729.175	22645.89
729.516	22513.91
729.858	22450.86
730.199	22579.22
730.541	22512.33
730.882	22444.31
731.224	22460.13
731.565	22266.46
731.906	22188.27
732.248	22300.59
732.589	22130.19
732.93	22092
733.271	22139.01
733.612	22410.87
733.953	22297.87
734.294	22245.45
734.635	22181.04
734.976	22256.29
735.317	22247.03
735.658	22292
735.999	22290.64
736.339	22468.72
736.68	22492.67
737.021	22418.32
737.361	22353.69
737.702	22552.33
738.042	22396.4
738.383	22398.21
738.723	22497.19
739.063	22473.91
739.404	22544.2
739.744	22660.12
740.084	22618.32
740.424	22601.37
740.764	22583.52
741.104	22610.86
741.444	22521.15
741.784	22447.93
742.124	22529.73
742.464	22469.4
742.804	22508.49
743.143	22423.52
743.483	22347.36
743.823	22282.96
744.162	22252.9
744.502	22344.88
744.841	22240.47
745.181	22310.3
745.52	22250.87
745.86	22364.31
746.199	22328.38
746.538	22339.91
746.877	22432.79
747.216	22411.77
747.556	22347.59
747.895	22408.61
748.234	22329.96
748.573	22334.48
748.911	22385.1
749.25	22551.65
749.589	22407.7
749.928	22568.6
750.267	22581.48
750.605	22607.7
750.944	22502.84
751.283	22505.55
751.621	22731.76
751.96	22702.38
752.298	22661.93
752.636	22764.53
752.975	22727.92
753.313	22851.76
753.651	22812.89
753.989	22865.77
754.327	22894.92
754.666	23020.57
755.004	23093.56
755.342	23189.6
755.679	23010.4
756.017	23035.26
756.355	23194.8
756.693	23049.49
757.031	23207.45
757.368	23140.56
757.706	23073.22
758.044	23082.49
758.381	23211.75
758.719	23051.98
759.056	23152.54
759.394	23147.57
759.731	22947.57
760.068	23012.43
760.405	22985.31
760.743	22929.95
761.08	23138.76
761.417	22888.82
761.754	23025.54
762.091	22888.14
762.428	22866.67
762.765	22661.48
763.102	22781.03
763.438	22686.79
763.775	22664.87
764.112	22658.09
764.449	22751.87
764.785	22797.97
765.122	22593.91
765.458	22599.34
765.795	22625.55
766.131	22688.15
766.467	22642.05
766.804	22572.9
767.14	22517.3
767.476	22713.46
767.812	22477.98
768.148	22627.58
768.485	22509.85
768.821	22428.04
769.157	22357.53
769.492	22403.18
769.828	22487.47
770.164	22339
770.5	22299
770.836	22382.62
771.171	22201.61
771.507	22208.16
771.842	22068.5
772.178	22221.49
772.513	22107.82
772.849	22079.12
773.184	21902.86
773.519	21939.01
773.855	21727.49
774.19	21698.12
774.525	21735.4
774.86	21654.95
775.195	21606.59
775.53	21502.19
775.865	21496.54
776.2	21248.41
776.535	21341.52
776.87	21230.11
777.205	21123.22
777.539	21110.79
777.874	21170.67
778.209	20930
778.543	20919.15
778.878	20628.09
779.212	20638.93
779.547	20543.57
779.881	20705.37
780.215	20438.04
780.55	20414.31
780.884	20330.02
781.218	20369.56
781.552	20331.15
781.886	20259.51
782.22	20084.6
782.554	19954.88
782.888	19872.4
783.222	19835.57
783.556	19723.93
783.889	19792.63
784.223	19610.94
784.557	19583.14
784.89	19697.72
785.224	19444.62
785.557	19431.51
785.891	19417.27
786.224	19342.02
786.558	19410.94
786.891	19161.46
787.224	19292.98
787.557	19219.54
787.891	19184.06
788.224	19164.4
788.557	19124.62
788.89	19059.32
789.223	19082.82
789.556	18978.19
789.888	18932.09
790.221	18825.42
790.554	18756.95
790.887	18751.98
791.219	18683.05
791.552	18503.85
791.884	18460.23
792.217	18360.12
792.549	18347.02
792.882	18172.78
793.214	18230.64
793.546	18201.03
793.879	18157.87
794.211	18026.57
794.543	18071.09
794.875	17987.48
795.207	17947.93
795.539	17806.69
795.871	17797.88
796.203	17579.58
796.535	17467.27
796.867	17475.63
797.198	17464.1
797.53	17402.64
797.862	17135.52
798.193	17211.91
798.525	17076.99
798.856	17249.19
799.188	16972.82
799.519	17065.92
799.85	16906.15
800.182	16920.61
800.513	16971.46
800.844	16719.49
801.175	16851.46
801.506	16717
801.837	16647.4
802.168	16664.8
802.499	16620.06
802.83	16527.4
803.161	16528.99
803.491	16485.82
803.822	16475.43
804.153	16374.64
804.483	16401.08
804.814	16316.79
805.145	16320.18
805.475	16317.24
805.805	16241.99
806.136	16298.48
806.466	16303.68
806.796	16202.67
807.126	16149.11
807.457	16109.11
807.787	16089.9
808.117	16072.73
808.447	16089.45
808.777	16091.71
809.107	15938.72
809.436	15839.06
809.766	15969.9
810.096	15898.04
810.426	15807.2
810.755	15926.29
811.085	15805.62
811.414	15782.79
811.744	15642.23
812.073	15487.43
812.403	15598.39
812.732	15408.56
813.061	15427.09
813.39	15297.61
813.719	15264.16
814.049	15325.18
814.378	15195.69
814.707	15186.65
815.036	15181.23
815.365	15091.51
815.693	14929.93
816.022	14926.99
816.351	14932.64
816.68	14783.72
817.008	14877.96
817.337	14685.64
817.665	14688.13
817.994	14759.09
818.322	14649.71
818.651	14504.41
818.979	14497.85
819.307	14659.43
819.636	14554.12
819.964	14443.39
820.292	14528.59
820.62	14460.34
820.948	14530.39
821.276	14475.25
821.604	14531.3
821.932	14565.2
822.259	14542.6
822.587	14569.26
822.915	14533.33
823.243	14568.36
823.57	14559.32
823.898	14548.47
824.225	14501.92
824.553	14541.69
824.88	14548.47
825.207	14631.41
825.535	14640.67
825.862	14647
826.189	14630.96
826.516	14603.61
826.843	14687.45
827.17	14703.95
827.497	14631.18
827.824	14718.41
828.151	14706.66
828.478	14654.01
828.805	14767.45
829.131	14571.75
829.458	14620.56
829.785	14593.9
830.111	14558.42
830.438	14643.61
830.764	14607.45
831.09	14620.79
831.417	14587.12
831.743	14573.56
832.069	14575.37
832.395	14512.77
832.722	14413.11
833.048	14428.02
833.374	14344.41
833.7	14295.15
834.026	14287.24
834.351	14268.25
834.677	14334.47
835.003	14267.35
835.329	14199.33
835.654	14238.43
835.98	14119.11
836.306	14166.11
836.631	14066
836.956	14111.2
837.282	14162.04
837.607	13961.14
837.932	13957.53
838.258	14004.53
838.583	13948.49
838.908	13882.5
839.233	13951.88
839.558	13880.02
839.883	13861.71
840.208	13838.66
840.533	13838.44
840.858	13924.54
841.182	13857.42
841.507	13914.82
841.832	13774.48
842.156	13777.19
842.481	13868.27
842.805	13760.25
843.13	13720.7
843.454	13756.18
843.778	13709.63
844.103	13683.86
844.427	13590.53
844.751	13656.97
845.075	13628.5
845.399	13608.84
845.723	13539.91
846.047	13634.37
846.371	13471.89
846.695	13471.44
847.019	13395.74
847.343	13311.44
847.666	13247.94
847.99	13192.35
848.313	13210.66
848.637	13105.57
848.96	13082.98
849.284	13007.72
849.607	12997.1
849.931	12882.53
850.254	12728.63
850.577	12788.75
850.9	12690.22
851.223	12631.24
851.546	12566.15
851.869	12532.26
852.192	12527.28
852.515	12322.54
852.838	12273.96
853.161	12273.96
853.483	12169.1
853.806	12078.48
854.129	12161.87
854.451	11984.25
854.774	12000.74
855.096	11941.76
855.419	11902.89
855.741	11866.74
856.063	11770.02
856.385	11752.39
856.708	11749.68
857.03	11591.26
857.352	11661.32
857.674	11644.37
857.996	11591.26
858.318	11430.36
858.64	11483.7
858.961	11515.78
859.283	11405.73
859.605	11382.23
859.926	11437.14
860.248	11359.4
860.57	11305.17
860.891	11341.33
861.212	11365.96
861.534	11295
861.855	11245.74
862.176	11296.81
862.498	11337.48
862.819	11297.94
863.14	11239.41
863.461	11182.46
863.782	11220.88
864.103	11238.73
864.424	11216.58
864.745	11292.74
865.065	11154.44
865.386	11165.74
865.707	11112.63
866.027	11191.05
866.348	11154.21
866.668	11179.07
866.989	11088
867.309	11076.02
867.63	11024.05
867.95	11102.01
868.27	11109.47
868.59	11092.29
868.91	11079.19
869.23	11042.8
869.55	11010.26
869.87	11020.88
870.19	11008.45
870.51	11010.26
870.83	10993.31
871.15	10914.22
871.469	10892.07
871.789	10885.07
872.109	10849.59
872.428	10751.51
872.748	10800.78
873.067	10734.56
873.386	10758.29
873.706	10707.9
874.025	10673.55
874.344	10583.61
874.663	10612.53
874.982	10522.14
875.301	10510.84
875.62	10462.03
875.939	10405.31
876.258	10429.26
876.577	10392.2
876.896	10457.06
877.214	10358.53
877.533	10362.59
877.852	10381.58
878.17	10369.15
878.489	10318.53
878.807	10317.17
879.125	10250.06
879.444	10210.73
879.762	10232.65
880.08	10292.77
880.398	10127.12
880.716	10181.58
881.034	10043.51
881.352	10044.19
881.67	10086.9
881.988	10115.37
882.306	10116.27
882.624	10034.92
882.941	10013.9
883.259	9994.47
883.577	9987.24
883.894	10038.31
884.212	9959.67
884.529	10033.79
884.846	9941.81
885.164	10022.04
885.481	9967.35
885.798	9956.96
886.115	9870.63
886.432	9999.89
886.75	9921.93
887.067	9989.05
887.383	9814.36
887.7	9886.68
888.017	9859.78
888.334	9779.33
888.651	9829.05
888.967	9803.51
889.284	9768.49
889.6	9776.4
889.917	9663.18
890.233	9671.31
890.55	9691.65
890.866	9648.49
891.182	9625.44
891.498	9586.12
891.815	9549.73
892.131	9527.81
892.447	9464.54
892.763	9471.09
893.079	9405.33
893.395	9300.02
893.71	9279.01
894.026	9229.07
894.342	9276.3
894.657	9127.37
894.973	9141.38
895.289	9132.12
895.604	9156.07
895.92	9035.4
896.235	8994.95
896.55	9018.22
896.865	8964.44
897.181	8895.51
897.496	8892.12
897.811	8813.03
898.126	8755.18
898.441	8766.48
898.756	8669.31
899.071	8670.89
899.386	8692.13
899.7	8582.3
900.015	8543.89
900.33	8506.37
900.644	8459.82
900.959	8462.08
901.273	8474.06
901.588	8393.61
901.902	8364.46
902.216	8313.38
902.531	8320.39
902.845	8321.29
903.159	8303.67
903.473	8277.68
903.787	8267.73
904.101	8200.84
904.415	8192.71
904.729	8100.96
905.042	8136.44
905.356	8170.56
905.67	8138.02
905.984	8114.29
906.297	8033.84
906.611	8022.54
906.924	8066.61
907.237	7979.38
907.551	8004.24
907.864	7940.51
908.177	7956.56
908.491	7912.72
908.804	7916.56
909.117	7838.14
909.43	7789.1
909.743	7787.52
910.056	7734.19
910.368	7733.29
910.681	7750.91
910.994	7674.98
911.307	7754.3
911.619	7627.3
911.932	7659.61
912.244	7531.48
912.557	7580.75
912.869	7518.83
913.181	7497.36
913.494	7432.28
913.806	7431.37
914.118	7420.07
914.43	7410.13
914.742	7379.62
915.054	7322.9
915.366	7258.72
915.678	7256.69
915.99	7258.04
916.302	7216.69
916.613	7112.28
916.925	7113.41
917.236	7058.05
917.548	7091.72
917.859	7016.69
918.171	6962.23
918.482	6889.92
918.794	6925.85
919.105	6883.82
919.416	6775.34
919.727	6805.4
920.038	6699.64
920.349	6644.5
920.66	6653.99
920.971	6632.07
921.282	6615.35
921.593	6581.23
921.903	6553.88
922.214	6522.24
922.525	6531.74
922.835	6498.06
923.146	6472.53
923.456	6456.93
923.767	6429.59
924.077	6378.52
924.387	6362.02
924.697	6312.08
925.008	6303.94
925.318	6240.9
925.628	6315.7
925.938	6198.86
926.248	6163.61
926.558	6097.62
926.867	6132.42
927.177	6099.88
927.487	6089.71
927.796	6015.82
928.106	6054.69
928.416	6015.59
928.725	6069.37
929.034	5958.19
929.344	5919.55
929.653	5979.21
929.962	5910.73
930.271	5886.55
930.581	5900.57
930.89	5838.42
931.199	5878.19
931.508	5825.76
931.817	5812.21
932.125	5848.36
932.434	5808.59
932.743	5778.08
933.051	5706.45
933.36	5722.94
933.669	5696.05
933.977	5688.82
934.286	5692.21
934.594	5592.55
934.902	5621.93
935.21	5531.54
935.519	5587.81
935.827	5589.16
936.135	5565.21
936.443	5515.04
936.751	5514.36
937.059	5515.72
937.367	5494.93
937.674	5444.76
937.982	5423.29
938.29	5353.23
938.597	5390.07
938.905	5308.72
939.213	5290.64
939.52	5268.27
939.827	5199.34
940.135	5225.78
940.442	5216.74
940.749	5223.75
941.056	5160.02
941.363	5066.01
941.67	5056.97
941.977	5009.29
942.284	5004.32
942.591	4969.52
942.898	4978.56
943.205	4930.87
943.511	4919.35
943.818	4930.2
944.125	4855.17
944.431	4807.49
944.738	4793.25
945.044	4791.89
945.35	4736.08
945.657	4711.44
945.963	4741.73
946.269	4673.48
946.575	4661.5
946.881	4702.86
947.187	4681.84
947.493	4560.26
947.799	4598
948.105	4590.77
948.41	4562.52
948.716	4565.91
949.022	4497.21
949.327	4504.9
949.633	4436.42
949.938	4430.77
950.244	4431
950.549	4446.37
950.854	4387.84
951.16	4417.21
951.465	4381.28
951.77	4301.74
952.075	4373.6
952.38	4362.75
952.685	4310.78
952.99	4312.81
953.294	4268.97
953.599	4259.7
953.904	4259.48
954.209	4304.45
954.513	4223.55
954.818	4216.09
955.122	4168.86
955.426	4186.03
955.731	4197.33
956.035	4186.26
956.339	4147.39
956.643	4140.84
956.948	4134.28
957.252	4115.08
957.556	4101.06
957.86	4076.43
958.163	4085.7
958.467	4064.68
958.771	4065.59
959.075	4066.72
959.378	4026.49
959.682	4016.32
959.985	3984.68
960.289	3984.91
960.592	3942.42
960.896	3901.07
961.199	3921.18
961.502	3920.73
961.805	3865.59
962.108	3879.15
962.411	3824.24
962.714	3846.83
963.017	3793.5
963.32	3819.49
963.623	3772.49
963.926	3757.8
964.228	3776.55
964.531	3725.03
964.833	3742.66
965.136	3692.26
965.438	3671.25
965.741	3643.68
966.043	3636.22
966.345	3592.15
966.648	3606.84
966.95	3618.82
967.252	3570.23
967.554	3535.66
967.856	3536.56
968.158	3514.41
968.46	3530.01
968.761	3474.19
969.063	3439.16
969.365	3446.39
969.666	3400.29
969.968	3440.52
970.269	3392.16
970.571	3370.24
970.872	3362.55
971.174	3384.25
971.475	3311.25
971.776	3289.56
972.077	3297.47
972.378	3284.81
972.679	3259.96
972.98	3258.15
973.281	3253.86
973.582	3223.12
973.883	3201.88
974.183	3174.76
974.484	3128.89
974.785	3154.87
975.085	3144.93
975.386	3128.89
975.686	3119.62
975.986	3091.37
976.287	3124.14
976.587	3087.31
976.887	3050.24
977.187	3066.29
977.487	3059.51
977.787	3030.13
978.087	3043.24
978.387	3011.6
978.687	2996.46
978.987	3007.99
979.286	2986.29
979.586	2961.21
979.885	2969.57
980.185	2967.31
980.484	2966.86
980.784	2927.76
981.083	2945.61
981.382	2913.75
981.682	2902.45
981.981	2877.14
982.28	2887.09
982.579	2878.27
982.878	2859.74
983.177	2881.44
983.475	2815.67
983.774	2822.91
984.073	2844.37
984.372	2824.04
984.67	2793.53
984.969	2830.14
985.267	2796.01
985.566	2770.93
985.864	2750.14
986.162	2773.19
986.461	2735.22
986.759	2766.86
987.057	2730.03
987.355	2710.59
987.653	2670.14
987.951	2632.4
988.249	2645.74
988.547	2686.64
988.844	2640.76
989.142	2619.3
989.44	2603.93
989.737	2575.45
990.035	2596.7
990.332	2590.82
990.63	2610.93
990.927	2551.5
991.224	2544.04
991.521	2512.63
991.819	2531.39
992.116	2522.8
992.413	2506.08
992.71	2457.04
993.006	2490.26
993.303	2466.76
993.6	2449.81
993.897	2462.46
994.193	2392.18
994.49	2378.62
994.787	2368.91
995.083	2374.78
995.379	2389.25
995.676	2351.73
995.972	2324.39
996.268	2292.98
996.565	2302.69
996.861	2282.36
997.157	2331.85
997.453	2272.86
997.749	2259.53
998.044	2236.48
998.34	2237.38
998.636	2222.7
998.932	2219.31
999.227	2217.5
999.523	2190.61
999.818	2148.12
1000.114	2148.12
1000.409	2140.66
1000.704	2142.7
1001	2110.38
1001.295	2098.41
1001.59	2109.48
1001.885	2110.83
1002.18	2055.92
1002.475	2076.48
1002.77	2046.88
1003.065	2037.16
1003.359	2060.89
1003.654	2014.34
1003.949	2001.68
1004.243	2035.36
1004.538	1999.88
1004.832	2003.27
1005.127	2005.98
1005.421	1952.87
1005.715	1960.1
1006.009	1972.31
1006.304	1949.93
1006.598	1929.6
1006.892	1945.41
1007.186	1918.97
1007.48	1894.34
1007.773	1902.48
1008.067	1869.48
1008.361	1868.35
1008.655	1876.49
1008.948	1850.73
1009.242	1875.81
1009.535	1863.61
1009.829	1823.84
1010.122	1848.92
1010.415	1861.8
1010.708	1810.28
1011.001	1793.78
1011.295	1766.89
1011.588	1775.25
1011.881	1774.35
1012.173	1771.86
1012.466	1795.81
1012.759	1761.46
1013.052	1737.51
1013.344	1728.92
1013.637	1708.59
1013.93	1709.26
1014.222	1703.39
1014.514	1687.34
1014.807	1666.1
1015.099	1654.35
1015.391	1663.39
1015.683	1666.55
1015.976	1625.88
1016.268	1647.57
1016.56	1610.51
1016.851	1597.63
1017.143	1599.89
1017.435	1608.47
1017.727	1585.88
1018.018	1581.13
1018.31	1564.63
1018.602	1553.33
1018.893	1530.06
1019.185	1563.05
1019.476	1516.73
1019.767	1544.75
1020.058	1507.69
1020.35	1466.78
1020.641	1497.07
1020.932	1470.17
1021.223	1469.04
1021.514	1463.17
1021.804	1465.65
1022.095	1436.73
1022.386	1439.89
1022.677	1412.32
1022.967	1410.51
1023.258	1377.75
1023.548	1364.19
1023.839	1364.19
1024.129	1371.64
1024.419	1359.22
1024.709	1339.56
1025	1358.09
1025.29	1321.02
1025.58	1296.39
1025.87	1323.74
1026.16	1321.7
1026.449	1304.98
1026.739	1268.37
1027.029	1284.64
1027.319	1277.64
1027.608	1257.3
1027.898	1287.13
1028.187	1246.9
1028.477	1238.54
1028.766	1235.38
1029.055	1213.46
1029.344	1201.71
1029.634	1196.51
1029.923	1200.12
1030.212	1198.32
1030.501	1179.33
1030.79	1181.37
1031.078	1158.54
1031.367	1172.78
1031.656	1165.77
1031.945	1137.75
1032.233	1166.45
1032.522	1146.34
1032.81	1173.23
1033.099	1106.57
1033.387	1110.86
1033.675	1086.23
1033.963	1083.52
1034.251	1084.87
1034.54	1082.84
1034.828	1093.46
1035.116	1050.98
1035.403	1096.4
1035.691	1060.47
1035.979	1049.39
1036.267	1060.47
1036.554	1054.14
1036.842	1058.43
1037.129	1049.17
1037.417	1031.31
1037.704	1028.38
1037.992	1010.75
1038.279	992.9
1038.566	1007.81
1038.853	1007.81
1039.14	1007.81
