Data from blue_clamp_base_FLMS001491_00035.txt Node
Date: Wed Feb 08 15:15:55 GMT 2017
User: dcchb
Spectrometer: FLMS00149
Trigger mode: 0
Integration Time (sec): 2.000000E-2
Scans to average: 10
Electric dark correction enabled: true
Nonlinearity correction enabled: false
Boxcar width: 0
XAxis mode: Wavelengths
Number of Pixels in Spectrum: 2048
>>>>>Begin Spectral Data<<<<<
341.393	-16.17
341.776	-16.17
342.16	-16.17
342.543	-68.15
342.927	-57.98
343.31	-67.24
343.693	-70.18
344.077	-76.96
344.46	-67.24
344.843	-61.82
345.226	-15.95
345.61	-31.76
345.993	-20.92
346.376	-18.21
346.759	-8.71
347.142	24.28
347.525	55.92
347.908	59.08
348.291	90.72
348.674	97.72
349.057	111.28
349.44	127.1
349.823	142.92
350.206	160.77
350.588	188.12
350.971	205.74
351.354	233.54
351.737	243.03
352.119	232.18
352.502	234.22
352.884	266.76
353.267	257.04
353.65	295.23
354.032	273.76
354.414	319.86
354.797	320.54
355.179	323.71
355.562	330.03
355.944	351.28
356.326	332.29
356.709	322.8
357.091	329.36
357.473	340.2
357.855	330.71
358.238	340.43
358.62	331.62
359.002	329.13
359.384	343.14
359.766	336.81
360.148	331.16
360.53	337.94
360.912	336.59
361.294	313.54
361.676	329.13
362.057	318.28
362.439	335.68
362.821	324.16
363.203	334.1
363.584	328.9
363.966	323.03
364.348	318.73
364.729	306.98
365.111	320.99
365.493	311.28
365.874	313.08
366.256	329.36
366.637	317.6
367.019	313.31
367.4	317.6
367.781	332.75
368.163	325.29
368.544	314.89
368.925	324.38
369.306	323.03
369.688	332.75
370.069	330.71
370.45	317.6
370.831	309.7
371.212	328.68
371.593	324.16
371.974	311.05
372.355	313.99
372.736	320.09
373.117	332.07
373.498	325.74
373.879	329.81
374.26	324.84
374.641	350.15
375.021	317.38
375.402	330.26
375.783	316.93
376.163	327.55
376.544	346.53
376.925	332.29
377.305	328.9
377.686	320.99
378.066	337.49
378.447	331.39
378.827	320.99
379.208	349.02
379.588	344.72
379.968	333.42
380.349	336.81
380.729	338.85
381.109	346.76
381.489	371.39
381.87	368.9
382.25	352.86
382.63	345.4
383.01	332.75
383.39	370.48
383.77	347.66
384.15	370.48
384.53	359.19
384.91	390.15
385.29	361.67
385.67	394.21
386.049	383.59
386.429	383.14
386.809	407.09
387.189	400.54
387.568	391.28
387.948	392.63
388.328	407.55
388.707	393.31
389.087	397.38
389.466	386.3
389.846	390.82
390.225	408
390.605	426.08
390.984	410.71
391.363	403.25
391.743	427.66
392.122	416.36
392.501	435.12
392.881	438.96
393.26	438.05
393.639	445.06
394.018	419.75
394.397	445.06
394.776	430.14
395.155	444.61
395.534	447.77
395.913	450.26
396.292	455.23
396.671	481.67
397.05	457.71
397.429	463.59
397.808	480.09
398.186	467.66
398.565	498.39
398.944	492.29
399.323	478.73
399.701	515.11
400.08	500.2
400.458	506.07
400.837	497.03
401.215	493.65
401.594	513.53
401.972	547.88
402.351	542.23
402.729	528.22
403.107	546.98
403.486	535.68
403.864	544.72
404.242	531.84
404.62	537.71
404.999	546.53
405.377	576.13
405.755	585.17
406.133	578.39
406.511	598.05
406.889	596.69
407.267	598.05
407.645	600.99
408.023	617.48
408.401	606.86
408.779	621.33
409.156	640.99
409.534	657.48
409.912	648.9
410.29	653.87
410.667	647.99
411.045	663.36
411.422	698.84
411.8	692.74
412.178	682.34
412.555	723.92
412.933	719.85
413.31	735.9
413.687	723.24
414.065	730.48
414.442	757.82
414.819	747.88
415.197	753.3
415.574	775.9
415.951	782.68
416.328	760.76
416.705	818.38
417.082	812.73
417.46	810.93
417.837	814.54
418.214	826.29
418.591	808.89
418.967	847.08
419.344	861.55
419.721	824.71
420.098	851.6
420.475	856.57
420.852	859.96
421.228	882.79
421.605	897.48
421.982	889.79
422.358	916.46
422.735	910.13
423.111	934.09
423.488	931.83
423.864	957.36
424.241	949.68
424.617	924.59
424.994	979.51
425.37	928.21
425.746	987.64
426.123	1009.11
426.499	989.9
426.875	1037.59
427.251	1047.3
427.627	1064.48
428.003	1050.47
428.379	1059.05
428.756	1098.38
429.132	1114.19
429.507	1120.52
429.883	1137.47
430.259	1158.03
430.635	1141.99
431.011	1175.21
431.387	1163.46
431.763	1200.52
432.138	1211.59
432.514	1227.41
432.89	1224.02
433.265	1249.78
433.641	1269.44
434.016	1321.87
434.392	1315.09
434.767	1340.85
435.143	1332.27
435.518	1380.63
435.894	1362.32
436.269	1400.51
436.644	1410.68
437.02	1415.65
437.395	1435.54
437.77	1450.91
438.145	1453.39
438.52	1471.7
438.895	1465.15
439.271	1474.64
439.646	1512.38
440.021	1533.84
440.395	1541.98
440.77	1525.71
441.145	1555.76
441.52	1602.09
441.895	1589.66
442.27	1619.27
442.645	1619.72
443.019	1638.47
443.394	1650.68
443.769	1681.86
444.143	1660.85
444.518	1674.63
444.892	1663.56
445.267	1720.73
445.641	1719.15
446.016	1746.49
446.39	1768.87
446.764	1752.82
447.139	1777
447.513	1778.13
447.887	1778.58
448.262	1800.28
448.636	1795.76
449.01	1825.36
449.384	1834.85
449.758	1863.1
450.132	1895.87
450.506	1858.36
450.88	1929.09
451.254	1910.11
451.628	1934.29
452.002	1956.88
452.376	1951.01
452.75	1980.61
453.123	2013.38
453.497	2053.6
453.871	2063.1
454.244	2102.42
454.618	2127.73
454.992	2144
455.365	2126.82
455.739	2196.88
456.112	2201.62
456.486	2219.02
456.859	2281.62
457.232	2284.11
457.606	2284.11
457.979	2348.51
458.352	2381.51
458.725	2384.67
459.099	2403.65
459.472	2397.1
459.845	2439.36
460.218	2487.04
460.591	2473.93
460.964	2516.87
461.337	2561.39
461.71	2592.12
462.083	2601.39
462.456	2617.88
462.829	2636.87
463.201	2671.67
463.574	2688.84
463.947	2730.87
464.32	2753.7
464.692	2800.93
465.065	2802.06
465.438	2831.44
465.81	2864.66
466.183	2889.97
466.555	2960.7
466.928	2958.89
467.3	2974.03
467.672	3016.29
468.045	3115.95
468.417	3086.35
468.789	3107.81
469.161	3191.65
469.534	3170.41
469.906	3229.17
470.278	3275.49
470.65	3307.58
471.022	3361.37
471.394	3391.42
471.766	3410.63
472.138	3448.14
472.51	3517.97
472.882	3557.52
473.253	3606.11
473.625	3651.98
473.997	3696.27
474.369	3729.49
474.74	3775.82
475.112	3831.64
475.484	3862.14
475.855	3912.76
476.227	3939.66
476.598	4077.51
476.97	4085.64
477.341	4164.74
477.713	4216.94
478.084	4237.5
478.455	4334.22
478.827	4370.38
479.198	4457.61
479.569	4459.42
479.94	4592.52
480.311	4612.41
480.682	4667.55
481.053	4802.68
481.424	4840.88
481.795	4875.22
482.166	4909.8
482.537	4983.92
482.908	5049.46
483.279	5050.59
483.65	5150.02
484.021	5295.78
484.391	5260.07
484.762	5299.62
485.133	5355.66
485.503	5389.79
485.874	5549.56
486.244	5496.45
486.615	5602.66
486.985	5669.78
487.356	5755.43
487.726	5767.18
488.097	5865.48
488.467	5835.2
488.837	5901.19
489.207	5979.15
489.578	6090.11
489.948	6078.81
490.318	6140.5
490.688	6157.45
491.058	6205.81
491.428	6288.52
491.798	6353.6
492.168	6463.66
492.538	6453.04
492.908	6515.18
493.278	6579.59
493.648	6512.02
494.017	6653.03
494.387	6674.5
494.757	6709.98
495.126	6738.9
495.496	6724.89
495.866	6766.47
496.235	6805.34
496.605	6812.8
496.974	6856.64
497.344	6887.38
497.713	6937.32
498.082	6988.84
498.452	6952.23
498.821	7021.38
499.19	7045.34
499.559	7085.34
499.928	7061.61
500.298	7160.81
500.667	7163.75
501.036	7199.68
501.405	7210.53
501.774	7226.8
502.143	7246.46
502.512	7295.27
502.88	7310.64
503.249	7332.34
503.618	7332.56
503.987	7362.17
504.356	7424.54
504.724	7458.66
505.093	7421.6
505.462	7466.8
505.83	7494.37
506.199	7589.28
506.567	7629.05
506.936	7561.93
507.304	7677.19
507.672	7712.21
508.041	7693
508.409	7733
508.777	7809.84
509.145	7810.74
509.514	7793.79
509.882	7823.4
510.25	7831.98
510.618	7837.86
510.986	7880.8
511.354	7938.87
511.722	8039.44
512.09	8000.79
512.458	8061.36
512.826	8052.77
513.193	8104.97
513.561	8083.73
513.929	8148.13
514.297	8173.44
514.664	8204.63
515.032	8230.16
515.4	8217.06
515.767	8236.72
516.135	8309.48
516.502	8277.17
516.869	8349.26
517.237	8440.78
517.604	8390.61
517.972	8526.88
518.339	8492.53
518.706	8503.6
519.073	8544.96
519.44	8568.69
519.808	8576.6
520.175	8605.3
520.542	8700.44
520.909	8695.24
521.276	8703.37
521.643	8800.09
522.009	8805.29
522.376	8821.79
522.743	8848
523.11	8915.8
523.477	9016.13
523.843	8969.35
524.21	9089.8
524.577	9104.04
524.943	9161.44
525.31	9176.58
525.676	9245.51
526.043	9283.02
526.409	9309.01
526.776	9391.49
527.142	9399.63
527.508	9503.35
527.874	9489.79
528.241	9534.99
528.607	9614.08
528.973	9656.12
529.339	9648.21
529.705	9713.06
530.071	9732.05
530.437	9819.5
530.803	9870.57
531.169	9880.74
531.535	9870.57
531.901	9949.44
532.267	9958.71
532.632	10058.37
532.998	10114.64
533.364	10053.17
533.73	10156.67
534.095	10157.12
534.461	10200.06
534.826	10214.97
535.192	10315.31
535.557	10263.33
535.923	10327.74
536.288	10298.81
536.653	10428.75
537.019	10375.42
537.384	10459.26
537.749	10447.73
538.114	10493.83
538.479	10460.39
538.845	10591.68
539.21	10547.62
539.575	10595.98
539.94	10595.3
540.305	10722.75
540.67	10656.77
541.034	10711.91
541.399	10724.79
541.764	10732.7
542.129	10788.06
542.494	10771.79
542.858	10866.25
543.223	10801.17
543.587	10967.95
543.952	10890.89
544.316	10971.79
544.681	10911.45
545.045	10983.09
545.41	11045.23
545.774	11055.18
546.138	11062.41
546.503	11081.16
546.867	11064.89
547.231	11189.41
547.595	11174.95
547.959	11280.71
548.324	11281.84
548.688	11293.14
549.052	11288.39
549.416	11270.99
549.779	11252.68
550.143	11400.7
550.507	11405.9
550.871	11425.56
551.235	11442.51
551.599	11492.23
551.962	11484.32
552.326	11518.21
552.689	11664.88
553.053	11521.15
553.417	11557.54
553.78	11792.78
554.143	11738.77
554.507	11731.54
554.87	11749.62
555.234	11875.94
555.597	11750.07
555.96	11849.96
556.323	11828.26
556.686	11867.13
557.05	11922.95
557.413	11941.03
557.776	12055.6
558.139	12028.03
558.502	12081.36
558.865	12088.14
559.228	12149.16
559.59	12183.73
559.953	12204.07
560.316	12348.02
560.679	12368.59
561.041	12411.3
561.404	12379.89
561.767	12506.89
562.129	12384.18
562.492	12508.24
562.854	12531.97
563.217	12566.77
563.579	12553.89
563.941	12672.76
564.304	12741.23
564.666	12766.77
565.028	12826.65
565.39	12835.24
565.753	12889.7
566.115	12919.31
566.477	13029.13
566.839	13020.32
567.201	13104.84
567.563	13137.15
567.925	13131.73
568.287	13215.12
568.648	13201.11
569.01	13251.95
569.372	13266.87
569.734	13348
570.095	13470.03
570.457	13474.55
570.819	13494.21
571.18	13483.13
571.542	13613.3
571.903	13578.27
572.265	13717.25
572.626	13739.85
572.987	13667.76
573.349	13832.96
573.71	13765.61
574.071	13788.21
574.432	13898.49
574.794	13942.78
575.155	13976.45
575.516	13940.52
575.877	14053.74
576.238	14102.78
576.599	14115.21
576.96	14139.84
577.32	14108.88
577.681	14174.19
578.042	14059.16
578.403	14149.11
578.763	14305.94
579.124	14275.43
579.485	14374.41
579.845	14414.18
580.206	14383
580.566	14356.33
580.927	14392.94
581.287	14391.13
581.648	14366.73
582.008	14409.44
582.368	14474.29
582.728	14507.74
583.089	14516.55
583.449	14468.87
583.809	14517.91
584.169	14566.27
584.529	14528.76
584.889	14595.2
585.249	14504.8
585.609	14507.97
585.969	14651.24
586.329	14550.68
586.688	14605.59
587.048	14578.02
587.408	14470.45
587.768	14570.79
588.127	14610.34
588.487	14533.5
588.846	14743.21
589.206	14537.57
589.565	14624.35
589.925	14700.05
590.284	14682.2
590.643	14664.57
591.003	14656.89
591.362	14745.47
591.721	14783.21
592.08	14789.31
592.44	14724.01
592.799	14742.31
593.158	14812.82
593.517	14727.4
593.876	14825.92
594.235	14755.64
594.593	14733.72
594.952	14792.93
595.311	14766.94
595.67	14821.4
596.029	14906.15
596.387	14850.1
596.746	14917.45
597.104	14762.2
597.463	14781.63
597.822	14822.99
598.18	14816.43
598.538	14793.38
598.897	14859.6
599.255	14788.86
599.613	14947.73
599.972	14889.65
600.33	14929.2
600.688	14822.53
601.046	14937.11
601.404	14977.11
601.762	15033.38
602.12	15004.68
602.478	15035.18
602.836	14986.82
603.194	14913.15
603.552	14918.58
603.91	14973.49
604.268	15032.92
604.625	14985.69
604.983	14996.54
605.341	14990.21
605.698	15093.04
606.056	15140.49
606.413	15103.43
606.771	15134.16
607.128	15197.44
607.485	15068.86
607.843	15098.68
608.2	15189.08
608.557	15183.88
608.914	15068.18
609.272	15275.18
609.629	15261.84
609.986	15357.66
610.343	15245.12
610.7	15427.04
611.057	15310.2
611.414	15300.49
611.771	15285.35
612.127	15461.39
612.484	15367.15
612.841	15459.58
613.198	15405.57
613.554	15480.14
613.911	15505
614.267	15505.45
614.624	15508.84
614.98	15520.14
615.337	15631.1
615.693	15546.13
616.05	15547.03
616.406	15606.69
616.762	15564.21
617.118	15610.76
617.475	15529.86
617.831	15693.47
618.187	15694.83
618.543	15740.48
618.899	15780.02
619.255	15759.91
619.611	15721.95
619.967	15809.63
620.323	15843.07
620.678	15709.74
621.034	15703.41
621.39	15713.13
621.746	15802.85
622.101	15895.27
622.457	15852.11
622.812	15861.6
623.168	15915.16
623.523	15904.09
623.879	15997.19
624.234	15856.86
624.589	15970.3
624.945	15902.51
625.3	16019.56
625.655	15942.73
626.01	15949.96
626.365	15970.75
626.72	15928.95
627.075	16003.29
627.43	16038.55
627.785	16005.78
628.14	16028.15
628.495	16041.71
628.85	16088.72
629.205	16101.14
629.559	16058.89
629.914	15968.27
630.269	16070.41
630.623	16133.91
630.978	16029.06
631.332	16062.5
631.687	16131.2
632.041	16071.09
632.396	16166.23
632.75	16034.71
633.104	16119.9
633.459	16071.99
633.813	16105.89
634.167	16116.29
634.521	16115.61
634.875	16119.9
635.229	16100.01
635.583	16070.18
635.937	16058.89
636.291	16070.18
636.645	16162.16
636.999	15992.22
637.352	16202.16
637.706	16063.63
638.06	16179.56
638.413	16164.65
638.767	16109.28
639.121	16172.1
639.474	16058.89
639.828	16038.55
640.181	16155.38
640.534	16193.35
640.888	16033.12
641.241	16067.25
641.594	16043.74
641.947	16198.54
642.301	16229.5
642.654	16160.58
643.007	16289.84
643.36	16238.54
643.713	16123.06
644.066	16231.99
644.419	16113.8
644.771	16157.64
645.124	16073.8
645.477	15970.75
645.83	15865.22
646.182	15791.77
646.535	15813.02
646.888	15805.56
647.24	15911.09
647.593	15930.3
647.945	15867.25
648.298	15886.01
648.65	15797.65
649.002	15730.76
649.355	15942.73
649.707	15863.64
650.059	15973.92
650.411	16103.86
650.763	16200.8
651.115	16410.51
651.467	16429.5
651.819	16283.96
652.171	16335.94
652.523	16329.39
652.875	16364.87
653.227	16336.17
653.578	16359.89
653.93	16459.33
654.282	16306.56
654.633	16248.71
654.985	16410.06
655.337	16436.95
655.688	16408.03
656.039	16520.12
656.391	16413
656.742	16479.67
657.094	16489.83
657.445	16567.8
657.796	16523.05
658.147	16504.75
658.498	16491.87
658.849	16548.36
659.2	16552.66
659.551	16484.64
659.902	16571.41
660.253	16579.32
660.604	16613.9
660.955	16461.36
661.306	16629.04
661.656	16578.19
662.007	16642.15
662.358	16574.58
662.708	16597.63
663.059	16464.98
663.409	16476.28
663.76	16603.73
664.11	16615.71
664.461	16604.18
664.811	16651.86
665.161	16642.6
665.511	16485.09
665.862	16556.05
666.212	16603.05
666.562	16691.19
666.912	16443.51
667.262	16533.45
667.612	16581.81
667.962	16470.17
668.312	16496.84
668.662	16554.47
669.011	16444.86
669.361	16485.99
669.711	16386.11
670.06	16469.5
670.41	16431.76
670.76	16349.95
671.109	16378.65
671.459	16274.7
671.808	16346.56
672.157	16492.32
672.507	16253.91
672.856	16278.31
673.205	16222.27
673.554	16285.32
673.904	16217.3
674.253	16256.85
674.602	16264.53
674.951	15912.9
675.3	15838.78
675.649	16045.78
675.998	16094.14
676.346	16028.38
676.695	16121.71
677.044	15927.36
677.393	16027.93
677.741	16054.14
678.09	15894.37
678.438	15935.05
678.787	15919.68
679.135	15846.24
679.484	15762.62
679.832	15832.22
680.181	15769.18
680.529	15787.25
680.877	15680.82
681.225	15782.96
681.573	15754.71
681.922	15576.41
682.27	15620.03
682.618	15641.95
682.966	15607.82
683.314	15569.86
683.661	15565.79
684.009	15455.29
684.357	15348.85
684.705	15386.81
685.053	15405.8
685.4	15379.81
685.748	15286.48
686.095	15243.77
686.443	15224.78
686.79	15157.89
687.138	15248.74
687.485	15249.19
687.832	15059.36
688.18	15156.08
688.527	15043.32
688.874	15055.75
689.221	15090.78
689.568	14897.79
689.915	14979.37
690.262	15044.45
690.609	14913.83
690.956	14945.24
691.303	14918.35
691.65	14863.21
691.997	14849.88
692.344	14776.21
692.69	14895.3
693.037	14853.72
693.383	14681.75
693.73	14715.87
694.077	14659.6
694.423	14619.6
694.769	14700.73
695.116	14617.12
695.462	14592.71
695.808	14568.76
696.155	14590.68
696.501	14555.2
696.847	14545.93
697.193	14453.96
697.539	14450.34
697.885	14491.7
698.231	14434.3
698.577	14411.25
698.923	14346.39
699.269	14290.34
699.614	14248.31
699.96	14340.29
700.306	14241.08
700.651	14234.07
700.997	14160.63
701.342	14174.64
701.688	14248.54
702.033	14160.86
702.379	14144.59
702.724	14085.6
703.069	14113.85
703.415	14001.54
703.76	13985.49
704.105	14075.21
704.45	13976.91
704.795	13979.62
705.14	13988.88
705.485	13946.4
705.83	13963.35
706.175	13944.82
706.52	13886.06
706.865	13885.61
707.209	13852.16
707.554	13814.65
707.899	13853.75
708.243	13834.09
708.588	13884.71
708.932	13713.64
709.277	13779.17
709.621	13775.78
709.966	13671.83
710.31	13721.09
710.654	13676.58
710.998	13673.64
711.342	13713.86
711.687	13644.71
712.031	13687.2
712.375	13592.06
712.719	13672.51
713.063	13634.32
713.407	13705.95
713.75	13659.63
714.094	13622.11
714.438	13562.68
714.782	13589.35
715.125	13526.97
715.469	13646.07
715.812	13574.88
716.156	13489.91
716.499	13508.9
716.843	13537.14
717.186	13485.85
717.53	13441.78
717.873	13505.51
718.216	13499.63
718.559	13453.3
718.902	13369.24
719.246	13447.65
719.589	13380.99
719.932	13388.9
720.275	13327.43
720.617	13370.59
720.96	13257.6
721.303	13344.15
721.646	13292.86
721.989	13239.07
722.331	13336.02
722.674	13335.57
723.016	13282.24
723.359	13309.58
723.701	13251.73
724.044	13197.72
724.386	13094.22
724.729	13225.97
725.071	13208.11
725.413	13250.82
725.755	13148
726.097	13127.66
726.439	13063.03
726.782	13195.68
727.124	13310.48
727.465	13158.85
727.807	13178.06
728.149	13112.52
728.491	13116.36
728.833	13148.23
729.175	13091.73
729.516	13084.95
729.858	13164.05
730.199	13168.79
730.541	13089.7
730.882	13122.24
731.224	13143.93
731.565	13071.85
731.906	13094.67
732.248	13117.95
732.589	13108.91
732.93	13180.54
733.271	13072.52
733.612	13186.19
733.953	13105.97
734.294	13131.73
734.635	13087.44
734.976	13216.02
735.317	13152.75
735.658	13164.05
735.999	13233.65
736.339	13224.16
736.68	13286.98
737.021	13213.08
737.361	13130.6
737.702	13255.12
738.042	13195.91
738.383	13270.03
738.723	13273.42
739.063	13342.8
739.404	13347.09
739.744	13339.64
740.084	13362.01
740.424	13357.04
740.764	13401.1
741.104	13447.88
741.444	13365.62
741.784	13403.59
742.124	13449.91
742.464	13470.71
742.804	13462.12
743.143	13500.99
743.483	13535.56
743.823	13441.55
744.162	13464.15
744.502	13573.75
744.841	13505.73
745.181	13616.69
745.52	13609.68
745.86	13566.97
746.199	13642.9
746.538	13570.36
746.877	13772.62
747.216	13770.81
747.556	13643.36
747.895	13766.52
748.234	13724.48
748.573	13726.29
748.911	13723.13
749.25	13778.95
749.589	13783.92
749.928	13825.5
750.267	13904.14
750.605	13836.12
750.944	13815.55
751.283	13908.21
751.621	13885.16
751.96	13839.96
752.298	13942.78
752.636	13956.12
752.975	14000.86
753.313	13934.42
753.651	14112.72
753.989	14030.01
754.327	14016.45
754.666	14051.71
755.004	14081.31
755.342	14149.11
755.679	14107.07
756.017	14082.67
756.355	14115.43
756.693	14176.68
757.031	14237.69
757.368	14157.69
757.706	14172.83
758.044	14158.14
758.381	14284.02
758.719	14307.52
759.056	14244.02
759.394	14307.97
759.731	14264.81
760.068	14289.44
760.405	14220.29
760.743	14376.44
761.08	14425.26
761.417	14314.07
761.754	14395.88
762.091	14355.43
762.428	14373.28
762.765	14319.5
763.102	14439.72
763.438	14349.55
763.775	14335.77
764.112	14397.91
764.449	14454.86
764.785	14365.14
765.122	14336.22
765.458	14344.58
765.795	14338.93
766.131	14367.18
766.467	14420.06
766.804	14350.91
767.14	14294.64
767.476	14365.14
767.812	14414.18
768.148	14448.08
768.485	14393.62
768.821	14381.42
769.157	14319.27
769.492	14356.56
769.828	14444.46
770.164	14373.96
770.5	14332.6
770.836	14329.89
771.171	14291.25
771.507	14315.43
771.842	14263.23
772.178	14307.97
772.513	14312.72
772.849	14316.11
773.184	14263.23
773.519	14333.51
773.855	14320.63
774.19	14247.63
774.525	14248.09
774.86	14271.14
775.195	14277.24
775.53	14186.17
775.865	14076.56
776.2	14062.33
776.535	14047.19
776.87	14134.87
777.205	14066.4
777.539	14020.52
777.874	14074.31
778.209	14019.39
778.543	14091.03
778.878	13983.46
779.212	14053.74
779.547	13981.2
779.881	14150.24
780.215	13965.83
780.55	14069.79
780.884	13887.64
781.218	13958.6
781.552	14028.43
781.886	13925.61
782.22	13957.47
782.554	13955.66
782.888	13833.41
783.222	13853.07
783.556	13823.24
783.889	13758.16
784.223	13671.6
784.557	13751.6
784.89	13774.65
785.224	13696.46
785.557	13636.8
785.891	13690.59
786.224	13705.5
786.558	13750.25
786.891	13616.01
787.224	13602
787.557	13540.31
787.891	13572.62
788.224	13564.04
788.557	13614.2
788.89	13548.44
789.223	13546.41
789.556	13510.93
789.888	13519.74
790.221	13486.3
790.554	13371.95
790.887	13403.59
791.219	13386.64
791.552	13439.52
791.884	13326.08
792.217	13374.44
792.549	13353.42
792.882	13217.83
793.214	13246.76
793.546	13270.71
793.879	13233.65
794.211	13185.29
794.543	13257.6
794.875	13228.9
795.207	13289.69
795.539	13157.27
795.871	13164.27
796.203	13125.86
796.535	13013.09
796.867	13035.46
797.198	12993.43
797.53	13088.57
797.862	12951.4
798.193	13024.39
798.525	12905.75
798.856	12935.58
799.188	12796.82
799.519	12803.83
799.85	12774.23
800.182	12908.91
800.513	12888.57
800.844	12764.51
801.175	12767.67
801.506	12816.49
801.837	12810.61
802.168	12824.39
802.499	12632.08
802.83	12655.59
803.161	12585.53
803.491	12648.58
803.822	12626.21
804.153	12671.4
804.483	12472.09
804.814	12504.18
805.145	12437.29
805.475	12472.31
805.805	12509.83
806.136	12431.41
806.466	12442.48
806.796	12461.01
807.126	12401.13
807.457	12383.05
807.787	12376.5
808.117	12347.12
808.447	12349.83
808.777	12367.01
809.107	12322.03
809.436	12284.75
809.766	12275.93
810.096	12261.92
810.426	12135.6
810.755	12234.58
811.085	12217.18
811.414	12175.15
811.744	12126.11
812.073	12112.77
812.403	12108.71
812.732	11976.96
813.061	11999.11
813.39	11990.29
813.719	12057.63
814.049	11998.43
814.378	11943.74
814.707	11924.98
815.036	11952.33
815.365	11909.16
815.693	11764.08
816.022	11826.23
816.351	11777.64
816.68	11733.12
817.008	11816.96
817.337	11725.89
817.665	11727.7
817.994	11705.78
818.322	11781.48
818.651	11679.11
818.979	11631.88
819.307	11686.12
819.636	11626.46
819.964	11625.1
820.292	11641.15
820.62	11661.26
820.948	11601.38
821.276	11727.93
821.604	11568.16
821.932	11681.37
822.259	11714.59
822.587	11606.8
822.915	11678.44
823.243	11658.1
823.57	11629.62
823.898	11675.95
824.225	11645.67
824.553	11626.69
824.88	11626.01
825.207	11742.61
825.535	11712.33
825.862	11651.09
826.189	11659.23
826.516	11741.71
826.843	11741.94
827.17	11728.15
827.497	11728.38
827.824	11743.07
828.151	11744.65
828.478	11749.39
828.805	11818.09
829.131	11766.12
829.458	11700.36
829.785	11723.86
830.111	11800.24
830.438	11807.25
830.764	11769.96
831.09	11814.7
831.417	11747.81
831.743	11739.68
832.069	11715.72
832.395	11712.56
832.722	11707.14
833.048	11657.42
833.374	11705.33
833.7	11677.98
834.026	11705.55
834.351	11697.64
834.677	11661.04
835.003	11683.63
835.329	11750.98
835.654	11722.05
835.98	11712.79
836.306	11697.64
836.631	11650.19
836.956	11724.76
837.282	11683.18
837.607	11627.59
837.932	11526.12
838.258	11648.61
838.583	11607.25
838.908	11539.23
839.233	11570.42
839.558	11578.1
839.883	11556.41
840.208	11444.77
840.533	11454.26
840.858	11495.16
841.182	11494.71
841.507	11480.47
841.832	11431.44
842.156	11355.51
842.481	11408.16
842.805	11357.99
843.13	11401.61
843.454	11311.89
843.778	11295.62
844.103	11302.17
844.427	11297.43
844.751	11296.07
845.075	11230.76
845.399	11225.34
845.723	11150.99
846.047	11148.73
846.371	11070.99
846.695	11092.91
847.019	10911.45
847.343	11031.67
847.666	10987.83
847.99	10880.04
848.313	10908.96
848.637	10832.81
848.96	10731.57
849.284	10739.25
849.607	10737.44
849.931	10665.36
850.254	10616.77
850.577	10608.18
850.9	10566.6
851.223	10498.35
851.546	10455.87
851.869	10370.9
852.192	10462.65
852.515	10355.76
852.838	10266.95
853.161	10263.56
853.483	10231.92
853.806	10197.57
854.129	10261.07
854.451	10173.39
854.774	10101.75
855.096	10148.76
855.419	10099.49
855.741	10013.39
856.063	9991.93
856.385	9978.82
856.708	10010.23
857.03	9928.2
857.352	9871.48
857.674	9798.26
857.996	9880.74
858.318	9714.65
858.64	9783.34
858.961	9764.36
859.283	9644.14
859.605	9712.16
859.926	9665.38
860.248	9680.07
860.57	9636.46
860.891	9697.25
861.212	9621.77
861.534	9581.09
861.855	9586.29
862.176	9607.76
862.498	9553.97
862.819	9586.51
863.14	9496.8
863.461	9490.92
863.782	9472.84
864.103	9449.34
864.424	9455.9
864.745	9495.44
865.065	9447.99
865.386	9334.54
865.707	9383.81
866.027	9342
866.348	9368.89
866.668	9458.16
866.989	9345.39
867.309	9305.39
867.63	9278.27
867.95	9269.69
868.27	9217.03
868.59	9250.7
868.91	9241.66
869.23	9214.32
869.55	9157.37
869.87	9276.47
870.19	9209.12
870.51	9236.24
870.83	9158.5
871.15	9132.51
871.469	9149.46
871.789	9137.03
872.109	9166.41
872.428	9053.65
872.748	9057.49
873.067	9087.54
873.386	9072.4
873.706	9061.78
874.025	9005.29
874.344	9004.83
874.663	8977.94
874.982	9035.57
875.301	8917.15
875.62	8917.83
875.939	9004.16
876.258	8996.92
876.577	8916.7
876.896	8904.27
877.214	8888.68
877.533	8904.05
877.852	8850.94
878.17	8899.98
878.489	8879.87
878.807	8798.74
879.125	8831.96
879.444	8873.99
879.762	8801.68
880.08	8791.51
880.398	8728.23
880.716	8749.47
881.034	8711.73
881.352	8802.81
881.67	8695.24
881.988	8663.83
882.306	8677.84
882.624	8665.63
882.941	8669.93
883.259	8627.89
883.577	8597.61
883.894	8596.93
884.212	8580.44
884.529	8542.7
884.846	8528.24
885.164	8522.36
885.481	8465.19
885.798	8465.64
886.115	8418.18
886.432	8417.96
886.75	8474.23
887.067	8433.1
887.383	8377.51
887.7	8374.79
888.017	8328.24
888.334	8353.78
888.651	8295.02
888.967	8332.54
889.284	8313.78
889.6	8215.25
889.917	8233.33
890.233	8208.92
890.55	8244.63
890.866	8179.09
891.182	8139.09
891.498	8143.39
891.815	8051.41
892.131	8096.38
892.447	8057.97
892.763	7975.71
893.079	7997.4
893.395	7952.66
893.71	7973.22
894.026	7902.26
894.342	7898.42
894.657	7876.95
894.973	7819.55
895.289	7901.13
895.604	7863.17
895.92	7706.34
896.235	7766
896.55	7733.91
896.865	7714.92
897.181	7661.37
897.496	7685.77
897.811	7660.46
898.126	7669.73
898.441	7558.77
898.756	7601.93
899.071	7596.51
899.386	7518.09
899.7	7432.9
900.015	7475.16
900.33	7382.5
900.644	7374.59
900.959	7415.72
901.273	7378.44
901.588	7320.13
901.902	7249.17
902.216	7280.36
902.531	7273.35
902.845	7216.41
903.159	7187.25
903.473	7184.09
903.787	7161.04
904.101	7093.47
904.415	7135.5
904.729	7045.11
905.042	7013.02
905.356	7043.98
905.67	7037.88
905.984	7006.02
906.297	6980.25
906.611	6874.49
906.924	6874.27
907.237	6888.96
907.551	6876.75
907.864	6833.59
908.177	6849.18
908.491	6818.22
908.804	6786.14
909.117	6687.38
909.43	6683.54
909.743	6727.83
910.056	6642.64
910.368	6607.16
910.681	6545.24
910.994	6552.02
911.307	6514.96
911.619	6542.07
911.932	6474.5
912.244	6464.34
912.557	6472.7
912.869	6365.81
913.181	6388.18
913.494	6397.9
913.806	6384.79
914.118	6345.69
914.43	6263.44
914.742	6295.98
915.054	6265.7
915.366	6220.27
915.678	6193.83
915.99	6172.14
916.302	6060.96
916.613	6151.35
916.925	6071.35
917.236	6109.77
917.548	6027.06
917.859	6049.43
918.171	5969.21
918.482	5961.07
918.794	5969.89
919.105	5985.03
919.416	5890.79
919.727	5911.58
920.038	5855.54
920.349	5836.1
920.66	5852.15
920.971	5811.02
921.282	5767.86
921.593	5752.49
921.903	5694.41
922.214	5686.5
922.525	5650.12
922.835	5659.61
923.146	5604.25
923.456	5588.2
923.767	5565.15
924.077	5596.79
924.387	5535.32
924.697	5489.9
925.008	5444.02
925.318	5421.43
925.628	5460.29
925.938	5453.51
926.248	5401.76
926.558	5332.84
926.867	5342.56
927.177	5332.39
927.487	5310.92
927.796	5273.86
928.106	5293.97
928.416	5242.22
928.725	5245.16
929.034	5198.61
929.344	5192.5
929.653	5191.37
929.962	5161.55
930.271	5112.28
930.581	5053.53
930.89	5074.09
931.199	5006.52
931.508	5076.35
931.817	5056.24
932.125	4983.47
932.434	5032.96
932.743	4916.58
933.051	4907.77
933.36	4925.62
933.669	4885.62
933.977	4875.22
934.286	4891.04
934.594	4815.34
934.902	4832.97
935.21	4785.06
935.519	4749.13
935.827	4759.3
936.135	4772.85
936.443	4727.21
936.751	4696.92
937.059	4672.74
937.367	4642.69
937.674	4635.23
937.982	4626.87
938.29	4594.1
938.597	4604.95
938.905	4557.72
939.213	4540.09
939.52	4553.65
939.827	4544.84
940.135	4464.84
940.442	4451.73
940.749	4445.63
941.056	4425.07
941.363	4378.51
941.67	4404.28
941.977	4388.91
942.284	4359.53
942.591	4326.76
942.898	4313.21
943.205	4296.71
943.511	4245.41
943.818	4291.29
944.125	4291.06
944.431	4203.6
944.738	4242.93
945.044	4155.24
945.35	4145.98
945.657	4193.89
945.963	4157.5
946.269	4082.93
946.575	4152.98
946.881	4054
947.187	4093.32
947.493	4069.82
947.799	4028.47
948.105	4044.29
948.41	4016.49
948.716	3998.64
949.022	3973.78
949.327	3943.27
949.633	3875.03
949.938	3886.1
950.244	3926.32
950.549	3901.69
950.854	3861.01
951.16	3853.78
951.465	3858.08
951.77	3841.58
952.075	3780.11
952.38	3757.06
952.685	3758.64
952.99	3782.82
953.294	3762.49
953.599	3745.99
953.904	3717.97
954.209	3657.4
954.513	3724.52
954.818	3638.2
955.122	3629.38
955.426	3625.77
955.731	3610.4
956.035	3630.74
956.339	3592.09
956.643	3590.06
956.948	3524.3
957.252	3561.14
957.556	3544.19
957.86	3518.42
958.163	3520.68
958.467	3511.42
958.771	3463.96
959.075	3465.54
959.378	3470.97
959.682	3437.3
959.985	3410.63
960.289	3460.35
960.592	3369.28
960.896	3362.04
961.199	3377.41
961.502	3345.77
961.805	3335.6
962.108	3350.29
962.411	3278.88
962.714	3292.67
963.017	3273.91
963.32	3286.79
963.623	3207.02
963.926	3265.78
964.228	3206.12
964.531	3193.24
964.833	3214.25
965.136	3188.49
965.438	3184.87
965.741	3144.42
966.043	3165.89
966.345	3104.2
966.648	3113.01
966.95	3112.11
967.252	3093.12
967.554	3071.43
967.856	3078.66
968.158	3050.87
968.46	3032.11
968.761	2989.85
969.063	3003.86
969.365	2972.68
969.666	2975.39
969.968	2960.25
970.269	2938.1
970.571	2933.36
970.872	2921.38
971.174	2914.6
971.475	2899.91
971.776	2928.38
972.077	2891.55
972.378	2818.33
972.679	2833.47
972.98	2827.37
973.281	2846.35
973.582	2814.94
973.883	2817.43
974.183	2823.08
974.484	2812.68
974.785	2770.42
975.085	2792.79
975.386	2738.78
975.686	2716.86
975.986	2730.65
976.287	2711.89
976.587	2700.37
976.887	2741.04
977.187	2674.83
977.487	2679.8
977.787	2656.75
978.087	2627.37
978.387	2673.25
978.687	2613.82
978.987	2636.64
979.286	2625.11
979.586	2618.34
979.885	2586.7
980.185	2580.82
980.484	2548.28
980.784	2527.72
981.083	2565.91
981.382	2531.56
981.682	2544.21
981.981	2500.6
982.28	2491.56
982.579	2476.19
982.878	2480.26
983.177	2489.3
983.475	2470.99
983.774	2418.11
984.073	2441.84
984.372	2403.88
984.67	2422.18
984.969	2419.7
985.267	2374.27
985.566	2375.4
985.864	2386.25
986.162	2376.99
986.461	2327.95
986.759	2329.53
987.057	2301.51
987.355	2312.58
987.653	2284.33
987.951	2298.34
988.249	2285.46
988.547	2259.25
988.844	2289.98
989.142	2294.5
989.44	2264.45
989.737	2217.44
990.035	2228.06
990.332	2192.81
990.63	2225.58
990.927	2208.18
991.224	2183.09
991.521	2187.16
991.819	2140.38
992.116	2167.95
992.413	2172.25
992.71	2127.5
993.006	2129.76
993.303	2127.27
993.6	2105.35
993.897	2103.09
994.193	2096.31
994.49	2070.55
994.787	2065.58
995.083	2033.72
995.379	2068.07
995.676	2038.92
995.972	2007.5
996.268	2008.41
996.565	1999.59
996.861	1981.29
997.157	2008.18
997.453	2002.31
997.749	1983.1
998.044	1974.28
998.34	1945.81
998.636	1941.52
998.932	1922.76
999.227	1929.77
999.523	1910.33
999.818	1903.1
1000.114	1901.52
1000.409	1864.91
1000.704	1882.76
1001	1842.31
1001.295	1845.93
1001.59	1838.02
1001.885	1825.81
1002.18	1854.51
1002.475	1821.52
1002.77	1815.19
1003.065	1796.66
1003.359	1810.22
1003.654	1805.02
1003.949	1779.49
1004.243	1752.82
1004.538	1772.26
1004.832	1755.08
1005.127	1741.07
1005.421	1731.13
1005.715	1709.21
1006.009	1705.82
1006.304	1696.1
1006.598	1690.68
1006.892	1689.77
1007.186	1693.16
1007.48	1693.61
1007.773	1683.22
1008.067	1675.54
1008.361	1602.99
1008.655	1620.4
1008.948	1609.32
1009.242	1633.28
1009.535	1599.15
1009.829	1583.33
1010.122	1602.54
1010.415	1561.64
1010.708	1588.76
1011.001	1551.02
1011.295	1566.16
1011.588	1528.65
1011.881	1537.23
1012.173	1507.63
1012.466	1517.35
1012.759	1496.33
1013.052	1499.72
1013.344	1476.9
1013.637	1472.38
1013.93	1471.47
1014.222	1443
1014.514	1458.14
1014.807	1439.84
1015.099	1425.15
1015.391	1442.55
1015.683	1404.81
1015.976	1413.85
1016.268	1402.32
1016.56	1395.32
1016.851	1368.65
1017.143	1374.53
1017.435	1365.94
1017.727	1352.83
1018.018	1335.66
1018.31	1356.22
1018.602	1344.47
1018.893	1355.54
1019.185	1356.67
1019.476	1306.05
1019.767	1335.88
1020.058	1295.88
1020.35	1290.23
1020.641	1281.42
1020.932	1292.04
1021.223	1258.82
1021.514	1267.18
1021.804	1268.09
1022.095	1250.01
1022.386	1228.09
1022.677	1227.64
1022.967	1195.1
1023.258	1228.09
1023.548	1204.36
1023.839	1205.04
1024.129	1210.01
1024.419	1176.57
1024.709	1191.71
1025	1166.85
1025.29	1192.84
1025.58	1143.57
1025.87	1149.45
1026.16	1127.07
1026.449	1152.84
1026.739	1139.5
1027.029	1120.3
1027.319	1092.27
1027.608	1090.47
1027.898	1085.49
1028.187	1104.25
1028.477	1104.48
1028.766	1078.71
1029.055	1075.55
1029.344	1078.26
1029.634	1063.57
1029.923	1049.34
1030.212	1045.04
1030.501	1051.37
1030.79	1040.75
1031.078	1061.09
1031.367	1035.78
1031.656	998.04
1031.945	1027.64
1032.233	995.1
1032.522	1019.96
1032.81	975.67
1033.099	977.25
1033.387	1003.91
1033.675	987.19
1033.963	993.75
1034.251	971.37
1034.54	963.01
1034.828	953.29
1035.116	922.11
1035.403	930.92
1035.691	937.48
1035.979	932.28
1036.267	923.46
1036.554	921.88
1036.842	905.39
1037.129	882.34
1037.417	906.06
1037.704	890.24
1037.992	908.32
1038.279	877.82
1038.566	894.99
1038.853	894.99
1039.14	894.99
