Data from blue_surface_keyboard_FLMS001491_069.txt Node
Date: Tue Feb 07 11:13:30 GMT 2017
User: dcchb
Spectrometer: FLMS00149
Trigger mode: 0
Integration Time (sec): 2.000000E-2
Scans to average: 10
Electric dark correction enabled: true
Nonlinearity correction enabled: false
Boxcar width: 0
XAxis mode: Wavelengths
Number of Pixels in Spectrum: 2048
>>>>>Begin Spectral Data<<<<<
341.393	-4.38
341.776	-4.38
342.16	-4.38
342.543	-43.47
342.927	-84.83
343.31	-78.5
343.693	-73.53
344.077	-58.61
344.46	-53.64
344.843	-47.77
345.226	-35.11
345.61	-21.55
345.993	-12.06
346.376	1.27
346.759	-12.97
347.142	15.51
347.525	41.72
347.908	60.03
348.291	83.53
348.674	87.6
349.057	104.09
349.44	124.66
349.823	130.76
350.206	159.01
350.588	167.82
350.971	188.84
351.354	196.29
351.737	215.5
352.119	207.82
352.502	226.12
352.884	244.2
353.267	259.12
353.65	263.19
354.032	282.62
354.414	302.51
354.797	302.73
355.179	311.09
355.562	288.95
355.944	293.24
356.326	314.94
356.709	325.33
357.091	295.95
357.473	298.21
357.855	326.46
358.238	294.14
358.62	314.03
359.002	312.68
359.384	305.9
359.766	319.91
360.148	327.14
360.53	324.65
360.912	317.42
361.294	313.58
361.676	290.08
362.057	306.57
362.439	283.52
362.821	309.74
363.203	318.55
363.584	315.16
363.966	298.89
364.348	314.26
364.729	298.21
365.111	275.61
365.493	307.03
365.874	296.18
366.256	295.5
366.637	300.7
367.019	290.3
367.4	286.91
367.781	296.18
368.163	292.56
368.544	271.77
368.925	276.97
369.306	284.2
369.688	285.33
370.069	276.07
370.45	274.48
370.831	283.3
371.212	290.98
371.593	284.2
371.974	273.58
372.355	291.21
372.736	281.04
373.117	282.85
373.498	291.88
373.879	284.43
374.26	282.39
374.641	283.98
375.021	277.65
375.402	288.95
375.783	283.07
376.163	273.58
376.544	274.94
376.925	280.59
377.305	304.54
377.686	279.23
378.066	294.37
378.447	308.83
378.827	271.55
379.208	295.05
379.588	293.47
379.968	278.33
380.349	299.12
380.729	298.21
381.109	274.03
381.489	290.08
381.87	289.63
382.25	288.72
382.63	301.15
383.01	284.2
383.39	312.45
383.77	284.2
384.15	302.96
384.53	287.59
384.91	308.83
385.29	315.39
385.67	300.02
386.049	311.32
386.429	300.47
386.809	302.73
387.189	312.9
387.568	292.79
387.948	313.35
388.328	309.74
388.707	303.41
389.087	320.36
389.466	299.12
389.846	319.23
390.225	327.36
390.605	330.3
390.984	320.36
391.363	312.45
391.743	326.23
392.122	299.57
392.501	326.23
392.881	312.45
393.26	322.62
393.639	319
394.018	323.52
394.397	316.29
394.776	333.24
395.155	334.6
395.534	316.29
395.913	318.78
396.292	316.74
396.671	322.84
397.05	334.37
397.429	320.81
397.808	333.47
398.186	335.05
398.565	329.85
398.944	345.44
399.323	332.56
399.701	324.65
400.08	336.86
400.458	331.88
400.837	338.89
401.215	319
401.594	336.4
401.972	326.91
402.351	347.93
402.729	326.46
403.107	325.33
403.486	334.82
403.864	333.69
404.242	336.4
404.62	342.51
404.999	348.83
405.377	342.96
405.755	344.54
406.133	359.23
406.511	341.6
406.889	364.43
407.267	349.74
407.645	354.26
408.023	349.74
408.401	370.3
408.779	364.65
409.156	345.67
409.534	375.95
409.912	364.43
410.29	382.28
410.667	370.3
411.045	360.81
411.422	385.89
411.8	382.96
412.178	376.63
412.555	367.36
412.933	378.89
413.31	385.44
413.687	375.95
414.065	368.72
414.442	369.4
414.819	381.15
415.197	372.56
415.574	375.27
415.951	378.44
416.328	404.88
416.705	389.96
417.082	387.48
417.46	392
417.837	391.32
418.214	388.61
418.591	400.58
418.967	400.36
419.344	386.12
419.721	385.22
420.098	397.87
420.475	404.65
420.852	392.9
421.228	395.16
421.605	389.96
421.982	408.27
422.358	415.27
422.735	414.37
423.111	396.74
423.488	413.46
423.864	420.02
424.241	414.59
424.617	408.04
424.994	425.67
425.37	419.57
425.746	420.7
426.123	438.1
426.499	426.57
426.875	432.67
427.251	416.85
427.627	415.72
428.003	413.69
428.379	428.38
428.756	429.51
429.132	439
429.507	439.45
429.883	442.39
430.259	445.78
430.635	438.77
431.011	430.41
431.387	443.75
431.763	451.65
432.138	475.38
432.514	454.59
432.89	479.68
433.265	475.83
433.641	469.28
434.016	461.6
434.392	474.03
434.767	479.45
435.143	468.15
435.518	467.47
435.894	469.28
436.269	491.88
436.644	470.41
437.02	471.77
437.395	502.27
437.77	502.05
438.145	469.96
438.52	483.29
438.895	505.66
439.271	496.63
439.646	469.51
440.021	506.12
440.395	487.13
440.77	499.56
441.145	496.4
441.52	534.82
441.895	498.89
442.27	523.07
442.645	509.05
443.019	537.3
443.394	505.21
443.769	516.96
444.143	537.3
444.518	537.3
444.892	537.3
445.267	542.27
445.641	532.56
446.016	513.12
446.39	542.95
446.764	547.92
447.139	554.7
447.513	575.49
447.887	538.21
448.262	518.55
448.636	564.19
449.01	561.26
449.384	529.17
449.758	557.19
450.132	565.32
450.506	570.07
450.88	573.69
451.254	561.48
451.628	571.2
452.002	587.02
452.376	554.25
452.75	580.46
453.123	580.46
453.497	593.57
453.871	589.73
454.244	584.76
454.618	592.44
454.992	602.16
455.365	578.66
455.739	606.23
456.112	608.71
456.486	614.36
456.859	616.62
457.232	626.11
457.606	635.83
457.979	609.16
458.352	627.02
458.725	640.35
459.099	606.9
459.472	635.38
459.845	654.36
460.218	653.01
460.591	656.4
460.964	630.41
461.337	686
461.71	649.16
462.083	688.71
462.456	665.21
462.829	659.33
463.201	668.37
463.574	685.09
463.947	683.74
464.32	684.19
464.692	698.88
465.065	696.62
465.438	698.65
465.81	708.6
466.183	733.91
466.555	747.24
466.928	721.93
467.3	729.61
467.672	719.9
468.045	725.55
468.417	756.28
468.789	759.67
469.161	726.9
469.534	755.83
469.906	741.82
470.278	749.5
470.65	771.19
471.022	782.27
471.394	801.48
471.766	800.12
472.138	813.68
472.51	810.52
472.882	822.94
473.253	831.53
473.625	816.84
473.997	858.65
474.369	855.49
474.74	852.32
475.112	849.16
475.484	855.03
475.855	855.03
476.227	876.05
476.598	875.6
476.97	916.73
477.341	886.9
477.713	914.02
478.084	950.4
478.455	949.27
478.827	945.2
479.198	984.75
479.569	956.05
479.94	974.58
480.311	979.32
480.682	1000.79
481.053	983.84
481.424	1008.7
481.795	1009.83
482.166	1044.18
482.537	1031.53
482.908	1033.56
483.279	1054.12
483.65	1074.92
484.021	1099.77
484.391	1069.27
484.762	1079.21
485.133	1121.24
485.503	1078.53
485.874	1120.56
486.244	1095.93
486.615	1111.98
486.985	1135.03
487.356	1135.48
487.726	1147.68
488.097	1144.52
488.467	1177.06
488.837	1181.58
489.207	1176.38
489.578	1217.28
489.948	1185.19
490.318	1195.36
490.688	1244.18
491.058	1253.22
491.428	1222.71
491.798	1230.39
492.168	1243.27
492.538	1255.02
492.908	1255.02
493.278	1252.76
493.648	1264.06
494.017	1260.9
494.387	1302.25
494.757	1305.42
495.126	1303.16
495.496	1270.84
495.866	1296.38
496.235	1332.54
496.605	1324.85
496.974	1338.86
497.344	1324.17
497.713	1348.35
498.082	1350.61
498.452	1329.82
498.821	1344.51
499.19	1333.21
499.559	1321.91
499.928	1377.51
500.298	1336.6
500.667	1359.43
501.036	1356.26
501.405	1400.78
501.774	1362.37
502.143	1398.07
502.512	1373.44
502.88	1371.18
503.249	1388.81
503.618	1388.35
503.987	1376.83
504.356	1383.16
504.724	1374.79
505.093	1362.37
505.462	1390.16
505.83	1377.73
506.199	1402.59
506.567	1430.39
506.936	1410.5
507.304	1430.84
507.672	1399.65
508.041	1439.65
508.409	1448.01
508.777	1399.43
509.145	1447.79
509.514	1416.15
509.882	1402.36
510.25	1438.52
510.618	1463.38
510.986	1445.3
511.354	1437.17
511.722	1470.39
512.09	1471.51
512.458	1445.75
512.826	1445.98
513.193	1475.36
513.561	1467.45
513.929	1447.56
514.297	1491.63
514.664	1448.24
515.032	1483.27
515.4	1461.57
515.767	1486.66
516.135	1475.13
516.502	1478.52
516.869	1471.97
517.237	1487.11
517.604	1462.48
517.972	1513.1
518.339	1475.58
518.706	1501.34
519.073	1515.13
519.44	1506.09
519.808	1506.77
520.175	1503.83
520.542	1514.68
520.909	1523.27
521.276	1518.52
521.643	1502.02
522.009	1523.49
522.376	1549.48
522.743	1553.32
523.11	1531.85
523.477	1503.15
523.843	1517.84
524.21	1558.97
524.577	1547.45
524.943	1572.3
525.31	1592.19
525.676	1554.22
526.043	1587.44
526.409	1567.33
526.776	1584.28
527.142	1590.83
527.508	1608.01
527.874	1602.36
528.241	1604.62
528.607	1598.74
528.973	1605.75
529.339	1594
529.705	1626.77
530.071	1598.52
530.437	1619.31
530.803	1650.04
531.169	1598.52
531.535	1607.1
531.901	1594
532.267	1652.53
532.632	1633.54
532.998	1620.21
533.364	1638.29
533.73	1612.3
534.095	1633.77
534.461	1636.26
534.826	1641.45
535.192	1642.81
535.557	1633.09
535.923	1634
536.288	1663.15
536.653	1636.93
537.019	1628.8
537.384	1629.7
537.749	1648.46
538.114	1652.98
538.479	1633.09
538.845	1659.98
539.21	1636.71
539.575	1619.53
539.94	1671.96
540.305	1668.12
540.67	1699.31
541.034	1643.04
541.399	1646.43
541.764	1653.43
542.129	1642.13
542.494	1678.06
542.858	1649.59
543.223	1648.01
543.587	1666.99
543.952	1624.73
544.316	1676.03
544.681	1660.89
545.045	1674.45
545.41	1676.48
545.774	1666.76
546.138	1660.89
546.503	1685.75
546.867	1671.74
547.231	1667.44
547.595	1647.1
547.959	1680.32
548.324	1655.46
548.688	1669.48
549.052	1676.03
549.416	1659.31
549.779	1651.85
550.143	1668.35
550.507	1699.08
550.871	1655.01
551.235	1681
551.599	1699.31
551.962	1660.66
552.326	1684.62
552.689	1681.68
553.053	1679.19
553.417	1687.33
553.78	1723.94
554.143	1693.2
554.507	1688.01
554.87	1689.14
555.234	1678.52
555.597	1688.46
555.96	1680.55
556.323	1691.62
556.686	1693.43
557.05	1683.49
557.413	1729.59
557.776	1703.6
558.139	1690.94
558.502	1715.8
558.865	1689.59
559.228	1695.46
559.59	1713.32
559.953	1716.03
560.316	1716.25
560.679	1726.65
561.041	1721.23
561.404	1740.66
561.767	1711.96
562.129	1704.96
562.492	1745.41
562.854	1738.85
563.217	1755.35
563.579	1718.06
563.941	1762.35
564.304	1759.19
564.666	1721.23
565.028	1739.08
565.39	1773.65
565.753	1732.75
566.115	1769.36
566.477	1745.41
566.839	1778.63
567.201	1756.93
567.563	1760.77
567.925	1763.48
568.287	1756.93
568.648	1784.28
569.01	1760.32
569.372	1797.61
569.734	1782.92
570.095	1770.94
570.457	1817.72
570.819	1787.44
571.18	1818.62
571.542	1819.08
571.903	1803.03
572.265	1785.63
572.626	1787.21
572.987	1801.45
573.349	1817.49
573.71	1806.42
574.071	1826.99
574.432	1846.19
574.794	1841.22
575.155	1845.74
575.516	1810.72
575.877	1838.51
576.238	1833.31
576.599	1857.72
576.96	1839.19
577.32	1835.12
577.681	1855.91
578.042	1818.17
578.403	1836.7
578.763	1807.1
579.124	1857.04
579.485	1853.2
579.845	1831.73
580.206	1831.51
580.566	1857.49
580.927	1842.13
581.287	1842.58
581.648	1831.73
582.008	1877.38
582.368	1849.81
582.728	1895.23
583.089	1871.5
583.449	1866.53
583.809	1852.3
584.169	1861.56
584.529	1880.32
584.889	1857.49
585.249	1849.58
585.609	1848.23
585.969	1877.38
586.329	1854.78
586.688	1874.44
587.048	1864.05
587.408	1891.39
587.768	1888.68
588.127	1894.55
588.487	1885.06
588.846	1883.93
589.206	1852.97
589.565	1884.39
589.925	1914.67
590.284	1872.18
590.643	1886.87
591.003	1890.26
591.362	1916.93
591.721	1888
592.08	1906.08
592.44	1892.75
592.799	1884.16
593.158	1868.79
593.517	1901.11
593.876	1858.17
594.235	1923.03
594.593	1886.19
594.952	1907.66
595.311	1882.58
595.67	1911.28
596.029	1918.06
596.387	1905.18
596.746	1914.44
597.104	1902.92
597.463	1909.47
597.822	1922.8
598.18	1909.47
598.538	1893.2
598.897	1924.16
599.255	1906.53
599.613	1928.9
599.972	1883.93
600.33	1914.89
600.688	1917.6
601.046	1902.69
601.404	1918.96
601.762	1921.22
602.12	1927.32
602.478	1919.19
602.836	1932.97
603.194	1930.26
603.552	1946.53
603.91	1923.25
604.268	1929.13
604.625	1940.43
604.983	1954.67
605.341	1936.14
605.698	1898.62
606.056	1952.86
606.413	1934.55
606.771	1944.95
607.128	1955.12
607.485	1948.11
607.843	1954.44
608.2	1979.52
608.557	1991.95
608.914	1955.12
609.272	2001.44
609.629	1974.78
609.986	1994.89
610.343	1968.68
610.7	1988.34
611.057	1962.8
611.414	1973.2
611.771	1998.51
612.127	2014.78
612.484	1960.54
612.841	2008.45
613.198	2009.35
613.554	2038.73
613.911	2024.95
614.267	1995.79
614.624	2014.78
614.98	2010.94
615.337	2015.91
615.693	2024.95
616.05	2008.68
616.406	2042.12
616.762	2033.31
617.118	2076.7
617.475	2042.12
617.831	2025.4
618.187	2034.66
618.543	2031.73
618.899	2067.88
619.255	2068.79
619.611	2053.19
619.967	2049.8
620.323	2074.66
620.678	2044.38
621.034	2067.43
621.39	2081.89
621.746	2063.14
622.101	2078.28
622.457	2078.73
622.812	2074.66
623.168	2067.66
623.523	2073.08
623.879	2074.21
624.234	2090.03
624.589	2082.12
624.945	2120.99
625.3	2108.11
625.655	2090.71
626.01	2122.57
626.365	2094.55
626.72	2088.67
627.075	2111.5
627.43	2108.79
627.785	2093.65
628.14	2116.7
628.495	2130.03
628.85	2133.42
629.205	2121.67
629.559	2149.46
629.914	2124.38
630.269	2100.88
630.623	2144.04
630.978	2157.6
631.332	2116.47
631.687	2116.24
632.041	2152.18
632.396	2159.18
632.75	2180.2
633.104	2189.01
633.459	2146.07
633.813	2164.83
634.167	2150.59
634.521	2134.1
634.875	2171.16
635.229	2188.33
635.583	2184.94
635.937	2225.39
636.291	2188.11
636.645	2177.71
636.999	2190.37
637.352	2173.19
637.706	2211.16
638.06	2206.64
638.413	2224.26
638.767	2223.13
639.121	2247.54
639.474	2209.12
639.828	2195.34
640.181	2243.47
640.534	2257.03
640.888	2226.75
641.241	2277.6
641.594	2276.69
641.947	2268.1
642.301	2274.21
642.654	2287.09
643.007	2285.5
643.36	2270.14
643.713	2296.13
644.066	2306.3
644.419	2279.86
644.771	2275.11
645.124	2285.28
645.477	2292.06
645.83	2311.49
646.182	2292.06
646.535	2288.67
646.888	2297.71
647.24	2332.06
647.593	2291.38
647.945	2315.11
648.298	2294.32
648.65	2339.29
649.002	2323.47
649.355	2328.89
649.707	2333.41
650.059	2357.82
650.411	2407.31
650.763	2413.86
651.115	2443.47
651.467	2452.51
651.819	2461.09
652.171	2448.66
652.523	2458.61
652.875	2480.75
653.227	2469.68
653.578	2496.12
653.93	2509
654.282	2513.75
654.633	2506.06
654.985	2532.28
655.337	2533.86
655.688	2524.14
656.039	2578.83
656.391	2556.01
656.742	2585.16
657.094	2579.28
657.445	2614.76
657.796	2614.76
658.147	2637.13
658.498	2607.53
658.849	2655.66
659.2	2670.35
659.551	2674.2
659.902	2704.48
660.253	2663.8
660.604	2742.44
660.955	2702.22
661.306	2738.15
661.656	2720.75
662.007	2772.72
662.358	2747.19
662.708	2808.88
663.059	2808.43
663.409	2814.53
663.76	2844.81
664.11	2864.25
664.461	2858.82
664.811	2855.21
665.161	2890.46
665.511	2916.45
665.862	2927.52
666.212	2911.25
666.562	2928.65
666.912	2953.51
667.262	2955.77
667.612	2997.58
667.962	2967.97
668.312	3016.11
668.662	3003.9
669.011	3047.07
669.361	3069.89
669.711	3049.55
670.06	3076.22
670.41	3078.48
670.76	3089.78
671.109	3087.07
671.459	3119.38
671.808	3140.62
672.157	3129.1
672.507	3127.74
672.856	3156.67
673.205	3205.25
673.554	3174.75
673.904	3178.81
674.253	3218.59
674.602	3208.42
674.951	3243.67
675.3	3216.55
675.649	3249.77
675.998	3241.86
676.346	3241.64
676.695	3305.37
677.044	3339.26
677.393	3308.08
677.741	3329.09
678.09	3400.73
678.438	3375.87
678.787	3347.85
679.135	3375.65
679.484	3387.4
679.832	3399.83
680.181	3405.48
680.529	3428.07
680.877	3464.23
681.225	3402.09
681.573	3438.69
681.922	3438.47
682.27	3435.31
682.618	3491.35
682.966	3501.29
683.314	3494.96
683.661	3495.64
684.009	3441.18
684.357	3502.87
684.705	3527.51
685.053	3520.05
685.4	3531.57
685.748	3540.39
686.095	3614.96
686.443	3551.01
686.79	3546.49
687.138	3570.44
687.485	3595.53
687.832	3600.05
688.18	3575.64
688.527	3607.05
688.874	3633.72
689.221	3605.24
689.568	3629.42
689.915	3624.68
690.262	3593.95
690.609	3622.19
690.956	3633.04
691.303	3651.8
691.65	3641.18
691.997	3628.29
692.344	3669.42
692.69	3656.77
693.037	3668.07
693.383	3644.11
693.73	3673.26
694.077	3619.93
694.423	3653.6
694.769	3662.19
695.116	3664.45
695.462	3668.07
695.808	3655.41
696.155	3681.63
696.501	3629.2
696.847	3669.88
697.193	3607.96
697.539	3663.32
697.885	3638.92
698.231	3657.9
698.577	3692.02
698.923	3659.25
699.269	3638.92
699.614	3645.02
699.96	3655.19
700.306	3633.72
700.651	3621.74
700.997	3624.9
701.342	3658.12
701.688	3639.14
702.033	3627.62
702.379	3622.87
702.724	3632.36
703.069	3646.15
703.415	3614.96
703.76	3611.8
704.105	3650.67
704.45	3654.28
704.795	3609.09
705.14	3570.89
705.485	3561.86
705.83	3630.1
706.175	3599.82
706.52	3570.22
706.865	3548.07
707.209	3599.59
707.554	3597.33
707.899	3576.32
708.243	3560.05
708.588	3561.63
708.932	3546.26
709.277	3622.42
709.621	3583.78
709.966	3515.08
710.31	3579.71
710.654	3564.79
710.998	3585.81
711.342	3549.65
711.687	3566.6
712.031	3503.78
712.375	3526.83
712.719	3516.66
713.063	3500.84
713.407	3544.68
713.75	3532.25
714.094	3531.57
714.438	3523.44
714.782	3475.08
715.125	3513.72
715.469	3505.81
715.812	3541.97
716.156	3538.13
716.499	3505.81
716.843	3510.56
717.186	3497.45
717.53	3559.37
717.873	3538.35
718.216	3531.8
718.559	3506.26
718.902	3504.46
719.246	3525.02
719.589	3545.58
719.932	3529.31
720.275	3510.33
720.617	3491.35
720.96	3522.53
721.303	3541.52
721.646	3533.16
721.989	3492.03
722.331	3506.72
722.674	3519.37
723.016	3500.16
723.359	3507.85
723.701	3540.84
724.044	3515.08
724.386	3523.89
724.729	3516.43
725.071	3475.53
725.413	3525.25
725.755	3536.32
726.097	3534.74
726.439	3520.5
726.782	3497.45
727.124	3524.12
727.465	3515.08
727.807	3512.59
728.149	3499.26
728.491	3527.28
728.833	3577.9
729.175	3540.16
729.516	3518.47
729.858	3540.84
730.199	3540.16
730.541	3544
730.882	3501.29
731.224	3517.11
731.565	3502.42
731.906	3554.62
732.248	3534.96
732.589	3520.73
732.93	3570.67
733.271	3565.7
733.612	3595.07
733.953	3580.84
734.294	3560.73
734.635	3533.38
734.976	3590.1
735.317	3560.05
735.658	3569.76
735.999	3613.61
736.339	3606.15
736.68	3644.57
737.021	3616.09
737.361	3579.26
737.702	3619.93
738.042	3571.8
738.383	3601.63
738.723	3618.13
739.063	3607.28
739.404	3601.85
739.744	3626.49
740.084	3635.98
740.424	3669.42
740.764	3664.68
741.104	3712.36
741.444	3642.31
741.784	3678.24
742.124	3685.24
742.464	3715.98
742.804	3698.35
743.143	3696.99
743.483	3739.7
743.823	3698.58
744.162	3721.4
744.502	3790.55
744.841	3807.72
745.181	3751.23
745.52	3751.91
745.86	3810.44
746.199	3817.44
746.538	3837.1
746.877	3873.71
747.216	3877.33
747.556	3879.14
747.895	3897.67
748.234	3866.93
748.573	3892.92
748.911	3907.84
749.25	3964.78
749.589	3942.18
749.928	3949.87
750.267	3969.98
750.605	4000.04
750.944	4002.07
751.283	4010.21
751.621	4062.41
751.96	4073.03
752.298	4050.43
752.636	4079.13
752.975	4087.94
753.313	4178.56
753.651	4134.95
753.989	4153.48
754.327	4169.98
754.666	4205.91
755.004	4248.17
755.342	4231.89
755.679	4293.36
756.017	4290.88
756.355	4326.58
756.693	4329.29
757.031	4351.67
757.368	4340.82
757.706	4385.79
758.044	4378.78
758.381	4412
758.719	4403.64
759.056	4463.75
759.394	4453.81
759.731	4420.36
760.068	4475.96
760.405	4468.72
760.743	4476.18
761.08	4513.69
761.417	4500.36
761.754	4535.16
762.091	4541.49
762.428	4564.32
762.765	4523.86
763.102	4601.38
763.438	4631.66
763.775	4601.38
764.112	4595.5
764.449	4600.47
764.785	4652
765.122	4630.53
765.458	4549.17
765.795	4650.19
766.131	4660.13
766.467	4670.75
766.804	4653.8
767.14	4623.75
767.476	4640.47
767.812	4633.24
768.148	4659.23
768.485	4623.97
768.821	4639.12
769.157	4601.83
769.492	4603.64
769.828	4642.05
770.164	4572.68
770.5	4595.5
770.836	4648.15
771.171	4605.44
771.507	4607.93
771.842	4560.47
772.178	4584.88
772.513	4577.42
772.849	4613.13
773.184	4596.18
773.519	4572
773.855	4583.98
774.19	4568.16
774.525	4535.39
774.86	4560.93
775.195	4513.24
775.53	4506.01
775.865	4514.6
776.2	4475.05
776.535	4447.93
776.87	4515.73
777.205	4442.28
777.539	4473.47
777.874	4495.39
778.209	4477.54
778.543	4402.96
778.878	4388.5
779.212	4395.96
779.547	4416.52
779.881	4404.32
780.215	4356.86
780.55	4355.73
780.884	4327.26
781.218	4341.5
781.552	4345.34
781.886	4313.7
782.22	4310.08
782.554	4285.45
782.888	4296.07
783.222	4253.36
783.556	4263.31
783.889	4233.93
784.223	4201.39
784.557	4184.66
784.89	4200.03
785.224	4230.09
785.557	4212.01
785.891	4149.64
786.224	4160.71
786.558	4142.18
786.891	4162.74
787.224	4141.05
787.557	4157.09
787.891	4087.49
788.224	4134.04
788.557	4095.4
788.89	4096.3
789.223	4061.96
789.556	4036.42
789.888	4048.17
790.221	4012.69
790.554	3999.81
790.887	4024.44
791.219	4006.14
791.552	3991
791.884	3973.37
792.217	3968.4
792.549	3974.05
792.882	3906.25
793.214	3936.99
793.546	3962.75
793.879	3922.52
794.211	3881.62
794.543	3914.84
794.875	3901.06
795.207	3888.63
795.539	3854.73
795.871	3902.19
796.203	3831.68
796.535	3819.02
796.867	3831.23
797.198	3810.44
797.53	3838.68
797.862	3784.45
798.193	3813.6
798.525	3737.67
798.856	3757.56
799.188	3738.35
799.519	3703.77
799.85	3683.43
800.182	3766.14
800.513	3703.77
800.844	3704.9
801.175	3723.89
801.506	3687.95
801.837	3674.62
802.168	3659.03
802.499	3665.36
802.83	3665.13
803.161	3688.86
803.491	3650.67
803.822	3641.63
804.153	3609.09
804.483	3614.51
804.814	3582.19
805.145	3577.67
805.475	3552.14
805.805	3589.88
806.136	3540.61
806.466	3556.88
806.796	3544.45
807.126	3505.13
807.457	3508.98
807.787	3515.53
808.117	3492.25
808.447	3514.85
808.777	3505.13
809.107	3465.36
809.436	3458.36
809.766	3493.38
810.096	3451.8
810.426	3425.14
810.755	3438.47
811.085	3483.89
811.414	3457.9
811.744	3430.11
812.073	3392.82
812.403	3419.03
812.732	3374.97
813.061	3385.36
813.39	3350.56
813.719	3353.95
814.049	3411.35
814.378	3342.65
814.707	3328.42
815.036	3368.64
815.365	3350.79
815.693	3303.56
816.022	3288.19
816.351	3287.96
816.68	3294.97
817.008	3303.56
817.337	3273.28
817.665	3272.6
817.994	3250.9
818.322	3265.59
818.651	3266.27
818.979	3254.07
819.307	3243.22
819.636	3264.69
819.964	3222.2
820.292	3216.55
820.62	3234.63
820.948	3251.36
821.276	3241.86
821.604	3247.74
821.932	3214.75
822.259	3218.81
822.587	3226.27
822.915	3205.93
823.243	3252.03
823.57	3184.24
823.898	3243.9
824.225	3221.75
824.553	3202.54
824.88	3222.43
825.207	3221.98
825.535	3224.01
825.862	3219.94
826.189	3188.31
826.516	3267.17
826.843	3256.78
827.17	3236.89
827.497	3188.31
827.824	3196.67
828.151	3254.97
828.478	3200.96
828.805	3211.81
829.131	3205.93
829.458	3208.64
829.785	3229.21
830.111	3215.65
830.438	3226.5
830.764	3191.47
831.09	3235.31
831.417	3155.76
831.743	3232.82
832.069	3201.19
832.395	3227.85
832.722	3197.57
833.048	3208.87
833.374	3193.05
833.7	3207.51
834.026	3185.82
834.351	3170.91
834.677	3175.88
835.003	3193.28
835.329	3186.95
835.654	3216.78
835.98	3147.4
836.306	3183.11
836.631	3139.95
836.956	3153.73
837.282	3163.22
837.607	3119.83
837.932	3178.14
838.258	3141.98
838.583	3158.25
838.908	3135.65
839.233	3127.52
839.558	3114.86
839.883	3105.14
840.208	3124.13
840.533	3118.7
840.858	3137.23
841.182	3100.17
841.507	3105.6
841.832	3056.33
842.156	3104.01
842.481	3123.45
842.805	3095.88
843.13	3070.57
843.454	3074.18
843.778	3065.37
844.103	3046.84
844.427	3040.97
844.751	3054.75
845.075	3042.32
845.399	3045.48
845.723	3022.43
846.047	3022.43
846.371	3004.81
846.695	3008.42
847.019	2953.51
847.343	2954.41
847.666	2923.68
847.99	2951.02
848.313	2941.98
848.637	2913.96
848.96	2911.7
849.284	2928.65
849.607	2897.47
849.931	2902.44
850.254	2879.16
850.577	2881.42
850.9	2820.18
851.223	2866.28
851.546	2843.23
851.869	2855.43
852.192	2810.91
852.515	2815.89
852.838	2787.19
853.161	2798.71
853.483	2791.48
853.806	2783.34
854.129	2786.28
854.451	2761.42
854.774	2761.88
855.096	2727.98
855.419	2737.47
855.741	2721.65
856.063	2726.4
856.385	2737.02
856.708	2713.06
857.03	2685.49
857.352	2698.15
857.674	2712.16
857.996	2679.84
858.318	2673.29
858.64	2685.49
858.961	2661.31
859.283	2638.49
859.605	2643.01
859.926	2648.21
860.248	2611.6
860.57	2611.15
860.891	2622.22
861.212	2633.97
861.534	2586.51
861.855	2596.46
862.176	2636.46
862.498	2581.77
862.819	2588.55
863.14	2555.33
863.461	2554.2
863.782	2567.31
864.103	2576.12
864.424	2596.23
864.745	2552.84
865.065	2559.4
865.386	2533.86
865.707	2559.17
866.027	2547.42
866.348	2563.69
866.668	2542
866.989	2552.84
867.309	2520.98
867.63	2534.09
867.95	2542.22
868.27	2511.04
868.59	2536.8
868.91	2528.89
869.23	2494.76
869.55	2497.93
869.87	2526.4
870.19	2489.79
870.51	2490.47
870.83	2517.14
871.15	2498.61
871.469	2492.73
871.789	2452.96
872.109	2500.87
872.428	2455.22
872.748	2451.15
873.067	2458.16
873.386	2464.71
873.706	2443.01
874.025	2450.25
874.344	2470.81
874.663	2444.6
874.982	2459.51
875.301	2427.65
875.62	2438.95
875.939	2459.06
876.258	2426.74
876.577	2462.45
876.896	2494.76
877.214	2425.39
877.533	2423.81
877.852	2438.72
878.17	2431.94
878.489	2414.99
878.807	2380.19
879.125	2421.32
879.444	2409.57
879.762	2412.73
880.08	2401.66
880.398	2365.28
880.716	2369.8
881.034	2405.73
881.352	2416.57
881.67	2383.13
881.988	2403.47
882.306	2356.46
882.624	2364.6
882.941	2334.54
883.259	2342.68
883.577	2344.94
883.894	2322.79
884.212	2327.76
884.529	2337.93
884.846	2336.8
885.164	2355.56
885.481	2310.81
885.798	2332.96
886.115	2340.64
886.432	2297.93
886.75	2307.43
887.067	2299.97
887.383	2300.19
887.7	2288.89
888.017	2293.41
888.334	2272.85
888.651	2265.62
888.967	2287.54
889.284	2266.75
889.6	2266.3
889.917	2280.08
890.233	2268.78
890.55	2250.7
890.866	2281.66
891.182	2255
891.498	2229.46
891.815	2255
892.131	2203.7
892.447	2204.38
892.763	2201.44
893.079	2201.67
893.395	2194.66
893.71	2205.96
894.026	2178.16
894.342	2199.41
894.657	2191.72
894.973	2142.23
895.289	2167.09
895.604	2173.87
895.92	2123.93
896.235	2163.93
896.55	2142.23
896.865	2137.26
897.181	2132.29
897.496	2126.41
897.811	2162.12
898.126	2134.1
898.441	2130.25
898.756	2116.24
899.071	2105.17
899.386	2116.02
899.7	2089.8
900.015	2060.43
900.33	2088.45
900.644	2059.3
900.959	2079.63
901.273	2046.87
901.588	2027.88
901.902	2022.46
902.216	2014.33
902.531	2024.72
902.845	2031.05
903.159	2015
903.473	2014.55
903.787	2029.24
904.101	1999.64
904.415	2004.16
904.729	1986.98
905.042	1973.87
905.356	1971.84
905.67	1993.08
905.984	1953.54
906.297	1946.98
906.611	1963.71
906.924	1949.02
907.237	1908.79
907.551	1917.6
907.864	1932.97
908.177	1962.12
908.491	1937.94
908.804	1887.32
909.117	1911.5
909.43	1924.16
909.743	1893.88
910.056	1903.59
910.368	1871.96
910.681	1876.7
910.994	1854.56
911.307	1857.27
911.619	1822.24
911.932	1836.03
912.244	1827.66
912.557	1839.87
912.869	1805.29
913.181	1813.88
913.494	1823.82
913.806	1824.73
914.118	1804.16
914.43	1795.35
914.742	1766.65
915.054	1803.03
915.366	1774.11
915.678	1747.44
915.99	1725.29
916.302	1753.09
916.613	1746.76
916.925	1748.57
917.236	1758.06
917.548	1724.84
917.859	1741.79
918.171	1714.67
918.482	1709.25
918.794	1722.58
919.105	1713.77
919.416	1710.83
919.727	1696.37
920.038	1701.57
920.349	1703.83
920.66	1692.3
920.971	1688.01
921.282	1677.39
921.593	1688.01
921.903	1642.81
922.214	1651.17
922.525	1643.26
922.835	1678.74
923.146	1610.72
923.456	1626.09
923.767	1592.64
924.077	1598.29
924.387	1611.62
924.697	1590.16
925.008	1585.18
925.318	1587.67
925.628	1583.15
925.938	1564.39
926.248	1591.74
926.558	1596.03
926.867	1579.31
927.177	1566.88
927.487	1550.83
927.796	1556.26
928.106	1556.03
928.416	1530.27
928.725	1534.11
929.034	1527.33
929.344	1513.32
929.653	1515.36
929.962	1514.45
930.271	1502.93
930.581	1506.32
930.89	1500.44
931.199	1482.14
931.508	1470.61
931.817	1471.74
932.125	1485.75
932.434	1484.62
932.743	1460.89
933.051	1478.52
933.36	1472.87
933.669	1455.47
933.977	1439.2
934.286	1459.09
934.594	1429.71
934.902	1441.01
935.21	1432.65
935.519	1424.74
935.827	1411.86
936.135	1400.56
936.443	1403.27
936.751	1416.38
937.059	1423.38
937.367	1436.94
937.674	1428.35
937.982	1415.7
938.29	1394.91
938.597	1398.3
938.905	1376.83
939.213	1351.52
939.52	1357.39
939.827	1370.95
940.135	1343.38
940.442	1342.48
940.749	1334.34
941.056	1334.57
941.363	1338.86
941.67	1327.11
941.977	1336.83
942.284	1314.46
942.591	1316.04
942.898	1323.5
943.205	1320.56
943.511	1325.76
943.818	1300.22
944.125	1269.49
944.431	1295.25
944.738	1300.45
945.044	1278.75
945.35	1270.84
945.657	1275.14
945.963	1276.04
946.269	1268.58
946.575	1255.7
946.881	1262.93
947.187	1253.44
947.493	1242.14
947.799	1230.62
948.105	1253.44
948.41	1232.65
948.716	1229.04
949.022	1229.04
949.327	1246.44
949.633	1215.7
949.938	1209.83
950.244	1209.83
950.549	1202.14
950.854	1217.28
951.16	1191.3
951.465	1183.16
951.77	1207.57
952.075	1183.39
952.38	1181.58
952.685	1173.44
952.99	1188.81
953.294	1185.19
953.599	1181.13
953.904	1165.08
954.209	1163.95
954.513	1192.2
954.818	1168.02
955.122	1152.65
955.426	1135.25
955.731	1122.82
956.035	1144.74
956.339	1126.67
956.643	1138.42
956.948	1164.4
957.252	1092.99
957.556	1113.11
957.86	1110.17
958.163	1118.3
958.467	1096.84
958.771	1107.23
959.075	1075.59
959.378	1093.22
959.682	1098.42
959.985	1094.35
960.289	1080.34
960.592	1095.03
960.896	1066.33
961.199	1080.11
961.502	1044.41
961.805	1063.62
962.108	1073.11
962.411	1075.82
962.714	1059.32
963.017	1081.24
963.32	1082.82
963.623	1080.56
963.926	1038.53
964.228	1041.02
964.531	1020.23
964.833	1049.61
965.136	1041.02
965.438	1011.87
965.741	1040.79
966.043	1026.55
966.345	1027.23
966.648	1026.78
966.95	1030.4
967.252	1019.55
967.554	1014.35
967.856	1022.26
968.158	982.71
968.46	998.08
968.761	966.67
969.063	1021.36
969.365	994.69
969.666	999.44
969.968	996.5
970.269	970.96
970.571	985.2
970.872	1005.54
971.174	964.86
971.475	975.71
971.776	960.12
972.077	948.14
972.378	940.91
972.679	954.24
972.98	951.08
973.281	943.85
973.582	961.7
973.883	954.24
974.183	922.83
974.484	933.45
974.785	932.77
975.085	916.73
975.386	939.33
975.686	923.28
975.986	918.31
976.287	936.84
976.587	910.85
976.887	914.24
977.187	943.17
977.487	900
977.787	910.17
978.087	896.84
978.387	883.96
978.687	907.24
978.987	894.13
979.286	885.09
979.586	861.36
979.885	872.66
980.185	885.77
980.484	858.88
980.784	888.93
981.083	902.49
981.382	871.76
981.682	866.33
981.981	876.95
982.28	883.28
982.579	854.58
982.878	870.85
983.177	854.58
983.475	867.92
983.774	858.42
984.073	833.11
984.372	858.42
984.67	847.8
984.969	826.11
985.267	856.39
985.566	834.02
985.864	843.28
986.162	827.46
986.461	835.6
986.759	821.14
987.057	843.73
987.355	809.61
987.653	813.23
987.951	821.14
988.249	825.43
988.547	816.16
988.844	803.96
989.142	796.5
989.44	798.09
989.737	828.37
990.035	803.96
990.332	776.84
990.63	778.2
990.927	788.37
991.224	758.77
991.521	770.52
991.819	769.61
992.116	785.88
992.413	790.63
992.71	753.57
993.006	763.29
993.303	775.26
993.6	776.17
993.897	759.67
994.193	781.36
994.49	763.06
994.787	752.21
995.083	764.19
995.379	745.88
995.676	734.59
995.972	745.88
996.268	742.27
996.565	759.67
996.861	735.49
997.157	725.55
997.453	732.55
997.749	758.09
998.044	727.81
998.34	693.68
998.636	728.71
998.932	704.53
999.227	732.1
999.523	703.85
999.818	715.15
1000.114	717.41
1000.409	740.01
1000.704	709.95
1001	698.43
1001.295	704.08
1001.59	722.83
1001.885	687.13
1002.18	696.62
1002.475	712.21
1002.77	694.81
1003.065	703.17
1003.359	700.24
1003.654	674.02
1003.949	666.79
1004.243	662.72
1004.538	661.37
1004.832	674.02
1005.127	670.41
1005.421	667.47
1005.715	658.65
1006.009	677.19
1006.304	684.64
1006.598	656.17
1006.892	632.89
1007.186	657.53
1007.48	658.65
1007.773	650.75
1008.067	658.43
1008.361	622.05
1008.655	629.05
1008.948	662.95
1009.242	641.03
1009.535	634.47
1009.829	648.03
1010.122	632.89
1010.415	609.16
1010.708	637.86
1011.001	620.69
1011.295	613.01
1011.588	607.13
1011.881	620.46
1012.173	595.38
1012.466	619.79
1012.759	622.05
1013.052	615.04
1013.344	608.94
1013.637	603.52
1013.93	618.2
1014.222	602.39
1014.514	597.64
1014.807	608.03
1015.099	588.6
1015.391	603.52
1015.683	586.34
1015.976	603.52
1016.268	593.57
1016.56	590.41
1016.851	558.32
1017.143	579.79
1017.435	577.75
1017.727	575.27
1018.018	573.23
1018.31	586.57
1018.602	581.82
1018.893	568.71
1019.185	596.06
1019.476	560.35
1019.767	565.55
1020.058	553.35
1020.35	560.58
1020.641	548.6
1020.932	575.49
1021.223	539.11
1021.514	553.12
1021.804	533.01
1022.095	530.3
1022.386	566.91
1022.677	567.81
1022.967	528.04
1023.258	523.52
1023.548	555.83
1023.839	529.39
1024.129	545.44
1024.419	551.31
1024.709	525.55
1025	524.65
1025.29	525.78
1025.58	519.45
1025.87	511.09
1026.16	533.01
1026.449	520.13
1026.739	511.99
1027.029	519.22
1027.319	512.22
1027.608	526.91
1027.898	519.45
1028.187	503.63
1028.477	517.42
1028.766	519.68
1029.055	508.15
1029.344	510.86
1029.634	513.12
1029.923	502.5
1030.212	494.59
1030.501	484.42
1030.79	510.86
1031.078	497.53
1031.367	492.33
1031.656	491.65
1031.945	496.17
1032.233	480.13
1032.522	465.67
1032.81	472.67
1033.099	477.87
1033.387	480.81
1033.675	490.75
1033.963	472.45
1034.251	507.47
1034.54	487.36
1034.828	470.64
1035.116	469.06
1035.403	474.25
1035.691	451.43
1035.979	469.96
1036.267	482.16
1036.554	476.51
1036.842	460.02
1037.129	467.7
1037.417	457.76
1037.704	444.2
1037.992	449.62
1038.279	467.47
1038.566	453.91
1038.853	453.91
1039.14	453.91
