Data from blue_shiny_book_FLMS001491_00090.txt Node
Date: Wed Feb 08 15:27:41 GMT 2017
User: dcchb
Spectrometer: FLMS00149
Trigger mode: 0
Integration Time (sec): 2.000000E-2
Scans to average: 10
Electric dark correction enabled: true
Nonlinearity correction enabled: false
Boxcar width: 0
XAxis mode: Wavelengths
Number of Pixels in Spectrum: 2048
>>>>>Begin Spectral Data<<<<<
341.393	-17.05
341.776	-17.05
342.16	-17.05
342.543	-71.74
342.927	-60.66
343.31	-64.5
343.693	-71.74
344.077	-66.31
344.46	-69.93
344.843	-43.49
345.226	-26.31
345.61	-33.32
345.993	-45.97
346.376	-10.04
346.759	1.03
347.142	20.92
347.525	49.17
347.908	65.89
348.291	92.78
348.674	96.85
349.057	104.98
349.44	109.28
349.823	125.1
350.206	169.84
350.588	191.08
350.971	233.79
351.354	245.32
351.737	243.51
352.119	262.72
352.502	258.88
352.884	283.06
353.267	289.61
353.65	280.57
354.032	321.47
354.414	323.51
354.797	315.6
355.179	323.73
355.562	343.17
355.944	341.81
356.326	321.7
356.709	334.58
357.091	369.16
357.473	357.41
357.855	365.54
358.238	346.11
358.62	362.83
359.002	370.74
359.384	373.22
359.766	342.72
360.148	359.89
360.53	345.43
360.912	337.29
361.294	338.88
361.676	362.83
362.057	336.39
362.439	349.04
362.821	345.43
363.203	349.72
363.584	355.37
363.966	345.65
364.348	321.93
364.729	342.94
365.111	332.77
365.493	319.44
365.874	311.53
366.256	338.88
366.637	314.7
367.019	326.45
367.4	337.07
367.781	336.84
368.163	341.14
368.544	330.97
368.925	336.16
369.306	367.12
369.688	338.88
370.069	339.33
370.45	347.24
370.831	351.08
371.212	349.27
371.593	353.34
371.974	344.07
372.355	339.33
372.736	353.34
373.117	347.91
373.498	337.97
373.879	347.46
374.26	361.93
374.641	345.65
375.021	354.69
375.402	363.51
375.783	346.33
376.163	354.92
376.544	386.33
376.925	368.25
377.305	345.2
377.686	341.14
378.066	372.77
378.447	363.06
378.827	364.86
379.208	370.74
379.588	387.01
379.968	362.83
380.349	382.26
380.729	384.3
381.109	390.17
381.489	383.17
381.87	391.53
382.25	410.06
382.63	400.12
383.01	387.46
383.39	434.92
383.77	408.48
384.15	423.84
384.53	430.62
384.91	418.42
385.29	404.41
385.67	430.62
386.049	440.79
386.429	424.07
386.809	449.61
387.189	431.08
387.568	464.07
387.948	433.56
388.328	446.9
388.707	462.71
389.087	453.45
389.466	467.69
389.846	465.2
390.225	475.59
390.605	473.79
390.984	486.22
391.363	481.92
391.743	458.42
392.122	484.86
392.501	497.06
392.881	513.79
393.26	518.98
393.639	523.5
394.018	527.12
394.397	513.79
394.776	520.11
395.155	537.06
395.534	554.91
395.913	521.02
396.292	555.82
396.671	561.47
397.05	537.51
397.429	546.55
397.808	561.92
398.186	550.85
398.565	581.81
398.944	565.31
399.323	580.68
399.701	582.71
400.08	613.9
400.458	584.97
400.837	623.61
401.215	641.69
401.594	623.16
401.972	636.27
402.351	641.24
402.729	610.05
403.107	643.5
403.486	645.08
403.864	664.97
404.242	660.45
404.62	671.07
404.999	703.16
405.377	689.6
405.755	682.37
406.133	724.18
406.511	678.3
406.889	704.29
407.267	752.88
407.645	746.32
408.023	747.68
408.401	780.9
408.779	761.01
409.156	811.63
409.534	809.37
409.912	825.64
410.29	843.04
410.667	835.81
411.045	879.2
411.422	851.18
411.8	883.95
412.178	896.15
412.555	887.11
412.933	895.7
413.31	921.91
413.687	930.5
414.065	933.89
414.442	977.5
414.819	951.06
415.197	962.59
415.574	989.25
415.951	997.39
416.328	1038.74
416.705	1001.23
417.082	1030.83
417.46	1063.83
417.837	1076.26
418.214	1053.66
418.591	1090.95
418.967	1081.45
419.344	1114
419.721	1133.66
420.098	1127.56
420.475	1128.91
420.852	1158.29
421.228	1145.86
421.605	1184.28
421.982	1200.1
422.358	1199.42
422.735	1248.46
423.111	1264.95
423.488	1270.38
423.864	1285.97
424.241	1289.36
424.617	1287.55
424.994	1294.78
425.37	1304.95
425.746	1332.75
426.123	1376.36
426.499	1362.58
426.875	1417.04
427.251	1438.06
427.627	1440.32
428.003	1471.5
428.379	1481.22
428.756	1508.79
429.132	1527.09
429.507	1546.98
429.883	1527.54
430.259	1565.96
430.635	1617.03
431.011	1594.21
431.387	1678.5
431.763	1702.68
432.138	1694.55
432.514	1724.83
432.89	1738.39
433.265	1788.33
433.641	1794.2
434.016	1797.59
434.392	1856.58
434.767	1882.34
435.143	1868.78
435.518	1927.99
435.894	1953.07
436.269	1976.35
436.644	2028.77
437.02	2029.23
437.395	2048.43
437.77	2099.73
438.145	2096.57
438.52	2142.44
438.895	2156.91
439.271	2151.26
439.646	2196.68
440.021	2233.06
440.395	2257.24
440.77	2224.02
441.145	2283.46
441.52	2319.84
441.895	2346.05
442.27	2392.83
442.645	2378.82
443.019	2425.83
443.394	2400.29
443.769	2400.97
444.143	2439.16
444.518	2460.63
444.892	2451.14
445.267	2506.05
445.641	2554.41
446.016	2564.13
446.39	2547.4
446.764	2570.46
447.139	2571.13
447.513	2667.18
447.887	2645.03
448.262	2640.74
448.636	2688.19
449.01	2700.85
449.384	2755.08
449.758	2746.5
450.132	2810
450.506	2794.63
450.88	2843.22
451.254	2845.93
451.628	2887.51
452.002	2941.97
452.376	2978.35
452.75	3014.96
453.123	3022.42
453.497	3091.57
453.871	3099.03
454.244	3170.67
454.618	3182.19
454.992	3238.23
455.365	3237.33
455.739	3316.65
456.112	3361.39
456.486	3396.65
456.859	3425.8
457.232	3524.33
457.606	3516.87
457.979	3543.54
458.352	3619.69
458.725	3674.83
459.099	3746.02
459.472	3781.95
459.845	3823.98
460.218	3853.36
460.591	3865.79
460.964	3953.47
461.337	4038.89
461.71	4063.07
462.083	4167.25
462.456	4195.72
462.829	4203.18
463.201	4253.57
463.574	4328.83
463.947	4375.38
464.32	4439.56
464.692	4531.31
465.065	4520.91
465.438	4621.7
465.81	4617.86
466.183	4696.73
466.555	4855.59
466.928	4875.25
467.3	4897.17
467.672	5003.39
468.045	5097.85
468.417	5192.53
468.789	5190.73
469.161	5215.58
469.534	5352.98
469.906	5445.63
470.278	5474.79
470.65	5554.33
471.022	5634.78
471.394	5722.01
471.766	5872.74
472.138	5917.71
472.51	5996.13
472.882	6106.18
473.253	6220.98
473.625	6295.1
473.997	6478.83
474.369	6431.14
474.74	6579.62
475.112	6726.05
475.484	6825.03
475.855	6912.49
476.227	6956.55
476.598	7139.15
476.97	7163.1
477.341	7397.22
477.713	7451.68
478.084	7542.98
478.455	7793.59
478.827	7846.93
479.198	8109.52
479.569	8156.3
479.94	8369.4
480.311	8421.6
480.682	8648.71
481.053	8865.66
481.424	8966.22
481.795	9067.23
482.166	9215.03
482.537	9259.09
482.908	9558.52
483.279	9623.83
483.65	9886.19
484.021	10022.24
484.391	10114.66
484.762	10334.32
485.133	10406.41
485.503	10502.45
485.874	10763.46
486.244	10888.65
486.615	11163.22
486.985	11189.21
487.356	11353.27
487.726	11454.06
488.097	11757.56
488.467	11824.67
488.837	12093.59
489.207	12187.38
489.578	12341.05
489.948	12517.76
490.318	12721.6
490.688	12755.95
491.058	13010.86
491.428	13208.14
491.798	13374.01
492.168	13692.87
492.538	13749.82
492.908	13849.93
493.278	14039.98
493.648	14094.22
494.017	14275.23
494.387	14467.09
494.757	14472.06
495.126	14661.89
495.496	14810.59
495.866	14960.41
496.235	15081.99
496.605	15324.02
496.974	15357.92
497.344	15587.51
497.713	15666.38
498.082	15860.73
498.452	16059.82
498.821	16078.35
499.19	16146.14
499.559	16322.64
499.928	16344.78
500.298	16555.62
500.667	16692.34
501.036	16548.39
501.405	16952
501.774	16934.82
502.143	17244.87
502.512	17149.96
502.88	17483.06
503.249	17469.27
503.618	17610.96
503.987	17768.47
504.356	17896.83
504.724	18028.13
505.093	18106.09
505.462	18146.77
505.83	18322.58
506.199	18468.57
506.567	18679.86
506.936	18632.18
507.304	18789.01
507.672	18864.94
508.041	19000.98
508.409	19157.59
508.777	19269.22
509.145	19475.55
509.514	19503.34
509.882	19735.88
510.25	19776.33
510.618	20051.13
510.986	20151.01
511.354	20337.45
511.722	20449.76
512.09	20671
512.458	20619.7
512.826	21005.22
513.193	20952.8
513.561	20960.48
513.929	21097.2
514.297	21305.78
514.664	21444.31
515.032	21511.43
515.4	21731.08
515.767	21881.36
516.135	22017.63
516.502	22013.79
516.869	22398.86
517.237	22569.93
517.604	22630.49
517.972	22841.79
518.339	23054.21
518.706	23167.88
519.073	23173.08
519.44	23406.74
519.808	23580.07
520.175	23505.27
520.542	23819.84
520.909	23957.01
521.276	23997.46
521.643	24109.78
522.009	24392.03
522.376	24414.4
522.743	24528.07
523.11	24910.43
523.477	25259.58
523.843	25421.38
524.21	25780.24
524.577	25982.95
524.943	26293.67
525.31	26385.42
525.676	26611.18
526.043	26707.67
526.409	26830.83
526.776	27123.48
527.142	27129.36
527.508	27271.27
527.874	27433.98
528.241	27535.67
528.607	27552.85
528.973	27876.91
529.339	27797.81
529.705	28036.23
530.071	28306.5
530.437	28471.02
530.803	28718.69
531.169	29019.48
531.535	29158.23
531.901	29313.48
532.267	29432.8
532.632	29694.04
532.998	29772
533.364	29951.43
533.73	30003.41
534.095	30140.8
534.461	30254.92
534.826	30391.42
535.192	30465.77
535.557	30564.97
535.923	30553.9
536.288	30607.68
536.653	30823.27
537.019	30754.57
537.384	30888.35
537.749	31047.22
538.114	31267.78
538.479	31349.59
538.845	31590.71
539.21	31580.09
539.575	31910.47
539.94	32020.98
540.305	32337.58
540.67	32186.17
541.034	32399.5
541.399	32521.98
541.764	32539.16
542.129	32557.46
542.494	32627.74
542.858	32850.56
543.223	32775.76
543.587	32912.71
543.952	32817.12
544.316	32988.64
544.681	32982.54
545.045	33105.25
545.41	33317.22
545.774	33163.32
546.138	33235.64
546.503	33620.71
546.867	33566.48
547.231	33996.52
547.595	33958.56
547.959	34254.14
548.324	34378.43
548.688	34401.93
549.052	34625.88
549.416	34670.4
549.779	34641.02
550.143	34670.18
550.507	34761.7
550.871	34730.06
551.235	34512.67
551.599	34848.7
551.962	34725.09
552.326	34900.45
552.689	35021.35
553.053	34976.61
553.417	35069.04
553.78	35509.7
554.143	35482.36
554.507	35698.4
554.87	35784.95
555.234	36415.21
555.597	36131.38
555.96	36306.74
556.323	36530.24
556.686	36683.91
557.05	36915.99
557.413	37019.72
557.776	37078.47
558.139	37173.39
558.502	37049.55
558.865	37056.78
559.228	37258.13
559.59	37168.19
559.953	37194.18
560.316	37535.86
560.679	37583.77
561.041	37670.78
561.404	37910.54
561.767	38110.09
562.129	38029.41
562.492	38529.06
562.854	38414.48
563.217	38581.26
563.579	38854.7
563.941	39261.69
564.304	39294.24
564.666	39561.8
565.028	39694.9
565.39	39706.65
565.753	40033.42
566.115	40173.76
566.477	40231.84
566.839	40277.94
567.201	40490.59
567.563	40400.19
567.925	40675.67
568.287	40623.92
568.648	40594.99
569.01	40684.48
569.372	40785.04
569.734	40596.35
570.095	41012.16
570.457	41141.42
570.819	41237.69
571.18	41360.4
571.542	41554.97
571.903	41622.76
572.265	41999.25
572.626	42169.64
572.987	42183.65
573.349	42507.26
573.71	42898.21
574.071	42782.51
574.432	42949.51
574.794	43122.61
575.155	43070.63
575.516	42901.82
575.877	43038.54
576.238	43118.99
576.599	43029.5
576.96	42997.19
577.32	42958.32
577.681	43189.95
578.042	43193.12
578.403	43123.29
578.763	43142.04
579.124	43268.82
579.485	43457.52
579.845	43695.25
580.206	43784.06
580.566	43645.99
580.927	43893.66
581.287	44257.04
581.648	44031.06
582.008	44287.78
582.368	44233.31
582.728	44376.14
583.089	44425.85
583.449	44578.16
583.809	44602.8
584.169	44616.81
584.529	44483.7
584.889	44717.37
585.249	44278.96
585.609	44165.29
585.969	44321
586.329	44139.08
586.688	44177.5
587.048	44046.65
587.408	44114.45
587.768	44163.94
588.127	44069.48
588.487	44127.78
588.846	44436.92
589.206	44217.95
589.565	44273.31
589.925	44515.57
590.284	44257.72
590.643	44486.42
591.003	44702
591.362	44855.9
591.721	44805.05
592.08	44882.34
592.44	45094.08
592.799	45221.76
593.158	45097.47
593.517	44910.36
593.876	45156.91
594.235	44781.55
594.593	44925.5
594.952	44841.89
595.311	44659.07
595.67	44696.35
596.029	44976.35
596.387	44875.56
596.746	44888.89
597.104	44587.66
597.463	44688.67
597.822	44818.84
598.18	44607.32
598.538	44849.8
598.897	45080.75
599.255	44498.17
599.613	45173.18
599.972	45220.63
600.33	45146.06
600.688	45246.85
601.046	45400.52
601.404	45613.17
601.762	45525.94
602.12	45750.79
602.478	45824.23
602.836	45738.59
603.194	45452.49
603.552	45601.19
603.91	45464.02
604.268	45614.75
604.625	45358.93
604.983	45500.85
605.341	45283.23
605.698	45516.67
606.056	45618.14
606.413	45401.65
606.771	45488.87
607.128	45502.43
607.485	45379.95
607.843	45402.1
608.2	45594.63
608.557	45682.54
608.914	45482.77
609.272	45873.5
609.629	45931.8
609.986	46127.73
610.343	45917.11
610.7	46268.97
611.057	46257.44
611.414	46358.91
611.771	46414.5
612.127	46532.24
612.484	46563.87
612.841	46700.59
613.198	46643.65
613.554	46483.42
613.911	46874.6
614.267	46745.11
614.624	46642.74
614.98	46870.76
615.337	46966.12
615.693	46858.1
616.05	46521.39
616.406	46846.13
616.762	46681.16
617.118	46534.95
617.475	46708.28
617.831	46671.44
618.187	46875.96
618.543	46705.34
618.899	46952.11
619.255	46800.03
619.611	46921.83
619.967	47002.73
620.323	47138.1
620.678	47028.95
621.034	47063.97
621.39	47104.88
621.746	47023.52
622.101	47588.25
622.457	47222.16
622.812	47375.83
623.168	47535.6
623.523	47442.72
623.879	47536.05
624.234	47395.27
624.589	47500.57
624.945	47510.74
625.3	47474.59
625.655	47517.75
626.01	47586.45
626.365	47452.21
626.72	47281.6
627.075	47115.27
627.43	47204.76
627.785	46979.68
628.14	46998.67
628.495	47013.58
628.85	46985.33
629.205	46707.37
629.559	47056.52
629.914	46936.75
630.269	46782.85
630.623	46762.51
630.978	46833.47
631.332	46975.62
631.687	46887.26
632.041	46874.6
632.396	47012.22
632.75	46926.8
633.104	47034.14
633.459	46907.37
633.813	46904.88
634.167	46847.48
634.521	46812.68
634.875	46771.1
635.229	46831.21
635.583	46682.74
635.937	46697.66
636.291	46619.47
636.645	46564.1
636.999	46400.94
637.352	46557.1
637.706	46289.76
638.06	46424.22
638.413	46214.73
638.767	46226.03
639.121	46118.91
639.474	45785.59
639.828	45804.57
640.181	45729.09
640.534	45739.72
640.888	45468.31
641.241	45387.86
641.594	45486.61
641.947	45629.66
642.301	45460.85
642.654	45672.6
643.007	45709.66
643.36	45593.73
643.713	45606.84
644.066	45651.13
644.419	45566.16
644.771	45585.6
645.124	45348.99
645.477	45612.94
645.83	45325.71
646.182	45078.04
646.535	44714.88
646.888	44598.5
647.24	44024.05
647.593	44113.54
647.945	43991.96
648.298	43794.46
648.65	43829.48
649.002	43564.18
649.355	43953.32
649.707	43976.37
650.059	44320.54
650.411	44741.32
650.763	44718.5
651.115	45005.95
651.467	44720.53
651.819	44553.31
652.171	44511.95
652.523	44362.35
652.875	44455.68
653.227	44273.54
653.578	44709.46
653.93	44520.31
654.282	44348.79
654.633	44233.99
654.985	44314.44
655.337	44353.09
655.688	44407.55
656.039	44605.06
656.391	44380.66
656.742	44520.31
657.094	44681.66
657.445	44892.96
657.796	44814.09
658.147	44710.59
658.498	44733.41
658.849	44879.17
659.2	44809.8
659.551	44540.65
659.902	44803.47
660.253	44629.69
660.604	44546.3
660.955	44215.69
661.306	44375.91
661.656	44197.84
662.007	44240.09
662.358	44003.94
662.708	44068.35
663.059	43911.51
663.409	43613.9
663.76	43982.7
664.11	43801.01
664.461	43785.87
664.811	43735.7
665.161	43747
665.511	43650.96
665.862	43697.51
666.212	43947.45
666.562	43897.73
666.912	43892.53
667.262	44074.67
667.612	44095.92
667.962	44173.2
668.312	44114.9
668.662	44377.49
669.011	44391.05
669.361	44436.02
669.711	44369.58
670.06	44331.16
670.41	44210.72
670.76	44108.8
671.109	44265.63
671.459	44080.1
671.808	43992.42
672.157	44116.26
672.507	43840.1
672.856	43732.08
673.205	43834.23
673.554	43803.95
673.904	43633.56
674.253	43711.52
674.602	43513.79
674.951	42778.44
675.3	42584.54
675.649	43231.98
675.998	43090.97
676.346	43018.66
676.695	43101.37
677.044	42752.68
677.393	42895.04
677.741	42860.24
678.09	42812.79
678.438	42698.21
678.787	42824.31
679.135	42885.33
679.484	42543.87
679.832	42893.69
680.181	42696.41
680.529	42949.96
680.877	42835.16
681.225	42738.44
681.573	42947.25
681.922	42701.15
682.27	42582.96
682.618	42786.8
682.966	42711.09
683.314	42602.17
683.661	42422.29
684.009	42397.88
684.357	42334.38
684.705	42273.59
685.053	42218.45
685.4	42302.52
685.748	41960.61
686.095	41945.01
686.443	41742.98
686.79	41561.75
687.138	41755.19
687.485	41648.07
687.832	41339.15
688.18	41170.8
688.527	40987.3
688.874	40931.48
689.221	40632.73
689.568	40559.74
689.915	40341.21
690.262	40372.85
690.609	40257.6
690.956	40059.41
691.303	40180.54
691.65	39859.87
691.997	39962.24
692.344	39646.54
692.69	39693.09
693.037	39803.6
693.383	39658.52
693.73	39820.1
694.077	39578.75
694.423	39626.88
694.769	39385.76
695.116	39412.42
695.462	39354.8
695.808	39464.4
696.155	39473.89
696.501	39115.93
696.847	39130.62
697.193	38884.98
697.539	39028.71
697.885	38672.1
698.231	38633.46
698.577	38561.6
698.923	38360.93
699.269	38174.94
699.614	38058.79
699.96	37822.64
700.306	37831.9
700.651	37745.12
700.997	37465.58
701.342	37167.51
701.688	37211.13
702.033	37225.81
702.379	37074.86
702.724	36929.78
703.069	36911.25
703.415	36393.29
703.76	36415.44
704.105	36332.05
704.45	36199.63
704.795	36044.83
705.14	36096.35
705.485	36008.9
705.83	35881.9
706.175	35833.99
706.52	35856.13
706.865	35704.73
707.209	35862.01
707.554	35646.65
707.899	35679.19
708.243	35533.2
708.588	35592.86
708.932	35446.88
709.277	35477.84
709.621	35503.6
709.966	35302.25
710.31	35396.03
710.654	35185.19
710.998	35422.47
711.342	35257.96
711.687	35223.83
712.031	35021.81
712.375	34805.09
712.719	34811.64
713.063	34616.62
713.407	34605.54
713.75	34519.22
714.094	34360.81
714.438	34172.79
714.782	34314.25
715.125	34035.62
715.469	33975.5
715.812	33887.82
716.156	33598.79
716.499	33576.19
716.843	33552.47
717.186	33206.71
717.53	33227.28
717.873	33313.6
718.216	33030.9
718.559	33009.43
718.902	32905.25
719.246	33042.65
719.589	33028.19
719.932	33027.06
720.275	32934.85
720.617	32988.86
720.96	32939.6
721.303	33013.5
721.646	33060.95
721.989	32802.2
722.331	32937.34
722.674	33093.27
723.016	33129.43
723.359	33094.17
723.701	33108.64
724.044	32899.38
724.386	32792.03
724.729	33029.54
725.071	32903.22
725.413	32865.03
725.755	32970.56
726.097	32646.5
726.439	32644.47
726.782	32514.98
727.124	32752.03
727.465	32384.59
727.807	32316.34
728.149	32251.48
728.491	32097.14
728.833	32166.51
729.175	31999.96
729.516	31921.1
729.858	31931.26
730.199	31993.64
730.541	31922.45
730.882	31836.58
731.224	31958.61
731.565	31612.4
731.906	31594.55
732.248	31713.19
732.589	31439.98
732.93	31442.24
733.271	31355.01
733.612	31416.25
733.953	31483.59
734.294	31374.67
734.635	31374.44
734.976	31571.73
735.317	31400.66
735.658	31456.25
735.999	31477.27
736.339	31571.95
736.68	31613.53
737.021	31550.71
737.361	31603.59
737.702	31651.27
738.042	31718.62
738.383	31583.7
738.723	31658.73
739.063	31586.64
739.404	31707.54
739.744	31729.01
740.084	31659.18
740.424	31720.42
740.764	31602.23
741.104	31766.75
741.444	31430.94
741.784	31428.23
742.124	31667.77
742.464	31502.12
742.804	31456.7
743.143	31484.05
743.483	31533.31
743.823	31278.85
744.162	31213.77
744.502	31334.67
744.841	31184.39
745.181	31154.34
745.52	30996.15
745.86	31160.89
746.199	31018.29
746.538	31046.09
746.877	31035.7
747.216	31087.9
747.556	30997.96
747.895	31017.39
748.234	30746.21
748.573	30872.54
748.911	31025.98
749.25	30863.04
749.589	30891.07
749.928	31061.68
750.267	31210.61
750.605	31051.29
750.944	31112.53
751.283	31110.5
751.621	31368.34
751.96	31199.08
752.298	31288.34
752.636	31261.9
752.975	31316.82
753.313	31345.29
753.651	31696.92
753.989	31401.56
754.327	31310.04
754.666	31379.64
755.004	31366.31
755.342	31549.35
755.679	31628.22
756.017	31470.26
756.355	31661.67
756.693	31617.6
757.031	31569.92
757.368	31411.28
757.706	31470.03
758.044	31354.56
758.381	31382.13
758.719	31202.24
759.056	31372.64
759.394	31319.3
759.731	31092.42
760.068	31119.99
760.405	30894.46
760.743	30890.16
761.08	31123.6
761.417	30749.83
761.754	30860.33
762.091	30753.22
762.428	30616.27
762.765	30470.96
763.102	30705.76
763.438	30431.42
763.775	30394.13
764.112	30477.29
764.449	30418.08
764.785	30318.88
765.122	30111.65
765.458	30252.66
765.795	30202.04
766.131	30079.56
766.467	30218.54
766.804	30070.3
767.14	30068.49
767.476	30147.13
767.812	29866.01
768.148	29991.88
768.485	29992.11
768.821	29838.44
769.157	29734.49
769.492	29810.19
769.828	29859.45
770.164	29657.88
770.5	29581.72
770.836	29621.04
771.171	29389.64
771.507	29467.6
771.842	29162.98
772.178	29320.26
772.513	29264.44
772.849	29107.16
773.184	28947.39
773.519	29113.94
773.855	28877.79
774.19	28737.22
774.525	28586.72
774.86	28630.33
775.195	28587.85
775.53	28491.81
775.865	28445.48
776.2	28216.79
776.535	28091.37
776.87	28137.47
777.205	27899.73
777.539	27730.7
777.874	27911.03
778.209	27462.68
778.543	27435.56
778.878	27305.4
779.212	27257.49
779.547	27103.37
779.881	27064.95
780.215	26851.62
780.55	26947.67
780.884	26820.66
781.218	26634.23
781.552	26526.44
781.886	26490.05
782.22	26339.55
782.554	26308.81
782.888	25923.51
783.222	25991.31
783.556	25925.32
783.889	25840.8
784.223	25764.65
784.557	25845.55
784.89	25790.64
785.224	25612.11
785.557	25503.64
785.891	25540.25
786.224	25606.69
786.558	25546.57
786.891	25266.81
787.224	25187.71
787.557	25064.78
787.891	25181.16
788.224	25078.56
788.557	25061.16
788.89	24954.05
789.223	24988.62
789.556	24797.22
789.888	24748.63
790.221	24735.52
790.554	24608.97
790.887	24524.45
791.219	24468.64
791.552	24263.22
791.884	24165.59
792.217	24272.48
792.549	24030.46
792.882	23824.81
793.214	23986.39
793.546	23936.22
793.879	23710.24
794.211	23572.39
794.543	23698.04
794.875	23590.47
795.207	23526.51
795.539	23252.17
795.871	23171.95
796.203	23018.05
796.535	22919.75
796.867	22813.54
797.198	22752.3
797.53	22870.94
797.862	22568.8
798.193	22593.88
798.525	22471.63
798.856	22586.65
799.188	22232.76
799.519	22188.47
799.85	21971.53
800.182	22068.7
800.513	21917.29
800.844	21861.02
801.175	21999.77
801.506	21852.21
801.837	21724.3
802.168	21758.2
802.499	21756.17
802.83	21751.19
803.161	21698.99
803.491	21675.49
803.822	21686.11
804.153	21463.07
804.483	21393.46
804.814	21327.93
805.145	21363.86
805.475	21296.06
805.805	21226.91
806.136	21252.22
806.466	21208.16
806.796	21194.82
807.126	20971.33
807.457	20989.41
807.787	20973.13
808.117	20934.94
808.447	20846.36
808.777	20829.41
809.107	20762.29
809.436	20742.86
809.766	20660.6
810.096	20625.35
810.426	20542.41
810.755	20502.86
811.085	20462.41
811.414	20456.54
811.744	20306.49
812.073	20179.71
812.403	20127.73
812.732	20019.26
813.061	19959.15
813.39	19952.6
813.719	19813.17
814.049	19884.8
814.378	19795.99
814.707	19732.94
815.036	19699.72
815.365	19640.06
815.693	19338.6
816.022	19405.72
816.351	19315.78
816.68	19132.73
817.008	19310.13
817.337	19083.47
817.665	19072.85
817.994	19103.35
818.322	19065.61
818.651	18909.01
818.979	18853.19
819.307	18929.57
819.636	18799.86
819.964	18761.89
820.292	18814.1
820.62	18902.91
820.948	18810.03
821.276	18869.91
821.604	18885.73
821.932	18886.18
822.259	18873.53
822.587	18857.48
822.915	18788.56
823.243	18920.99
823.57	18907.88
823.898	18890.25
824.225	18960.31
824.553	18824.49
824.88	18932.74
825.207	19016.35
825.535	18935.45
825.862	18940.87
826.189	18858.16
826.516	19066.74
826.843	19169.57
827.17	18970.93
827.497	19176.35
827.824	19028.33
828.151	18977.03
828.478	19022.23
828.805	19058.16
829.131	18935
829.458	18977.26
829.785	18865.39
830.111	18886.86
830.438	18975.9
830.764	18930.02
831.09	18904.94
831.417	18932.06
831.743	18867.65
832.069	18888.22
832.395	18808.67
832.722	18809.8
833.048	18791.5
833.374	18664.95
833.7	18544.5
834.026	18642.35
834.351	18550.37
834.677	18503.82
835.003	18407.55
835.329	18490.26
835.654	18364.39
835.98	18240.1
836.306	18330.94
836.631	18248.01
836.956	18339.31
837.282	18317.16
837.607	18240.55
837.932	18216.6
838.258	18224.28
838.583	18188.58
838.908	18041.23
839.233	18033.55
839.558	18020.44
839.883	17983.84
840.208	17940.45
840.533	17978.41
840.858	17912.42
841.182	17991.07
841.507	17958.3
841.832	17824.74
842.156	17806.44
842.481	17918.75
842.805	17828.13
843.13	17769.38
843.454	17626.56
843.778	17666.33
844.103	17658.65
844.427	17628.82
844.751	17702.49
845.075	17678.98
845.399	17547.91
845.723	17466.33
846.047	17555.82
846.371	17356.96
846.695	17391.76
847.019	17262.05
847.343	17238.54
847.666	17088.04
847.99	17017.98
848.313	17011.66
848.637	16962.62
848.96	16954.26
849.284	16844.2
849.607	16720.37
849.931	16787.71
850.254	16555.62
850.577	16419.36
850.9	16389.3
851.223	16349.98
851.546	16164.22
851.869	15990.22
852.192	16077.44
852.515	16007.84
852.838	15912.25
853.161	15845.81
853.483	15764.01
853.806	15680.62
854.129	15691.47
854.451	15568.98
854.774	15446.05
855.096	15457.35
855.419	15321.76
855.741	15424.58
856.063	15179.84
856.385	15163.34
856.708	15060.07
857.03	15108.2
857.352	14984.37
857.674	14962.9
857.996	14906.18
858.318	14846.74
858.64	14882.22
858.961	14811.94
859.283	14827.31
859.605	14743.24
859.926	14756.58
860.248	14725.84
860.57	14595.22
860.891	14708.21
861.212	14574.89
861.534	14604.71
861.855	14617.6
862.176	14544.83
862.498	14601.78
862.819	14565.85
863.14	14477.94
863.461	14526.52
863.782	14476.36
864.103	14517.03
864.424	14477.94
864.745	14595.45
865.065	14463.93
865.386	14487.66
865.707	14474.1
866.027	14465.06
866.348	14498.28
866.668	14460.54
866.989	14395.45
867.309	14350.71
867.63	14357.94
867.95	14318.39
868.27	14255.12
868.59	14259.64
868.91	14152.75
869.23	14165.4
869.55	14116.14
869.87	14189.81
870.19	14063.49
870.51	14054.67
870.83	14096.93
871.15	13962.02
871.469	13999.08
871.789	13988.69
872.109	13970.61
872.428	13803.83
872.748	13843.6
873.067	13792.08
873.386	13795.24
873.706	13762.03
874.025	13659.88
874.344	13648.36
874.663	13705.53
874.982	13623.5
875.301	13590.5
875.62	13556.15
875.939	13448.59
876.258	13442.26
876.577	13408.81
876.896	13449.27
877.214	13352.32
877.533	13357.52
877.852	13270.06
878.17	13313.9
878.489	13274.81
878.807	13242.04
879.125	13235.03
879.444	13249.95
879.762	13180.35
880.08	13148.71
880.398	13036.17
880.716	13104.64
881.034	13094.7
881.352	13117.07
881.67	13033.91
881.988	13015.15
882.306	13027.58
882.624	13027.36
882.941	12971.99
883.259	12995.94
883.577	13009.5
883.894	12925.21
884.212	12893.8
884.529	12873.23
884.846	12892.67
885.164	12882.95
885.481	12816.51
885.798	12882.05
886.115	12836.17
886.432	12818.77
886.75	12773.35
887.067	12736.06
887.383	12802.05
887.7	12853.8
888.017	12656.29
888.334	12738.32
888.651	12656.74
888.967	12607.71
889.284	12520.48
889.6	12555.5
889.917	12470.53
890.233	12526.35
890.55	12489.97
890.866	12550.53
891.182	12408.84
891.498	12378.33
891.815	12340.14
892.131	12285
892.447	12278
892.763	12202.07
893.079	12127.49
893.395	12075.29
893.71	12104.89
894.026	12090.43
894.342	11980.38
894.657	11878.68
894.973	11892.92
895.289	11811.34
895.604	11807.27
895.92	11653.38
896.235	11600.27
896.55	11589.88
896.865	11590.56
897.181	11473.72
897.496	11452.48
897.811	11367.96
898.126	11353.95
898.441	11242.77
898.756	11229.44
899.071	11208.42
899.386	11211.13
899.7	11089.33
900.015	11012.94
900.33	10894.08
900.644	10941.31
900.959	11010.91
901.273	10881.2
901.588	10796.91
901.902	10708.55
902.216	10774.99
902.531	10756
902.845	10713.07
903.159	10728.43
903.473	10703.57
903.787	10650.69
904.101	10567.08
904.415	10590.58
904.729	10497.25
905.042	10448.21
905.356	10516.46
905.67	10476.01
905.984	10383.58
906.297	10354.21
906.611	10356.01
906.924	10351.27
907.237	10316.01
907.551	10308.78
907.864	10237.82
908.177	10224.72
908.491	10170.48
908.804	10134.1
909.117	10076.7
909.43	10072.4
909.743	9978.62
910.056	9989.92
910.368	9952.41
910.681	9955.12
910.994	9977.72
911.307	9882.81
911.619	9801.68
911.932	9878.29
912.244	9703.83
912.557	9677.16
912.869	9655.47
913.181	9660.44
913.494	9689.14
913.806	9607.33
914.118	9521.01
914.43	9475.81
914.742	9467.45
915.054	9436.72
915.366	9328.24
915.678	9365.53
915.99	9291.86
916.302	9156.5
916.613	9178.19
916.925	9165.54
917.236	9154.91
917.548	8956.73
917.859	8993.79
918.171	8894.36
918.482	8928.48
918.794	8845.54
919.105	8871.76
919.416	8781.59
919.727	8736.62
920.038	8766.9
920.349	8611.65
920.66	8582.73
920.971	8565.55
921.282	8476.74
921.593	8457.98
921.903	8376.18
922.214	8436.74
922.525	8367.14
922.835	8421.37
923.146	8267.03
923.456	8244.2
923.767	8134.38
924.077	8197.65
924.387	8182.06
924.697	8097.09
925.008	8077.88
925.318	8041.27
925.628	8024.77
925.938	7948.84
926.248	7983.65
926.558	7844.44
926.867	7843.08
927.177	7799.24
927.487	7779.13
927.796	7691.9
928.106	7717.66
928.416	7729.19
928.725	7729.19
929.034	7670.66
929.344	7703.43
929.653	7625.24
929.962	7559.48
930.271	7603.09
930.581	7532.58
930.89	7501.17
931.199	7471.34
931.508	7506.6
931.817	7458.01
932.125	7460.5
932.434	7393.38
932.743	7393.61
933.051	7343.89
933.36	7298.47
933.669	7231.12
933.977	7213.95
934.286	7253.95
934.594	7185.7
934.902	7096.66
935.21	7138.24
935.519	7098.02
935.827	7113.16
936.135	7083.78
936.443	7053.05
936.751	7025.48
937.059	7041.3
937.367	6972.6
937.674	6974.86
937.982	6916.33
938.29	6871.58
938.597	6885.6
938.905	6797.24
939.213	6825.03
939.52	6717.46
939.827	6675.21
940.135	6655.32
940.442	6589.11
940.749	6628.88
941.056	6624.81
941.363	6500.97
941.67	6485.61
941.977	6424.36
942.284	6408.55
942.591	6354.08
942.898	6318.38
943.205	6320.64
943.511	6270.24
943.818	6190.7
944.125	6197.93
944.431	6212.85
944.738	6172.39
945.044	6119.06
945.35	6065.73
945.657	6047.65
945.963	6032.06
946.269	5988.22
946.575	5978.73
946.881	5976.24
947.187	5943.47
947.493	5907.09
947.799	5904.38
948.105	5868.45
948.41	5861.22
948.716	5829.35
949.022	5764.72
949.327	5750.48
949.633	5660.77
949.938	5693.31
950.244	5730.37
950.549	5630.49
950.854	5611.5
951.16	5630.26
951.465	5631.84
951.77	5536.48
952.075	5533.31
952.38	5465.29
952.685	5504.39
952.99	5451.51
953.294	5454.67
953.599	5443.37
953.904	5451.74
954.209	5404.5
954.513	5417.39
954.818	5367.22
955.122	5380.1
955.426	5386.2
955.731	5342.59
956.035	5278.63
956.339	5303.94
956.643	5268.24
956.948	5253.1
957.252	5211.74
957.556	5214
957.86	5238.63
958.163	5227.56
958.467	5172.87
958.771	5187.56
959.075	5151.4
959.378	5077.06
959.682	5148.92
959.985	5080.9
960.289	5076.6
960.592	5038.86
960.896	5005.65
961.199	4975.59
961.502	4971.3
961.805	4908.47
962.108	4936.95
962.411	4876.16
962.714	4865.31
963.017	4863.28
963.32	4863.05
963.623	4784.41
963.926	4746.22
964.228	4764.75
964.531	4713.68
964.833	4707.35
965.136	4668.48
965.438	4633.68
965.741	4647.46
966.043	4546.9
966.345	4549.39
966.648	4569.5
966.95	4503.06
967.252	4493.79
967.554	4449.05
967.856	4444.53
968.158	4401.14
968.46	4443.85
968.761	4388.03
969.063	4402.05
969.365	4326.57
969.666	4343.52
969.968	4307.81
970.269	4276.17
970.571	4249.05
970.872	4228.49
971.174	4237.08
971.475	4221.03
971.776	4171.77
972.077	4160.47
972.378	4121.83
972.679	4100.36
972.98	4070.3
973.281	4089.29
973.582	4056.52
973.883	4051.09
974.183	4034.6
974.484	3978.1
974.785	3964.32
975.085	3967.71
975.386	3959.8
975.686	3968.38
975.986	3945.56
976.287	3915.73
976.587	3854.72
976.887	3862.4
977.187	3823.76
977.487	3852
977.787	3827.6
978.087	3835.51
978.387	3804.09
978.687	3829.4
978.987	3796.41
979.286	3769.97
979.586	3738.11
979.885	3731.55
980.185	3710.76
980.484	3741.72
980.784	3692.23
981.083	3633.25
981.382	3637.09
981.682	3680.93
981.981	3665.79
982.28	3580.6
982.579	3576.08
982.878	3571.33
983.177	3581.28
983.475	3572.01
983.774	3543.31
984.073	3586.02
984.372	3540.37
984.67	3512.8
984.969	3491.11
985.267	3465.35
985.566	3492.24
985.864	3477.78
986.162	3455.86
986.461	3405.01
986.759	3421.96
987.057	3410.66
987.355	3369.98
987.653	3381.06
987.951	3362.52
988.249	3351
988.547	3340.15
988.844	3302.19
989.142	3279.59
989.44	3294.5
989.737	3292.92
990.035	3246.14
990.332	3219.03
990.63	3152.36
990.927	3185.13
991.224	3141.06
991.521	3149.87
991.819	3150.78
992.116	3139.25
992.413	3115.3
992.71	3087.05
993.006	3097.9
993.303	3077.33
993.6	3045.47
993.897	3016.77
994.193	2994.62
994.49	2981.97
994.787	2982.2
995.083	2928.64
995.379	2939.48
995.676	2950.11
995.972	2903.55
996.268	2887.96
996.565	2880.96
996.861	2867.85
997.157	2863.78
997.453	2814.06
997.749	2810.22
998.044	2757.34
998.34	2746.72
998.636	2727.29
998.932	2742.88
999.227	2739.04
999.523	2731.58
999.818	2697.91
1000.114	2700.17
1000.409	2681.86
1000.704	2645.93
1001	2659.27
1001.295	2618.14
1001.59	2617.01
1001.885	2606.16
1002.18	2564.13
1002.475	2585.6
1002.77	2574.97
1003.065	2554.64
1003.359	2545.14
1003.654	2523.68
1003.949	2522.55
1004.243	2482.1
1004.538	2471.7
1004.832	2455.2
1005.127	2440.51
1005.421	2445.26
1005.715	2403.68
1006.009	2419.72
1006.304	2390.8
1006.598	2377.47
1006.892	2353.51
1007.186	2383.34
1007.48	2347.86
1007.773	2352.61
1008.067	2320.97
1008.361	2301.31
1008.655	2285.94
1008.948	2285.04
1009.242	2271.25
1009.535	2267.19
1009.829	2257.92
1010.122	2252.5
1010.415	2195.32
1010.708	2207.75
1011.001	2204.36
1011.295	2186.74
1011.588	2200.3
1011.881	2140.86
1012.173	2161.43
1012.466	2177.7
1012.759	2177.47
1013.052	2137.92
1013.344	2118.72
1013.637	2117.81
1013.93	2101.09
1014.222	2082.78
1014.514	2065.16
1014.807	2065.61
1015.099	2042.33
1015.391	1997.59
1015.683	2007.08
1015.976	2025.61
1016.268	2021.32
1016.56	1983.58
1016.851	1963.92
1017.143	1967.53
1017.435	1948.78
1017.727	1961.21
1018.018	1943.35
1018.31	1946.06
1018.602	1919.17
1018.893	1895.22
1019.185	1884.82
1019.476	1876.69
1019.767	1856.12
1020.058	1882.56
1020.35	1792.85
1020.641	1796.92
1020.932	1785.16
1021.223	1779.29
1021.514	1798.72
1021.804	1760.31
1022.095	1738.61
1022.386	1758.72
1022.677	1732.74
1022.967	1695.9
1023.258	1733.19
1023.548	1671.04
1023.839	1717.6
1024.129	1676.92
1024.419	1683.92
1024.709	1637.6
1025	1640.31
1025.29	1615.23
1025.58	1603.02
1025.87	1592.85
1026.16	1554.21
1026.449	1589.24
1026.739	1557.37
1027.029	1552.63
1027.319	1526.64
1027.608	1516.47
1027.898	1520.54
1028.187	1523.7
1028.477	1503.82
1028.766	1484.61
1029.055	1470.37
1029.344	1453.87
1029.634	1463.82
1029.923	1448.9
1030.212	1399.86
1030.501	1452.52
1030.79	1414.1
1031.078	1424.72
1031.367	1438.28
1031.656	1403.48
1031.945	1395.57
1032.233	1393.99
1032.522	1367.77
1032.81	1369.81
1033.099	1341.33
1033.387	1310.15
1033.675	1339.07
1033.963	1330.94
1034.251	1287.78
1034.54	1321
1034.828	1274.22
1035.116	1300.66
1035.403	1298.17
1035.691	1271.28
1035.979	1270.15
1036.267	1266.76
1036.554	1252.75
1036.842	1243.03
1037.129	1248
1037.417	1238.06
1037.704	1224.73
1037.992	1235.12
1038.279	1211.62
1038.566	1184.73
1038.853	1184.73
1039.14	1184.73
