Data from blue_chair_FLMS001491_00068.txt Node
Date: Wed Feb 08 10:31:34 GMT 2017
User: dcchb
Spectrometer: FLMS00149
Trigger mode: 0
Integration Time (sec): 2.000000E-2
Scans to average: 10
Electric dark correction enabled: true
Nonlinearity correction enabled: false
Boxcar width: 0
XAxis mode: Wavelengths
Number of Pixels in Spectrum: 2048
>>>>>Begin Spectral Data<<<<<
341.393	-10.32
341.776	-10.32
342.16	-10.32
342.543	-70.44
342.927	-77.89
343.31	-72.24
343.693	-45.58
344.077	-65.24
344.46	-67.72
344.843	-54.62
345.226	-22.3
345.61	-17.33
345.993	-41.51
346.376	2.1
346.759	9.79
347.142	20.18
347.525	45.27
347.908	51.59
348.291	60.41
348.674	103.34
349.057	93.85
349.44	110.58
349.823	133.85
350.206	145.15
350.588	183.57
350.971	190.8
351.354	198.48
351.737	223.57
352.119	217.92
352.502	236.9
352.884	247.3
353.267	251.36
353.65	272.15
354.032	300.4
354.414	284.81
354.797	292.49
355.179	276.67
355.562	281.42
355.944	296.33
356.326	290.91
356.709	314.19
357.091	304.02
357.473	311.7
357.855	315.54
358.238	331.14
358.62	306.28
359.002	305.37
359.384	302.44
359.766	304.7
360.148	296.79
360.53	318.25
360.912	310.57
361.294	304.47
361.676	297.01
362.057	296.11
362.439	313.06
362.821	301.98
363.203	318.71
363.584	275.54
363.966	297.24
364.348	300.85
364.729	279.16
365.111	305.37
365.493	275.32
365.874	297.92
366.256	307.86
366.637	289.33
367.019	284.36
367.4	291.36
367.781	298.14
368.163	277.35
368.544	284.36
368.925	277.13
369.306	262.66
369.688	268.99
370.069	274.87
370.45	286.16
370.831	283.45
371.212	267.63
371.593	271.25
371.974	278.48
372.355	271.48
372.736	294.07
373.117	273.96
373.498	290.23
373.879	287.29
374.26	294.98
374.641	275.54
375.021	281.19
375.402	273.96
375.783	289.55
376.163	292.27
376.544	285.03
376.925	290.91
377.305	295.43
377.686	288.2
378.066	292.94
378.447	296.56
378.827	288.42
379.208	277.58
379.588	292.94
379.968	283
380.349	282.1
380.729	300.4
381.109	278.26
381.489	301.98
381.87	301.76
382.25	290.68
382.63	290.91
383.01	303.11
383.39	278.71
383.77	303.11
384.15	324.58
384.53	303.57
384.91	300.4
385.29	309.22
385.67	311.93
386.049	309.67
386.429	314.86
386.809	305.37
387.189	295.43
387.568	301.98
387.948	305.6
388.328	301.98
388.707	312.83
389.087	308.54
389.466	313.96
389.846	324.13
390.225	315.09
390.605	303.57
390.984	309.44
391.363	313.28
391.743	309.89
392.122	318.25
392.501	322.1
392.881	324.58
393.26	327.75
393.639	323.23
394.018	334.75
394.397	306.28
394.776	313.06
395.155	327.07
395.534	313.96
395.913	311.7
396.292	339.72
396.671	330.68
397.05	338.59
397.429	351.02
397.808	348.31
398.186	340.85
398.565	345.15
398.944	345.82
399.323	336.11
399.701	339.95
400.08	339.04
400.458	355.54
400.837	350.57
401.215	345.15
401.594	326.39
401.972	342.89
402.351	345.6
402.729	368.65
403.107	346.95
403.486	340.4
403.864	371.13
404.242	348.99
404.62	366.61
404.999	367.97
405.377	366.84
405.755	362.55
406.133	374.3
406.511	341.76
406.889	368.42
407.267	354.19
407.645	370.46
408.023	372.72
408.401	399.16
408.779	373.85
409.156	369.55
409.534	386.28
409.912	390.34
410.29	391.92
410.667	390.57
411.045	402.09
411.422	387.41
411.8	395.77
412.178	404.35
412.555	387.18
412.933	410
413.31	410.91
413.687	431.92
414.065	429.44
414.442	415.43
414.819	426.5
415.197	405.03
415.574	418.36
415.951	431.02
416.328	426.5
416.705	422.88
417.082	427.4
417.46	422.66
417.837	412.04
418.214	425.14
418.591	412.49
418.967	440.51
419.344	435.77
419.721	433.51
420.098	459.04
420.475	454.75
420.852	454.97
421.228	461.3
421.605	450.45
421.982	457.91
422.358	470.57
422.735	469.66
423.111	466.95
423.488	468.76
423.864	477.57
424.241	476.89
424.617	484.35
424.994	481.87
425.37	478.7
425.746	502.43
426.123	479.15
426.499	504.92
426.875	513.28
427.251	499.49
427.627	514.18
428.003	531.81
428.379	540.62
428.756	526.61
429.132	536.78
429.507	525.71
429.883	547.17
430.259	539.04
430.635	531.36
431.011	538.59
431.387	548.3
431.763	546.95
432.138	567.51
432.514	578.13
432.89	595.99
433.265	567.97
433.641	593.95
434.016	600.73
434.392	593.5
434.767	600.73
435.143	624.69
435.518	609.77
435.894	589.21
436.269	644.12
436.644	639.6
437.02	639.83
437.395	638.7
437.77	651.8
438.145	685.02
438.52	650.9
438.895	683.67
439.271	675.31
439.646	676.44
440.021	704.01
440.395	718.7
440.77	707.85
441.145	711.24
441.52	711.92
441.895	706.04
442.27	724.8
442.645	738.36
443.019	721.41
443.394	721.41
443.769	725.93
444.143	739.26
444.518	772.03
444.892	765.7
445.267	765.7
445.641	775.64
446.016	794.63
446.39	794.63
446.764	771.58
447.139	765.02
447.513	776.32
447.887	802.99
448.262	811.8
448.636	824.46
449.01	811.57
449.384	827.62
449.758	815.42
450.132	824.46
450.506	828.98
450.88	819.71
451.254	842.53
451.628	851.35
452.002	851.35
452.376	875.3
452.75	882.31
453.123	877.79
453.497	867.17
453.871	882.31
454.244	899.03
454.618	917.11
454.992	955.07
455.365	917.33
455.739	938.13
456.112	946.26
456.486	937.67
456.859	936.32
457.232	952.81
457.606	961.4
457.979	950.1
458.352	982.42
458.725	1001.17
459.099	976.54
459.472	1012.02
459.845	1026.26
460.218	1003.89
460.591	1035.75
460.964	1013.15
461.337	1032.13
461.71	1052.25
462.083	1076.65
462.456	1042.76
462.829	1052.47
463.201	1059.93
463.574	1076.43
463.947	1071
464.32	1096.31
464.692	1105.13
465.065	1107.84
465.438	1100.83
465.81	1112.58
466.183	1142.87
466.555	1175.86
466.928	1167.5
467.3	1154.16
467.672	1154.62
468.045	1181.28
468.417	1180.38
468.789	1208.4
469.161	1189.64
469.534	1226.48
469.906	1224.22
470.278	1235.07
470.65	1254.95
471.022	1283.43
471.394	1285.01
471.766	1284.78
472.138	1290.43
472.51	1301.51
472.882	1330.43
473.253	1326.82
473.625	1325.23
473.997	1369.75
474.369	1356.19
474.74	1360.49
475.112	1394.61
475.484	1404.33
475.855	1414.72
476.227	1428.51
476.598	1435.06
476.97	1453.59
477.341	1468.28
477.713	1470.31
478.084	1475.74
478.455	1521.16
478.827	1523.65
479.198	1540.37
479.569	1533.82
479.94	1566.13
480.311	1581.72
480.682	1607.49
481.053	1608.62
481.424	1657.2
481.795	1644.55
482.166	1642.97
482.537	1655.62
482.908	1679.57
483.279	1680.48
483.65	1723.19
484.021	1726.58
484.391	1746.47
484.762	1719.35
485.133	1737.43
485.503	1716.64
485.874	1755.5
486.244	1797.99
486.615	1816.97
486.985	1844.99
487.356	1824.2
487.726	1824.66
488.097	1846.8
488.467	1842.96
488.837	1863.07
489.207	1870.76
489.578	1879.34
489.948	1879.8
490.318	1887.03
490.688	1894.94
491.058	1882.28
491.428	1906.01
491.798	1916.18
492.168	1955.27
492.538	1941.71
492.908	1935.16
493.278	1924.99
493.648	1918.21
494.017	1953.01
494.387	1943.52
494.757	1961.15
495.126	1946.69
495.496	1970.19
495.866	1978.32
496.235	1963.86
496.605	1941.94
496.974	1967.48
497.344	1967.93
497.713	1944.2
498.082	1969.28
498.452	1965.22
498.821	1965.44
499.19	1955.95
499.559	1951.66
499.928	1951.21
500.298	1964.54
500.667	1946.69
501.036	1944.43
501.405	1968.83
501.774	1953.01
502.143	1942.39
502.512	1978.32
502.88	1957.53
503.249	1951.66
503.618	1916.4
503.987	1958.89
504.356	1923.18
504.724	1924.77
505.093	1949.4
505.462	1931.32
505.83	1932.68
506.199	1932.22
506.567	1924.99
506.936	1900.13
507.304	1932.45
507.672	1911.88
508.041	1947.82
508.409	1898.33
508.777	1913.69
509.145	1923.18
509.514	1927.48
509.882	1919.57
510.25	1918.89
510.618	1896.07
510.986	1909.62
511.354	1876.86
511.722	1896.97
512.09	1895.16
512.458	1911.43
512.826	1907.14
513.193	1903.75
513.561	1852.68
513.929	1871.43
514.297	1884.77
514.664	1876.18
515.032	1865.33
515.4	1871.43
515.767	1879.34
516.135	1825.33
516.502	1825.33
516.869	1867.14
517.237	1862.39
517.604	1836.63
517.972	1843.19
518.339	1848.84
518.706	1837.99
519.073	1830.08
519.44	1797.09
519.808	1841.83
520.175	1839.57
520.542	1808.16
520.909	1818.1
521.276	1825.56
521.643	1809.29
522.009	1803.86
522.376	1802.51
522.743	1810.64
523.11	1804.99
523.477	1809.97
523.843	1783.53
524.21	1824.88
524.577	1760.93
524.943	1833.24
525.31	1793.02
525.676	1797.09
526.043	1783.98
526.409	1791.21
526.776	1781.27
527.142	1788.05
527.508	1831.66
527.874	1835.28
528.241	1807.48
528.607	1787.82
528.973	1785.56
529.339	1798.44
529.705	1813.13
530.071	1825.33
530.437	1809.29
530.803	1791.66
531.169	1792.79
531.535	1767.48
531.901	1802.06
532.267	1803.86
532.632	1775.62
532.998	1779.46
533.364	1794.15
533.73	1771.32
534.095	1812
534.461	1804.77
534.826	1762.74
535.192	1784.43
535.557	1782.85
535.923	1800.02
536.288	1804.77
536.653	1798.89
537.019	1791.66
537.384	1777.65
537.749	1753.7
538.114	1767.26
538.479	1784.88
538.845	1788.72
539.21	1743.75
539.575	1754.83
539.94	1764.54
540.305	1777.43
540.67	1777.65
541.034	1761.83
541.399	1793.24
541.764	1756.63
542.129	1752.79
542.494	1770.19
542.858	1743.75
543.223	1733.36
543.587	1743.08
543.952	1765.22
544.316	1747.37
544.681	1729.06
545.045	1716.41
545.41	1756.86
545.774	1779.91
546.138	1755.96
546.503	1746.47
546.867	1739.01
547.231	1744.66
547.595	1728.16
547.959	1717.77
548.324	1734.49
548.688	1762.51
549.052	1720.25
549.416	1714.38
549.779	1708.27
550.143	1727.03
550.507	1723.42
550.871	1718.67
551.235	1710.76
551.599	1716.18
551.962	1745.34
552.326	1696.75
552.689	1687.26
553.053	1689.97
553.417	1718.44
553.78	1689.74
554.143	1681.61
554.507	1704.43
554.87	1691.55
555.234	1736.52
555.597	1701.49
555.96	1708.05
556.323	1697.43
556.686	1701.72
557.05	1707.37
557.413	1719.57
557.776	1699.46
558.139	1710.31
558.502	1711.21
558.865	1707.14
559.228	1705.34
559.59	1718.9
559.953	1719.35
560.316	1709.4
560.679	1716.18
561.041	1715.96
561.404	1687.26
561.767	1710.53
562.129	1703.3
562.492	1730.65
562.854	1705.34
563.217	1697.88
563.579	1738.56
563.941	1705.11
564.304	1713.7
564.666	1732.23
565.028	1753.47
565.39	1717.54
565.753	1729.74
566.115	1744.88
566.477	1737.2
566.839	1722.51
567.201	1742.85
567.563	1733.81
567.925	1756.86
568.287	1764.09
568.648	1764.09
569.01	1773.36
569.372	1755.5
569.734	1782.85
570.095	1786.24
570.457	1791.21
570.819	1785.56
571.18	1814.26
571.542	1778.33
571.903	1801.83
572.265	1819.68
572.626	1803.86
572.987	1795.28
573.349	1805.9
573.71	1804.54
574.071	1807.48
574.432	1833.92
574.794	1827.82
575.155	1839.8
575.516	1838.89
575.877	1822.4
576.238	1822.85
576.599	1837.31
576.96	1821.27
577.32	1830.08
577.681	1860.13
578.042	1856.97
578.403	1876.63
578.763	1889.29
579.124	1888.38
579.485	1898.55
579.845	1901.04
580.206	1875.28
580.566	1877.76
580.927	1899
581.287	1924.77
581.648	1894.48
582.008	1911.43
582.368	1920.92
582.728	1899
583.089	1903.07
583.449	1870.76
583.809	1892.45
584.169	1902.17
584.529	1921.6
584.889	1908.04
585.249	1932.68
585.609	1923.41
585.969	1929.96
586.329	1922.28
586.688	1950.53
587.048	1935.61
587.408	1908.95
587.768	1941.71
588.127	1940.36
588.487	1894.26
588.846	1940.13
589.206	1907.14
589.565	1952.56
589.925	1960.02
590.284	1920.25
590.643	1931.32
591.003	1938.32
591.362	1937.65
591.721	1924.77
592.08	1951.21
592.44	1953.69
592.799	1948.27
593.158	1979
593.517	1951.21
593.876	1936.06
594.235	1923.18
594.593	1953.92
594.952	1977.65
595.311	1960.92
595.67	1933.81
596.029	1954.14
596.387	1952.79
596.746	1956.4
597.104	1893.58
597.463	1928.61
597.822	1933.13
598.18	1941.26
598.538	1946.69
598.897	1950.75
599.255	1914.37
599.613	1976.74
599.972	1954.14
600.33	1947.82
600.688	1949.85
601.046	1948.27
601.404	1946.01
601.762	1957.53
602.12	1946.01
602.478	1986.91
602.836	1975.16
603.194	1940.13
603.552	1922.05
603.91	1943.97
604.268	1954.82
604.625	1964.76
604.983	1978.32
605.341	1937.42
605.698	1949.62
606.056	1940.58
606.413	1969.28
606.771	1911.43
607.128	1985.33
607.485	1929.29
607.843	1927.03
608.2	1967.93
608.557	1947.82
608.914	1935.39
609.272	1947.14
609.629	1953.47
609.986	2005.44
610.343	1953.24
610.7	1978.32
611.057	1966.57
611.414	1970.87
611.771	1948.04
612.127	1976.74
612.484	1957.76
612.841	1974.26
613.198	1949.17
613.554	1977.65
613.911	1965.44
614.267	1977.19
614.624	1997.08
614.98	1977.42
615.337	2002.5
615.693	1984.88
616.05	1990.3
616.406	1994.59
616.762	1970.87
617.118	1971.09
617.475	1988.04
617.831	1997.76
618.187	1973.13
618.543	2024.88
618.899	2008.15
619.255	1967.93
619.611	1990.53
619.967	1995.72
620.323	2002.73
620.678	2004.09
621.034	1986.01
621.39	2023.07
621.746	2008.38
622.101	2034.37
622.457	1981.04
622.812	2021.49
623.168	2031.2
623.523	2009.06
623.879	2003.41
624.234	2020.13
624.589	2017.19
624.945	2032.33
625.3	2036.85
625.655	2006.12
626.01	1989.4
626.365	2008.83
626.72	2022.62
627.075	2014.71
627.43	2033.01
627.785	1998.89
628.14	2022.62
628.495	2017.19
628.85	2006.57
629.205	2008.15
629.559	2015.16
629.914	2029.85
630.269	1987.81
630.623	2023.97
630.978	1985.56
631.332	2011.77
631.687	2007.25
632.041	2014.71
632.396	2043.41
632.75	1999.57
633.104	2024.42
633.459	2049.96
633.813	2051.09
634.167	2026.23
634.521	2022.39
634.875	1997.76
635.229	2023.75
635.583	2012.9
635.937	2007.93
636.291	2038.89
636.645	2016.29
636.999	2013.13
637.352	2029.62
637.706	2046.8
638.06	2027.14
638.413	1997.08
638.767	2007.25
639.121	2033.92
639.474	2020.81
639.828	1984.43
640.181	2019.9
640.534	2038.89
640.888	2018.32
641.241	2004.31
641.594	1985.1
641.947	2009.96
642.301	2013.13
642.654	2028.49
643.007	2037.31
643.36	2012.67
643.713	2023.29
644.066	2030.98
644.419	2023.75
644.771	1970.41
645.124	2004.76
645.477	1989.4
645.83	2014.48
646.182	1998.66
646.535	2011.54
646.888	1997.76
647.24	1994.82
647.593	2011.54
647.945	2015.38
648.298	2017.64
648.65	2010.87
649.002	2007.93
649.355	2009.96
649.707	1985.33
650.059	1998.44
650.411	2031.2
650.763	2037.76
651.115	2070.52
651.467	2044.54
651.819	2049.28
652.171	2082.05
652.523	2034.37
652.875	2060.13
653.227	2042.95
653.578	2058.55
653.93	2084.76
654.282	2087.25
654.633	2052.9
654.985	2063.97
655.337	2059.68
655.688	2089.96
656.039	2116.4
656.391	2082.05
656.742	2107.81
657.094	2131.99
657.445	2123.18
657.796	2122.05
658.147	2092.67
658.498	2119.79
658.849	2110.07
659.2	2101.94
659.551	2089.28
659.902	2101.03
660.253	2108.26
660.604	2129.28
660.955	2125.44
661.306	2136.74
661.656	2143.07
662.007	2141.94
662.358	2123.18
662.708	2115.72
663.059	2149.62
663.409	2134.25
663.76	2115.27
664.11	2117.3
664.461	2124.99
664.811	2125.89
665.161	2120.69
665.511	2109.62
665.862	2125.21
666.212	2097.87
666.562	2109.17
666.912	2110.07
667.262	2149.39
667.612	2110.3
667.962	2118.43
668.312	2124.53
668.662	2107.13
669.011	2145.55
669.361	2091.99
669.711	2105.55
670.06	2104.87
670.41	2105.1
670.76	2106.68
671.109	2108.72
671.459	2132.9
671.808	2118.21
672.157	2095.61
672.507	2107.36
672.856	2106.46
673.205	2107.13
673.554	2083.86
673.904	2090.64
674.253	2109.85
674.602	2090.19
674.951	2079.56
675.3	2041.82
675.649	2112.33
675.998	2083.63
676.346	2072.33
676.695	2066.46
677.044	2073.69
677.393	2048.15
677.741	2038.89
678.09	2066.91
678.438	2077.98
678.787	2076.63
679.135	2046.8
679.484	2056.74
679.832	2048.83
680.181	2009.74
680.529	2033.92
680.877	2044.99
681.225	2018.1
681.573	2046.12
681.922	2005.44
682.27	2030.3
682.618	2014.25
682.966	2001.15
683.314	1990.53
683.661	2002.28
684.009	2011.54
684.357	1991.66
684.705	2003.63
685.053	2019.23
685.4	1981.94
685.748	1998.66
686.095	2000.47
686.443	1980.36
686.79	1957.31
687.138	1972.45
687.485	1965.44
687.832	1943.52
688.18	1945.1
688.527	1941.04
688.874	1927.48
689.221	1950.3
689.568	1969.51
689.915	1941.26
690.262	1924.31
690.609	1901.72
690.956	1905.56
691.303	1903.98
691.65	1895.61
691.997	1903.52
692.344	1898.33
692.69	1886.57
693.037	1886.35
693.383	1875.28
693.73	1869.63
694.077	1896.74
694.423	1857.87
694.769	1863.52
695.116	1864.88
695.462	1866.01
695.808	1815.84
696.155	1829.18
696.501	1830.76
696.847	1795.96
697.193	1826.46
697.539	1800.93
697.885	1831.66
698.231	1812
698.577	1796.18
698.923	1799.8
699.269	1795.05
699.614	1773.36
699.96	1800.48
700.306	1803.41
700.651	1789.85
700.997	1750.08
701.342	1785.56
701.688	1782.17
702.033	1749.4
702.379	1772.91
702.724	1746.24
703.069	1757.31
703.415	1748.5
703.76	1769.06
704.105	1743.3
704.45	1760.93
704.795	1707.6
705.14	1727.48
705.485	1736.52
705.83	1753.7
706.175	1728.61
706.52	1734.04
706.865	1741.27
707.209	1727.71
707.554	1740.36
707.899	1754.83
708.243	1701.95
708.588	1746.24
708.932	1725.45
709.277	1727.03
709.621	1730.87
709.966	1727.03
710.31	1701.04
710.654	1711.44
710.998	1721.61
711.342	1724.09
711.687	1720.25
712.031	1734.04
712.375	1711.66
712.719	1699.91
713.063	1694.49
713.407	1726.13
713.75	1708.27
714.094	1758.89
714.438	1698.78
714.782	1753.7
715.125	1733.36
715.469	1740.14
715.812	1716.64
716.156	1722.51
716.499	1744.66
716.843	1732.68
717.186	1729.29
717.53	1755.73
717.873	1753.92
718.216	1752.34
718.559	1731.55
718.902	1764.54
719.246	1762.96
719.589	1743.98
719.932	1762.51
720.275	1762.28
720.617	1767.03
720.96	1787.14
721.303	1762.06
721.646	1788.27
721.989	1803.19
722.331	1803.64
722.674	1814.94
723.016	1785.56
723.359	1801.61
723.701	1802.51
724.044	1817.88
724.386	1807.71
724.729	1841.83
725.071	1845.22
725.413	1875.28
725.755	1844.54
726.097	1855.62
726.439	1839.8
726.782	1856.07
727.124	1866.91
727.465	1870.08
727.807	1877.31
728.149	1841.83
728.491	1870.08
728.833	1891.32
729.175	1912.34
729.516	1906.24
729.858	1892.9
730.199	1944.43
730.541	1903.3
730.882	1956.4
731.224	1920.25
731.565	1957.31
731.906	1963.63
732.248	1958.44
732.589	1973.13
732.93	1969.96
733.271	2001.37
733.612	1972.45
733.953	1984.88
734.294	2045.44
734.635	2028.94
734.976	2042.5
735.317	2052.9
735.658	2039.11
735.999	2089.51
736.339	2057.87
736.68	2102.61
737.021	2094.03
737.361	2104.65
737.702	2155.49
738.042	2117.76
738.383	2190.52
738.723	2176.96
739.063	2167.92
739.404	2230.07
739.744	2240.24
740.084	2252.21
740.424	2243.63
740.764	2285.21
741.104	2284.08
741.444	2319.11
741.784	2327.02
742.124	2355.71
742.464	2367.24
742.804	2364.98
743.143	2396.17
743.483	2442.49
743.823	2418.09
744.162	2471.64
744.502	2507.58
744.841	2514.13
745.181	2525.2
745.52	2581.02
745.86	2597.97
746.199	2647.01
746.538	2692.43
746.877	2665.09
747.216	2713.67
747.556	2754.12
747.895	2790.51
748.234	2849.04
748.573	2840
748.911	2895.36
749.25	2930.84
749.589	2999.09
749.928	3009.48
750.267	3062.59
750.605	3101.23
750.944	3136.49
751.283	3189.37
751.621	3240.21
751.96	3278.63
752.298	3309.59
752.636	3331.28
752.975	3426.65
753.313	3423.48
753.651	3510.26
753.989	3545.06
754.327	3624.61
754.666	3682.91
755.004	3715.45
755.342	3799.07
755.679	3870.93
756.017	3874.77
756.355	3930.81
756.693	3944.83
757.031	4027.08
757.368	4053.07
757.706	4139.85
758.044	4178.94
758.381	4278.83
758.719	4287.19
759.056	4329.67
759.394	4420.07
759.731	4451.93
760.068	4469.33
760.405	4551.59
760.743	4607.41
761.08	4690.57
761.417	4739.83
761.754	4805.37
762.091	4842.88
762.428	4910.22
762.765	4929.66
763.102	5050.33
763.438	5048.75
763.775	5074.97
764.112	5102.54
764.449	5219.82
764.785	5196.54
765.122	5266.6
765.458	5315.19
765.795	5365.58
766.131	5453.94
766.467	5489.42
766.804	5461.85
767.14	5510.66
767.476	5603.99
767.812	5658.68
768.148	5660.03
768.485	5721.73
768.821	5787.26
769.157	5770.77
769.492	5781.16
769.828	5876.07
770.164	5798.34
770.5	5852.12
770.836	5913.81
771.171	5963.53
771.507	5958.56
771.842	5939.12
772.178	6019.35
772.513	6060.93
772.849	6093.92
773.184	6082.17
773.519	6113.58
773.855	6101.38
774.19	6174.82
774.525	6205.78
774.86	6232.45
775.195	6248.72
775.53	6244.2
775.865	6276.29
776.2	6289.4
776.535	6293.69
776.87	6317.42
777.205	6335.95
777.539	6330.3
777.874	6323.97
778.209	6338.66
778.543	6397.42
778.878	6308.83
779.212	6419.34
779.547	6356.29
779.881	6466.12
780.215	6432.67
780.55	6434.7
780.884	6377.53
781.218	6435.83
781.552	6423.4
781.886	6447.36
782.22	6428.38
782.554	6515.38
782.888	6375.5
783.222	6401.26
783.556	6408.94
783.889	6486.91
784.223	6377.3
784.557	6455.95
784.89	6481.26
785.224	6453.46
785.557	6455.49
785.891	6417.75
786.224	6494.14
786.558	6448.04
786.891	6449.62
787.224	6456.4
787.557	6441.71
787.891	6448.04
788.224	6479.45
788.557	6511.54
788.89	6471.76
789.223	6466.57
789.556	6457.53
789.888	6471.99
790.221	6421.14
790.554	6445.55
790.887	6445.32
791.219	6447.58
791.552	6421.14
791.884	6356.51
792.217	6462.95
792.549	6382.95
792.882	6345.67
793.214	6392.9
793.546	6401.71
793.879	6370.3
794.211	6348.6
794.543	6388.83
794.875	6361.49
795.207	6457.08
795.539	6394.48
795.871	6359.9
796.203	6339.56
796.535	6381.15
796.867	6277.19
797.198	6304.76
797.53	6324.2
797.862	6293.01
798.193	6331.2
798.525	6302.05
798.856	6284.65
799.188	6273.13
799.519	6254.82
799.85	6260.47
800.182	6257.99
800.513	6262.96
800.844	6213.47
801.175	6243.3
801.506	6234.93
801.837	6206.24
802.168	6199.91
802.499	6127.82
802.83	6195.39
803.161	6180.02
803.491	6188.38
803.822	6149.74
804.153	6155.84
804.483	6127.37
804.814	6076.3
805.145	6154.49
805.475	6084.66
805.805	6092.57
806.136	6109.51
806.466	6081.04
806.796	6138.89
807.126	6009.63
807.457	6076.52
807.787	6058.22
808.117	6030.65
808.447	6042.17
808.777	6043.3
809.107	6043.75
809.436	6021.16
809.766	6041.49
810.096	6004.88
810.426	5996.75
810.755	5985
811.085	5997.65
811.414	5994.26
811.744	5910.42
812.073	5949.52
812.403	5996.75
812.732	5876.75
813.061	5936.19
813.39	5921.04
813.719	5896.41
814.049	5930.54
814.378	5921.72
814.707	5898.22
815.036	5893.02
815.365	5911.1
815.693	5837.21
816.022	5855.28
816.351	5800.14
816.68	5802.18
817.008	5792.91
817.337	5769.86
817.665	5798.34
817.994	5792.46
818.322	5794.72
818.651	5747.49
818.979	5730.99
819.307	5771.44
819.636	5744.33
819.964	5772.35
820.292	5698.68
820.62	5748.85
820.948	5701.39
821.276	5764.66
821.604	5738.45
821.932	5759.47
822.259	5784.33
822.587	5766.47
822.915	5786.59
823.243	5772.8
823.57	5763.76
823.898	5797.66
824.225	5793.36
824.553	5717.43
824.88	5779.13
825.207	5789.3
825.535	5767.15
825.862	5832.46
826.189	5768.51
826.516	5808.96
826.843	5800.6
827.17	5824.78
827.497	5807.38
827.824	5806.92
828.151	5820.03
828.478	5852.12
828.805	5776.19
829.131	5792.23
829.458	5825.68
829.785	5749.07
830.111	5773.93
830.438	5852.35
830.764	5764.89
831.09	5849.63
831.417	5794.95
831.743	5845.11
832.069	5803.31
832.395	5818.67
832.722	5873.81
833.048	5808.73
833.374	5828.17
833.7	5792.23
834.026	5808.05
834.351	5799.01
834.677	5794.49
835.003	5791.1
835.329	5799.47
835.654	5770.31
835.98	5769.41
836.306	5734.38
836.631	5727.6
836.956	5816.41
837.282	5756.08
837.607	5695.29
837.932	5793.82
838.258	5788.62
838.583	5792.91
838.908	5711.33
839.233	5691.9
839.558	5674.27
839.883	5713.59
840.208	5660.03
840.533	5730.54
840.858	5715.4
841.182	5677.44
841.507	5710.43
841.832	5651
842.156	5643.99
842.481	5695.29
842.805	5612.35
843.13	5605.8
843.454	5576.87
843.778	5593.37
844.103	5549.76
844.427	5592.24
844.751	5616.42
845.075	5539.36
845.399	5520.38
845.723	5543.88
846.047	5512.47
846.371	5471.11
846.695	5506.59
847.019	5444.45
847.343	5423.43
847.666	5373.26
847.99	5380.27
848.313	5355.64
848.637	5271.12
848.96	5364.22
849.284	5294.39
849.607	5257.11
849.931	5300.04
850.254	5229.54
850.577	5241.97
850.9	5172.36
851.223	5179.14
851.546	5176.43
851.869	5109.99
852.192	5163.32
852.515	5144.34
852.838	5094.85
853.161	5081.74
853.483	5035.87
853.806	5087.17
854.129	5013.05
854.451	5013.95
854.774	5005.14
855.096	5004.68
855.419	4959.04
855.741	4973.05
856.063	4917.23
856.385	4938.02
856.708	4938.25
857.03	4883.56
857.352	4907.74
857.674	4890.11
857.996	4864.35
858.318	4828.19
858.64	4853.28
858.961	4838.36
859.283	4809.89
859.605	4795.42
859.926	4810.11
860.248	4786.16
860.57	4806.27
860.891	4746.61
861.212	4768.76
861.534	4735.54
861.855	4699.38
862.176	4758.14
862.498	4735.54
862.819	4693.28
863.14	4722.88
863.461	4682.21
863.782	4702.32
864.103	4649.67
864.424	4648.99
864.745	4694.86
865.065	4655.09
865.386	4625.94
865.707	4650.57
866.027	4620.29
866.348	4597.69
866.668	4605.15
866.989	4599.05
867.309	4570.57
867.63	4594.3
867.95	4575.09
868.27	4588.2
868.59	4545.71
868.91	4574.19
869.23	4579.16
869.55	4559.95
869.87	4551.14
870.19	4554.53
870.51	4527.41
870.83	4546.39
871.15	4482.21
871.469	4528.99
871.789	4555.66
872.109	4520.18
872.428	4493.06
872.748	4508.88
873.067	4477.69
873.386	4507.3
873.706	4469.78
874.025	4437.92
874.344	4479.05
874.663	4442.44
874.982	4403.12
875.301	4451.93
875.62	4427.3
875.939	4384.14
876.258	4433.85
876.577	4425.94
876.896	4395.44
877.214	4351.37
877.533	4396.79
877.852	4377.13
878.17	4378.26
878.489	4381.2
878.807	4339.17
879.125	4351.59
879.444	4349.11
879.762	4327.87
880.08	4376.45
880.398	4302.56
880.716	4296.23
881.034	4269.34
881.352	4279.51
881.67	4267.76
881.988	4298.26
882.306	4255.33
882.624	4225.72
882.941	4271.6
883.259	4208.32
883.577	4206.97
883.894	4207.87
884.212	4233.41
884.529	4244.25
884.846	4209.9
885.164	4199.51
885.481	4175.55
885.798	4182.11
886.115	4124.26
886.432	4148.66
886.75	4140.98
887.067	4153.18
887.383	4114.31
887.7	4150.02
888.017	4102.11
888.334	4126.97
888.651	4091.26
888.967	4095.33
889.284	4079.74
889.6	4036.12
889.917	4060.98
890.233	4035.22
890.55	4026.86
890.866	3978.27
891.182	3995.22
891.498	3996.12
891.815	3990.7
892.131	3985.05
892.447	3946.18
892.763	3944.15
893.079	3912.06
893.395	3887.65
893.71	3921.32
894.026	3863.92
894.342	3870.7
894.657	3835
894.973	3870.7
895.289	3851.27
895.604	3842.23
895.92	3766.3
896.235	3805.85
896.55	3797.48
896.865	3801.1
897.181	3816.69
897.496	3776.47
897.811	3766.3
898.126	3737.15
898.441	3733.31
898.756	3718.16
899.071	3692.85
899.386	3683.82
899.7	3661.44
900.015	3654.89
900.33	3614.21
900.644	3644.95
900.959	3626.87
901.273	3600.2
901.588	3614.44
901.902	3571.05
902.216	3562.91
902.531	3566.53
902.845	3579.64
903.159	3527.44
903.473	3468.45
903.787	3489.7
904.101	3496.48
904.415	3494.89
904.729	3450.38
905.042	3450.38
905.356	3432.97
905.67	3433.43
905.984	3435.91
906.297	3383.71
906.611	3402.69
906.924	3386.2
907.237	3353.2
907.551	3333.99
907.864	3349.14
908.177	3320.66
908.491	3366.08
908.804	3314.56
909.117	3318.18
909.43	3271.85
909.743	3262.36
910.056	3267.56
910.368	3203.6
910.681	3240.66
910.994	3214.22
911.307	3206.54
911.619	3184.62
911.932	3171.06
912.244	3157.05
912.557	3126.99
912.869	3152.98
913.181	3129.48
913.494	3098.29
913.806	3075.24
914.118	3084.06
914.43	3080.22
914.742	3103.27
915.054	3029.14
915.366	3053.55
915.678	3054.23
915.99	3048.35
916.302	3000.44
916.613	3004.96
916.925	3020.1
917.236	3011.97
917.548	2947.79
917.859	2961.8
918.171	2934.46
918.482	2927.9
918.794	2930.39
919.105	2917.28
919.416	2879.32
919.727	2898.07
920.038	2861.01
920.349	2859.88
920.66	2835.25
920.971	2896.04
921.282	2810.39
921.593	2805.42
921.903	2802.03
922.214	2780.56
922.525	2781.69
922.835	2746.89
923.146	2743.28
923.456	2782.37
923.767	2754.57
924.077	2709.83
924.387	2708.47
924.697	2705.54
925.008	2724.74
925.318	2669.83
925.628	2712.99
925.938	2678.87
926.248	2659.66
926.558	2671.41
926.867	2628.02
927.177	2597.52
927.487	2602.04
927.796	2595.93
928.106	2596.39
928.416	2588.48
928.725	2579.44
929.034	2594.35
929.344	2540.34
929.653	2541.47
929.962	2518.65
930.271	2545.31
930.581	2495.37
930.89	2512.09
931.199	2509.16
931.508	2474.81
931.817	2503.96
932.125	2480.23
932.434	2509.61
932.743	2406.11
933.051	2460.8
933.36	2461.02
933.669	2430.06
933.977	2423.28
934.286	2416.96
934.594	2437.97
934.902	2385.77
935.21	2364.3
935.519	2389.84
935.827	2378.54
936.135	2376.28
936.443	2331.31
936.751	2343.74
937.059	2310.07
937.367	2316.39
937.674	2302.61
937.982	2324.08
938.29	2334.25
938.597	2310.07
938.905	2293.34
939.213	2293.34
939.52	2258.32
939.827	2257.19
940.135	2249.28
940.442	2210.63
940.749	2245.89
941.056	2223.97
941.363	2183.74
941.67	2210.63
941.977	2200.01
942.284	2161.14
942.591	2150.07
942.898	2163.86
943.205	2165.21
943.511	2143.74
943.818	2149.84
944.125	2155.04
944.431	2129.28
944.738	2121.14
945.044	2107.36
945.35	2095.61
945.657	2114.82
945.963	2111.88
946.269	2073.91
946.575	2060.13
946.881	2053.58
947.187	2059.9
947.493	2043.41
947.799	2072.33
948.105	2035.5
948.41	2006.35
948.716	2017.64
949.022	1990.07
949.327	1996.85
949.633	1979.23
949.938	1974.71
950.244	1998.21
950.549	1966.57
950.854	1966.8
951.16	1965.67
951.465	1928.83
951.77	1907.59
952.075	1938.32
952.38	1902.85
952.685	1901.49
952.99	1920.47
953.294	1900.59
953.599	1896.07
953.904	1879.34
954.209	1895.16
954.513	1877.76
954.818	1840.93
955.122	1850.87
955.426	1850.87
955.731	1881.38
956.035	1821.94
956.339	1811.55
956.643	1817.88
956.948	1788.5
957.252	1811.55
957.556	1809.97
957.86	1773.58
958.163	1763.41
958.467	1774.49
958.771	1746.24
959.075	1763.87
959.378	1787.37
959.682	1746.24
959.985	1719.35
960.289	1732.91
960.592	1722.51
960.896	1732
961.199	1730.87
961.502	1719.8
961.805	1707.6
962.108	1699.23
962.411	1709.18
962.714	1703.53
963.017	1685.45
963.32	1652.23
963.623	1688.16
963.926	1654.26
964.228	1640.93
964.531	1652.91
964.833	1673.47
965.136	1627.82
965.438	1628.73
965.741	1605
966.043	1617.88
966.345	1585.57
966.648	1591.67
966.95	1602.97
967.252	1628.73
967.554	1585.11
967.856	1591.22
968.158	1563.87
968.46	1569.75
968.761	1582.4
969.063	1565.91
969.365	1545.79
969.666	1559.13
969.968	1540.82
970.269	1541.72
970.571	1544.89
970.872	1528.17
971.174	1492.01
971.475	1508.96
971.776	1508.28
972.077	1496.3
972.378	1490.88
972.679	1514.16
972.98	1505.79
973.281	1477.77
973.582	1475.29
973.883	1477.77
974.183	1476.42
974.484	1429.19
974.785	1440.71
975.085	1440.94
975.386	1430.77
975.686	1467.83
975.986	1423.31
976.287	1405.01
976.587	1424.44
976.887	1430.99
977.187	1379.7
977.487	1427.38
977.787	1402.07
978.087	1407.72
978.387	1372.24
978.687	1381.5
978.987	1381.28
979.286	1361.84
979.586	1353.71
979.885	1364.1
980.185	1387.15
980.484	1340.6
980.784	1341.05
981.083	1338.34
981.382	1327.95
981.682	1353.03
981.981	1324.1
982.28	1308.06
982.579	1289.98
982.878	1277.33
983.177	1285.91
983.475	1285.46
983.774	1305.35
984.073	1280.71
984.372	1276.42
984.67	1303.99
984.969	1269.19
985.267	1260.38
985.566	1253.15
985.864	1241.62
986.162	1278.46
986.461	1255.18
986.759	1243.88
987.057	1213.15
987.355	1219.93
987.653	1220.38
987.951	1214.05
988.249	1234.61
988.547	1217.89
988.844	1219.93
989.142	1173.6
989.44	1188.97
989.737	1173.37
990.035	1211.34
990.332	1208.63
990.63	1179.02
990.927	1198.23
991.224	1191.45
991.521	1195.75
991.819	1136.99
992.116	1150.55
992.413	1151.68
992.71	1167.95
993.006	1160.49
993.303	1162.07
993.6	1143.77
993.897	1149.42
994.193	1139.02
994.49	1122.3
994.787	1121.62
995.083	1113.04
995.379	1093.83
995.676	1102.41
995.972	1094.73
996.268	1083.43
996.565	1081.85
996.861	1081.85
997.157	1048.4
997.453	1090.66
997.749	1075.3
998.044	1074.39
998.34	1072.36
998.636	1057.44
998.932	1041.17
999.227	1058.8
999.523	1027.39
999.818	1014.73
1000.114	1035.75
1000.409	1015.86
1000.704	1052.7
1001	1014.51
1001.295	1009.08
1001.59	1016.32
1001.885	1002.53
1002.18	1023.09
1002.475	999.14
1002.77	1014.28
1003.065	992.81
1003.359	981.06
1003.654	993.26
1003.949	970.67
1004.243	968.41
1004.538	976.09
1004.832	975.64
1005.127	963.44
1005.421	939.48
1005.715	936.09
1006.009	934.96
1006.304	968.86
1006.598	915.3
1006.892	925.92
1007.186	924.79
1007.48	929.76
1007.773	900.84
1008.067	916.43
1008.361	929.54
1008.655	907.62
1008.948	903.55
1009.242	860.16
1009.535	899.48
1009.829	911.23
1010.122	863.1
1010.415	871.01
1010.708	852.48
1011.001	885.92
1011.295	870.56
1011.588	857
1011.881	877.79
1012.173	866.71
1012.466	850.22
1012.759	836.66
1013.052	860.61
1013.344	870.56
1013.637	825.59
1013.93	839.82
1014.222	840.5
1014.514	807.51
1014.807	817.45
1015.099	832.14
1015.391	828.3
1015.683	806.6
1015.976	800.05
1016.268	800.5
1016.56	815.64
1016.851	815.42
1017.143	813.61
1017.435	800.28
1017.727	780.62
1018.018	781.97
1018.31	759.82
1018.602	760.5
1018.893	757.56
1019.185	777.45
1019.476	755.08
1019.767	749.43
1020.058	750.56
1020.35	750.79
1020.641	763.67
1020.932	751.69
1021.223	734.29
1021.514	742.88
1021.804	722.76
1022.095	740.84
1022.386	727.28
1022.677	733.38
1022.967	697.45
1023.258	708.3
1023.548	747.17
1023.839	717.34
1024.129	695.65
1024.419	704.68
1024.709	691.8
1025	715.31
1025.29	678.92
1025.58	684.8
1025.87	673.95
1026.16	697.45
1026.449	684.12
1026.739	682.31
1027.029	672.37
1027.319	685.02
1027.608	646.61
1027.898	675.31
1028.187	657.68
1028.477	651.13
1028.766	663.33
1029.055	657
1029.344	645.93
1029.634	665.36
1029.923	645.7
1030.212	634.63
1030.501	648.64
1030.79	611.13
1031.078	634.86
1031.367	634.4
1031.656	624.69
1031.945	602.77
1032.233	630.34
1032.522	621.07
1032.81	627.62
1033.099	635.76
1033.387	605.93
1033.675	593.05
1033.963	592.6
1034.251	594.63
1034.54	582.88
1034.828	586.27
1035.116	595.54
1035.403	586.95
1035.691	587.85
1035.979	577.46
1036.267	591.24
1036.554	565.93
1036.842	567.74
1037.129	590.56
1037.417	577.46
1037.704	565.25
1037.992	578.13
1038.279	564.58
1038.566	583.56
1038.853	583.56
1039.14	583.56
