Data from blue_chair_FLMS001491_00046.txt Node
Date: Wed Feb 08 10:30:54 GMT 2017
User: dcchb
Spectrometer: FLMS00149
Trigger mode: 0
Integration Time (sec): 2.000000E-2
Scans to average: 10
Electric dark correction enabled: true
Nonlinearity correction enabled: false
Boxcar width: 0
XAxis mode: Wavelengths
Number of Pixels in Spectrum: 2048
>>>>>Begin Spectral Data<<<<<
341.393	-9.93
341.776	-9.93
342.16	-9.93
342.543	-44.73
342.927	-84.73
343.31	-49.48
343.693	-62.81
344.077	-63.26
344.46	-38.63
344.843	-67.1
345.226	-50.83
345.61	-54.9
345.993	-14.9
346.376	-1.34
346.759	13.57
347.142	54.48
347.525	39.56
347.908	56.06
348.291	58.32
348.674	68.49
349.057	112.78
349.44	122.04
349.823	162.27
350.206	165.66
350.588	158.88
350.971	183.06
351.354	222.38
351.737	218.54
352.119	245.88
352.502	244.3
352.884	258.09
353.267	249.27
353.65	271.87
354.032	260.35
354.414	284.53
354.797	294.47
355.179	302.61
355.562	304.86
355.944	309.84
356.326	320.01
356.709	303.96
357.091	324.98
357.473	340.57
357.855	320.91
358.238	320.68
358.62	327.24
359.002	315.26
359.384	332.21
359.766	327.92
360.148	324.53
360.53	324.07
360.912	324.3
361.294	321.14
361.676	327.01
362.057	318.65
362.439	302.38
362.821	319.55
363.203	280.23
363.584	313.45
363.966	290.63
364.348	291.98
364.729	304.86
365.111	313.23
365.493	291.31
365.874	290.4
366.256	311.64
366.637	293.11
367.019	288.59
367.4	298.09
367.781	286.33
368.163	290.4
368.544	294.47
368.925	269.84
369.306	277.97
369.688	269.16
370.069	279.1
370.45	307.12
370.831	317.97
371.212	281.81
371.593	292.44
371.974	273.23
372.355	292.89
372.736	285.2
373.117	313.23
373.498	274.81
373.879	300.35
374.26	304.64
374.641	271.42
375.021	306.9
375.402	300.12
375.783	288.82
376.163	290.63
376.544	289.72
376.925	279.78
377.305	297.63
377.686	285.43
378.066	292.89
378.447	289.95
378.827	284.07
379.208	296.05
379.588	289.72
379.968	291.31
380.349	280.68
380.729	314.36
381.109	308.25
381.489	310.29
381.87	308.25
382.25	291.31
382.63	325.88
383.01	309.84
383.39	315.71
383.77	307.35
384.15	302.61
384.53	321.36
384.91	296.05
385.29	299.22
385.67	326.11
386.049	313.9
386.429	318.65
386.809	322.72
387.189	322.27
387.568	324.98
387.948	310.74
388.328	314.58
388.707	327.69
389.087	307.58
389.466	336.05
389.846	326.56
390.225	325.66
390.605	343.28
390.984	318.42
391.363	339.67
391.743	342.15
392.122	353.9
392.501	329.95
392.881	312.1
393.26	327.24
393.639	337.86
394.018	333.34
394.397	348.71
394.776	346.67
395.155	338.76
395.534	342.83
395.913	352.55
396.292	360.46
396.671	375.15
397.05	354.81
397.429	342.15
397.808	330.17
398.186	366.33
398.565	360.68
398.944	366.11
399.323	344.86
399.701	374.69
400.08	373.56
400.458	376.28
400.837	368.59
401.215	373.11
401.594	385.99
401.972	366.78
402.351	395.94
402.729	388.03
403.107	404.3
403.486	382.38
403.864	376.95
404.242	372.89
404.62	396.84
404.999	383.51
405.377	395.03
405.755	400.68
406.133	402.94
406.511	396.61
406.889	371.98
407.267	407.91
407.645	411.98
408.023	409.49
408.401	411.08
408.779	395.26
409.156	412.88
409.534	421.25
409.912	401.13
410.29	433.9
410.667	430.96
411.045	425.09
411.422	441.13
411.8	437.06
412.178	445.43
412.555	462.15
412.933	441.13
413.31	448.14
413.687	461.92
414.065	453.56
414.442	468.25
414.819	458.99
415.197	465.76
415.574	499.44
415.951	467.8
416.328	476.39
416.705	488.14
417.082	469.61
417.46	482.04
417.837	485.65
418.214	484.52
418.591	490.62
418.967	506.89
419.344	483.62
419.721	479.55
420.098	480.23
420.475	513.9
420.852	499.66
421.228	512.54
421.605	503.5
421.982	531.75
422.358	521.81
422.735	523.16
423.111	506.89
423.488	521.13
423.864	560
424.241	543.05
424.617	576.04
424.994	540.11
425.37	568.13
425.746	575.14
426.123	583.28
426.499	588.02
426.875	587.57
427.251	577.17
427.627	588.02
428.003	594.12
428.379	571.75
428.756	630.96
429.132	622.6
429.507	627.12
429.883	622.82
430.259	641.35
430.635	649.71
431.011	632.09
431.387	654.01
431.763	656.95
432.138	665.08
432.514	655.82
432.89	679.09
433.265	695.59
433.641	689.49
434.016	689.71
434.392	721.58
434.767	716.38
435.143	728.81
435.518	771.75
435.894	728.13
436.269	747.34
436.644	759.32
437.02	798.19
437.395	793.21
437.77	817.85
438.145	800.45
438.52	816.94
438.895	837.96
439.271	828.24
439.646	848.35
440.021	867.34
440.395	837.05
440.77	847.9
441.145	874.57
441.52	912.31
441.895	904.62
442.27	893.32
442.645	927.22
443.019	938.97
443.394	917.73
443.769	943.27
444.143	919.31
444.518	922.02
444.892	973.32
445.267	971.29
445.641	982.81
446.016	981.46
446.39	975.36
446.764	983.72
447.139	985.52
447.513	997.73
447.887	1015.81
448.262	1012.87
448.636	1032.98
449.01	1028.24
449.384	1034.56
449.758	1043.38
450.132	1048.35
450.506	1038.86
450.88	1076.14
451.254	1086.09
451.628	1096.03
452.002	1098.52
452.376	1113.88
452.75	1114.79
453.123	1121.11
453.497	1120.44
453.871	1137.84
454.244	1152.98
454.618	1184.62
454.992	1187.33
455.365	1193.66
455.739	1178.06
456.112	1231.62
456.486	1218.74
456.859	1267.78
457.232	1268
457.606	1234.33
457.979	1247.89
458.352	1288.34
458.725	1294.22
459.099	1324.95
459.472	1333.54
459.845	1340.32
460.218	1337.15
460.591	1348
460.964	1355.23
461.337	1394.78
461.71	1403.59
462.083	1434.1
462.456	1405.4
462.829	1417.38
463.201	1432.07
463.574	1464.38
463.947	1473.65
464.32	1479.75
464.692	1513.42
465.065	1491.73
465.438	1531.5
465.81	1543.7
466.183	1569.69
466.555	1581.89
466.928	1605.17
467.3	1579.86
467.672	1645.62
468.045	1680.42
468.417	1654.66
468.789	1674.09
469.161	1686.75
469.534	1681.1
469.906	1736.92
470.278	1728.1
470.65	1757.48
471.022	1781.89
471.394	1782.79
471.766	1835.22
472.138	1850.13
472.51	1842.9
472.882	1879.51
473.253	1899.63
473.625	1893.07
473.997	1930.36
474.369	1941.43
474.74	1989.34
475.112	2002.22
475.484	1972.62
475.855	2051.03
476.227	2077.02
476.598	2087.42
476.97	2143.23
477.341	2171.71
477.713	2176.45
478.084	2164.03
478.455	2224.36
478.827	2210.13
479.198	2270.01
479.569	2277.47
479.94	2336.68
480.311	2334.87
480.682	2392.72
481.053	2410.8
481.424	2439.5
481.795	2439.27
482.166	2481.98
482.537	2477.46
482.908	2567.63
483.279	2550.46
483.65	2574.41
484.021	2613.5
484.391	2653.28
484.762	2653.96
485.133	2705.93
485.503	2671.36
485.874	2775.99
486.244	2764.24
486.615	2786.61
486.985	2792.03
487.356	2844.91
487.726	2853.95
488.097	2909.32
488.467	2937.11
488.837	2964.91
489.207	2961.29
489.578	3007.17
489.948	3040.84
490.318	2997.22
490.688	3095.07
491.058	3028.18
491.428	3115.64
491.798	3135.98
492.168	3166.26
492.538	3159.03
492.908	3207.61
493.278	3192.02
493.648	3212.59
494.017	3211.68
494.387	3273.15
494.757	3234.73
495.126	3273.37
495.496	3267.95
495.866	3260.49
496.235	3301.4
496.605	3296.2
496.974	3306.37
497.344	3352.69
497.713	3373.03
498.082	3334.16
498.452	3386.82
498.821	3421.62
499.19	3352.69
499.559	3383.88
499.928	3377.78
500.298	3401.73
500.667	3394.28
501.036	3432.01
501.405	3391.11
501.774	3391.34
502.143	3378.46
502.512	3426.14
502.88	3401.05
503.249	3407.16
503.618	3432.01
503.987	3457.55
504.356	3446.7
504.724	3433.37
505.093	3448.29
505.462	3450.09
505.83	3433.14
506.199	3452.8
506.567	3470.43
506.936	3470.88
507.304	3429.08
507.672	3485.8
508.041	3446.25
508.409	3485.35
508.777	3486.02
509.145	3513.14
509.514	3433.37
509.882	3460.49
510.25	3489.41
510.618	3453.26
510.986	3452.8
511.354	3479.02
511.722	3449.87
512.09	3481.05
512.458	3451.45
512.826	3421.85
513.193	3450.54
513.561	3465.91
513.929	3457.32
514.297	3494.16
514.664	3458.45
515.032	3468.17
515.4	3399.02
515.767	3425.01
516.135	3435.63
516.502	3415.29
516.869	3434.73
517.237	3478.34
517.604	3402.86
517.972	3431.11
518.339	3406.7
518.706	3391.11
519.073	3405.12
519.44	3393.82
519.808	3394.5
520.175	3439.7
520.542	3401.51
520.909	3364.45
521.276	3348.4
521.643	3367.61
522.009	3403.54
522.376	3360.15
522.743	3398.12
523.11	3386.59
523.477	3380.94
523.843	3380.72
524.21	3385.69
524.577	3382.07
524.943	3332.58
525.31	3361.06
525.676	3396.76
526.043	3353.15
526.409	3347.95
526.776	3407.83
527.142	3366.93
527.508	3393.6
527.874	3354.73
528.241	3343.43
528.607	3398.34
528.973	3352.02
529.339	3336.88
529.705	3331.9
530.071	3369.19
530.437	3346.82
530.803	3321.28
531.169	3329.87
531.535	3326.03
531.901	3325.35
532.267	3295.75
532.632	3308.18
532.998	3300.94
533.364	3315.86
533.73	3278.35
534.095	3274.73
534.461	3287.16
534.826	3284.22
535.192	3295.97
535.557	3227.05
535.923	3239.48
536.288	3177.78
536.653	3271.57
537.019	3194.05
537.384	3169.87
537.749	3202.64
538.114	3202.19
538.479	3167.39
538.845	3132.36
539.21	3133.94
539.575	3135.75
539.94	3171.91
540.305	3168.07
540.67	3115.64
541.034	3153.38
541.399	3108.86
541.764	3063.44
542.129	3060.72
542.494	3069.54
542.858	3083.32
543.223	3055.75
543.587	3071.57
543.952	3039.93
544.316	3032.93
544.681	3002.65
545.045	3006.71
545.41	2992.25
545.774	2972.37
546.138	2954.96
546.503	2926.26
546.867	2961.07
547.231	2927.85
547.595	2917.9
547.959	2941.18
548.324	2886.94
548.688	2861.63
549.052	2851.46
549.416	2859.6
549.779	2841.75
550.143	2883.1
550.507	2848.75
550.871	2812.14
551.235	2845.59
551.599	2799.26
551.962	2811.24
552.326	2786.16
552.689	2783.9
553.053	2823.67
553.417	2765.14
553.78	2767.85
554.143	2719.72
554.507	2771.47
554.87	2740.28
555.234	2728.98
555.597	2686.27
555.96	2742.54
556.323	2714.29
556.686	2757.23
557.05	2715.2
557.413	2702.54
557.776	2733.5
558.139	2660.74
558.502	2706.38
558.865	2684.01
559.228	2683.79
559.59	2666.38
559.953	2710.9
560.316	2677.23
560.679	2700.96
561.041	2670.45
561.404	2639.27
561.767	2713.39
562.129	2649.44
562.492	2692.82
562.854	2669.32
563.217	2676.78
563.579	2677.23
563.941	2704.58
564.304	2689.43
564.666	2684.24
565.028	2688.53
565.39	2676.1
565.753	2675.42
566.115	2640.17
566.477	2690.79
566.839	2696.21
567.201	2663.9
567.563	2686.27
567.925	2754.07
568.287	2709.32
568.648	2670.9
569.01	2717.91
569.372	2733.5
569.734	2734.63
570.095	2751.81
570.457	2746.38
570.819	2756.33
571.18	2687.18
571.542	2773.05
571.903	2787.74
572.265	2734.86
572.626	2796.55
572.987	2787.06
573.349	2784.8
573.71	2792.94
574.071	2773.27
574.432	2778.02
574.794	2820.73
575.155	2837.68
575.516	2799.49
575.877	2822.99
576.238	2814.18
576.599	2807.62
576.96	2827.96
577.32	2815.53
577.681	2846.49
578.042	2892.14
578.403	2860.28
578.763	2822.54
579.124	2890.79
579.485	2905.25
579.845	2879.26
580.206	2892.82
580.566	2892.59
580.927	2893.72
581.287	2881.07
581.648	2926.49
582.008	2909.09
582.368	2919.71
582.728	2943.44
583.089	2946.15
583.449	2941.63
583.809	2928.3
584.169	2943.21
584.529	2917.9
584.889	2965.81
585.249	2947.28
585.609	2961.74
585.969	2957.22
586.329	2980.27
586.688	2965.81
587.048	2980.27
587.408	2965.59
587.768	2969.2
588.127	2976.89
588.487	2956.32
588.846	2972.59
589.206	2980.27
589.565	2959.48
589.925	2950.45
590.284	2981.86
590.643	2980.95
591.003	3012.36
591.362	2997.68
591.721	2971.46
592.08	2975.98
592.44	2961.52
592.799	3013.27
593.158	2993.38
593.517	2964.91
593.876	2978.01
594.235	2963.1
594.593	2983.89
594.952	2982.08
595.311	2946.15
595.67	2971.91
596.029	2966.49
596.387	2992.7
596.746	2945.7
597.104	2966.04
597.463	2998.81
597.822	2967.62
598.18	2939.82
598.538	2968.3
598.897	2987.05
599.255	2928.3
599.613	2977.56
599.972	2947.96
600.33	2973.95
600.688	2995.87
601.046	2952.03
601.404	2971.46
601.762	2972.14
602.12	2954.96
602.478	2954.06
602.836	2986.6
603.194	2980.5
603.552	2967.85
603.91	2972.37
604.268	2984.79
604.625	2993.38
604.983	2995.64
605.341	2966.04
605.698	2960.61
606.056	2964
606.413	2957.45
606.771	2998.81
607.128	2965.13
607.485	2972.37
607.843	2975.08
608.2	3015.08
608.557	2943.89
608.914	2977.56
609.272	3000.39
609.629	2959.71
609.986	2985.92
610.343	2980.5
610.7	3013.27
611.057	3035.19
611.414	2990.9
611.771	2984.12
612.127	3010.33
612.484	3014.4
612.841	3014.4
613.198	2969.2
613.554	2978.24
613.911	3000.61
614.267	3025.92
614.624	3017.11
614.98	3006.26
615.337	3015.98
615.693	3044.23
616.05	2992.25
616.406	3046.71
616.762	3008.07
617.118	2985.92
617.475	3020.05
617.831	3044.68
618.187	3082.42
618.543	3014.85
618.899	3015.08
619.255	3040.39
619.611	3040.16
619.967	3034.96
620.323	3061.18
620.678	3046.26
621.034	3044
621.39	3032.25
621.746	3037.45
622.101	3034.74
622.457	3032.25
622.812	2975.53
623.168	3041.74
623.523	3084.68
623.879	3051.69
624.234	3064.34
624.589	3040.84
624.945	2998.35
625.3	3023.66
625.655	3020.05
626.01	3070.89
626.365	3040.61
626.72	3025.7
627.075	3044.45
627.43	3025.92
627.785	3047.17
628.14	3000.61
628.495	3019.37
628.85	3033.61
629.205	3007.84
629.559	3069.99
629.914	3037.45
630.269	2986.6
630.623	3044.45
630.978	3020.73
631.332	3047.17
631.687	3031.12
632.041	3025.47
632.396	2995.64
632.75	2989.77
633.104	3067.96
633.459	3019.6
633.813	3018.47
634.167	3008.97
634.521	3015.3
634.875	2999.03
635.229	2965.13
635.583	2996.77
635.937	2991.12
636.291	2971.46
636.645	2997.45
636.999	2972.59
637.352	2999.71
637.706	2988.64
638.06	2981.63
638.413	2969.2
638.767	2973.04
639.121	3000.16
639.474	2961.97
639.828	2954.74
640.181	2977.11
640.534	2935.76
640.888	2969.43
641.241	2920.62
641.594	2936.21
641.947	2977.79
642.301	2966.04
642.654	2950.9
643.007	2971.69
643.36	2946.83
643.713	2956.09
644.066	2970.33
644.419	2978.69
644.771	2940.5
645.124	2945.25
645.477	2949.32
645.83	2949.09
646.182	2863.44
646.535	2910.45
646.888	2919.26
647.24	2866.38
647.593	2904.57
647.945	2902.08
648.298	2869.09
648.65	2888.75
649.002	2898.92
649.355	2902.99
649.707	2886.94
650.059	2889.2
650.411	2914.51
650.763	2931.24
651.115	2957.45
651.467	2965.59
651.819	2955.87
652.171	2980.95
652.523	2942.54
652.875	2953.38
653.227	2947.28
653.578	2954.96
653.93	2931.01
654.282	2928.3
654.633	2933.27
654.985	2948.41
655.337	2954.06
655.688	2949.54
656.039	2967.17
656.391	2934.63
656.742	2924.68
657.094	2964.91
657.445	2949.99
657.796	2953.83
658.147	2951.57
658.498	2922.88
658.849	2952.7
659.2	2967.17
659.551	2967.39
659.902	2955.42
660.253	3011.01
660.604	2947.06
660.955	2957.9
661.306	2949.77
661.656	2969.65
662.007	2961.29
662.358	2945.02
662.708	2963.33
663.059	2997.45
663.409	2937.79
663.76	2931.69
664.11	3008.75
664.461	2987.96
664.811	2941.41
665.161	2986.15
665.511	2969.65
665.862	2953.83
666.212	2993.83
666.562	2938.02
666.912	2911.35
667.262	2983.21
667.612	2979.37
667.962	2949.99
668.312	2973.04
668.662	2958.81
669.011	2971.01
669.361	2902.99
669.711	2915.87
670.06	2939.37
670.41	2938.69
670.76	2920.62
671.109	2924.68
671.459	2966.26
671.808	2889.88
672.157	2936.43
672.507	2899.15
672.856	2912.03
673.205	2941.63
673.554	2919.49
673.904	2898.47
674.253	2924.23
674.602	2919.71
674.951	2876.1
675.3	2903.67
675.649	2880.16
675.998	2914.51
676.346	2870.22
676.695	2919.03
677.044	2885.36
677.393	2888.53
677.741	2893.5
678.09	2895.76
678.438	2852.14
678.787	2878.36
679.135	2856.89
679.484	2836.55
679.832	2862.31
680.181	2853.5
680.529	2839.71
680.877	2837.23
681.225	2832.93
681.573	2834.29
681.922	2836.32
682.27	2820.96
682.618	2809.21
682.966	2803.33
683.314	2814.18
683.661	2792.71
684.009	2776.89
684.357	2817.57
684.705	2790.68
685.053	2792.03
685.4	2765.37
685.748	2749.77
686.095	2776.21
686.443	2751.35
686.79	2754.74
687.138	2749.09
687.485	2738.7
687.832	2773.05
688.18	2714.97
688.527	2726.95
688.874	2722.43
689.221	2709.1
689.568	2678.36
689.915	2663.67
690.262	2711.13
690.609	2677.91
690.956	2678.36
691.303	2679.94
691.65	2675.42
691.997	2614.41
692.344	2608.08
692.69	2644.69
693.037	2652.83
693.383	2595.88
693.73	2595.2
694.077	2575.31
694.423	2583.45
694.769	2569.44
695.116	2564.47
695.462	2553.85
695.808	2540.74
696.155	2565.37
696.501	2547.74
696.847	2568.99
697.193	2565.6
697.539	2551.36
697.885	2505.03
698.231	2540.06
698.577	2503.68
698.923	2488.08
699.269	2516.78
699.614	2468.88
699.96	2480.85
700.306	2459.16
700.651	2435.2
700.997	2483.11
701.342	2464.36
701.688	2481.53
702.033	2447.18
702.379	2453.73
702.724	2453.28
703.069	2474.75
703.415	2426.39
703.76	2445.15
704.105	2451.7
704.45	2460.29
704.795	2437.69
705.14	2429.33
705.485	2401.98
705.83	2439.05
706.175	2418.71
706.52	2405.6
706.865	2418.26
707.209	2425.26
707.554	2405.37
707.899	2385.71
708.243	2411.02
708.588	2409.44
708.932	2410.57
709.277	2388.88
709.621	2407.86
709.966	2393.85
710.31	2425.49
710.654	2396.79
710.998	2431.36
711.342	2405.37
711.687	2430.23
712.031	2370.57
712.375	2410.57
712.719	2402.89
713.063	2382.78
713.407	2425.71
713.75	2429.55
714.094	2425.71
714.438	2402.21
714.782	2439.95
715.125	2424.13
715.469	2419.84
715.812	2445.37
716.156	2413.06
716.499	2406.28
716.843	2408.09
717.186	2453.51
717.53	2434.75
717.873	2463.23
718.216	2477.46
718.559	2432.49
718.902	2430.91
719.246	2460.51
719.589	2474.3
719.932	2468.88
720.275	2444.47
720.617	2470.46
720.96	2473.85
721.303	2437.46
721.646	2492.6
721.989	2477.69
722.331	2473.17
722.674	2500.06
723.016	2488.99
723.359	2497.12
723.701	2490.12
724.044	2470.91
724.386	2510.46
724.729	2546.16
725.071	2509.33
725.413	2493.06
725.755	2543.68
726.097	2509.33
726.439	2561.98
726.782	2505.48
727.124	2554.3
727.465	2583.45
727.807	2575.09
728.149	2558.36
728.491	2554.07
728.833	2594.52
729.175	2544.13
729.516	2608.08
729.858	2579.38
730.199	2594.97
730.541	2614.63
730.882	2632.26
731.224	2648.53
731.565	2638.59
731.906	2682.2
732.248	2658.93
732.589	2629.55
732.93	2665.48
733.271	2679.04
733.612	2663.45
733.953	2707.06
734.294	2650.11
734.635	2710.68
734.976	2724.24
735.317	2725.82
735.658	2738.47
735.999	2734.41
736.339	2758.81
736.68	2733.28
737.021	2786.16
737.361	2765.37
737.702	2853.5
738.042	2803.78
738.383	2812.14
738.723	2872.93
739.063	2865.02
739.404	2847.17
739.744	2898.47
740.084	2931.91
740.424	2956.77
740.764	2955.64
741.104	3000.16
741.444	2992.93
741.784	3015.08
742.124	3072.25
742.464	3044
742.804	3095.3
743.143	3126.49
743.483	3156.77
743.823	3140.72
744.162	3212.81
744.502	3272.92
744.841	3252.58
745.181	3246.48
745.52	3322.41
745.86	3367.38
746.199	3425.91
746.538	3436.99
746.877	3483.09
747.216	3535.51
747.556	3537.1
747.895	3616.42
748.234	3630.43
748.573	3708.84
748.911	3741.38
749.25	3776.86
749.589	3836.98
749.928	3839.01
750.267	3936.41
750.605	4015.73
750.944	4096.4
751.283	4096.86
751.621	4183.41
751.96	4214.59
752.298	4303.86
752.636	4366.23
752.975	4426.79
753.313	4476.28
753.651	4592.89
753.989	4596.73
754.327	4751.53
754.666	4713.34
755.004	4832.66
755.342	4896.16
755.679	5015.02
756.017	5085.98
756.355	5152.2
756.693	5271.29
757.031	5389.93
757.368	5427.22
757.706	5519.87
758.044	5603.26
758.381	5705.85
758.719	5816.36
759.056	5871.05
759.394	5939.52
759.731	6025.62
760.068	6111.72
760.405	6207.53
760.743	6307.42
761.08	6372.05
761.417	6456.79
761.754	6558.03
762.091	6617.02
762.428	6727.52
762.765	6777.69
763.102	6891.36
763.438	6958.7
763.775	6985.82
764.112	7090.9
764.449	7214.06
764.785	7257
765.122	7325.92
765.458	7387.39
765.795	7506.03
766.131	7528.4
766.467	7614.05
766.804	7639.14
767.14	7691.56
767.476	7802.52
767.812	7802.75
768.148	7915.51
768.485	7972.23
768.821	8067.37
769.157	8085
769.492	8153.92
769.828	8174.71
770.164	8193.7
770.5	8265.56
770.836	8390.08
771.171	8410.87
771.507	8432.11
771.842	8438.21
772.178	8515.95
772.513	8584.2
772.849	8580.35
773.184	8613.12
773.519	8658.32
773.855	8620.58
774.19	8755.72
774.525	8695.38
774.86	8746.45
775.195	8794.36
775.53	8794.59
775.865	8792.78
776.2	8778.31
776.535	8801.14
776.87	8818.77
777.205	8907.12
777.539	8856.5
777.874	8887.92
778.209	8895.37
778.543	8907.12
778.878	8890.85
779.212	8959.55
779.547	8928.82
779.881	9007.46
780.215	8964.98
780.55	9014.01
780.884	8988.7
781.218	9001.81
781.552	9035.03
781.886	9037.52
782.22	8976.28
782.554	8986.67
782.888	8974.02
783.222	9006.56
783.556	8945.09
783.889	8966.78
784.223	8879.1
784.557	9042.49
784.89	8954.13
785.224	8934.47
785.557	8950.29
785.891	9023.96
786.224	8926.11
786.558	8962.94
786.891	8924.07
787.224	8940.34
787.557	8982.83
787.891	8960
788.224	8931.53
788.557	8936.95
788.89	8941.02
789.223	8886.56
789.556	8939.67
789.888	8953.9
790.221	8889.05
790.554	8901.93
790.887	8877.07
791.219	8774.92
791.552	8885.2
791.884	8840.69
792.217	8831.42
792.549	8796.39
792.882	8789.84
793.214	8798.2
793.546	8788.71
793.879	8739.22
794.211	8723.85
794.543	8785.55
794.875	8707.58
795.207	8804.98
795.539	8823.51
795.871	8767.02
796.203	8666.45
796.535	8663.52
796.867	8696.73
797.198	8706
797.53	8637.75
797.862	8571.31
798.193	8604.99
798.525	8607.02
798.856	8596.85
799.188	8525.21
799.519	8498.32
799.85	8466.91
800.182	8517.98
800.513	8527.47
800.844	8425.56
801.175	8533.12
801.506	8494.03
801.837	8459.9
802.168	8403.86
802.499	8403.18
802.83	8383.07
803.161	8343.52
803.491	8413.58
803.822	8348.27
804.153	8301.49
804.483	8329.51
804.814	8240.7
805.145	8334.94
805.475	8313.24
805.805	8299.46
806.136	8288.84
806.466	8305.56
806.796	8240.93
807.126	8230.53
807.457	8168.84
807.787	8232.79
808.117	8138.78
808.447	8146.92
808.777	8162.51
809.107	8129.52
809.436	8129.07
809.766	8142.17
810.096	8169.74
810.426	8097.2
810.755	8087.03
811.085	8073.93
811.414	8143.98
811.744	7982.63
812.073	8055.85
812.403	8047.26
812.732	8050.42
813.061	8037.32
813.39	7990.76
813.719	7953.7
814.049	7986.92
814.378	7952.35
814.707	7932.23
815.036	7984.44
815.365	7934.72
815.693	7843.2
816.022	7872.12
816.351	7849.53
816.68	7831.45
817.008	7844.78
817.337	7805.01
817.665	7745.57
817.994	7792.8
818.322	7836.19
818.651	7755.52
818.979	7701.05
819.307	7783.31
819.636	7729.53
819.964	7713.26
820.292	7786.02
820.62	7726.36
820.948	7779.24
821.276	7718.46
821.604	7773.82
821.932	7675.97
822.259	7688.17
822.587	7812.69
822.915	7754.84
823.243	7789.41
823.57	7659.7
823.898	7743.54
824.225	7745.12
824.553	7725.23
824.88	7796.42
825.207	7745.8
825.535	7774.72
825.862	7747.61
826.189	7741.28
826.516	7800.49
826.843	7773.14
827.17	7828.51
827.497	7792.35
827.824	7836.64
828.151	7842.97
828.478	7915.51
828.805	7882.74
829.131	7818.79
829.458	7833.03
829.785	7780.15
830.111	7792.58
830.438	7871.9
830.764	7816.98
831.09	7861.05
831.417	7824.89
831.743	7858.34
832.069	7828.96
832.395	7778.57
832.722	7857.66
833.048	7795.97
833.374	7795.06
833.7	7791.9
834.026	7777.21
834.351	7819.02
834.677	7806.36
835.003	7830.54
835.329	7821.28
835.654	7835.97
835.98	7745.8
836.306	7753.26
836.631	7745.12
836.956	7710.55
837.282	7761.62
837.607	7731.34
837.932	7754.16
838.258	7763.65
838.583	7708.29
838.908	7675.07
839.233	7690.21
839.558	7691.34
839.883	7591.45
840.208	7604.33
840.533	7667.38
840.858	7614.05
841.182	7638.91
841.507	7659.02
841.832	7572.7
842.156	7583.09
842.481	7591.23
842.805	7627.16
843.13	7589.65
843.454	7598.23
843.778	7581.74
844.103	7448.41
844.427	7521.85
844.751	7520.04
845.075	7574.73
845.399	7478.46
845.723	7383.32
846.047	7450.21
846.371	7347.84
846.695	7350.56
847.019	7333.15
847.343	7234.63
847.666	7266.26
847.99	7218.36
848.313	7247.51
848.637	7238.02
848.96	7202.31
849.284	7108.75
849.607	7063.78
849.931	7096.1
850.254	7026.95
850.577	6962.77
850.9	6942.88
851.223	6923.45
851.546	6989.21
851.869	6909.89
852.192	6938.81
852.515	6897.91
852.838	6791.47
853.161	6811.36
853.483	6817.01
853.806	6783.79
854.129	6765.03
854.451	6755.77
854.774	6720.97
855.096	6746.05
855.419	6687.52
855.741	6685.26
856.063	6613.85
856.385	6644.36
856.708	6648.65
857.03	6602.33
857.352	6619.5
857.674	6560.52
857.996	6487.08
858.318	6541.31
858.64	6518.03
858.961	6541.31
859.283	6462.22
859.605	6438.71
859.926	6456.79
860.248	6410.69
860.57	6403.46
860.891	6358.72
861.212	6396.91
861.534	6424.03
861.855	6326.18
862.176	6384.48
862.498	6356.01
862.819	6359.17
863.14	6332.28
863.461	6376.12
863.782	6350.58
864.103	6305.16
864.424	6285.5
864.745	6340.64
865.065	6215.9
865.386	6279.62
865.707	6281.43
866.027	6242.11
866.348	6229.91
866.668	6253.18
866.989	6172.06
867.309	6147.65
867.63	6154.88
867.95	6201.88
868.27	6182.22
868.59	6181.32
868.91	6186.52
869.23	6137.48
869.55	6062
869.87	6175.22
870.19	6138.38
870.51	6097.71
870.83	6126.86
871.15	6105.62
871.469	6100.87
871.789	6143.58
872.109	6114.88
872.428	6052.28
872.748	5993.08
873.067	6040.08
873.386	6059.97
873.706	6044.83
874.025	5918.5
874.344	6027.88
874.663	6022.23
874.982	5947.43
875.301	5992.4
875.62	5976.58
875.939	5960.08
876.258	5940.65
876.577	5952.85
876.896	5945.17
877.214	5887.32
877.533	5909.92
877.852	5947.43
878.17	5965.28
878.489	5924.38
878.807	5939.29
879.125	5929.12
879.444	5901.55
879.762	5861.55
880.08	5912.4
880.398	5838.05
880.716	5838.28
881.034	5781.56
881.352	5777.04
881.67	5754.89
881.988	5758.96
882.306	5716.7
882.624	5761.22
882.941	5773.42
883.259	5681.45
883.577	5738.39
883.894	5699.75
884.212	5770.26
884.529	5706.08
884.846	5661.33
885.164	5662.92
885.481	5668.11
885.798	5636.93
886.115	5631.5
886.432	5615.46
886.75	5568.68
887.067	5623.37
887.383	5591.05
887.7	5550.38
888.017	5556.25
888.334	5518.06
888.651	5569.81
888.967	5508.12
889.284	5486.2
889.6	5513.09
889.917	5430.83
890.233	5420.89
890.55	5394.45
890.866	5453.88
891.182	5399.87
891.498	5430.61
891.815	5366.65
892.131	5323.04
892.447	5378.4
892.763	5377.95
893.079	5294.11
893.395	5321.68
893.71	5265.86
894.026	5251.4
894.342	5254.57
894.657	5231.74
894.973	5204.17
895.289	5208.69
895.604	5182.7
895.92	5163.95
896.235	5130.5
896.55	5097.06
896.865	5137.96
897.181	5046.89
897.496	5041.01
897.811	5077.85
898.126	5064.51
898.441	5038.53
898.756	5018.19
899.071	4987.91
899.386	4975.48
899.7	4954.91
900.015	4939.55
900.33	4916.72
900.644	4909.26
900.959	4908.13
901.273	4858.87
901.588	4805.09
901.902	4815.48
902.216	4819.55
902.531	4793.79
902.845	4803.05
903.159	4767.35
903.473	4767.12
903.787	4732.77
904.101	4741.58
904.415	4740.23
904.729	4657.07
905.042	4671.98
905.356	4655.03
905.67	4604.19
905.984	4641.93
906.297	4631.08
906.611	4587.92
906.924	4608.25
907.237	4618.65
907.551	4584.3
907.864	4538.88
908.177	4542.27
908.491	4552.89
908.804	4478.99
909.117	4448.71
909.43	4426.56
909.743	4412.33
910.056	4381.14
910.368	4366.45
910.681	4364.42
910.994	4382.72
911.307	4288.04
911.619	4321.03
911.932	4313.57
912.244	4258.21
912.557	4262.5
912.869	4255.04
913.181	4227.7
913.494	4234.93
913.806	4182.73
914.118	4175.05
914.43	4143.18
914.742	4150.64
915.054	4129.62
915.366	4126.69
915.678	4078.32
915.99	4148.61
916.302	4101.38
916.613	4057.53
916.925	4034.03
917.236	4050.98
917.548	4004.43
917.859	3984.32
918.171	3979.8
918.482	3977.76
918.794	3943.41
919.105	3955.16
919.416	3893.02
919.727	3915.17
920.038	3927.37
920.349	3909.97
920.66	3869.74
920.971	3844.66
921.282	3813.25
921.593	3804.66
921.903	3772.8
922.214	3776.86
922.525	3753.14
922.835	3768.95
923.146	3724.66
923.456	3712.46
923.767	3711.33
924.077	3687.37
924.387	3683.76
924.697	3659.58
925.008	3629.98
925.318	3665.45
925.628	3626.81
925.938	3604.67
926.248	3578
926.558	3597.43
926.867	3578.9
927.177	3630.88
927.487	3547.72
927.796	3516.76
928.106	3519.92
928.416	3491.45
928.725	3511.33
929.034	3496.65
929.344	3458.45
929.653	3462.75
929.962	3415.29
930.271	3434.95
930.581	3434.27
930.89	3393.6
931.199	3372.81
931.508	3409.42
931.817	3381.62
932.125	3408.51
932.434	3373.71
932.743	3324.22
933.051	3337.1
933.36	3331.9
933.669	3265.92
933.977	3263.66
934.286	3242.41
934.594	3246.26
934.902	3228.63
935.21	3224.56
935.519	3208.52
935.827	3187.95
936.135	3264.56
936.443	3161.74
936.751	3153.83
937.059	3142.98
937.367	3127.62
937.674	3109.99
937.982	3105.7
938.29	3101.85
938.597	3084.45
938.905	3057.11
939.213	3031.35
939.52	3056.2
939.827	3041.29
940.135	2999.94
940.442	3004.23
940.749	3002.65
941.056	2998.35
941.363	2978.24
941.67	2954.74
941.977	2957.45
942.284	2921.29
942.591	2906.15
942.898	2939.37
943.205	2914.06
943.511	2878.81
943.818	2893.05
944.125	2882.42
944.431	2861.86
944.738	2859.83
945.044	2833.39
945.35	2835.42
945.657	2843.56
945.963	2800.39
946.269	2789.32
946.575	2803.56
946.881	2746.38
947.187	2760.62
947.493	2744.12
947.799	2755.42
948.105	2707.51
948.41	2721.75
948.716	2755.42
949.022	2667.06
949.327	2689.43
949.633	2699.6
949.938	2651.24
950.244	2637.91
950.549	2656.44
950.854	2606.05
951.16	2642.43
951.465	2614.86
951.77	2603.56
952.075	2571.47
952.38	2545.03
952.685	2559.04
952.99	2550.91
953.294	2553.85
953.599	2549.33
953.904	2534.41
954.209	2527.18
954.513	2523.34
954.818	2502.32
955.122	2517.69
955.426	2502.55
955.731	2479.27
956.035	2454.86
956.339	2474.3
956.643	2437.92
956.948	2441.08
957.252	2434.98
957.556	2417.58
957.86	2452.38
958.163	2423.91
958.467	2375.32
958.771	2367.41
959.075	2354.08
959.378	2365.38
959.682	2331.03
959.985	2370.8
960.289	2346.85
960.592	2343.68
960.896	2334.42
961.199	2291.71
961.502	2271.14
961.805	2266.62
962.108	2258.49
962.411	2310.46
962.714	2262.1
963.017	2228.43
963.32	2254.64
963.623	2241.99
963.926	2220.07
964.228	2201.54
964.531	2205.61
964.833	2241.09
965.136	2201.76
965.438	2169
965.741	2198.15
966.043	2180.3
966.345	2151.14
966.648	2161.31
966.95	2159.51
967.252	2107.08
967.554	2127.19
967.856	2102.56
968.158	2119.05
968.46	2101.65
968.761	2094.65
969.063	2087.64
969.365	2070.02
969.666	2061.2
969.968	2062.56
970.269	2082.9
970.571	2044.03
970.872	2022.33
971.174	2025.5
971.475	2001.09
971.776	2044.93
972.077	1952.96
972.378	1975.56
972.679	1994.76
972.98	1976.69
973.281	1945.05
973.582	1984.59
973.883	1940.08
974.183	1945.05
974.484	1922.68
974.785	1903.01
975.085	1950.02
975.386	1921.09
975.686	1916.57
975.986	1896.01
976.287	1893.3
976.587	1885.39
976.887	1888.1
977.187	1880.64
977.487	1858.04
977.787	1844.49
978.087	1828.21
978.387	1849.01
978.687	1826.18
978.987	1818.05
979.286	1815.11
979.586	1807.65
979.885	1803.58
980.185	1809.46
980.484	1777.14
980.784	1797.93
981.083	1759.52
981.382	1759.52
981.682	1755.9
981.981	1757.03
982.28	1752.28
982.579	1752.96
982.878	1755.22
983.177	1745.5
983.475	1690.59
983.774	1709.8
984.073	1726.3
984.372	1711.83
984.67	1694.88
984.969	1671.38
985.267	1669.35
985.566	1660.31
985.864	1656.47
986.162	1645.17
986.461	1628.45
986.759	1629.58
987.057	1621.89
987.355	1601.1
987.653	1610.59
987.951	1624.38
988.249	1603.59
988.547	1587.09
988.844	1570.14
989.142	1583.48
989.44	1559.75
989.737	1566.98
990.035	1560.65
990.332	1557.26
990.63	1559.97
990.927	1533.53
991.224	1523.14
991.521	1534.66
991.819	1493.31
992.116	1516.58
992.413	1517.71
992.71	1507.09
993.006	1513.87
993.303	1520.2
993.6	1502.57
993.897	1508
994.193	1473.87
994.49	1470.94
994.787	1445.63
995.083	1452.63
995.379	1439.52
995.676	1428.9
995.972	1441.56
996.268	1425.51
996.565	1418.96
996.861	1392.75
997.157	1376.93
997.453	1425.51
997.749	1388.23
998.044	1398.4
998.34	1401.56
998.636	1374.22
998.932	1359.75
999.227	1364.72
999.523	1365.4
999.818	1331.28
1000.114	1360.43
1000.409	1358.62
1000.704	1329.47
1001	1331.05
1001.295	1305.29
1001.59	1308.91
1001.885	1320.88
1002.18	1312.07
1002.475	1311.39
1002.77	1289.92
1003.065	1303.93
1003.359	1269.13
1003.654	1280.66
1003.949	1251.28
1004.243	1245.18
1004.538	1237.27
1004.832	1245.63
1005.127	1253.31
1005.421	1251.73
1005.715	1236.82
1006.009	1234.56
1006.304	1218.51
1006.598	1194.78
1006.892	1201.34
1007.186	1176.03
1007.48	1176.03
1007.773	1181
1008.067	1187.1
1008.361	1169.47
1008.655	1158.85
1008.948	1147.78
1009.242	1151.85
1009.535	1155.69
1009.829	1135.13
1010.122	1143.26
1010.415	1140.1
1010.708	1104.17
1011.001	1129.93
1011.295	1100.32
1011.588	1107.78
1011.881	1108.23
1012.173	1095.8
1012.466	1100.78
1012.759	1085.41
1013.052	1109.59
1013.344	1082.7
1013.637	1068.46
1013.93	1084.05
1014.222	1046.31
1014.514	1053.77
1014.807	1051.06
1015.099	1045.41
1015.391	1044.96
1015.683	1057.61
1015.976	1033.66
1016.268	981.68
1016.56	1034.11
1016.851	991.85
1017.143	1011.74
1017.435	1002.25
1017.727	997.95
1018.018	1002.02
1018.31	995.24
1018.602	985.3
1018.893	986.88
1019.185	983.27
1019.476	972.87
1019.767	944.17
1020.058	952.08
1020.35	937.62
1020.641	968.8
1020.932	951.18
1021.223	923.38
1021.514	955.47
1021.804	910.95
1022.095	904.17
1022.386	903.04
1022.677	909.37
1022.967	889.93
1023.258	903.27
1023.548	889.26
1023.839	889.26
1024.129	884.74
1024.419	878.86
1024.709	872.08
1025	864.62
1025.29	869.82
1025.58	856.26
1025.87	851.29
1026.16	840.9
1026.449	851.97
1026.739	871.4
1027.029	853.55
1027.319	825.3
1027.608	835.92
1027.898	822.82
1028.187	844.74
1028.477	812.87
1028.766	818.07
1029.055	778.52
1029.344	797.96
1029.634	809.26
1029.923	792.54
1030.212	797.96
1030.501	794.12
1030.79	787.34
1031.078	781.01
1031.367	784.4
1031.656	747.57
1031.945	745.31
1032.233	758.19
1032.522	772.88
1032.81	748.7
1033.099	753.67
1033.387	766.55
1033.675	756.15
1033.963	714.8
1034.251	736.72
1034.54	730.84
1034.828	725.42
1035.116	716.15
1035.403	720.67
1035.691	710.96
1035.979	713.89
1036.267	710.5
1036.554	701.46
1036.842	715.7
1037.129	697.17
1037.417	667.34
1037.704	681.8
1037.992	674.35
1038.279	676.61
1038.566	678.87
1038.853	678.87
1039.14	678.87
