Data from blue_clamp_base_FLMS001491_00086.txt Node
Date: Wed Feb 08 15:16:38 GMT 2017
User: dcchb
Spectrometer: FLMS00149
Trigger mode: 0
Integration Time (sec): 2.000000E-2
Scans to average: 10
Electric dark correction enabled: true
Nonlinearity correction enabled: false
Boxcar width: 0
XAxis mode: Wavelengths
Number of Pixels in Spectrum: 2048
>>>>>Begin Spectral Data<<<<<
341.393	-13.63
341.776	-13.63
342.16	-13.63
342.543	-53.63
342.927	-75.1
343.31	-59.05
343.693	-60.63
344.077	-63.57
344.46	-70.8
344.843	-66.28
345.226	-41.2
345.61	-39.84
345.993	-33.29
346.376	-16.57
346.759	17.56
347.142	34.28
347.525	58.46
347.908	56.2
348.291	84.45
348.674	107.27
349.057	93.03
349.44	129.87
349.823	139.81
350.206	169.64
350.588	208.74
350.971	222.07
351.354	233.82
351.737	250.54
352.119	280.37
352.502	278.11
352.884	296.87
353.267	293.93
353.65	287.61
354.032	305.23
354.414	336.64
354.797	330.09
355.179	336.64
355.562	359.02
355.944	338.9
356.326	330.54
356.709	347.94
357.091	352.01
357.473	349.98
357.855	351.78
358.238	375.96
358.62	368.51
359.002	362.18
359.384	333.93
359.766	364.21
360.148	343.65
360.53	364.21
360.912	360.15
361.294	341.39
361.676	328.51
362.057	352.01
362.439	370.77
362.821	349.98
363.203	333.03
363.584	346.81
363.966	374.83
364.348	337.77
364.729	354.5
365.111	344.1
365.493	333.48
365.874	320.82
366.256	358.11
366.637	363.31
367.019	335.74
367.4	340.71
367.781	339.81
368.163	329.19
368.544	343.88
368.925	328.51
369.306	354.27
369.688	345.68
370.069	338
370.45	332.12
370.831	347.94
371.212	342.29
371.593	373.25
371.974	343.88
372.355	333.93
372.736	352.69
373.117	345.23
373.498	331.67
373.879	343.65
374.26	362.18
374.641	354.27
375.021	340.26
375.402	352.46
375.783	357.21
376.163	383.65
376.544	370.32
376.925	344.78
377.305	370.54
377.686	362.63
378.066	397.66
378.447	368.73
378.827	368.73
379.208	379.13
379.588	373.48
379.968	372.35
380.349	378.22
380.729	382.52
381.109	386.13
381.489	408.51
381.87	399.92
382.25	391.78
382.63	406.02
383.01	409.41
383.39	395.17
383.77	389.3
384.15	398.34
384.53	415.74
384.91	424.55
385.29	427.71
385.67	414.83
386.049	389.98
386.429	409.41
386.809	428.39
387.189	437.21
387.568	457.77
387.948	449.86
388.328	439.24
388.707	455.96
389.087	464.55
389.466	452.12
389.846	454.61
390.225	456.64
390.605	470.65
390.984	467.49
391.363	467.71
391.743	487.37
392.122	498.45
392.501	470.65
392.881	508.62
393.26	473.59
393.639	476.3
394.018	502.06
394.397	513.14
394.776	523.53
395.155	539.12
395.534	529.86
395.913	525.57
396.292	523.98
396.671	547.03
397.05	535.06
397.429	532.57
397.808	548.84
398.186	563.53
398.565	559.24
398.944	539.58
399.323	558.78
399.701	578.22
400.08	591.55
400.458	599.91
400.837	607.15
401.215	624.55
401.594	602.85
401.972	591.78
402.351	629.29
402.729	621.61
403.107	620.7
403.486	629.52
403.864	668.39
404.242	655.05
404.62	653.7
404.999	671.55
405.377	697.31
405.755	684.21
406.133	707.26
406.511	689.63
406.889	720.36
407.267	744.09
407.645	724.2
408.023	734.83
408.401	757.42
408.779	722.17
409.156	761.04
409.534	759.23
409.912	787.93
410.29	832
410.667	805.56
411.045	830.42
411.422	836.07
411.8	848.95
412.178	851.66
412.555	854.6
412.933	864.77
413.31	880.81
413.687	886.01
414.065	915.84
414.442	900.7
414.819	926.46
415.197	927.36
415.574	944.31
415.951	962.39
416.328	948.61
416.705	961.49
417.082	978.66
417.46	983.86
417.837	1006.46
418.214	992.67
418.591	1024.54
418.967	1036.96
419.344	1026.34
419.721	1043.52
420.098	1058.43
420.475	1043.52
420.852	1090.07
421.228	1079.68
421.605	1064.99
421.982	1097.08
422.358	1111.31
422.735	1125.78
423.111	1122.39
423.488	1147.24
423.864	1196.96
424.241	1176.62
424.617	1209.84
424.994	1217.98
425.37	1223.85
425.746	1242.83
426.123	1243.51
426.499	1236.51
426.875	1261.37
427.251	1271.99
427.627	1308.6
428.003	1326.9
428.379	1321.7
428.756	1360.35
429.132	1396.5
429.507	1387.46
429.883	1411.64
430.259	1453.68
430.635	1466.11
431.011	1490.74
431.387	1502.71
431.763	1549.49
432.138	1540.91
432.514	1537.06
432.89	1565.76
433.265	1613.22
433.641	1627.23
434.016	1634.24
434.392	1630.39
434.767	1708.36
435.143	1671.75
435.518	1691.64
435.894	1718.53
436.269	1737.28
436.644	1756.72
437.02	1799.43
437.395	1778.87
437.77	1818.41
438.145	1879.43
438.52	1855.47
438.895	1888.69
439.271	1894.12
439.646	1956.71
440.021	1989.26
440.395	1963.27
440.77	1943.38
441.145	2017.5
441.52	2020.22
441.895	2032.19
442.27	2084.62
442.645	2067.22
443.019	2061.12
443.394	2090.72
443.769	2123.49
444.143	2117.16
444.518	2169.82
444.892	2183.37
445.267	2169.82
445.641	2225.41
446.016	2200.32
446.39	2233.99
446.764	2232.87
447.139	2269.02
447.513	2299.3
447.887	2273.77
448.262	2297.95
448.636	2343.37
449.01	2358.96
449.384	2354.44
449.758	2374.1
450.132	2401.45
450.506	2429.47
450.88	2408.45
451.254	2448.68
451.628	2448.45
452.002	2556.47
452.376	2536.81
452.75	2572.07
453.123	2586.75
453.497	2631.5
453.871	2658.84
454.244	2717.37
454.618	2722.12
454.992	2755.79
455.365	2724.38
455.739	2843.92
456.112	2836.24
456.486	2852.28
456.859	2913.07
457.232	2923.92
457.606	2963.02
457.979	2981.55
458.352	3026.29
458.725	3080.07
459.099	3072.84
459.472	3187.87
459.845	3184.93
460.218	3186.06
460.591	3206.17
460.964	3211.37
461.337	3305.15
461.71	3374.53
462.083	3416.79
462.456	3442.1
462.829	3411.59
463.201	3471.7
463.574	3512.38
463.947	3563
464.32	3645.03
464.692	3642.32
465.065	3631.92
465.438	3697.01
465.81	3778.81
466.183	3784.91
466.555	3887.96
466.928	3910.79
467.3	3901.3
467.672	3981.97
468.045	4000.28
468.417	4053.83
468.789	4079.14
469.161	4130.67
469.534	4217.9
469.906	4267.61
470.278	4309.19
470.65	4353.71
471.022	4406.59
471.394	4451.56
471.766	4511.22
472.138	4638
472.51	4680.26
472.882	4741.73
473.253	4695.63
473.625	4824.21
473.997	4941.72
474.369	4949.18
474.74	5008.39
475.112	5103.07
475.484	5171.54
475.855	5268.49
476.227	5262.62
476.598	5415.15
476.97	5473.23
477.341	5568.37
477.713	5656.28
478.084	5661.7
478.455	5793.22
478.827	5858.08
479.198	6002.26
479.569	5971.3
479.94	6168.58
480.311	6142.59
480.682	6278.63
481.053	6402.92
481.424	6459.19
481.795	6531.06
482.166	6630.49
482.537	6719.75
482.908	6826.19
483.279	6824.16
483.65	7003.14
484.021	7058.95
484.391	7211.94
484.762	7219.63
485.133	7196.12
485.503	7350.92
485.874	7485.16
486.244	7524.25
486.615	7682.67
486.985	7717.47
487.356	7869.33
487.726	7909.33
488.097	8033.62
488.467	8044.24
488.837	8126.72
489.207	8197.45
489.578	8333.95
489.948	8357.45
490.318	8537.33
490.688	8531.46
491.058	8597.67
491.428	8668.85
491.798	8782.52
492.168	8905.91
492.538	8951.11
492.908	9031.1
493.278	9069.3
493.648	9108.16
494.017	9236.52
494.387	9270.19
494.757	9333.02
495.126	9402.62
495.496	9339.57
495.866	9505.44
496.235	9558.77
496.605	9658.43
496.974	9651.65
497.344	9704.31
497.713	9753.8
498.082	9832.67
498.452	9883.51
498.821	9859.56
499.19	9860.24
499.559	9974.36
499.928	10014.36
500.298	10040.34
500.667	10210.96
501.036	10108.59
501.405	10251.19
501.774	10193.33
502.143	10322.6
502.512	10216.38
502.88	10328.92
503.249	10398.98
503.618	10398.53
503.987	10485.76
504.356	10558.97
504.724	10519.2
505.093	10566.66
505.462	10617.96
505.83	10630.61
506.199	10684.62
506.567	10826.99
506.936	10900.43
507.304	10909.02
507.672	10922.13
508.041	10939.08
508.409	11048.9
508.777	11039.87
509.145	11191.27
509.514	11188.11
509.882	11233.98
510.25	11191.27
510.618	11347.88
510.986	11321.21
511.354	11421.55
511.722	11513.3
512.09	11597.36
512.458	11521.89
512.826	11652.5
513.193	11616.35
513.561	11731.82
513.929	11767.98
514.297	11869.45
514.664	11946.06
515.032	11912.38
515.4	12042.78
515.767	12066.28
516.135	12154.41
516.502	12005.72
516.869	12216.78
517.237	12243.22
517.604	12174.98
517.972	12365.93
518.339	12425.37
518.706	12530
519.073	12527.06
519.44	12547.17
519.808	12638.24
520.175	12673.49
520.542	12733.15
520.909	12800.04
521.276	12782.87
521.643	12901.96
522.009	12954.39
522.376	13012.02
522.743	13138.12
523.11	13179.47
523.477	13307.38
523.843	13388.05
524.21	13536.97
524.577	13561.61
524.943	13561.61
525.31	13625.11
525.676	13803.18
526.043	13819.23
526.409	13840.47
526.776	13966.34
527.142	13997.08
527.508	14066.23
527.874	14217.63
528.241	14270.74
528.607	14187.8
528.973	14383.28
529.339	14390.96
529.705	14501.02
530.071	14587.34
530.437	14675.25
530.803	14750.05
531.169	14749.37
531.535	14769.94
531.901	14769.71
532.267	14797.73
532.632	15004.96
532.998	15022.81
533.364	15143.49
533.73	15162.69
534.095	15262.35
534.461	15234.11
534.826	15411.95
535.192	15302.8
535.557	15423.03
535.923	15442.24
536.288	15589.35
536.653	15646.98
537.019	15528.79
537.384	15693.08
537.749	15760.42
538.114	15799.97
538.479	15792.51
538.845	15917.25
539.21	15842.9
539.575	15906.63
539.94	16033.18
540.305	16049.22
540.67	16003.58
541.034	16059.62
541.399	16254.87
541.764	16157.7
542.129	16254.42
542.494	16326.51
542.858	16317.92
543.223	16385.71
543.587	16484.92
543.952	16463.23
544.316	16501.64
544.681	16446.73
545.045	16571.47
545.41	16669.55
545.774	16672.03
546.138	16714.52
546.503	16710.45
546.867	16829.77
547.231	16894.4
547.595	16844.46
547.959	16821.86
548.324	16924.91
548.688	17015.75
549.052	17102.08
549.416	17062.08
549.779	17154.28
550.143	17190.89
550.507	17365.57
550.871	17338
551.235	17342.52
551.599	17399.02
551.962	17400.83
552.326	17530.09
552.689	17500.71
553.053	17577.55
553.417	17521.95
553.78	17819.35
554.143	17761.04
554.507	17833.36
554.87	17855.73
555.234	18000.81
555.597	17896.18
555.96	17968.95
556.323	17983.41
556.686	18021.6
557.05	18190.64
557.413	18179.56
557.776	18171.43
558.139	18283.06
558.502	18382.95
558.865	18395.6
559.228	18556.96
559.59	18486.67
559.953	18506.56
560.316	18740.23
560.679	18720.79
561.041	18863.16
561.404	18902.48
561.767	19042.14
562.129	18957.62
562.492	19151.97
562.854	19120.1
563.217	19110.61
563.579	19219.76
563.941	19248.01
564.304	19434.67
564.666	19516.93
565.028	19462.69
565.39	19571.84
565.753	19742.46
566.115	19737.94
566.477	19840.76
566.839	19798.28
567.201	19961.44
567.563	20025.84
567.925	20095.9
568.287	20268.1
568.648	20186.07
569.01	20361.43
569.372	20463.57
569.734	20355.1
570.095	20469.9
570.457	20521.42
570.819	20569.11
571.18	20666.28
571.542	20704.02
571.903	20714.41
572.265	20801.64
572.626	20824.01
572.987	20840.06
573.349	21027.4
573.71	21057.45
574.071	21087.74
574.432	21183.55
574.794	21320.27
575.155	21284.12
575.516	21322.98
575.877	21362.31
576.238	21424.22
576.599	21554.84
576.96	21609.08
577.32	21531.34
577.681	21715.97
578.042	21714.16
578.403	21736.31
578.763	21800.71
579.124	21821.5
579.485	21903.53
579.845	21956.64
580.206	21884.33
580.566	21890.2
580.927	21897.66
581.287	22031.21
581.648	21936.3
582.008	22131.78
582.368	22009.97
582.728	22136.97
583.089	22155.51
583.449	22126.58
583.809	22212.68
584.169	22122.74
584.529	22026.92
584.889	22289.96
585.249	22223.07
585.609	22148.73
585.969	22161.38
586.329	22186.24
586.688	22221.04
587.048	22164.54
587.408	22246.58
587.768	22205.9
588.127	22209.97
588.487	22195.28
588.846	22384.2
589.206	22228.5
589.565	22208.61
589.925	22356.4
590.284	22285.45
590.643	22351.43
591.003	22325.44
591.362	22432.33
591.721	22468.72
592.08	22477.3
592.44	22502.16
592.799	22538.09
593.158	22434.14
593.517	22499.9
593.876	22495.84
594.235	22492.67
594.593	22519.56
594.952	22523.18
595.311	22437.98
595.67	22574.03
596.029	22718.2
596.387	22699.22
596.746	22686.11
597.104	22557.08
597.463	22524.76
597.822	22792.78
598.18	22653.35
598.538	22580.13
598.897	22732.21
599.255	22550.75
599.613	22871.42
599.972	22727.47
600.33	22795.49
600.688	22700.58
601.046	22775.6
601.404	22881.59
601.762	22811.76
602.12	22848.37
602.478	22813.57
602.836	22890.85
603.194	22698.09
603.552	22820.35
603.91	22743.96
604.268	22833.68
604.625	22862.15
604.983	22866.9
605.341	22887.46
605.698	22998.65
606.056	23107.57
606.413	23049.04
606.771	23070.06
607.128	23139.66
607.485	22894.47
607.843	22939.21
608.2	23108.7
608.557	23126.1
608.914	23115.93
609.272	23260.56
609.629	23196.61
609.986	23338.07
610.343	23208.13
610.7	23446.54
611.057	23273.67
611.414	23206.55
611.771	23361.58
612.127	23456.04
612.484	23369.94
612.841	23515.7
613.198	23362.93
613.554	23266.21
613.911	23524.96
614.267	23423.72
614.624	23414.91
614.98	23449.26
615.337	23613.32
615.693	23507.33
616.05	23555.69
616.406	23721.57
616.762	23527.45
617.118	23546.43
617.475	23658.97
617.831	23639.76
618.187	23654.45
618.543	23739.87
618.899	23725.18
619.255	23813.31
619.611	23746.2
619.967	23842.69
620.323	23949.36
620.678	23879.98
621.034	23900.32
621.39	23856.25
621.746	23837.72
622.101	24110.26
622.457	23894.89
622.812	23966.08
623.168	24038.39
623.523	24005.85
623.879	24068.68
624.234	23887.89
624.589	23860.77
624.945	24066.42
625.3	24142.35
625.655	24131.05
626.01	24061.22
626.365	24042.24
626.72	24024.61
627.075	24103.93
627.43	24089.24
627.785	24016.93
628.14	24028.68
628.495	24082.91
628.85	24118.84
629.205	24068.9
629.559	24286.97
629.914	24024.83
630.269	24066.87
630.623	24048.11
630.978	24104.15
631.332	24162.68
631.687	24254.66
632.041	24154.77
632.396	24326.52
632.75	24106.41
633.104	24209.46
633.459	23998.85
633.813	24053.31
634.167	24040.65
634.521	24040.65
634.875	24051.95
635.229	23988
635.583	23928.79
635.937	24020.31
636.291	24020.54
636.645	23955.68
636.999	23955.91
637.352	23924.5
637.706	23748.91
638.06	23938.96
638.413	23928.57
638.767	23898.74
639.121	23967.66
639.474	23856.03
639.828	23844.73
640.181	24004.5
640.534	23997.04
640.888	23920.66
641.241	23819.87
641.594	23853.99
641.947	24082.23
642.301	23959.3
642.654	23963.14
643.007	23892.86
643.36	23905.06
643.713	23889.92
644.066	23983.03
644.419	23909.58
644.771	23715.24
645.124	23468.01
645.477	23549.37
645.83	23361.8
646.182	23275.7
646.535	23250.17
646.888	23378.52
647.24	23257.85
647.593	23413.33
647.945	23242.03
648.298	23209.71
648.65	23240.9
649.002	23175.59
649.355	23355.47
649.707	23345.08
650.059	23470.27
650.411	23692.64
650.763	23798.17
651.115	24084.72
651.467	23951.39
651.819	23894.67
652.171	23969.92
652.523	23829.59
652.875	23887.89
653.227	23783.71
653.578	23962.69
653.93	23851.73
654.282	23886.76
654.633	23793.65
654.985	23887.44
655.337	23914.78
655.688	23904.84
656.039	23992.29
656.391	23763.15
656.742	23936.93
657.094	23912.29
657.445	23990.49
657.796	23887.21
658.147	23929.24
658.498	24006.76
658.849	24036.13
659.2	23997.26
659.551	23881.11
659.902	24051.27
660.253	23957.49
660.604	23967.21
660.955	23908.91
661.306	23984.16
661.656	23925.63
662.007	23907.55
662.358	23927.89
662.708	23933.31
663.059	23779.64
663.409	23751.17
663.76	23973.54
664.11	23931.73
664.461	23880.88
664.811	23944.16
665.161	23870.94
665.511	23873.2
665.862	23841.34
666.212	23899.87
666.562	23879.75
666.912	23814.22
667.262	23850.6
667.612	23702.13
667.962	23795.46
668.312	23869.36
668.662	23850.15
669.011	23711.4
669.361	23707.33
669.711	23622.81
670.06	23593.66
670.41	23571.74
670.76	23514.79
671.109	23686.09
671.459	23663.49
671.808	23544.4
672.157	23621
672.507	23409.94
672.856	23425.53
673.205	23444.74
673.554	23437.28
673.904	23512.53
674.253	23471.63
674.602	23406.77
674.951	23104.41
675.3	22881.59
675.649	23240.22
675.998	23231.63
676.346	23213.56
676.695	23346.66
677.044	22943.73
677.393	23065.99
677.741	23085.65
678.09	23011.3
678.438	22965.65
678.787	23088.36
679.135	22945.31
679.484	22804.53
679.832	22922.72
680.181	22710.74
680.529	22748.26
680.877	22743.29
681.225	22694.7
681.573	22819.44
681.922	22658.99
682.27	22579.9
682.618	22551.2
682.966	22494.93
683.314	22542.84
683.661	22427.59
684.009	22311.89
684.357	22239.12
684.705	22263.75
685.053	22242.28
685.4	22287.48
685.748	22213.81
686.095	22164.32
686.443	22046.81
686.79	22009.75
687.138	22084.09
687.485	22075.06
687.832	21982.18
688.18	22039.35
688.527	21798.23
688.874	21900.14
689.221	21735.63
689.568	21758.68
689.915	21649.53
690.262	21752.35
690.609	21636.42
690.956	21551.91
691.303	21534.5
691.65	21483.66
691.997	21443.89
692.344	21341.52
692.69	21449.76
693.037	21317.33
693.383	21155.31
693.73	21299.93
694.077	21224.91
694.423	21139.94
694.769	21098.36
695.116	21124.57
695.462	21057.45
695.808	20919.15
696.155	21200.95
696.501	20868.76
696.847	20927.29
697.193	20792.38
697.539	20929.32
697.885	20709.89
698.231	20739.5
698.577	20758.71
698.923	20671.93
699.269	20654.75
699.614	20449.56
699.96	20393.52
700.306	20467.19
700.651	20380.86
700.997	20346.51
701.342	20337.25
701.688	20256.35
702.033	20243.46
702.379	20275.55
702.724	20127.76
703.069	20192.62
703.415	20071.94
703.76	20109.68
704.105	20000.99
704.45	20045.96
704.795	19857.49
705.14	19838.5
705.485	19889.58
705.83	19704.27
706.175	19884.38
706.52	19799.63
706.865	19695
707.209	19639.19
707.554	19619.3
707.899	19563.71
708.243	19609.36
708.588	19564.16
708.932	19487.55
709.277	19520.09
709.621	19495.01
709.966	19368.69
710.31	19477.16
710.654	19191.06
710.998	19275.13
711.342	19401.91
711.687	19218.86
712.031	19214.11
712.375	19143.38
712.719	19205.07
713.063	19194.9
713.407	19241.91
713.75	19145.87
714.094	19162.36
714.438	19099.77
714.782	19163.04
715.125	19012.31
715.469	19022.03
715.812	19008.7
716.156	18860.45
716.499	18894.57
716.843	18880.11
717.186	18889.83
717.53	18983.84
717.873	19038.07
718.216	18814.12
718.559	18763.73
718.902	18664.52
719.246	18869.72
719.589	18773.67
719.932	18621.81
720.275	18667.24
720.617	18631.08
720.96	18610.97
721.303	18628.59
721.646	18671.53
721.989	18409.16
722.331	18590.18
722.674	18510.18
723.016	18605.09
723.359	18613.9
723.701	18474.02
724.044	18493
724.386	18377.98
724.729	18432.89
725.071	18496.39
725.413	18464.75
725.755	18476.96
726.097	18362.38
726.439	18235.61
726.782	18287.36
727.124	18432.89
727.465	18385.21
727.807	18320.8
728.149	18239.22
728.491	18170.75
728.833	18258.66
729.175	18279.9
729.516	18295.72
729.858	18139.11
730.199	18276.96
730.541	18199.45
730.882	18175.5
731.224	18288.71
731.565	18237.64
731.906	18224.53
732.248	18220.92
732.589	18079.68
732.93	18246.68
733.271	18210.75
733.612	18228.38
733.953	18177.08
734.294	18181.37
734.635	18139.11
734.976	18165.78
735.317	18161.26
735.658	18056.18
735.999	18103.63
736.339	18083.75
736.68	18183.41
737.021	18148.83
737.361	18108.15
737.702	18164.65
738.042	18129.17
738.383	18134.37
738.723	18173.91
739.063	18250.07
739.404	18186.8
739.744	18231.31
740.084	18165.1
740.424	18159.9
740.764	18148.83
741.104	18270.64
741.444	18119.23
741.784	18247.13
742.124	18256.85
742.464	18297.75
742.804	18277.64
743.143	18310.18
743.483	18245.1
743.823	18327.81
744.162	18380.24
744.502	18405.32
744.841	18376.4
745.181	18411.87
745.52	18438.99
745.86	18426.11
746.199	18435.83
746.538	18463.85
746.877	18598.76
747.216	18540.46
747.556	18505.21
747.895	18557.86
748.234	18523.96
748.573	18580.01
748.911	18527.8
749.25	18588.59
749.589	18511.31
749.928	18596.5
750.267	18692.09
750.605	18657.52
750.944	18693
751.283	18642.15
751.621	18676.05
751.96	18689.38
752.298	18670.85
752.636	18718.99
752.975	18679.89
753.313	18653.45
753.651	18865.42
753.989	18664.75
754.327	18765.99
754.666	18751.3
755.004	18805.99
755.342	18903.16
755.679	18893.22
756.017	18827.68
756.355	18833.56
756.693	18812.54
757.031	18870.85
757.368	18824.29
757.706	18883.95
758.044	18844.86
758.381	18872.43
758.719	18806.44
759.056	18888.92
759.394	18919.21
759.731	18846.67
760.068	18883.5
760.405	18777.29
760.743	18792.88
761.08	18831.07
761.417	18856.16
761.754	18792.2
762.091	18842.6
762.428	18897.74
762.765	18755.37
763.102	18799.44
763.438	18756.95
763.775	18790.85
764.112	18846.67
764.449	18847.12
764.785	18782.94
765.122	18641.7
765.458	18719.21
765.795	18729.15
766.131	18734.13
766.467	18734.58
766.804	18683.96
767.14	18678.76
767.476	18621.81
767.812	18653.45
768.148	18673.79
768.485	18601.02
768.821	18523.96
769.157	18542.49
769.492	18575.49
769.828	18596.05
770.164	18573.23
770.5	18472.89
770.836	18503.17
771.171	18376.17
771.507	18470.63
771.842	18296.17
772.178	18439.44
772.513	18441.7
772.849	18471.31
773.184	18290.07
773.519	18354.48
773.855	18258.43
774.19	18278.32
774.525	18233.8
774.86	18294.36
775.195	18208.49
775.53	18217.3
775.865	18239.45
776.2	18006.91
776.535	17871.78
776.87	17959.46
777.205	17875.84
777.539	17895.5
777.874	18023.41
778.209	17829.29
778.543	17909.06
778.878	17858.44
779.212	17876.52
779.547	17662.29
779.881	17819.57
780.215	17741.16
780.55	17694.61
780.884	17664.55
781.218	17634.72
781.552	17613.93
781.886	17537.1
782.22	17456.42
782.554	17498.45
782.888	17350.66
783.222	17410.77
783.556	17378.46
783.889	17394.95
784.223	17265.69
784.557	17282.19
784.89	17262.07
785.224	17262.98
785.557	17156.54
785.891	17206.26
786.224	17064.34
786.558	16946.6
786.891	17078.35
787.224	17074.28
787.557	17001.74
787.891	16953.38
788.224	16974.4
788.557	16862.08
788.89	16893.72
789.223	16900.73
789.556	16685.37
789.888	16915.87
790.221	16806.04
790.554	16557.69
790.887	16731.01
791.219	16690.56
791.552	16628.19
791.884	16639.49
792.217	16550
792.549	16604.69
792.882	16428.42
793.214	16397.92
793.546	16406.96
793.879	16340.97
794.211	16312.72
794.543	16314.98
794.875	16322.66
795.207	16292.61
795.539	16239.95
795.871	16288.31
796.203	15980.53
796.535	16056
796.867	16130.13
797.198	15992.28
797.53	16039.96
797.862	15933.3
798.193	15905.5
798.525	15797.25
798.856	15919.51
799.188	15810.81
799.519	15801.55
799.85	15655.11
800.182	15648.78
800.513	15780.08
800.844	15616.02
801.175	15599.29
801.506	15647.2
801.837	15576.69
802.168	15577.15
802.499	15534.21
802.83	15502.8
803.161	15403.82
803.491	15477.71
803.822	15356.36
804.153	15324.27
804.483	15219.42
804.814	15217.83
805.145	15195.69
805.475	15199.53
805.805	15201.34
806.136	15116.59
806.466	15096.26
806.796	15164.05
807.126	15072.98
807.457	15070.04
807.787	15037.95
808.117	14934.45
808.447	14953.89
808.777	14945.98
809.107	14891.74
809.436	14909.82
809.766	14845.19
810.096	14792.08
810.426	14692.2
810.755	14791.86
811.085	14730.39
811.414	14683.39
811.744	14595.48
812.073	14581.47
812.403	14627.12
812.732	14576.27
813.061	14531.75
813.39	14486.33
813.719	14491.07
814.049	14572.88
814.378	14410.17
814.707	14394.13
815.036	14419.44
815.365	14298.08
815.693	14160.91
816.022	14214.47
816.351	14221.7
816.68	14155.26
817.008	14193.45
817.337	14084.3
817.665	14048.15
817.994	14118.43
818.322	14015.61
818.651	13929.73
818.979	13936.96
819.307	14062.61
819.636	13941.48
819.964	13889.51
820.292	13922.28
820.62	13877.76
820.948	13844.76
821.276	13939.45
821.604	13861.03
821.932	13918.89
822.259	13978.09
822.587	13895.16
822.915	13835.05
823.243	13872.78
823.57	13877.53
823.898	13860.58
824.225	13768.38
824.553	13815.61
824.88	13860.36
825.207	13990.52
825.535	13858.1
825.862	13997.75
826.189	13823.97
826.516	13920.47
826.843	13922.73
827.17	13960.24
827.497	13957.75
827.824	13981.03
828.151	13970.64
828.478	13920.92
828.805	14034.81
829.131	13985.1
829.458	14026.91
829.785	13874.59
830.111	14007.47
830.438	13957.98
830.764	13974.25
831.09	14036.4
831.417	13855.38
831.743	13994.59
832.069	14008.37
832.395	13908.94
832.722	13944.87
833.048	13882.5
833.374	13882.73
833.7	13863.52
834.026	13911.43
834.351	13850.64
834.677	13842.5
835.003	13904.2
835.329	13827.36
835.654	13839.34
835.98	13789.4
836.306	13809.28
836.631	13736.74
836.956	13827.59
837.282	13833.01
837.607	13777.87
837.932	13771.54
838.258	13667.37
838.583	13678.21
838.908	13713.47
839.233	13653.81
839.558	13649.51
839.883	13620.81
840.208	13503.98
840.533	13664.2
840.858	13549.4
841.182	13520.93
841.507	13547.6
841.832	13506.24
842.156	13471.67
842.481	13503.08
842.805	13448.16
843.13	13299.47
843.454	13388.5
843.778	13322.97
844.103	13288.85
844.427	13254.5
844.751	13303.99
845.075	13195.06
845.399	13146.02
845.723	13104.9
846.047	13096.31
846.371	13022.86
846.695	13045.24
847.019	12920.27
847.343	12873.49
847.666	12713.49
847.99	12829.87
848.313	12773.6
848.637	12625.59
848.96	12699.03
849.284	12601.18
849.607	12458.58
849.931	12492.03
850.254	12378.81
850.577	12370.45
850.9	12260.4
851.223	12254.3
851.546	12285.03
851.869	12150.12
852.192	12233.51
852.515	12071.93
852.838	12017.92
853.161	12080.74
853.483	12012.95
853.806	11972.5
854.129	11967.3
854.451	11846.17
854.774	11760.98
855.096	11777.25
855.419	11799.39
855.741	11751.71
856.063	11685.72
856.385	11614.77
856.708	11620.64
857.03	11495.67
857.352	11519.17
857.674	11509.23
857.996	11501.32
858.318	11471.94
858.64	11317.6
858.961	11420.19
859.283	11311.72
859.605	11330.93
859.926	11333.19
860.248	11301.33
860.57	11221.1
860.891	11256.36
861.212	11201.89
861.534	11108.79
861.855	11134.1
862.176	11201.22
862.498	11089.13
862.819	11122.57
863.14	11091.84
863.461	11092.75
863.782	11016.14
864.103	11035.35
864.424	10982.01
864.745	10953.99
865.065	10967.1
865.386	10911.96
865.707	10850.72
866.027	10897.5
866.348	10895.69
866.668	10845.52
866.989	10878.97
867.309	10709.25
867.63	10803.71
867.95	10717.39
868.27	10683.49
868.59	10712.64
868.91	10725.3
869.23	10704.96
869.55	10628.58
869.87	10734.79
870.19	10642.36
870.51	10689.37
870.83	10610.95
871.15	10528.01
871.469	10678.07
871.789	10578.41
872.109	10595.81
872.428	10516.26
872.748	10618.18
873.067	10490.5
873.386	10577.28
873.706	10516.94
874.025	10447.56
874.344	10385.87
874.663	10427.9
874.982	10378.64
875.301	10343.61
875.62	10368.24
875.939	10401.69
876.258	10378.64
876.577	10363.5
876.896	10282.6
877.214	10272.43
877.533	10335.25
877.852	10210.28
878.17	10285.76
878.489	10266.33
878.807	10254.12
879.125	10192.2
879.444	10274.46
879.762	10161.47
880.08	10163.28
880.398	10084.64
880.716	10174.58
881.034	10101.36
881.352	10069.04
881.67	9983.85
881.988	10042.38
882.306	10052.77
882.624	10038.99
882.941	9979.33
883.259	9951.98
883.577	9914.47
883.894	9887.35
884.212	9903.85
884.529	9870.63
884.846	9860.46
885.164	9829.05
885.481	9766.68
885.798	9802.61
886.115	9778.2
886.432	9763.74
886.75	9633.57
887.067	9687.36
887.383	9631.77
887.7	9670.64
888.017	9629.96
888.334	9621.15
888.651	9559
888.967	9559.68
889.284	9549.96
889.6	9457.76
889.917	9402.39
890.233	9454.14
890.55	9416.4
890.866	9406.91
891.182	9322.4
891.498	9333.92
891.815	9284.88
892.131	9233.36
892.447	9199.24
892.763	9225.9
893.079	9251.89
893.395	9161.04
893.71	9113.81
894.026	9086.24
894.342	9056.87
894.657	9030.2
894.973	9047.38
895.289	9024.1
895.604	8951.11
895.92	8898.9
896.235	8881.73
896.55	8833.14
896.865	8888.74
897.181	8827.27
897.496	8784.11
897.811	8741.85
898.126	8729.87
898.441	8742.07
898.756	8712.47
899.071	8612.58
899.386	8629.76
899.7	8598.35
900.015	8519.93
900.33	8488.52
900.644	8499.59
900.959	8451.46
901.273	8458.69
901.588	8373.95
901.902	8357.68
902.216	8389.54
902.531	8292.14
902.845	8304.57
903.159	8234.29
903.473	8244.68
903.787	8187.06
904.101	8141.86
904.415	8179.83
904.729	8103.22
905.042	8029.77
905.356	8084.24
905.67	7924.69
905.984	7989.55
906.297	7964.69
906.611	7917.24
906.924	7942.77
907.237	7869.78
907.551	7818.71
907.864	7778.03
908.177	7791.81
908.491	7756.56
908.804	7685.83
909.117	7682.44
909.43	7588.43
909.743	7604.93
910.056	7583.23
910.368	7550.01
910.681	7518.38
910.994	7505.49
911.307	7428.21
911.619	7389.79
911.932	7428.43
912.244	7361.32
912.557	7385.5
912.869	7315.9
913.181	7270.02
913.494	7207.2
913.806	7178.27
914.118	7147.76
914.43	7160.42
914.742	7166.52
915.054	7093.75
915.366	7039.97
915.678	7059.63
915.99	7029.8
916.302	6955.23
916.613	6930.82
916.925	6920.2
917.236	6924.04
917.548	6900.31
917.859	6885.17
918.171	6831.61
918.482	6792.75
918.794	6748.45
919.105	6749.13
919.416	6732.18
919.727	6679.53
920.038	6672.75
920.349	6633.2
920.66	6603.37
920.971	6639.08
921.282	6579.42
921.593	6488.35
921.903	6492.19
922.214	6447.44
922.525	6394.11
922.835	6409.93
923.146	6365.19
923.456	6360.44
923.767	6343.04
924.077	6269.6
924.387	6258.97
924.697	6279.31
925.008	6252.19
925.318	6185.98
925.628	6181.24
925.938	6131.07
926.248	6090.16
926.558	6133.78
926.867	6046.32
927.177	6039.54
927.487	6037.96
927.796	5962.94
928.106	5974.46
928.416	5927.68
928.725	5889.49
929.034	5923.39
929.344	5929.04
929.653	5854.69
929.962	5782.38
930.271	5804.75
930.581	5726.33
930.89	5648.37
931.199	5648.37
931.508	5668.03
931.817	5667.35
932.125	5640.69
932.434	5641.36
932.743	5616.96
933.051	5522.04
933.36	5531.99
933.669	5492.44
933.977	5537.86
934.286	5480.46
934.594	5463.51
934.902	5398.21
935.21	5341.71
935.519	5379.9
935.827	5325.89
936.135	5322.28
936.443	5301.48
936.751	5272.56
937.059	5244.09
937.367	5226.46
937.674	5208.61
937.982	5168.61
938.29	5163.64
938.597	5155.95
938.905	5100.81
939.213	5077.31
939.52	5045.45
939.827	5082.06
940.135	5047.03
940.442	4980.36
940.749	5025.79
941.056	4988.27
941.363	4956.64
941.67	4928.61
941.977	4898.78
942.284	4910.08
942.591	4873.47
942.898	4825.57
943.205	4838.45
943.511	4769.97
943.818	4793.93
944.125	4842.74
944.431	4784.21
944.738	4739.69
945.044	4694.5
945.35	4703.76
945.657	4644.78
945.963	4675.51
946.269	4619.24
946.575	4635.06
946.881	4595.51
947.187	4587.38
947.493	4568.17
947.799	4568.4
948.105	4513.03
948.41	4495.63
948.716	4517.78
949.022	4443.2
949.327	4473.03
949.633	4425.12
949.938	4392.36
950.244	4387.16
950.549	4354.17
950.854	4343.09
951.16	4334.5
951.465	4327.05
951.77	4281.85
952.075	4260.16
952.38	4262.42
952.685	4222.64
952.99	4241.17
953.294	4206.6
953.599	4148.52
953.904	4179.48
954.209	4124.11
954.513	4101.06
954.818	4098.58
955.122	4089.09
955.426	4035.98
955.731	4065.59
956.035	4002.08
956.339	4001.63
956.643	4008.64
956.948	3924.35
957.252	3921.63
957.556	3975.87
957.86	3916.89
958.163	3923.44
958.467	3894.29
958.771	3874.86
959.075	3885.02
959.378	3826.72
959.682	3834.4
959.985	3831.92
960.289	3749.44
960.592	3776.78
960.896	3766.38
961.199	3757.57
961.502	3740.4
961.805	3689.55
962.108	3668.53
962.411	3696.1
962.714	3647.07
963.017	3661.3
963.32	3646.84
963.623	3592.6
963.926	3641.42
964.228	3573.85
964.531	3558.48
964.833	3595.32
965.136	3530.46
965.438	3526.62
965.741	3518.93
966.043	3477.13
966.345	3520.51
966.648	3461.31
966.95	3414.53
967.252	3440.06
967.554	3433.96
967.856	3429.44
968.158	3366.39
968.46	3406.85
968.761	3390.57
969.063	3351.71
969.365	3338.15
969.666	3323.23
969.968	3293.4
970.269	3271.48
970.571	3282.1
970.872	3282.33
971.174	3213.18
971.475	3231.03
971.776	3221.99
972.077	3159.85
972.378	3153.29
972.679	3189.45
972.98	3143.12
973.281	3170.69
973.582	3111.94
973.883	3104.93
974.183	3104.25
974.484	3091.83
974.785	3049.34
975.085	3058.83
975.386	3066.97
975.686	3022.9
975.986	3053.41
976.287	2999.62
976.587	2952.17
976.887	2963.69
977.187	2963.47
977.487	2974.09
977.787	2964.37
978.087	2919.63
978.387	2925.28
978.687	2920.53
978.987	2902
979.286	2890.25
979.586	2850.93
979.885	2844.83
980.185	2861.1
980.484	2824.94
980.784	2800.31
981.083	2865.16
981.382	2829.23
981.682	2790.59
981.981	2770.93
982.28	2783.36
982.579	2758.73
982.878	2757.37
983.177	2693.87
983.475	2758.95
983.774	2680.99
984.073	2678.05
984.372	2633.31
984.67	2666.07
984.969	2664.27
985.267	2652.97
985.566	2607.32
985.864	2594.44
986.162	2605.51
986.461	2617.49
986.759	2610.26
987.057	2578.17
987.355	2547.43
987.653	2546.3
987.951	2530.26
988.249	2537.04
988.547	2511.28
988.844	2471.95
989.142	2496.36
989.44	2488.45
989.737	2441.9
990.035	2393.76
990.332	2455.91
990.63	2410.71
990.927	2429.7
991.224	2422.92
991.521	2401.45
991.819	2403.26
992.116	2385.4
992.413	2372.52
992.71	2337.95
993.006	2332.3
993.303	2304.5
993.6	2314.22
993.897	2281.45
994.193	2291.62
994.49	2291.39
994.787	2302.69
995.083	2230.15
995.379	2214.56
995.676	2244.84
995.972	2250.04
996.268	2252.3
996.565	2257.05
996.861	2195.58
997.157	2201.91
997.453	2147.44
997.749	2159.42
998.044	2186.31
998.34	2169.59
998.636	2154.45
998.932	2125.07
999.227	2102.25
999.523	2069.25
999.818	2063.83
1000.114	2077.39
1000.409	2087.33
1000.704	2063.83
1001	2045.3
1001.295	2037.39
1001.59	2023.83
1001.885	1993.55
1002.18	2014.34
1002.475	2001.68
1002.77	2002.81
1003.065	1974.11
1003.359	1996.94
1003.654	1964.85
1003.949	1958.97
1004.243	1938.41
1004.538	1906.55
1004.832	1957.84
1005.127	1919.88
1005.421	1897.96
1005.715	1875.13
1006.009	1880.33
1006.304	1864.06
1006.598	1831.29
1006.892	1829.94
1007.186	1790.16
1007.48	1818.19
1007.773	1782.71
1008.067	1782.26
1008.361	1771.41
1008.655	1771.18
1008.948	1764.85
1009.242	1757.4
1009.535	1707.46
1009.829	1733.44
1010.122	1730.96
1010.415	1728.47
1010.708	1720.34
1011.001	1674.91
1011.295	1698.19
1011.588	1702.48
1011.881	1697.06
1012.173	1668.59
1012.466	1661.58
1012.759	1641.47
1013.052	1660.9
1013.344	1597.85
1013.637	1612.77
1013.93	1580.45
1014.222	1615.93
1014.514	1635.37
1014.807	1563.96
1015.099	1563.96
1015.391	1558.08
1015.683	1564.18
1015.976	1545.65
1016.268	1535.03
1016.56	1522.38
1016.851	1531.41
1017.143	1494.58
1017.435	1480.12
1017.727	1480.12
1018.018	1489.83
1018.31	1468.82
1018.602	1464.07
1018.893	1432.89
1019.185	1438.08
1019.476	1420.91
1019.767	1434.02
1020.058	1407.58
1020.35	1410.51
1020.641	1402.38
1020.932	1365.77
1021.223	1370.97
1021.514	1338.65
1021.804	1349.5
1022.095	1349.72
1022.386	1356.05
1022.677	1354.47
1022.967	1304.08
1023.258	1316.73
1023.548	1325.32
1023.839	1314.92
1024.129	1305.43
1024.419	1267.92
1024.709	1258.2
1025	1269.27
1025.29	1254.13
1025.58	1218.88
1025.87	1249.39
1026.16	1230.41
1026.449	1220.91
1026.739	1195.83
1027.029	1210.75
1027.319	1206
1027.608	1215.94
1027.898	1198.54
1028.187	1180.01
1028.477	1141.59
1028.766	1178.88
1029.055	1156.96
1029.344	1148.83
1029.634	1143.85
1029.923	1130.97
1030.212	1124.42
1030.501	1126.23
1030.79	1099.56
1031.078	1098.43
1031.367	1106.79
1031.656	1091.65
1031.945	1071.09
1032.233	1085.55
1032.522	1072.67
1032.81	1093.46
1033.099	1068.6
1033.387	1048.72
1033.675	1052.56
1033.963	1040.58
1034.251	1044.87
1034.54	1026.57
1034.828	1005.33
1035.116	1008.49
1035.403	1000.13
1035.691	986.12
1035.979	982.73
1036.267	957.42
1036.554	948.61
1036.842	959.45
1037.129	950.64
1037.417	951.54
1037.704	960.36
1037.992	956.97
1038.279	923.52
1038.566	951.77
1038.853	951.77
1039.14	951.77
