Data from blue_chair_FLMS001491_00026.txt Node
Date: Wed Feb 08 10:30:04 GMT 2017
User: dcchb
Spectrometer: FLMS00149
Trigger mode: 0
Integration Time (sec): 2.000000E-2
Scans to average: 10
Electric dark correction enabled: true
Nonlinearity correction enabled: false
Boxcar width: 0
XAxis mode: Wavelengths
Number of Pixels in Spectrum: 2048
>>>>>Begin Spectral Data<<<<<
341.393	8.84
341.776	8.84
342.16	8.84
342.543	-63.02
342.927	-66.18
343.31	-69.57
343.693	-70.93
344.077	-73.87
344.46	-45.17
344.843	-51.5
345.226	-36.81
345.61	-48.33
345.993	-15.34
346.376	15.17
346.759	2.06
347.142	10.2
347.525	50.42
347.908	62.63
348.291	75.73
348.674	90.42
349.057	104.88
349.44	131.32
349.823	125
350.206	146.01
350.588	187.82
350.971	185.33
351.354	210.42
351.737	243.64
352.119	225.79
352.502	240.93
352.884	268.04
353.267	253.58
353.65	270.3
354.032	250.87
354.414	290.19
354.797	292.9
355.179	313.92
355.562	284.99
355.944	313.24
356.326	298.33
356.709	302.39
357.091	318.44
357.473	324.77
357.855	311.88
358.238	325.67
358.62	305.56
359.002	327.25
359.384	328.38
359.766	315.73
360.148	313.47
360.53	299.91
360.912	303.52
361.294	322.28
361.676	342.39
362.057	316.4
362.439	315.05
362.821	319.57
363.203	307.36
363.584	308.49
363.966	317.08
364.348	282.96
364.729	309.85
365.111	276.86
365.493	292.22
365.874	279.57
366.256	305.1
366.637	294.26
367.019	280.02
367.4	297.42
367.781	290.19
368.163	311.21
368.544	279.57
368.925	264.88
369.306	301.94
369.688	282.73
370.069	289.29
370.45	275.5
370.831	297.42
371.212	265.56
371.593	292
371.974	281.83
372.355	293.13
372.736	284.77
373.117	306.01
373.498	307.82
373.879	305.78
374.26	284.77
374.641	311.21
375.021	300.81
375.402	289.29
375.783	294.71
376.163	289.74
376.544	310.98
376.925	302.17
377.305	286.12
377.686	292.22
378.066	276.63
378.447	306.01
378.827	307.14
379.208	300.81
379.588	313.92
379.968	297.2
380.349	313.01
380.729	315.05
381.109	321.38
381.489	303.98
381.87	302.62
382.25	320.25
382.63	299.23
383.01	300.81
383.39	327.7
383.77	321.38
384.15	311.21
384.53	293.13
384.91	311.43
385.29	316.63
385.67	320.47
386.049	312.56
386.429	327.48
386.809	327.25
387.189	306.01
387.568	322.05
387.948	325.22
388.328	339.45
388.707	314.14
389.087	331.54
389.466	322.51
389.846	334.48
390.225	336.52
390.605	330.19
390.984	327.48
391.363	338.55
391.743	346.01
392.122	349.85
392.501	357.53
392.881	350.98
393.26	359.34
393.639	334.48
394.018	345.56
394.397	357.76
394.776	348.49
395.155	349.4
395.534	351.88
395.913	358.89
396.292	350.53
396.671	357.08
397.05	371.77
397.429	364.76
397.808	340.13
398.186	367.48
398.565	344.88
398.944	371.54
399.323	337.87
399.701	375.84
400.08	371.09
400.458	364.99
400.837	379.68
401.215	390.07
401.594	371.09
401.972	380.58
402.351	389.62
402.729	387.59
403.107	402.73
403.486	390.75
403.864	415.38
404.242	407.25
404.62	386.68
404.999	397.08
405.377	393.46
405.755	408.83
406.133	423.75
406.511	437.76
406.889	403.18
407.267	433.24
407.645	426.01
408.023	415.61
408.401	439.34
408.779	420.36
409.156	431.88
409.534	437.08
409.912	447.7
410.29	444.31
410.667	456.97
411.045	437.76
411.422	441.15
411.8	453.12
412.178	450.41
412.555	453.35
412.933	447.47
413.31	474.37
413.687	454.93
414.065	478.21
414.442	480.02
414.819	482.28
415.197	476.63
415.574	484.54
415.951	494.48
416.328	484.31
416.705	474.37
417.082	512.78
417.46	505.78
417.837	512.56
418.214	525.89
418.591	505.55
418.967	503.52
419.344	518.88
419.721	525.21
420.098	524.53
420.475	530.64
420.852	528.38
421.228	553.01
421.605	531.09
421.982	555.72
422.358	546
422.735	569.73
423.111	551.2
423.488	572.89
423.864	587.58
424.241	579.45
424.617	566.79
424.994	600.92
425.37	598.2
425.746	569.73
426.123	594.14
426.499	580.35
426.875	582.39
427.251	607.47
427.627	630.29
428.003	624.42
428.379	641.14
428.756	665.32
429.132	627.81
429.507	646.79
429.883	667.13
430.259	670.97
430.635	664.64
431.011	667.36
431.387	666.68
431.763	686.79
432.138	701.7
432.514	709.84
432.89	709.39
433.265	713.46
433.641	731.08
434.016	732.44
434.392	746.22
434.767	770.4
435.143	756.62
435.518	786.22
435.894	795.71
436.269	798.2
436.644	812.89
437.02	779.44
437.395	801.59
437.77	825.54
438.145	818.54
438.52	849.5
438.895	840.91
439.271	841.36
439.646	878.88
440.021	867.35
440.395	878.2
440.77	896.95
441.145	891.3
441.52	920.68
441.895	920.23
442.27	944.18
442.645	951.19
443.019	900.8
443.394	960.68
443.769	914.58
444.143	978.08
444.518	996.61
444.892	972.21
445.267	988.93
445.641	993.22
446.016	996.16
446.39	1000
446.764	1020.57
447.139	1007.01
447.513	1029.38
447.887	1020.57
448.262	1028.48
448.636	1031.19
449.01	1041.36
449.384	1059.89
449.758	1035.03
450.132	1079.55
450.506	1091.07
450.88	1075.48
451.254	1087.91
451.628	1080.45
452.002	1121.35
452.376	1118.19
452.75	1130.62
453.123	1119.77
453.497	1155.25
453.871	1165.42
454.244	1183.73
454.618	1190.73
454.992	1181.24
455.365	1191.41
455.739	1237.96
456.112	1234.8
456.486	1242.26
456.859	1251.97
457.232	1266.44
457.606	1246.78
457.979	1272.99
458.352	1270.28
458.725	1294.01
459.099	1297.4
459.472	1324.51
459.845	1357.05
460.218	1340.33
460.591	1375.81
460.964	1360.44
461.337	1375.13
461.71	1392.53
462.083	1413.32
462.456	1399.09
462.829	1411.29
463.201	1439.54
463.574	1443.61
463.947	1464.17
464.32	1460.1
464.692	1479.99
465.065	1501.01
465.438	1521.8
465.81	1538.97
466.183	1534.68
466.555	1567.22
466.928	1586.65
467.3	1553.89
467.672	1579.65
468.045	1602.02
468.417	1604.51
468.789	1611.51
469.161	1626.43
469.534	1684.96
469.906	1703.94
470.278	1693.54
470.65	1729.7
471.022	1727.67
471.394	1752.75
471.766	1736.25
472.138	1773.54
472.51	1776.03
472.882	1800.88
473.253	1835.23
473.625	1848.79
473.997	1875.91
474.369	1911.62
474.74	1908.9
475.112	1939.19
475.484	1934.67
475.855	1964.5
476.227	1989.58
476.598	2018.96
476.97	2029.13
477.341	2052.86
477.713	2083.14
478.084	2120.42
478.455	2129.01
478.827	2140.99
479.198	2199.52
479.569	2183.93
479.94	2228.44
480.311	2244.71
480.682	2272.28
481.053	2310.93
481.424	2316.58
481.795	2305.96
482.166	2317.71
482.537	2369.68
482.908	2401.32
483.279	2423.92
483.65	2465.95
484.021	2483.13
484.391	2485.16
484.762	2489.68
485.133	2501.66
485.503	2538.72
485.874	2553.63
486.244	2587.98
486.615	2594.99
486.985	2633.63
487.356	2636.34
487.726	2630.69
488.097	2695.32
488.467	2662.11
488.837	2695.78
489.207	2719.28
489.578	2759.73
489.948	2732.84
490.318	2756.57
490.688	2761.31
491.058	2782.78
491.428	2816.23
491.798	2800.41
492.168	2881.76
492.538	2834.08
492.908	2869.33
493.278	2883.12
493.648	2841.31
494.017	2875.66
494.387	2870.46
494.757	2896.45
495.126	2896.68
495.496	2905.71
495.866	2907.07
496.235	2904.13
496.605	2920.18
496.974	2926.05
497.344	2936
497.713	2956.79
498.082	2929.22
498.452	2940.74
498.821	2982.32
499.19	2902.32
499.559	2912.49
499.928	2938.93
500.298	2921.53
500.667	2963.34
501.036	2908.2
501.405	2922.44
501.774	2966.28
502.143	2918.37
502.512	2936.9
502.88	2897.13
503.249	2943
503.618	2969.44
503.987	2926.28
504.356	2920.86
504.724	2928.76
505.093	2886.73
505.462	2906.39
505.83	2901.65
506.199	2948.65
506.567	2925.38
506.936	2944.81
507.304	2951.14
507.672	2905.04
508.041	2940.06
508.409	2948.88
508.777	2935.32
509.145	2937.8
509.514	2901.19
509.882	2916.79
510.25	2927.18
510.618	2905.71
510.986	2915.21
511.354	2958.37
511.722	2945.04
512.09	2915.43
512.458	2915.21
512.826	2911.59
513.193	2902.78
513.561	2888.99
513.929	2936.45
514.297	2929.67
514.664	2920.63
515.032	2891.93
515.4	2858.94
515.767	2858.71
516.135	2853.96
516.502	2859.16
516.869	2898.03
517.237	2865.49
517.604	2866.62
517.972	2861.87
518.339	2844.02
518.706	2821.65
519.073	2854.87
519.44	2831.59
519.808	2816.68
520.175	2802.44
520.542	2838.6
520.909	2861.87
521.276	2786.4
521.643	2782.78
522.009	2817.13
522.376	2825.04
522.743	2807.19
523.11	2839.5
523.477	2858.48
523.843	2835.66
524.21	2830.69
524.577	2837.69
524.943	2826.17
525.31	2794.31
525.676	2799.73
526.043	2827.07
526.409	2842.67
526.776	2835.43
527.142	2829.56
527.508	2828.65
527.874	2816.68
528.241	2838.82
528.607	2832.27
528.973	2892.16
529.339	2886.51
529.705	2845.38
530.071	2849.67
530.437	2866.17
530.803	2836.11
531.169	2869.33
531.535	2881.76
531.901	2831.14
532.267	2878.82
532.632	2879.5
532.998	2876.34
533.364	2891.03
533.73	2882.21
534.095	2860.52
534.461	2882.21
534.826	2892.61
535.192	2878.37
535.557	2896.22
535.923	2878.37
536.288	2861.65
536.653	2876.34
537.019	2847.86
537.384	2879.27
537.749	2855.55
538.114	2868.65
538.479	2889.44
538.845	2883.34
539.21	2875.66
539.575	2881.99
539.94	2884.02
540.305	2850.57
540.67	2864.13
541.034	2845.15
541.399	2855.09
541.764	2884.47
542.129	2886.28
542.494	2846.73
542.858	2870.46
543.223	2871.14
543.587	2841.54
543.952	2862.55
544.316	2862.78
544.681	2862.78
545.045	2875.66
545.41	2882.66
545.774	2903.45
546.138	2871.82
546.503	2844.93
546.867	2844.47
547.231	2820.52
547.595	2813.74
547.959	2873.4
548.324	2834.08
548.688	2855.32
549.052	2830.24
549.416	2871.82
549.779	2808.54
550.143	2844.25
550.507	2855.77
550.871	2832.04
551.235	2801.54
551.599	2815.55
551.962	2804.7
552.326	2824.59
552.689	2832.04
553.053	2810.35
553.417	2817.13
553.78	2853.29
554.143	2810.12
554.507	2845.38
554.87	2819.16
555.234	2848.99
555.597	2813.97
555.96	2804.47
556.323	2794.08
556.686	2783.23
557.05	2805.15
557.413	2814.64
557.776	2791.59
558.139	2835.66
558.502	2798.37
558.865	2837.47
559.228	2845.83
559.59	2843.34
559.953	2838.6
560.316	2827.52
560.679	2847.64
561.041	2820.97
561.404	2808.77
561.767	2868.2
562.129	2871.59
562.492	2864.81
562.854	2871.59
563.217	2864.59
563.579	2850.35
563.941	2846.73
564.304	2802.44
564.666	2901.19
565.028	2873.85
565.39	2858.48
565.753	2907.75
566.115	2936.22
566.477	2884.47
566.839	2887.41
567.201	2888.77
567.563	2951.59
567.925	2920.4
568.287	2931.25
568.648	2939.39
569.01	2936.9
569.372	2936.22
569.734	2943.91
570.095	2967.63
570.457	2983
570.819	2950.69
571.18	2980.51
571.542	2965.83
571.903	2996.56
572.265	3036.11
572.626	3013.06
572.987	3033.62
573.349	3044.02
573.71	3037.91
574.071	3010.57
574.432	3052.38
574.794	3070.23
575.155	3079.72
575.516	3082.66
575.877	3084.24
576.238	3062.55
576.599	3082.43
576.96	3111.58
577.32	3112.71
577.681	3098.7
578.042	3075.2
578.403	3110.23
578.763	3122.21
579.124	3161.75
579.485	3164.24
579.845	3146.84
580.206	3120.4
580.566	3164.46
580.927	3159.72
581.287	3166.72
581.648	3182.32
582.008	3179.15
582.368	3157.23
582.728	3184.35
583.089	3188.64
583.449	3208.98
583.809	3210.79
584.169	3229.77
584.529	3209.66
584.889	3226.84
585.249	3200.4
585.609	3213.05
585.969	3224.12
586.329	3262.54
586.688	3227.97
587.048	3248.98
587.408	3268.42
587.768	3217.8
588.127	3258.02
588.487	3257.12
588.846	3276.1
589.206	3221.86
589.565	3220.96
589.925	3255.99
590.284	3236.1
590.643	3262.09
591.003	3231.13
591.362	3285.14
591.721	3256.21
592.08	3240.17
592.44	3255.76
592.799	3243.56
593.158	3277.23
593.517	3226.84
593.876	3226.16
594.235	3267.96
594.593	3251.02
594.952	3280.39
595.311	3279.04
595.67	3255.76
596.029	3247.85
596.387	3295.31
596.746	3275.42
597.104	3227.51
597.463	3284.01
597.822	3263.9
598.18	3258.02
598.538	3208.08
598.897	3241.52
599.255	3235.88
599.613	3285.82
599.972	3301.64
600.33	3255.54
600.688	3283.56
601.046	3250.11
601.404	3277.23
601.762	3277.46
602.12	3259.83
602.478	3291.47
602.836	3327.85
603.194	3287.4
603.552	3276.1
603.91	3256.44
604.268	3294.86
604.625	3238.14
604.983	3258.7
605.341	3260.96
605.698	3272.03
606.056	3271.13
606.413	3273.16
606.771	3306.83
607.128	3280.85
607.485	3270
607.843	3249.66
608.2	3305.03
608.557	3284.01
608.914	3283.11
609.272	3280.39
609.629	3279.72
609.986	3258.93
610.343	3280.62
610.7	3281.07
611.057	3337.79
611.414	3273.61
611.771	3278.59
612.127	3300.05
612.484	3283.56
612.841	3319.26
613.198	3333.73
613.554	3288.08
613.911	3266.16
614.267	3346.83
614.624	3323.78
614.98	3352.48
615.337	3303.44
615.693	3327.62
616.05	3301.41
616.406	3365.82
616.762	3328.3
617.118	3321.3
617.475	3341.18
617.831	3335.76
618.187	3363.78
618.543	3340.05
618.899	3415.76
619.255	3366.04
619.611	3354.74
619.967	3361.52
620.323	3359.94
620.678	3329.21
621.034	3344.8
621.39	3354.06
621.746	3319.94
622.101	3355.87
622.457	3342.77
622.812	3338.7
623.168	3372.59
623.523	3364.69
623.879	3397.91
624.234	3337.79
624.589	3413.95
624.945	3413.27
625.3	3372.37
625.655	3335.76
626.01	3368.08
626.365	3361.52
626.72	3383.89
627.075	3379.37
627.43	3370.56
627.785	3378.02
628.14	3347.96
628.495	3388.64
628.85	3376.21
629.205	3359.94
629.559	3390.45
629.914	3378.7
630.269	3348.64
630.623	3394.97
630.978	3373.95
631.332	3390.45
631.687	3409.2
632.041	3397.91
632.396	3396.55
632.75	3364.46
633.104	3399.49
633.459	3345.48
633.813	3405.14
634.167	3388.41
634.521	3386.38
634.875	3383.89
635.229	3372.14
635.583	3421.86
635.937	3402.2
636.291	3392.48
636.645	3388.87
636.999	3396.32
637.352	3402.42
637.706	3366.95
638.06	3360.39
638.413	3395.19
638.767	3393.61
639.121	3391.35
639.474	3327.17
639.828	3357.68
640.181	3374.63
640.534	3349.09
640.888	3381.41
641.241	3389.77
641.594	3360.84
641.947	3376.44
642.301	3386.83
642.654	3365.36
643.007	3371.24
643.36	3431.12
643.713	3376.89
644.066	3400.16
644.419	3370.79
644.771	3337.34
645.124	3364.46
645.477	3363.33
645.83	3338.92
646.182	3320.62
646.535	3321.52
646.888	3352.03
647.24	3298.7
647.593	3301.86
647.945	3318.36
648.298	3345.7
648.65	3314.07
649.002	3354.29
649.355	3368.08
649.707	3330.56
650.059	3339.38
650.411	3371.24
650.763	3398.58
651.115	3428.19
651.467	3455.08
651.819	3456.21
652.171	3422.99
652.523	3449.2
652.875	3476.1
653.227	3433.84
653.578	3451.01
653.93	3461.18
654.282	3423.44
654.633	3456.66
654.985	3471.8
655.337	3444.23
655.688	3401.75
656.039	3466.6
656.391	3453.5
656.742	3493.5
657.094	3520.61
657.445	3485.81
657.796	3473.38
658.147	3513.16
658.498	3502.54
658.849	3519.71
659.2	3549.54
659.551	3515.64
659.902	3547.73
660.253	3498.24
660.604	3505.47
660.955	3496.89
661.306	3518.58
661.656	3490.11
662.007	3524.46
662.358	3515.19
662.708	3527.85
663.059	3540.27
663.409	3523.33
663.76	3552.25
664.11	3546.83
664.461	3569.65
664.811	3538.24
665.161	3535.08
665.511	3520.16
665.862	3531.91
666.212	3523.55
666.562	3566.26
666.912	3527.39
667.262	3547.51
667.612	3562.42
667.962	3503.44
668.312	3546.83
668.662	3545.47
669.011	3532.14
669.361	3516.77
669.711	3560.16
670.06	3535.53
670.41	3522.87
670.76	3516.32
671.109	3561.06
671.459	3535.3
671.808	3484
672.157	3492.59
672.507	3500.05
672.856	3473.38
673.205	3470.45
673.554	3508.64
673.904	3485.36
674.253	3499.6
674.602	3488.75
674.951	3422.31
675.3	3429.77
675.649	3481.52
675.998	3451.01
676.346	3469.54
676.695	3455.53
677.044	3451.01
677.393	3408.98
677.741	3453.27
678.09	3430.67
678.438	3446.72
678.787	3404.46
679.135	3400.39
679.484	3369.66
679.832	3403.1
680.181	3395.65
680.529	3394.06
680.877	3352.26
681.225	3347.74
681.573	3349.32
681.922	3317.68
682.27	3329.21
682.618	3368.3
682.966	3312.26
683.314	3353.61
683.661	3305.48
684.009	3314.74
684.357	3316.78
684.705	3284.91
685.053	3267.29
685.4	3280.39
685.748	3261.41
686.095	3262.99
686.443	3255.54
686.79	3235.65
687.138	3234.07
687.485	3239.27
687.832	3209.66
688.18	3211.24
688.527	3183
688.874	3220.28
689.221	3154.75
689.568	3192.94
689.915	3144.35
690.262	3173.28
690.609	3161.08
690.956	3116.78
691.303	3138.02
691.65	3116.56
691.997	3076.78
692.344	3101.19
692.69	3064.81
693.037	3063.68
693.383	3058.03
693.73	3022.1
694.077	3056.67
694.423	3032.72
694.769	3012.38
695.116	3060.74
695.462	3022.1
695.808	3042.43
696.155	3016.22
696.501	2988.65
696.847	2975.32
697.193	2943.23
697.539	2953.17
697.885	2946.39
698.231	2918.6
698.577	2925.15
698.923	2934.19
699.269	2921.31
699.614	2897.81
699.96	2924.47
700.306	2911.82
700.651	2928.31
700.997	2892.83
701.342	2878.37
701.688	2879.73
702.033	2887.64
702.379	2859.84
702.724	2879.05
703.069	2866.62
703.415	2836.34
703.76	2866.17
704.105	2840.18
704.45	2832.27
704.795	2835.89
705.14	2829.11
705.485	2822.1
705.83	2836.34
706.175	2787.75
706.52	2774.64
706.865	2819.39
707.209	2806.96
707.554	2799.28
707.899	2801.31
708.243	2794.76
708.588	2762.44
708.932	2791.37
709.277	2787.07
709.621	2802.44
709.966	2768.32
710.31	2813.74
710.654	2773.06
710.998	2797.69
711.342	2771.25
711.687	2808.32
712.031	2765.15
712.375	2774.64
712.719	2776.68
713.063	2788.43
713.407	2763.35
713.75	2750.46
714.094	2779.16
714.438	2781.2
714.782	2754.53
715.125	2757.24
715.469	2792.72
715.812	2818.94
716.156	2790.24
716.499	2798.6
716.843	2833.4
717.186	2811.93
717.53	2843.8
717.873	2791.37
718.216	2825.26
718.559	2787.3
718.902	2801.76
719.246	2820.75
719.589	2822.55
719.932	2781.2
720.275	2824.36
720.617	2837.24
720.96	2871.82
721.303	2842.44
721.646	2867.07
721.989	2833.17
722.331	2880.4
722.674	2870.69
723.016	2914.08
723.359	2920.4
723.701	2922.89
724.044	2918.37
724.386	2873.17
724.729	2948.65
725.071	2926.05
725.413	2942.78
725.755	2912.72
726.097	2948.65
726.439	2893.51
726.782	2909.78
727.124	2985.71
727.465	2965.6
727.807	2997.92
728.149	2961.98
728.491	2972.38
728.833	3006.05
729.175	2997.01
729.516	3027.52
729.858	3055.32
730.199	3015.54
730.541	3048.08
730.882	3077.24
731.224	3114.75
731.565	3070
731.906	3110.23
732.248	3091.47
732.589	3114.52
732.93	3131.25
733.271	3148.19
733.612	3166.5
733.953	3178.7
734.294	3170.79
734.635	3243.33
734.976	3234.52
735.317	3182.77
735.658	3217.8
735.999	3259.15
736.339	3282.2
736.68	3316.33
737.021	3322.88
737.361	3317.91
737.702	3390.67
738.042	3429.77
738.383	3411.69
738.723	3456.43
739.063	3427.51
739.404	3440.39
739.744	3448.3
740.084	3516.55
740.424	3550.44
740.764	3567.17
741.104	3561.06
741.444	3629.76
741.784	3611.23
742.124	3704.34
742.464	3701.4
742.804	3745.69
743.143	3791.34
743.483	3810.78
743.823	3814.62
744.162	3833.6
744.502	3892.81
744.841	3928.51
745.181	3989.3
745.52	3975.74
745.86	4058
746.199	4130.32
746.538	4124.67
746.877	4190.88
747.216	4242.63
747.556	4294.15
747.895	4360.82
748.234	4363.76
748.573	4402.85
748.911	4463.87
749.25	4565.56
749.589	4573.47
749.928	4585.9
750.267	4735.5
750.605	4744.08
750.944	4800.35
751.283	4884.19
751.621	4975.94
751.96	5019.33
752.298	5067.92
752.636	5143.17
752.975	5168.93
753.313	5258.42
753.651	5354.92
753.989	5460.9
754.327	5497.74
754.666	5565.76
755.004	5650.05
755.342	5733.66
755.679	5800.55
756.017	5821.12
756.355	5906.77
756.693	6038.97
757.031	6078.29
757.368	6154.44
757.706	6213.65
758.044	6258.17
758.381	6400.09
758.719	6426.53
759.056	6493.87
759.394	6634.2
759.731	6667.2
760.068	6741.55
760.405	6724.37
760.743	6835.33
761.08	6956.46
761.417	7026.28
761.754	7107.86
762.091	7106.96
762.428	7162.1
762.765	7207.97
763.102	7369.1
763.438	7393.96
763.775	7400.51
764.112	7467.18
764.449	7538.36
764.785	7619.71
765.122	7628.98
765.458	7675.31
765.795	7805.25
766.131	7811.35
766.467	7842.76
766.804	7882.31
767.14	7934.51
767.476	8049.53
767.812	7946.26
768.148	8137.67
768.485	8198.91
768.821	8158.46
769.157	8233.03
769.492	8313.93
769.828	8363.88
770.164	8300.6
770.5	8339.7
770.836	8429.64
771.171	8443.65
771.507	8434.61
771.842	8450.2
772.178	8447.72
772.513	8497.43
772.849	8581.95
773.184	8580.82
773.519	8574.49
773.855	8577.2
774.19	8622.85
774.525	8587.6
774.86	8686.58
775.195	8649.97
775.53	8713.25
775.865	8716.86
776.2	8663.98
776.535	8720.25
776.87	8739.91
777.205	8775.16
777.539	8754.83
777.874	8808.38
778.209	8776.52
778.543	8793.24
778.878	8780.81
779.212	8807.71
779.547	8860.81
779.881	8828.72
780.215	8852
780.55	8858.78
780.884	8791.44
781.218	8801.38
781.552	8790.31
781.886	8815.62
782.22	8872.56
782.554	8846.35
782.888	8757.31
783.222	8794.37
783.556	8755.96
783.889	8856.97
784.223	8835.5
784.557	8790.31
784.89	8809.97
785.224	8814.49
785.557	8784.43
785.891	8830.08
786.224	8771.78
786.558	8769.52
786.891	8759.8
787.224	8779.01
787.557	8760.93
787.891	8762.96
788.224	8728.61
788.557	8732
788.89	8800.47
789.223	8741.27
789.556	8710.53
789.888	8717.54
790.221	8706.69
790.554	8655.62
790.887	8728.39
791.219	8657.2
791.552	8689.97
791.884	8659.69
792.217	8653.36
792.549	8661.27
792.882	8623.98
793.214	8595.73
793.546	8660.37
793.879	8639.8
794.211	8561.84
794.543	8631.21
794.875	8552.12
795.207	8685
795.539	8550.54
795.871	8552.57
796.203	8525
796.535	8492.01
796.867	8534.27
797.198	8533.36
797.53	8502.18
797.862	8443.42
798.193	8523.19
798.525	8445.68
798.856	8501.05
799.188	8380.37
799.519	8394.61
799.85	8409.07
800.182	8391.67
800.513	8436.19
800.844	8355.06
801.175	8351
801.506	8356.87
801.837	8313.71
802.168	8307.15
802.499	8321.84
802.83	8268.51
803.161	8236.2
803.491	8289.53
803.822	8312.35
804.153	8277.1
804.483	8204.78
804.814	8231.45
805.145	8202.3
805.475	8207.04
805.805	8168.4
806.136	8188.06
806.466	8138.12
806.796	8131.79
807.126	8113.04
807.457	8084.34
807.787	8162.98
808.117	8127.5
808.447	8026.03
808.777	8080.49
809.107	8052.02
809.436	8047.27
809.766	8079.59
810.096	8029.2
810.426	7950.1
810.755	8016.77
811.085	7958.69
811.414	8039.36
811.744	7914.62
812.073	7968.18
812.403	7967.95
812.732	7922.08
813.061	7915.98
813.39	7923.66
813.719	7889.31
814.049	8001.63
814.378	7886.37
814.707	7865.58
815.036	7857.45
815.365	7863.78
815.693	7772.48
816.022	7734.29
816.351	7743.55
816.68	7748.07
817.008	7722.31
817.337	7648.87
817.665	7723.67
817.994	7754.85
818.322	7701.07
818.651	7682.31
818.979	7633.73
819.307	7674.4
819.636	7687.51
819.964	7666.49
820.292	7680.96
820.62	7693.39
820.948	7690.45
821.276	7722.54
821.604	7679.15
821.932	7691.35
822.259	7714.63
822.587	7591.24
822.915	7637.79
823.243	7753.27
823.57	7656.78
823.898	7670.34
824.225	7682.76
824.553	7667.85
824.88	7670.79
825.207	7748.53
825.535	7690
825.862	7665.14
826.189	7672.59
826.516	7728.19
826.843	7751.01
827.17	7748.3
827.497	7741.52
827.824	7753.04
828.151	7781.97
828.478	7795.08
828.805	7822.42
829.131	7744.46
829.458	7773.61
829.785	7714.85
830.111	7751.46
830.438	7796.66
830.764	7744.01
831.09	7764.34
831.417	7690.67
831.743	7762.31
832.069	7781.52
832.395	7746.04
832.722	7745.36
833.048	7729.32
833.374	7703.33
833.7	7755.53
834.026	7725.47
834.351	7727.06
834.677	7717.57
835.003	7735.64
835.329	7746.49
835.654	7736.1
835.98	7722.54
836.306	7717.79
836.631	7680.05
836.956	7726.83
837.282	7739.71
837.607	7720.05
837.932	7685.93
838.258	7677.34
838.583	7704.01
838.908	7696.32
839.233	7640.96
839.558	7619.94
839.883	7586.95
840.208	7584.69
840.533	7542.65
840.858	7558.47
841.182	7593.27
841.507	7572.48
841.832	7525.71
842.156	7505.59
842.481	7543.78
842.805	7481.41
843.13	7463.79
843.454	7444.58
843.778	7473.73
844.103	7470.34
844.427	7454.97
844.751	7429.21
845.075	7407.52
845.399	7325.49
845.723	7346.5
846.047	7355.77
846.371	7267.86
846.695	7288.88
847.019	7289.33
847.343	7257.46
847.666	7202.1
847.99	7167.3
848.313	7182.66
848.637	7118.03
848.96	7096.11
849.284	7157.35
849.607	7017.47
849.931	7022.67
850.254	7004.82
850.577	6933.41
850.9	6911.94
851.223	6914.87
851.546	6870.36
851.869	6813.18
852.192	6829.68
852.515	6739.96
852.838	6769.57
853.161	6720.53
853.483	6733.18
853.806	6721.89
854.129	6738.38
854.451	6631.27
854.774	6700.87
855.096	6615.45
855.419	6685.28
855.741	6642.11
856.063	6579.52
856.385	6625.39
856.708	6617.93
857.03	6575.45
857.352	6529.8
857.674	6579.29
857.996	6529.12
858.318	6500.2
858.64	6489.58
858.961	6465.17
859.283	6440.76
859.605	6432.63
859.926	6406.87
860.248	6368
860.57	6293.2
860.891	6354.89
861.212	6351.73
861.534	6318.73
861.855	6292.07
862.176	6287.32
862.498	6301.11
862.819	6300.88
863.14	6253.2
863.461	6249.58
863.782	6203.03
864.103	6235.8
864.424	6198.96
864.745	6212.97
865.065	6188.11
865.386	6129.81
865.707	6190.83
866.027	6138.85
866.348	6161
866.668	6151.28
866.989	6171.62
867.309	6080.77
867.63	6144.27
867.95	6155.35
868.27	6115.57
868.59	6075.57
868.91	6118.74
869.23	6065.63
869.55	6018.85
869.87	6057.5
870.19	6050.72
870.51	6065.41
870.83	6077.38
871.15	5979.76
871.469	6001.68
871.789	6031.96
872.109	6060.21
872.428	5961.91
872.748	5977.27
873.067	5993.54
873.386	6020.21
873.706	5972.98
874.025	5967.1
874.344	5927.78
874.663	5922.81
874.982	5930.27
875.301	5921.23
875.62	5924.39
875.939	5912.64
876.258	5891.62
876.577	5864.51
876.896	5886.2
877.214	5829.48
877.533	5861.57
877.852	5852.08
878.17	5847.56
878.489	5784.28
878.807	5840.1
879.125	5793.77
879.444	5823.6
879.762	5807.33
880.08	5757.39
880.398	5794.23
880.716	5798.97
881.034	5754.68
881.352	5723.95
881.67	5754.91
881.988	5779.09
882.306	5755.58
882.624	5735.24
882.941	5700.22
883.259	5651.18
883.577	5665.19
883.894	5626.32
884.212	5675.59
884.529	5681.91
884.846	5588.36
885.164	5586.32
885.481	5556.94
885.798	5595.14
886.115	5532.99
886.432	5540.22
886.75	5549.03
887.067	5525.08
887.383	5522.59
887.7	5525.98
888.017	5449.83
888.334	5510.62
888.651	5474.46
888.967	5439.43
889.284	5417.74
889.6	5441.47
889.917	5333.45
890.233	5334.58
890.55	5346.78
890.866	5360.11
891.182	5328.7
891.498	5298.42
891.815	5297.06
892.131	5292.77
892.447	5307.23
892.763	5256.84
893.079	5229.27
893.395	5241.47
893.71	5192.66
894.026	5203.73
894.342	5200.8
894.657	5131.19
894.973	5167.58
895.289	5141.81
895.604	5139.33
895.92	5118.99
896.235	5088.93
896.55	5116.28
896.865	5055.94
897.181	5063.4
897.496	5044.19
897.811	5004.19
898.126	5002.38
898.441	4984.3
898.756	5010.29
899.071	4962.84
899.386	4945.66
899.7	4917.41
900.015	4913.57
900.33	4810.52
900.644	4844.65
900.959	4880.13
901.273	4826.12
901.588	4768.72
901.902	4798.09
902.216	4740.47
902.531	4737.98
902.845	4748.6
903.159	4734.37
903.473	4721.71
903.787	4694.82
904.101	4637.42
904.415	4653.69
904.729	4620.7
905.042	4652.56
905.356	4660.02
905.67	4567.82
905.984	4603.07
906.297	4590.42
906.611	4530.76
906.924	4507.48
907.237	4513.36
907.551	4493.47
907.864	4452.34
908.177	4467.03
908.491	4454.6
908.804	4399.23
909.117	4417.77
909.43	4402.17
909.743	4384.77
910.056	4378.44
910.368	4341.61
910.681	4295.51
910.994	4329.18
911.307	4270.42
911.619	4219.58
911.932	4235.62
912.244	4237.2
912.557	4232.23
912.869	4203.08
913.181	4185.23
913.494	4141.39
913.806	4155.17
914.118	4179.58
914.43	4091.45
914.742	4099.81
915.054	4059.81
915.366	4098.45
915.678	4110.43
915.99	4040.6
916.302	3951.11
916.613	4006.7
916.925	4008.06
917.236	3994.5
917.548	3949.53
917.859	3966.48
918.171	3938.68
918.482	3940.26
918.794	3894.62
919.105	3874.5
919.416	3900.49
919.727	3827.27
920.038	3826.37
920.349	3834.96
920.66	3805.58
920.971	3789.99
921.282	3759.7
921.593	3770.1
921.903	3743.21
922.214	3727.61
922.525	3735.3
922.835	3744.79
923.146	3741.4
923.456	3656.66
923.767	3684.9
924.077	3647.39
924.387	3634.96
924.697	3607.17
925.008	3625.92
925.318	3612.81
925.628	3580.95
925.938	3582.76
926.248	3543.44
926.558	3531.69
926.867	3554.51
927.177	3500.5
927.487	3459.82
927.796	3448.75
928.106	3491.69
928.416	3463.67
928.725	3477.22
929.034	3450.78
929.344	3433.61
929.653	3408.98
929.962	3410.33
930.271	3382.99
930.581	3375.98
930.89	3326.95
931.199	3320.62
931.508	3334.18
931.817	3311.81
932.125	3347.74
932.434	3274.52
932.743	3272.48
933.051	3247.17
933.36	3245.59
933.669	3203.79
933.977	3226.16
934.286	3214.86
934.594	3223.9
934.902	3159.49
935.21	3149.1
935.519	3181.41
935.827	3145.03
936.135	3139.15
936.443	3106.84
936.751	3113.39
937.059	3091.92
937.367	3058.93
937.674	3082.21
937.982	3040.4
938.29	3045.6
938.597	3065.03
938.905	3042.66
939.213	2994.3
939.52	3010.57
939.827	3014.86
940.135	2952.72
940.442	2959.05
940.749	2994.07
941.056	2965.83
941.363	2927.18
941.67	2927.63
941.977	2882.44
942.284	2889.9
942.591	2876.79
942.898	2865.94
943.205	2834.76
943.511	2818.03
943.818	2822.33
944.125	2812.61
944.431	2844.25
944.738	2799.95
945.044	2809.22
945.35	2779.16
945.657	2768.32
945.963	2741.88
946.269	2726.06
946.575	2705.27
946.881	2678.38
947.187	2705.04
947.493	2664.36
947.799	2702.33
948.105	2703.91
948.41	2661.65
948.716	2644.25
949.022	2613.07
949.327	2637.47
949.633	2628.43
949.938	2607.87
950.244	2616
950.549	2612.61
950.854	2571.71
951.16	2592.05
951.465	2591.37
951.77	2553.86
952.075	2564.93
952.38	2563.58
952.685	2539.17
952.99	2504.6
953.294	2493.3
953.599	2494.2
953.904	2476.57
954.209	2486.06
954.513	2480.87
954.818	2435.44
955.122	2462.34
955.426	2398.38
955.731	2432.96
956.035	2424.15
956.339	2411.26
956.643	2407.42
956.948	2370.81
957.252	2378.72
957.556	2365.62
957.86	2353.86
958.163	2371.94
958.467	2352.73
958.771	2330.36
959.075	2326.52
959.378	2307.09
959.682	2299.4
959.985	2316.13
960.289	2296.24
960.592	2276.13
960.896	2290.59
961.199	2254.66
961.502	2276.58
961.805	2259.18
962.108	2210.37
962.411	2213.53
962.714	2199.52
963.017	2217.15
963.32	2184.6
963.623	2179.86
963.926	2172.63
964.228	2184.6
964.531	2172.85
964.833	2148.22
965.136	2147.09
965.438	2132.4
965.741	2148.45
966.043	2115.23
966.345	2110.03
966.648	2108.9
966.95	2102.57
967.252	2105.51
967.554	2061.67
967.856	2056.47
968.158	2061.44
968.46	2070.26
968.761	2035.23
969.063	2034.55
969.365	2027.09
969.666	2014.89
969.968	2037.49
970.269	1992.97
970.571	2013.31
970.872	1979.64
971.174	1959.98
971.475	1961.56
971.776	1957.94
972.077	1948.23
972.378	1963.59
972.679	1928.34
972.98	1964.95
973.281	1936.93
973.582	1913.65
973.883	1889.24
974.183	1909.36
974.484	1891.5
974.785	1892.63
975.085	1895.57
975.386	1895.57
975.686	1865.06
975.986	1855.57
976.287	1873.88
976.587	1873.2
976.887	1868.23
977.187	1836.59
977.487	1831.84
977.787	1830.49
978.087	1796.37
978.387	1806.08
978.687	1804.27
978.987	1794.56
979.286	1773.77
979.586	1800.21
979.885	1764.95
980.185	1741.23
980.484	1766.08
980.784	1731.06
981.083	1723.37
981.382	1722.24
981.682	1743.49
981.981	1699.87
982.28	1699.42
982.579	1717.27
982.878	1693.09
983.177	1684.05
983.475	1710.27
983.774	1674.33
984.073	1672.98
984.372	1652.19
984.67	1640.66
984.969	1635.24
985.267	1628.01
985.566	1635.69
985.864	1606.99
986.162	1612.64
986.461	1646.31
986.759	1568.35
987.057	1599.31
987.355	1599.53
987.653	1579.87
987.951	1572.42
988.249	1564.96
988.547	1569.25
988.844	1556.37
989.142	1587.33
989.44	1547.11
989.737	1538.52
990.035	1532.87
990.332	1530.61
990.63	1522.47
990.927	1517.05
991.224	1508.01
991.521	1504.85
991.819	1500.33
992.116	1491.51
992.413	1494.45
992.71	1481.12
993.006	1455.13
993.303	1460.55
993.6	1454.23
993.897	1477.73
994.193	1454.23
994.49	1444.74
994.787	1430.73
995.083	1429.37
995.379	1394.12
995.676	1404.06
995.972	1361.35
996.268	1397.73
996.565	1401.8
996.861	1383.27
997.157	1406.77
997.453	1377.17
997.749	1335.59
998.044	1365.42
998.34	1327
998.636	1350.28
998.932	1350.5
999.227	1339.88
999.523	1320.45
999.818	1333.78
1000.114	1319.09
1000.409	1300.33
1000.704	1294.91
1001	1275.47
1001.295	1286.32
1001.59	1265.98
1001.885	1281.35
1002.18	1251.07
1002.475	1280.22
1002.77	1265.98
1003.065	1231.18
1003.359	1247.68
1003.654	1231.18
1003.949	1235.93
1004.243	1228.7
1004.538	1230.5
1004.832	1230.73
1005.127	1206.55
1005.421	1208.13
1005.715	1176.72
1006.009	1177.4
1006.304	1180.11
1006.598	1192.77
1006.892	1172.2
1007.186	1162.94
1007.48	1176.72
1007.773	1173.33
1008.067	1140.79
1008.361	1131.75
1008.655	1126.78
1008.948	1134.69
1009.242	1121.81
1009.535	1116.38
1009.829	1109.15
1010.122	1115.93
1010.415	1103.5
1010.708	1093.33
1011.001	1084.52
1011.295	1108.02
1011.588	1066.67
1011.881	1086.78
1012.173	1087.23
1012.466	1059.66
1012.759	1044.97
1013.052	1057.4
1013.344	1047.01
1013.637	1051.75
1013.93	1039.77
1014.222	1022.6
1014.514	1036.39
1014.807	1023.5
1015.099	1009.27
1015.391	986.44
1015.683	1027.8
1015.976	988.48
1016.268	988.7
1016.56	991.19
1016.851	976.95
1017.143	1014.24
1017.435	986.44
1017.727	982.15
1018.018	986.22
1018.31	967.69
1018.602	942.38
1018.893	970.62
1019.185	930.4
1019.476	926.11
1019.767	933.34
1020.058	950.96
1020.35	939.21
1020.641	933.79
1020.932	943.73
1021.223	920.68
1021.514	923.62
1021.804	918.2
1022.095	909.16
1022.386	861.47
1022.677	874.13
1022.967	900.8
1023.258	897.41
1023.548	858.54
1023.839	873.45
1024.129	882.49
1024.419	848.37
1024.709	843.62
1025	867.35
1025.29	862.6
1025.58	839.55
1025.87	841.14
1026.16	816.5
1026.449	841.81
1026.739	839.78
1027.029	825.77
1027.319	828.03
1027.608	818.99
1027.898	828.26
1028.187	788.48
1028.477	796.62
1028.766	794.81
1029.055	800.69
1029.344	787.13
1029.634	794.36
1029.923	770.4
1030.212	764.98
1030.501	767.01
1030.79	757.75
1031.078	794.58
1031.367	761.36
1031.656	759.56
1031.945	742.16
1032.233	752.1
1032.522	757.07
1032.81	759.78
1033.099	739.44
1033.387	734.25
1033.675	722.04
1033.963	705.09
1034.251	716.62
1034.54	708.94
1034.828	701.7
1035.116	698.77
1035.403	701.48
1035.691	712.78
1035.979	707.35
1036.267	733.12
1036.554	669.84
1036.842	706.22
1037.129	706.45
1037.417	690.86
1037.704	658.32
1037.992	675.72
1038.279	663.06
1038.566	654.25
1038.853	654.25
1039.14	654.25
