Data from blue_surface_keyboard_FLMS001491_012.txt Node
Date: Tue Feb 07 11:12:42 GMT 2017
User: dcchb
Spectrometer: FLMS00149
Trigger mode: 0
Integration Time (sec): 2.000000E-2
Scans to average: 10
Electric dark correction enabled: true
Nonlinearity correction enabled: false
Boxcar width: 0
XAxis mode: Wavelengths
Number of Pixels in Spectrum: 2048
>>>>>Begin Spectral Data<<<<<
341.393	-11.13
341.776	-11.13
342.16	-11.13
342.543	-54.07
342.927	-70.34
343.31	-75.99
343.693	-69.21
344.077	-54.29
344.46	-60.17
344.843	-67.17
345.226	-58.59
345.61	-28.3
345.993	-33.05
346.376	-4.12
346.759	-1.41
347.142	30.45
347.525	50.56
347.908	66.61
348.291	82.65
348.674	86.95
349.057	135.08
349.44	129.66
349.823	123.78
350.206	148.19
350.588	174.18
350.971	185.93
351.354	186.38
351.737	198.13
352.119	202.42
352.502	243.1
352.884	266.38
353.267	250.33
353.65	264.34
354.032	282.87
354.414	281.97
354.797	300.95
355.179	285.13
355.562	295.98
355.944	319.71
356.326	305.92
356.709	320.84
357.091	308.18
357.473	305.02
357.855	310.67
358.238	313.16
358.62	328.75
359.002	315.87
359.384	324
359.766	311.8
360.148	320.61
360.53	326.26
360.912	319.48
361.294	307.96
361.676	308.86
362.057	289.88
362.439	323.1
362.821	296.66
363.203	298.92
363.584	307.51
363.966	291.24
364.348	292.37
364.729	292.14
365.111	307.96
365.493	281.52
365.874	303.44
366.256	301.86
366.637	283.55
367.019	292.37
367.4	270.67
367.781	285.81
368.163	277.45
368.544	293.27
368.925	283.1
369.306	293.04
369.688	286.26
370.069	294.17
370.45	289.2
370.831	305.02
371.212	285.36
371.593	275.42
371.974	297.34
372.355	269.99
372.736	282.87
373.117	297.56
373.498	279.94
373.879	283.55
374.26	286.72
374.641	273.38
375.021	304.57
375.402	282.42
375.783	292.14
376.163	296.21
376.544	296.21
376.925	308.41
377.305	285.36
377.686	263.89
378.066	287.39
378.447	284.68
378.827	292.37
379.208	292.82
379.588	300.95
379.968	290.56
380.349	307.05
380.729	285.81
381.109	280.61
381.489	302.31
381.87	307.51
382.25	282.42
382.63	307.05
383.01	308.18
383.39	298.69
383.77	284.23
384.15	320.39
384.53	304.12
384.91	302.31
385.29	319.26
385.67	298.92
386.049	301.4
386.429	312.25
386.809	295.53
387.189	307.05
387.568	293.95
387.948	307.05
388.328	324.23
388.707	326.71
389.087	305.92
389.466	316.55
389.846	299.6
390.225	309.31
390.605	293.5
390.984	323.1
391.363	323.1
391.743	303.44
392.122	313.61
392.501	326.04
392.881	322.87
393.26	334.17
393.639	309.09
394.018	304.57
394.397	325.58
394.776	340.73
395.155	303.66
395.534	328.97
395.913	314.06
396.292	323.55
396.671	312.48
397.05	322.19
397.429	305.02
397.808	310.67
398.186	317.9
398.565	342.08
398.944	331.01
399.323	331.01
399.701	349.31
400.08	319.71
400.458	349.09
400.837	360.16
401.215	339.14
401.594	348.41
401.972	344.34
402.351	323.55
402.729	319.26
403.107	357.22
403.486	330.56
403.864	345.25
404.242	349.54
404.62	334.17
404.999	328.52
405.377	347.73
405.755	353.61
406.133	341.4
406.511	338.92
406.889	344.57
407.267	349.54
407.645	350.89
408.023	363.1
408.401	382.53
408.779	348.18
409.156	341.86
409.534	335.08
409.912	348.86
410.29	352.25
410.667	345.25
411.045	356.54
411.422	365.58
411.8	351.57
412.178	364.68
412.555	353.61
412.933	364
413.31	365.36
413.687	380.27
414.065	385.7
414.442	360.16
414.819	390.44
415.197	378.92
415.574	382.53
415.951	385.92
416.328	379.37
416.705	373.49
417.082	399.71
417.46	397.9
417.837	392.93
418.214	366.49
418.591	387.05
418.967	397.67
419.344	392.93
419.721	405.36
420.098	392.93
420.475	397.9
420.852	393.15
421.228	392.25
421.605	413.94
421.982	410.55
422.358	406.49
422.735	404
423.111	410.33
423.488	396.09
423.864	403.55
424.241	423.21
424.617	414.62
424.994	400.61
425.37	413.49
425.746	426.37
426.123	420.05
426.499	410.78
426.875	406.94
427.251	436.99
427.627	421.63
428.003	407.16
428.379	417.11
428.756	433.6
429.132	437.22
429.507	437.9
429.883	431.57
430.259	433.83
430.635	444.23
431.011	443.1
431.387	419.37
431.763	464.34
432.138	453.49
432.514	466.82
432.89	442.64
433.265	453.72
433.641	441.51
434.016	443.1
434.392	468.41
434.767	453.04
435.143	451.23
435.518	459.14
435.894	476.09
436.269	471.34
436.644	486.48
437.02	485.81
437.395	490.78
437.77	487.84
438.145	486.26
438.52	497.11
438.895	479.25
439.271	497.56
439.646	510.89
440.021	509.76
440.395	476.54
440.77	487.39
441.145	512.7
441.52	496.65
441.895	517.67
442.27	528.52
442.645	500.27
443.019	500.27
443.394	501.4
443.769	520.61
444.143	511.34
444.518	511.12
444.892	523.77
445.267	520.61
445.641	518.12
446.016	524.9
446.39	508.18
446.764	511.34
447.139	504.56
447.513	523.55
447.887	530.1
448.262	529.2
448.636	538.69
449.01	538.46
449.384	553.6
449.758	532.81
450.132	561.06
450.506	533.94
450.88	547.5
451.254	535.52
451.628	555.64
452.002	551.57
452.376	561.28
452.75	562.64
453.123	574.17
453.497	567.16
453.871	577.56
454.244	550.44
454.618	581.17
454.992	580.04
455.365	575.97
455.739	586.82
456.112	581.17
456.486	622.75
456.859	600.61
457.232	606.48
457.606	595.86
457.979	586.37
458.352	604
458.725	628.18
459.099	614.62
459.472	615.52
459.845	632.47
460.218	643.77
460.591	629.76
460.964	623.66
461.337	641.96
461.71	642.41
462.083	660.04
462.456	641.73
462.829	645.58
463.201	647.16
463.574	665.69
463.947	660.72
464.32	677.89
464.692	688.74
465.065	684.22
465.438	668.63
465.81	677.44
466.183	707.27
466.555	673.82
466.928	707.27
467.3	715.86
467.672	725.35
468.045	700.49
468.417	729.42
468.789	730.32
469.161	716.31
469.534	704.33
469.906	731
470.278	757.89
470.65	742.97
471.022	756.31
471.394	763.77
471.766	753.14
472.138	764.22
472.51	782.07
472.882	780.26
473.253	814.16
473.625	802.63
473.997	804.67
474.369	787.49
474.74	802.63
475.112	829.07
475.484	838.11
475.855	826.81
476.227	829.98
476.598	855.74
476.97	877.43
477.341	874.72
477.713	890.32
478.084	887.6
478.455	868.4
478.827	913.82
479.198	906.81
479.569	902.29
479.94	919.24
480.311	928.73
480.682	932.8
481.053	947.04
481.424	964.89
481.795	950.88
482.166	994.04
482.537	993.14
482.908	1002.63
483.279	1007.6
483.65	1030.2
484.021	1029.52
484.391	1028.84
484.762	1045.11
485.133	1033.81
485.503	1057.32
485.874	1048.96
486.244	1064.32
486.615	1057.32
486.985	1068.62
487.356	1107.71
487.726	1090.31
488.097	1097.54
488.467	1127.15
488.837	1090.54
489.207	1131.21
489.578	1146.81
489.948	1154.94
490.318	1147.71
490.688	1175.05
491.058	1161.95
491.428	1184.32
491.798	1196.97
492.168	1184.55
492.538	1205.11
492.908	1206.92
493.278	1235.17
493.648	1204.66
494.017	1204.88
494.387	1246.92
494.757	1228.61
495.126	1240.59
495.496	1249.4
495.866	1253.92
496.235	1247.14
496.605	1255.73
496.974	1233.36
497.344	1276.29
497.713	1262.28
498.082	1263.19
498.452	1273.58
498.821	1263.19
499.19	1274.03
499.559	1261.61
499.928	1288.95
500.298	1293.69
500.667	1300.02
501.036	1285.56
501.405	1304.09
501.774	1284.2
502.143	1323.3
502.512	1299.12
502.88	1314.49
503.249	1330.76
503.618	1331.89
503.987	1322.62
504.356	1336.41
504.724	1301.38
505.093	1314.71
505.462	1339.12
505.83	1327.37
506.199	1348.38
506.567	1355.61
506.936	1336.18
507.304	1336.63
507.672	1351.32
508.041	1353.81
508.409	1343.64
508.777	1332.11
509.145	1392.9
509.514	1343.41
509.882	1398.1
510.25	1356.74
510.618	1368.72
510.986	1378.66
511.354	1387.93
511.722	1405.1
512.09	1371.43
512.458	1373.47
512.826	1378.44
513.193	1409.17
513.561	1406.69
513.929	1412.34
514.297	1405.1
514.664	1428.15
515.032	1404.2
515.4	1415.73
515.767	1400.58
516.135	1415.27
516.502	1393.81
516.869	1438.55
517.237	1444.88
517.604	1430.87
517.972	1435.61
518.339	1429.28
518.706	1430.19
519.073	1412.11
519.44	1434.71
519.808	1439.45
520.175	1405.78
520.542	1446.01
520.909	1426.12
521.276	1465.22
521.643	1457.08
522.009	1460.02
522.376	1464.99
522.743	1461.6
523.11	1480.81
523.477	1457.98
523.843	1475.38
524.21	1448.49
524.577	1473.35
524.943	1476.74
525.31	1457.98
525.676	1484.88
526.043	1482.39
526.409	1505.44
526.776	1497.31
527.142	1483.07
527.508	1510.19
527.874	1512.67
528.241	1481.71
528.607	1503.41
528.973	1485.55
529.339	1512.67
529.705	1528.94
530.071	1539.56
530.437	1522.16
530.803	1544.99
531.169	1510.19
531.535	1540.69
531.901	1509.51
532.267	1547.47
532.632	1547.25
532.998	1536.85
533.364	1515.16
533.73	1561.94
534.095	1540.24
534.461	1533.69
534.826	1556.51
535.192	1586.34
535.557	1568.26
535.923	1558.09
536.288	1554.03
536.653	1553.12
537.019	1538.21
537.384	1554.25
537.749	1533.01
538.114	1550.64
538.479	1539.11
538.845	1568.26
539.21	1555.38
539.575	1557.19
539.94	1569.62
540.305	1562.39
540.67	1585.44
541.034	1574.59
541.399	1537.08
541.764	1576.85
542.129	1574.59
542.494	1559
542.858	1570.3
543.223	1583.4
543.587	1557.87
543.952	1554.7
544.316	1580.92
544.681	1549.28
545.045	1572.11
545.41	1567.81
545.774	1573.24
546.138	1564.2
546.503	1549.73
546.867	1589.73
547.231	1596.29
547.595	1554.93
547.959	1574.82
548.324	1578.21
548.688	1586.34
549.052	1581.6
549.416	1600.58
549.779	1597.87
550.143	1561.71
550.507	1570.07
550.871	1588.6
551.235	1585.44
551.599	1596.74
551.962	1622.05
552.326	1549.28
552.689	1596.51
553.053	1590.41
553.417	1574.82
553.78	1604.2
554.143	1586.79
554.507	1598.77
554.87	1593.57
555.234	1596.06
555.597	1584.08
555.96	1626.79
556.323	1591.99
556.686	1637.87
557.05	1616.85
557.413	1617.08
557.776	1623.86
558.139	1619.56
558.502	1622.05
558.865	1617.53
559.228	1642.39
559.59	1623.63
559.953	1619.11
560.316	1626.34
560.679	1629.73
561.041	1607.81
561.404	1627.47
561.767	1658.43
562.129	1633.57
562.492	1626.79
562.854	1634.7
563.217	1621.6
563.579	1613.91
563.941	1646.45
564.304	1652.56
564.666	1629.96
565.028	1651.2
565.39	1646.45
565.753	1654.82
566.115	1682.39
566.477	1663.85
566.839	1665.66
567.201	1675.38
567.563	1678.54
567.925	1698.43
568.287	1687.58
568.648	1700.69
569.01	1681.48
569.372	1703.85
569.734	1656.85
570.095	1696.4
570.457	1679
570.819	1703.4
571.18	1681.71
571.542	1714.25
571.903	1730.29
572.265	1707.02
572.626	1695.72
572.987	1716.06
573.349	1696.62
573.71	1684.64
574.071	1688.26
574.432	1760.8
574.794	1735.27
575.155	1721.48
575.516	1712.89
575.877	1754.47
576.238	1727.58
576.599	1736.17
576.96	1737.3
577.32	1756.96
577.681	1699.56
578.042	1741.14
578.403	1766.9
578.763	1750.18
579.124	1735.04
579.485	1745.66
579.845	1746.34
580.206	1749.73
580.566	1750.63
580.927	1751.31
581.287	1763.74
581.648	1754.02
582.008	1743.63
582.368	1745.66
582.728	1779.56
583.089	1730.07
583.449	1758.32
583.809	1755.38
584.169	1755.83
584.529	1765.32
584.889	1774.13
585.249	1736.62
585.609	1765.09
585.969	1769.39
586.329	1758.32
586.688	1749.28
587.048	1769.84
587.408	1778.65
587.768	1777.98
588.127	1773.91
588.487	1775.49
588.846	1763.74
589.206	1767.35
589.565	1757.19
589.925	1784.53
590.284	1771.42
590.643	1781.14
591.003	1776.85
591.362	1758.32
591.721	1786.56
592.08	1785.89
592.44	1777.52
592.799	1776.17
593.158	1770.29
593.517	1807.81
593.876	1778.43
594.235	1776.39
594.593	1775.04
594.952	1813
595.311	1767.35
595.67	1774.36
596.029	1788.6
596.387	1788.15
596.746	1814.59
597.104	1793.79
597.463	1796.51
597.822	1783.17
598.18	1797.64
598.538	1836.05
598.897	1805.32
599.255	1796.73
599.613	1815.71
599.972	1809.39
600.33	1823.62
600.688	1829.27
601.046	1801.03
601.404	1819.78
601.762	1798.54
602.12	1847.13
602.478	1843.06
602.836	1803.29
603.194	1827.47
603.552	1828.14
603.91	1826.11
604.268	1826.56
604.625	1851.87
604.983	1840.8
605.341	1843.06
605.698	1879.67
606.056	1827.69
606.413	1855.26
606.771	1841.48
607.128	1830.18
607.485	1843.28
607.843	1845.09
608.2	1830.86
608.557	1886.22
608.914	1856.17
609.272	1848.93
609.629	1897.52
609.986	1868.59
610.343	1875.15
610.7	1863.4
611.057	1909.95
611.414	1855.49
611.771	1867.47
612.127	1881.25
612.484	1865.66
612.841	1846.67
613.198	1904.53
613.554	1899.1
613.911	1875.83
614.267	1875.83
614.624	1879.67
614.98	1891.42
615.337	1924.86
615.693	1908.82
616.05	1917.63
616.406	1911.98
616.762	1902.27
617.118	1942.27
617.475	1894.81
617.831	1932.1
618.187	1892.1
618.543	1932.1
618.899	1943.4
619.255	1909.05
619.611	1929.16
619.967	1942.04
620.323	1921.7
620.678	1935.94
621.034	1923.06
621.39	1960.34
621.746	1962.83
622.101	1999.44
622.457	1951.76
622.812	1969.61
623.168	1948.37
623.523	1945.66
623.879	1997.41
624.234	1955.6
624.589	1960.12
624.945	1970.97
625.3	2002.38
625.655	1968.48
626.01	1976.61
626.365	1986.78
626.72	1992.43
627.075	2017.07
627.43	2019.78
627.785	1982.49
628.14	2003.28
628.495	1985.2
628.85	2014.58
629.205	2026.1
629.559	1975.03
629.914	2020.46
630.269	2023.62
630.623	2020.91
630.978	2008.7
631.332	2022.94
631.687	2016.61
632.041	1987.46
632.396	2015.03
632.75	2040.12
633.104	2040.12
633.459	2037.86
633.813	2020.68
634.167	2028.82
634.521	2059.32
634.875	2064.97
635.229	2043.05
635.583	2104.07
635.937	2063.17
636.291	2047.8
636.645	2068.82
636.999	2060
637.352	2079.44
637.706	2035.37
638.06	2101.58
638.413	2119.66
638.767	2079.21
639.121	2110.17
639.474	2107.46
639.828	2093.67
640.181	2119.21
640.534	2114.92
640.888	2132.32
641.241	2133.67
641.594	2122.6
641.947	2120.34
642.301	2147.68
642.654	2155.59
643.007	2131.86
643.36	2168.25
643.713	2168.7
644.066	2182.48
644.419	2183.16
644.771	2180.9
645.124	2161.02
645.477	2169.15
645.83	2120.79
646.182	2149.27
646.535	2147.91
646.888	2117.63
647.24	2169.15
647.593	2205.76
647.945	2214.8
648.298	2177.06
648.65	2158.53
649.002	2181.36
649.355	2233.33
649.707	2215.03
650.059	2242.82
650.411	2259.55
650.763	2222.71
651.115	2325.31
651.467	2333.67
651.819	2302.03
652.171	2332.31
652.523	2291.63
652.875	2297.74
653.227	2336.83
653.578	2370.28
653.93	2380.22
654.282	2362.59
654.633	2391.97
654.985	2402.37
655.337	2437.17
655.688	2390.62
656.039	2406.66
656.391	2422.48
656.742	2421.35
657.094	2455.02
657.445	2472.87
657.796	2487.34
658.147	2460.67
658.498	2464.74
658.849	2539.09
659.2	2510.84
659.551	2541.8
659.902	2579.31
660.253	2565.98
660.604	2555.36
660.955	2535.24
661.306	2561.91
661.656	2607.33
662.007	2634.22
662.358	2607.11
662.708	2634.22
663.059	2632.87
663.409	2613.89
663.76	2688.23
664.11	2655.24
664.461	2678.07
664.811	2709.25
665.161	2699.53
665.511	2727.33
665.862	2752.87
666.212	2773.88
666.562	2786.31
666.912	2758.97
667.262	2791.73
667.612	2774.79
667.962	2816.37
668.312	2808.23
668.662	2853.2
669.011	2865.63
669.361	2825.86
669.711	2863.37
670.06	2906.76
670.41	2898.4
670.76	2927.55
671.109	2888.68
671.459	2925.52
671.808	2946.76
672.157	2970.03
672.507	2933.2
672.856	2947.89
673.205	2986.31
673.554	2983.37
673.904	3012.75
674.253	3020.43
674.602	3016.81
674.951	3029.02
675.3	3028.11
675.649	3044.16
675.998	3076.92
676.346	3106.3
676.695	3102.46
677.044	3089.81
677.393	3123.93
677.741	3155.34
678.09	3093.65
678.438	3151.27
678.787	3161.22
679.135	3144.49
679.484	3176.81
679.832	3211.84
680.181	3197.37
680.529	3221.55
680.877	3170.26
681.225	3274.21
681.573	3265.85
681.922	3270.82
682.27	3264.26
682.618	3266.52
682.966	3285.96
683.314	3274.89
683.661	3277.37
684.009	3332.06
684.357	3290.93
684.705	3301.1
685.053	3320.76
685.4	3346.97
685.748	3332.74
686.095	3360.31
686.443	3382.68
686.79	3375.67
687.138	3388.78
687.485	3390.81
687.832	3364.15
688.18	3416.58
688.527	3377.71
688.874	3393.07
689.221	3438.27
689.568	3398.72
689.915	3375.45
690.262	3423.58
690.609	3424.94
690.956	3415.45
691.303	3417.48
691.65	3438.72
691.997	3432.62
692.344	3439.4
692.69	3417.48
693.037	3422.9
693.383	3435.56
693.73	3490.47
694.077	3449.12
694.423	3472.62
694.769	3440.98
695.116	3417.93
695.462	3466.07
695.808	3463.81
696.155	3420.19
696.501	3472.17
696.847	3441.43
697.193	3427.65
697.539	3469.91
697.885	3427.2
698.231	3453.19
698.577	3461.55
698.923	3447.99
699.269	3458.38
699.614	3435.11
699.96	3427.65
700.306	3452.28
700.651	3408.67
700.997	3390.59
701.342	3411.83
701.688	3412.06
702.033	3412.51
702.379	3421.77
702.724	3405.28
703.069	3457.03
703.415	3400.53
703.76	3406.18
704.105	3390.14
704.45	3399.18
704.795	3401.44
705.14	3387.2
705.485	3403.7
705.83	3390.59
706.175	3392.85
706.52	3375
706.865	3398.27
707.209	3364.83
707.554	3378.16
707.899	3358.95
708.243	3340.42
708.588	3371.38
708.932	3361.66
709.277	3374.77
709.621	3322.34
709.966	3335.68
710.31	3378.61
710.654	3351.27
710.998	3326.18
711.342	3338.84
711.687	3363.7
712.031	3316.24
712.375	3336.35
712.719	3352.17
713.063	3345.17
713.407	3334.77
713.75	3339.97
714.094	3340.42
714.438	3346.97
714.782	3317.14
715.125	3292.74
715.469	3323.92
715.812	3325.28
716.156	3359.63
716.499	3325.28
716.843	3314.43
717.186	3299.29
717.53	3341.78
717.873	3337.71
718.216	3305.39
718.559	3299.07
718.902	3300.87
719.246	3293.42
719.589	3287.31
719.932	3294.77
720.275	3302
720.617	3290.93
720.96	3310.14
721.303	3295
721.646	3329.57
721.989	3312.17
722.331	3324.6
722.674	3321.89
723.016	3325.28
723.359	3306.75
723.701	3302.23
724.044	3286.86
724.386	3284.15
724.729	3304.26
725.071	3306.98
725.413	3322.34
725.755	3333.64
726.097	3319.18
726.439	3330.03
726.782	3316.47
727.124	3332.96
727.465	3270.82
727.807	3327.99
728.149	3336.58
728.491	3336.13
728.833	3333.64
729.175	3334.09
729.516	3353.53
729.858	3368.44
730.199	3345.62
730.541	3318.05
730.882	3359.4
731.224	3341.32
731.565	3323.47
731.906	3355.56
732.248	3338.61
732.589	3350.36
732.93	3338.16
733.271	3352.4
733.612	3349.69
733.953	3360.08
734.294	3358.73
734.635	3365.73
734.976	3356.47
735.317	3391.04
735.658	3352.4
735.999	3410.93
736.339	3394.2
736.68	3412.74
737.021	3376.58
737.361	3375.45
737.702	3399.18
738.042	3404.15
738.383	3400.76
738.723	3422.23
739.063	3397.14
739.404	3432.62
739.744	3459.51
740.084	3461.55
740.424	3514.43
740.764	3439.85
741.104	3479.17
741.444	3455.22
741.784	3475.78
742.124	3498.16
742.464	3490.25
742.804	3490.02
743.143	3496.35
743.483	3537.48
743.823	3514.65
744.162	3551.04
744.502	3580.19
744.841	3548.78
745.181	3596.46
745.52	3580.64
745.86	3585.16
746.199	3607.31
746.538	3622
746.877	3646.85
747.216	3657.7
747.556	3649.11
747.895	3687.3
748.234	3673.07
748.573	3699.51
748.911	3724.37
749.25	3764.36
749.589	3727.98
749.928	3783.35
750.267	3751.71
750.605	3782.67
750.944	3817.24
751.283	3806.85
751.621	3831.48
751.96	3884.59
752.298	3847.98
752.636	3869.67
752.975	3911.93
753.313	3916.68
753.651	3983.34
753.989	3956.45
754.327	3943.79
754.666	3992.15
755.004	4000.97
755.342	4034.64
755.679	4025.37
756.017	4049.55
756.355	4065.15
756.693	4068.31
757.031	4087.29
757.368	4107.41
757.706	4158.25
758.044	4186.73
758.381	4131.59
758.719	4149.21
759.056	4207.97
759.394	4187.18
759.731	4195.31
760.068	4213.17
760.405	4235.76
760.743	4221.08
761.08	4282.77
761.417	4296.78
761.754	4276.22
762.091	4285.48
762.428	4293.16
762.765	4295.65
763.102	4377.68
763.438	4353.28
763.775	4309.89
764.112	4349.89
764.449	4364.57
764.785	4346.5
765.122	4335.42
765.458	4366.16
765.795	4363.67
766.131	4390.56
766.467	4326.84
766.804	4318.25
767.14	4322.32
767.476	4404.35
767.812	4326.16
768.148	4321.86
768.485	4338.13
768.821	4351.24
769.157	4405.48
769.492	4360.73
769.828	4363.44
770.164	4372.03
770.5	4407.29
770.836	4367.06
771.171	4314.86
771.507	4356.44
771.842	4329.1
772.178	4347.17
772.513	4317.34
772.849	4342.43
773.184	4324.12
773.519	4343.11
773.855	4337.68
774.19	4344.69
774.525	4318.25
774.86	4305.82
775.195	4300.85
775.53	4256.78
775.865	4265.59
776.2	4238.93
776.535	4225.6
776.87	4229.21
777.205	4222.88
777.539	4197.12
777.874	4177.23
778.209	4210.68
778.543	4165.26
778.878	4153.96
779.212	4162.32
779.547	4116.9
779.881	4103.34
780.215	4134.07
780.55	4140.63
780.884	4129.33
781.218	4118.25
781.552	4133.17
781.886	4074.19
782.22	4073.06
782.554	4023.11
782.888	4047.52
783.222	4061.98
783.556	4001.42
783.889	3986.05
784.223	3953.29
784.557	3959.16
784.89	4004.13
785.224	3963.46
785.557	3956.22
785.891	3941.99
786.224	3948.77
786.558	3949.9
786.891	3930.91
787.224	3845.04
787.557	3890.01
787.891	3869.22
788.224	3871.03
788.557	3869.9
788.89	3874.64
789.223	3813.4
789.556	3821.99
789.888	3827.64
790.221	3824.7
790.554	3800.52
790.887	3772.73
791.219	3778.6
791.552	3796.91
791.884	3753.52
792.217	3757.81
792.549	3718.72
792.882	3691.6
793.214	3660.86
793.546	3719.62
793.879	3670.13
794.211	3650.92
794.543	3678.94
794.875	3652.28
795.207	3650.92
795.539	3657.7
795.871	3678.94
796.203	3601.43
796.535	3624.71
796.867	3588.78
797.198	3596.01
797.53	3582
797.862	3561.88
798.193	3572.73
798.525	3580.19
798.856	3559.85
799.188	3491.83
799.519	3515.11
799.85	3527.76
800.182	3504.26
800.513	3498.61
800.844	3466.75
801.175	3493.18
801.506	3459.06
801.837	3486.63
802.168	3480.08
802.499	3461.77
802.83	3424.71
803.161	3451.83
803.491	3434.88
803.822	3434.2
804.153	3409.57
804.483	3366.86
804.814	3355.79
805.145	3365.28
805.475	3342.68
805.805	3379.52
806.136	3400.53
806.466	3339.29
806.796	3354.66
807.126	3304.04
807.457	3340.87
807.787	3311.49
808.117	3312.62
808.447	3289.35
808.777	3244.15
809.107	3314.43
809.436	3271.04
809.766	3276.47
810.096	3283.25
810.426	3266.3
810.755	3255.9
811.085	3256.58
811.414	3231.04
811.744	3198.5
812.073	3249.12
812.403	3181.55
812.732	3198.5
813.061	3223.36
813.39	3225.4
813.719	3192.18
814.049	3218.62
814.378	3182.23
814.707	3138.39
815.036	3171.39
815.365	3125.96
815.693	3094.78
816.022	3146.75
816.351	3112.4
816.68	3100.43
817.008	3135.68
817.337	3079.41
817.665	3072.86
817.994	3130.71
818.322	3071.28
818.651	3096.13
818.979	3091.16
819.307	3087.77
819.636	3060.65
819.964	3073.99
820.292	3060.88
820.62	3065.85
820.948	3080.77
821.276	3074.66
821.604	3050.71
821.932	3057.26
822.259	3054.33
822.587	3069.24
822.915	3033.08
823.243	3072.86
823.57	3023.37
823.898	3063.82
824.225	3050.71
824.553	3032.41
824.88	3020.2
825.207	3012.97
825.535	3044.61
825.862	3009.58
826.189	2995.12
826.516	3024.04
826.843	3067.89
827.17	3040.09
827.497	3047.55
827.824	3065.63
828.151	3055.46
828.478	3040.32
828.805	3070.15
829.131	3009.81
829.458	3064.5
829.785	3040.09
830.111	3021.33
830.438	3040.99
830.764	3006.42
831.09	3065.85
831.417	3021.56
831.743	3031.05
832.069	3019.53
832.395	3007.77
832.722	3028.34
833.048	3021.78
833.374	3026.76
833.7	3028.56
834.026	3026.53
834.351	3064.72
834.677	2989.02
835.003	3025.63
835.329	3033.31
835.654	3038.73
835.98	3007.55
836.306	2986.31
836.631	3001.45
836.956	3026.3
837.282	3000.99
837.607	3003.93
837.932	2972.97
838.258	2980.2
838.583	2966.42
838.908	2957.61
839.233	2972.97
839.558	2975.68
839.883	2950.15
840.208	2936.14
840.533	2943.82
840.858	2953.09
841.182	2950.37
841.507	2933.43
841.832	2878.06
842.156	2931.62
842.481	2922.8
842.805	2916.7
843.13	2895.91
843.454	2876.93
843.778	2859.53
844.103	2879.42
844.427	2909.25
844.751	2881.22
845.075	2881.45
845.399	2843.48
845.723	2868.34
846.047	2860.66
846.371	2826.31
846.695	2845.07
847.019	2799.87
847.343	2766.42
847.666	2815.24
847.99	2765.52
848.313	2784.96
848.637	2794.22
848.96	2763.49
849.284	2752.41
849.607	2728.01
849.931	2742.92
850.254	2721.45
850.577	2747.89
850.9	2659.31
851.223	2675.58
851.546	2699.08
851.869	2661.34
852.192	2659.31
852.515	2662.92
852.838	2656.6
853.161	2662.25
853.483	2642.36
853.806	2611.85
854.129	2608.24
854.451	2590.16
854.774	2635.58
855.096	2622.47
855.419	2602.13
855.741	2605.98
856.063	2575.24
856.385	2538.41
856.708	2549.03
857.03	2544.51
857.352	2546.32
857.674	2529.82
857.996	2527.56
858.318	2535.02
858.64	2528.46
858.961	2502.93
859.283	2511.29
859.605	2496.38
859.926	2518.75
860.248	2510.61
860.57	2494.34
860.891	2518.97
861.212	2459.54
861.534	2452.76
861.855	2447.34
862.176	2483.49
862.498	2490.27
862.819	2447.34
863.14	2451.4
863.461	2446.66
863.782	2476.94
864.103	2474.23
864.424	2442.82
864.745	2465.87
865.065	2431.97
865.386	2418.64
865.707	2412.76
866.027	2445.08
866.348	2409.82
866.668	2445.3
866.989	2393.78
867.309	2382.71
867.63	2401.24
867.95	2384.06
868.27	2402.37
868.59	2385.19
868.91	2358.3
869.23	2363.95
869.55	2352.65
869.87	2375.7
870.19	2385.19
870.51	2396.26
870.83	2371.41
871.15	2323.5
871.469	2378.19
871.789	2367.34
872.109	2367.79
872.428	2321.69
872.748	2326.66
873.067	2354.91
873.386	2317.62
873.706	2333.67
874.025	2328.02
874.344	2334.12
874.663	2361.01
874.982	2367.34
875.301	2339.32
875.62	2306.78
875.939	2342.71
876.258	2280.79
876.577	2274.46
876.896	2317.62
877.214	2316.04
877.533	2298.64
877.852	2318.07
878.17	2304.97
878.489	2287.57
878.807	2297.06
879.125	2276.27
879.444	2269.94
879.762	2262.26
880.08	2302.71
880.398	2259.09
880.716	2264.74
881.034	2265.19
881.352	2277.4
881.67	2275.14
881.988	2264.52
882.306	2271.52
882.624	2262.71
882.941	2267
883.259	2212.77
883.577	2220.45
883.894	2234.01
884.212	2208.92
884.529	2223.61
884.846	2223.39
885.164	2202.82
885.481	2213.67
885.798	2188.81
886.115	2198.3
886.432	2158.76
886.75	2156.05
887.067	2192.88
887.383	2169.15
887.7	2193.33
888.017	2175.93
888.334	2174.35
888.651	2167.8
888.967	2144.07
889.284	2166.89
889.6	2156.27
889.917	2125.09
890.233	2145.65
890.55	2121.92
890.866	2125.76
891.182	2144.97
891.498	2137.97
891.815	2123.28
892.131	2106.55
892.447	2091.87
892.763	2103.39
893.079	2120.79
893.395	2092.09
893.71	2083.05
894.026	2070.62
894.342	2058.42
894.657	2069.49
894.973	2072.66
895.289	2057.74
895.604	2074.01
895.92	2027.01
896.235	2016.61
896.55	2052.32
896.865	2057.52
897.181	2032.66
897.496	2001.02
897.811	1999.89
898.126	1997.18
898.441	1980.91
898.756	2012.55
899.071	1997.86
899.386	1971.64
899.7	1967.12
900.015	1967.35
900.33	1969.61
900.644	1952.21
900.959	1968.03
901.273	1965.09
901.588	1935.94
901.902	1918.54
902.216	1958.31
902.531	1902.94
902.845	1913.79
903.159	1930.51
903.473	1913.79
903.787	1881.48
904.101	1887.8
904.415	1895.03
904.729	1898.2
905.042	1873.34
905.356	1871.08
905.67	1869.05
905.984	1858.43
906.297	1839.44
906.611	1854.36
906.924	1845.32
907.237	1846.22
907.551	1812.55
907.864	1824.08
908.177	1803.06
908.491	1810.74
908.804	1805.09
909.117	1782.72
909.43	1814.36
909.743	1810.52
910.056	1801.48
910.368	1767.35
910.681	1775.26
910.994	1797.86
911.307	1745.43
911.619	1704.08
911.932	1737.98
912.244	1729.39
912.557	1720.58
912.869	1754.25
913.181	1705.44
913.494	1730.97
913.806	1729.39
914.118	1711.31
914.43	1704.76
914.742	1705.89
915.054	1671.76
915.366	1703.18
915.678	1697.75
915.99	1675.61
916.302	1673.8
916.613	1661.14
916.925	1638.77
917.236	1676.51
917.548	1634.48
917.859	1636.28
918.171	1616.17
918.482	1645.55
918.794	1640.13
919.105	1625.66
919.416	1631.09
919.727	1621.82
920.038	1615.04
920.349	1609.17
920.66	1602.39
920.971	1597.42
921.282	1586.57
921.593	1580.24
921.903	1574.59
922.214	1584.08
922.525	1582.05
922.835	1577.3
923.146	1557.64
923.456	1549.06
923.767	1558.77
924.077	1558.09
924.387	1537.3
924.697	1536.63
925.008	1508.6
925.318	1509.51
925.628	1524.88
925.938	1532.78
926.248	1511.09
926.558	1493.24
926.867	1500.47
927.177	1495.95
927.487	1472.67
927.796	1501.15
928.106	1475.38
928.416	1466.35
928.725	1462.96
929.034	1467.48
929.344	1445.1
929.653	1442.39
929.962	1453.92
930.271	1444.65
930.581	1415.73
930.89	1419.79
931.199	1410.3
931.508	1409.85
931.817	1406.01
932.125	1439
932.434	1391.32
932.743	1410.98
933.051	1383.86
933.36	1393.58
933.669	1349.96
933.977	1377.53
934.286	1379.34
934.594	1384.77
934.902	1368.5
935.21	1339.34
935.519	1368.5
935.827	1359
936.135	1361.04
936.443	1367.14
936.751	1341.6
937.059	1333.02
937.367	1347.03
937.674	1301.6
937.982	1345.22
938.29	1326.24
938.597	1322.39
938.905	1310.64
939.213	1320.36
939.52	1285.56
939.827	1274.71
940.135	1279.23
940.442	1286.01
940.749	1286.01
941.056	1270.42
941.363	1282.4
941.67	1288.72
941.977	1279.01
942.284	1273.36
942.591	1291.43
942.898	1239.91
943.205	1249.85
943.511	1241.49
943.818	1239.91
944.125	1234.71
944.431	1243.3
944.738	1248.05
945.044	1219.57
945.35	1235.84
945.657	1202.62
945.963	1233.13
946.269	1187.71
946.575	1205.34
946.881	1194.71
947.187	1189.74
947.493	1200.14
947.799	1192.23
948.105	1173.92
948.41	1163.08
948.716	1211.89
949.022	1205.56
949.327	1176.64
949.633	1164.66
949.938	1180.7
950.244	1177.31
950.549	1145.9
950.854	1120.82
951.16	1130.54
951.465	1130.08
951.77	1150.65
952.075	1147.48
952.38	1140.25
952.685	1146.81
952.99	1114.49
953.294	1113.81
953.599	1135.96
953.904	1131.21
954.209	1106.36
954.513	1088.28
954.818	1121.5
955.122	1114.26
955.426	1093.7
955.731	1079.01
956.035	1096.64
956.339	1083.76
956.643	1074.94
956.948	1073.81
957.252	1078.33
957.556	1060.25
957.86	1076.98
958.163	1071.33
958.467	1028.84
958.771	1033.14
959.075	1050.76
959.378	1072.01
959.682	1048.28
959.985	1050.31
960.289	1042.85
960.592	1031.1
960.896	1035.85
961.199	1036.3
961.502	1028.62
961.805	1022.29
962.108	1017.09
962.411	1019.8
962.714	995.85
963.017	1003.53
963.32	1016.64
963.623	1010.09
963.926	1017.09
964.228	1003.31
964.531	1007.15
964.833	1005.11
965.136	968.51
965.438	994.49
965.741	979.35
966.043	983.42
966.345	959.47
966.648	974.16
966.95	966.25
967.252	949.3
967.554	970.09
967.856	941.84
968.158	983.87
968.46	969.64
968.761	958.56
969.063	935.51
969.365	960.37
969.666	961.95
969.968	936.19
970.269	930.99
970.571	955.62
970.872	930.99
971.174	954.95
971.475	918.34
971.776	923.99
972.077	912.24
972.378	907.72
972.679	928.05
972.98	933.25
973.281	930.54
973.582	915.85
973.883	915.17
974.183	918.11
974.484	900.48
974.785	889.86
975.085	894.61
975.386	885.57
975.686	881.95
975.986	874.5
976.287	889.86
976.587	874.95
976.887	882.41
977.187	861.16
977.487	865.01
977.787	871.56
978.087	871.78
978.387	853.71
978.687	860.03
978.987	861.84
979.286	858
979.586	852.8
979.885	849.64
980.185	830.88
980.484	836.76
980.784	819.81
981.083	857.1
981.382	853.48
981.682	827.27
981.981	831.33
982.28	828.4
982.579	818.45
982.878	833.37
983.177	841.05
983.475	838.79
983.774	819.36
984.073	814.16
984.372	807.83
984.67	805.35
984.969	833.59
985.267	818.45
985.566	824.55
985.864	807.61
986.162	807.38
986.461	793.82
986.759	787.49
987.057	774.16
987.355	798.34
987.653	777.55
987.951	803.76
988.249	789.53
988.547	757.66
988.844	778.23
989.142	779.13
989.44	787.72
989.737	759.02
990.035	760.83
990.332	777.1
990.63	759.7
990.927	743.88
991.224	758.12
991.521	750.43
991.819	748.4
992.116	746.59
992.413	767.38
992.71	755.63
993.006	743.65
993.303	738.91
993.6	732.13
993.897	728.74
994.193	734.16
994.49	734.84
994.787	739.81
995.083	716.99
995.379	738
995.676	726.03
995.972	722.64
996.268	697.33
996.565	709.98
996.861	705.01
997.157	703.65
997.453	725.8
997.749	713.37
998.044	703.65
998.34	706.14
998.636	706.37
998.932	693.71
999.227	722.86
999.523	715.4
999.818	666.82
1000.114	694.39
1000.409	683.99
1000.704	681.51
1001	671.79
1001.295	686.03
1001.59	669.08
1001.885	672.69
1002.18	676.54
1002.475	669.3
1002.77	660.49
1003.065	667.04
1003.359	663.65
1003.654	665.91
1003.949	681.73
1004.243	665.69
1004.538	635.18
1004.832	664.78
1005.127	641.73
1005.421	638.8
1005.715	654.16
1006.009	659.14
1006.304	653.03
1006.598	627.05
1006.892	620.94
1007.186	623.66
1007.48	622.53
1007.773	622.3
1008.067	631.34
1008.361	636.08
1008.655	629.76
1008.948	647.16
1009.242	589.98
1009.535	612.58
1009.829	611.45
1010.122	610.32
1010.415	602.87
1010.708	595.63
1011.001	625.24
1011.295	610.55
1011.588	613.49
1011.881	598.57
1012.173	616.42
1012.466	582.08
1012.759	599.25
1013.052	604.9
1013.344	624.56
1013.637	600.83
1013.93	580.95
1014.222	598.12
1014.514	599.48
1014.807	582.3
1015.099	579.82
1015.391	607.61
1015.683	604
1015.976	586.37
1016.268	574.17
1016.56	554.73
1016.851	561.28
1017.143	559.7
1017.435	562.87
1017.727	567.84
1018.018	546.82
1018.31	552.47
1018.602	553.83
1018.893	576.2
1019.185	554.51
1019.476	550.89
1019.767	554.28
1020.058	527.39
1020.35	528.52
1020.641	542.3
1020.932	552.02
1021.223	540.27
1021.514	537.78
1021.804	543.43
1022.095	524
1022.386	558.57
1022.677	533.94
1022.967	535.75
1023.258	521.51
1023.548	536.65
1023.839	513.15
1024.129	511.12
1024.419	518.8
1024.709	501.85
1025	508.63
1025.29	511.34
1025.58	514.73
1025.87	514.28
1026.16	523.77
1026.449	516.31
1026.739	495.75
1027.029	500.72
1027.319	520.16
1027.608	509.53
1027.898	490.55
1028.187	504.56
1028.477	477.45
1028.766	479.7
1029.055	474.28
1029.344	465.24
1029.634	500.04
1029.923	500.04
1030.212	485.13
1030.501	491.91
1030.79	460.04
1031.078	482.42
1031.367	478.12
1031.656	470.44
1031.945	505.24
1032.233	454.17
1032.522	484.45
1032.81	445.58
1033.099	479.7
1033.387	469.31
1033.675	479.48
1033.963	475.86
1034.251	465.47
1034.54	463.21
1034.828	466.15
1035.116	453.04
1035.403	471.57
1035.691	466.15
1035.979	476.54
1036.267	459.37
1036.554	454.85
1036.842	453.94
1037.129	453.72
1037.417	448.97
1037.704	446.49
1037.992	453.94
1038.279	461.85
1038.566	433.15
1038.853	433.15
1039.14	433.15
