Data from blue_shiny_book_FLMS001491_00058.txt Node
Date: Wed Feb 08 15:27:13 GMT 2017
User: dcchb
Spectrometer: FLMS00149
Trigger mode: 0
Integration Time (sec): 2.000000E-2
Scans to average: 10
Electric dark correction enabled: true
Nonlinearity correction enabled: false
Boxcar width: 0
XAxis mode: Wavelengths
Number of Pixels in Spectrum: 2048
>>>>>Begin Spectral Data<<<<<
341.393	3.52
341.776	3.52
342.16	3.52
342.543	-68.35
342.927	-70.15
343.31	-63.83
343.693	-79.19
344.077	-67.44
344.46	-52.53
344.843	-63.37
345.226	-39.65
345.61	-45.07
345.993	-19.31
346.376	24.08
346.759	-8.01
347.142	39.22
347.525	37.41
347.908	62.95
348.291	81.25
348.674	92.33
349.057	101.14
349.44	128.71
349.823	137.3
350.206	184.53
350.588	222.04
350.971	215.26
351.354	223.85
351.737	256.62
352.119	276.28
352.502	288.03
352.884	315.6
353.267	320.12
353.65	330.74
354.032	320.8
354.414	338.42
354.797	313.79
355.179	351.3
355.562	370.96
355.944	342.49
356.326	367.12
356.709	371.19
357.091	347.01
357.473	370.51
357.855	363.51
358.238	355.15
358.62	353.34
359.002	367.35
359.384	367.8
359.766	386.56
360.148	400.79
360.53	372.09
360.912	377.97
361.294	330.29
361.676	353.11
362.057	375.03
362.439	347.91
362.821	363.28
363.203	361.47
363.584	370.51
363.966	351.3
364.348	365.09
364.729	365.32
365.111	363.73
365.493	376.61
365.874	363.73
366.256	342.27
366.637	346.78
367.019	336.39
367.4	351.98
367.781	335.94
368.163	349.27
368.544	372.55
368.925	369.16
369.306	371.19
369.688	341.81
370.069	368.93
370.45	364.64
370.831	374.81
371.212	386.78
371.593	384.75
371.974	386.56
372.355	382.26
372.736	386.11
373.117	369.61
373.498	350.63
373.879	390.4
374.26	390.4
374.641	376.84
375.021	394.24
375.402	371.87
375.783	392.66
376.163	401.02
376.544	413
376.925	421.58
377.305	413.9
377.686	383.17
378.066	407.8
378.447	411.19
378.827	426.56
379.208	411.87
379.588	432.43
379.968	425.65
380.349	434.47
380.729	419.55
381.109	420
381.489	420.68
381.87	461.13
382.25	441.02
382.63	448.93
383.01	422.71
383.39	461.36
383.77	462.04
384.15	426.78
384.53	447.57
384.91	443.96
385.29	467.46
385.67	462.26
386.049	493.22
386.429	480.79
386.809	496.84
387.189	510.4
387.568	483.28
387.948	510.4
388.328	502.26
388.707	523.96
389.087	512.88
389.466	529.15
389.846	525.99
390.225	540.68
390.605	534.12
390.984	530.51
391.363	547.01
391.743	551.53
392.122	565.54
392.501	551.07
392.881	577.06
393.26	586.78
393.639	581.81
394.018	582.94
394.397	606.66
394.776	628.13
395.155	616.38
395.534	645.99
395.913	634.91
396.292	629.26
396.671	641.01
397.05	626.55
397.429	658.41
397.808	666.55
398.186	675.59
398.565	673.78
398.944	686.21
399.323	678.98
399.701	676.72
400.08	687.34
400.458	708.13
400.837	709.26
401.215	718.53
401.594	729.15
401.972	723.72
402.351	719.66
402.729	738.64
403.107	741.58
403.486	777.06
403.864	778.86
404.242	775.7
404.62	798.98
404.999	817.28
405.377	808.02
405.755	812.54
406.133	847.34
406.511	845.08
406.889	847.56
407.267	859.09
407.645	859.54
408.023	904.74
408.401	902.02
408.779	916.49
409.156	923.04
409.534	937.96
409.912	953.1
410.29	998.07
410.667	963.94
411.045	976.37
411.422	1009.14
411.8	1035.58
412.178	1050.49
412.555	1073.32
412.933	1089.14
413.31	1092.08
413.687	1107.67
414.065	1122.81
414.442	1100.44
414.819	1123.71
415.197	1156.93
415.574	1192.86
415.951	1212.3
416.328	1203.94
416.705	1212.3
417.082	1224.5
417.46	1259.98
417.837	1244.16
418.214	1256.14
418.591	1287.32
418.967	1275.35
419.344	1300.66
419.721	1330.49
420.098	1323.71
420.475	1379.98
420.852	1347.44
421.228	1387.44
421.605	1411.16
421.982	1419.75
422.358	1440.77
422.735	1458.39
423.111	1464.27
423.488	1488.68
423.864	1522.57
424.241	1493.42
424.617	1531.84
424.994	1576.58
425.37	1557.15
425.746	1605.06
426.123	1617.49
426.499	1652.51
426.875	1647.32
427.251	1681.44
427.627	1742.68
428.003	1707.88
428.379	1698.61
428.756	1757.14
429.132	1760.76
429.507	1819.74
429.883	1850.93
430.259	1895.67
430.635	1906.52
431.011	1941.09
431.387	1983.58
431.763	1988.78
432.138	2047.98
432.514	2057.25
432.89	2060.86
433.265	2106.51
433.641	2114.42
434.016	2143.8
434.392	2189.22
434.767	2218.37
435.143	2291.82
435.518	2272.38
435.894	2328.88
436.269	2366.17
436.644	2413.17
437.02	2432.15
437.395	2428.99
437.77	2454.75
438.145	2504.69
438.52	2500.63
438.895	2529.33
439.271	2532.26
439.646	2640.74
440.021	2634.18
440.395	2672.83
440.77	2660.85
441.145	2699.49
441.52	2733.39
441.895	2762.31
442.27	2783.1
442.645	2776.55
443.019	2807.28
443.394	2865.36
443.769	2886.38
444.143	2838.24
444.518	2932.71
444.892	2924.12
445.267	2967.96
445.641	2983.1
446.016	3027.39
446.39	3062.42
446.764	3121.63
447.139	3081.18
447.513	3129.54
447.887	3122.76
448.262	3141.29
448.636	3143.1
449.01	3197.11
449.384	3269.87
449.758	3262.87
450.132	3323.66
450.506	3322.07
450.88	3359.81
451.254	3373.82
451.628	3426.48
452.002	3436.42
452.376	3535.18
452.75	3556.64
453.123	3608.39
453.497	3656.98
453.871	3674.38
454.244	3727.26
454.618	3749.63
454.992	3817.2
455.365	3816.52
455.739	3947.37
456.112	3986.24
456.486	4037.08
456.859	4104.88
457.232	4146.68
457.606	4142.17
457.979	4269.39
458.352	4330.86
458.725	4317.08
459.099	4393.91
459.472	4499.9
459.845	4514.36
460.218	4551.65
460.591	4634.13
460.964	4670.74
461.337	4794.35
461.71	4798.42
462.083	4905.53
462.456	4941.01
462.829	4964.97
463.201	5041.8
463.574	5075.93
463.947	5122.48
464.32	5234.79
464.692	5291.74
465.065	5369.25
465.438	5452.19
465.81	5586.65
466.183	5567.89
466.555	5679.75
466.928	5734.67
467.3	5800.43
467.672	5839.97
468.045	6058.05
468.417	6057.37
468.789	6104.83
469.161	6196.12
469.534	6284.71
469.906	6422.33
470.278	6415.55
470.65	6605.83
471.022	6681.76
471.394	6834.52
471.766	6874.75
472.138	6976.89
472.51	7098.7
472.882	7197.45
473.253	7293.04
473.625	7435.86
473.997	7531
474.369	7590.21
474.74	7723.99
475.112	7887.15
475.484	7955.4
475.855	8139.8
476.227	8244.2
476.598	8412.34
476.97	8473.58
477.341	8697.98
477.713	8850.52
478.084	8932.55
478.455	9097.06
478.827	9279.21
479.198	9548.8
479.569	9619.31
479.94	9884.16
480.311	9933.43
480.682	10102.69
481.053	10434.66
481.424	10529.34
481.795	10656.12
482.166	10830.12
482.537	10992.61
482.908	11228.53
483.279	11358.47
483.65	11588.97
484.021	11814.51
484.391	11921.17
484.762	12114.16
485.133	12118.45
485.503	12339.69
485.874	12615.16
486.244	12734.93
486.615	12911.88
486.985	13164.3
487.356	13396.61
487.726	13443.16
488.097	13769.03
488.467	13894.45
488.837	14125.63
489.207	14347.77
489.578	14617.82
489.948	14708.21
490.318	14945.72
490.688	15033.86
491.058	15234.3
491.428	15479.04
491.798	15718.81
492.168	15949.31
492.538	16025.47
492.908	16207.16
493.278	16406.7
493.648	16444.89
494.017	16729.4
494.387	16868.84
494.757	17060.02
495.126	17310.86
495.496	17424.75
495.866	17559.21
496.235	17942.25
496.605	18088.92
496.974	18119.42
497.344	18307.67
497.713	18338.4
498.082	18526.65
498.452	18678.96
498.821	18739.3
499.19	18866.52
499.559	18931.61
499.928	19178.15
500.298	19195.1
500.667	19422.89
501.036	19525.26
501.405	19790.79
501.774	19913.73
502.143	20086.15
502.512	20207.28
502.88	20518.91
503.249	20478.91
503.618	20657.21
503.987	20798.9
504.356	20758
504.724	20930.88
505.093	20976.07
505.462	21176.75
505.83	21223.98
506.199	21431.43
506.567	21801.81
506.936	21742.38
507.304	22014.46
507.672	22083.16
508.041	22256.72
508.409	22539.65
508.777	22716.82
509.145	23000.65
509.514	23048.56
509.882	23266.41
510.25	23340.53
510.618	23541.43
510.986	23542.56
511.354	23737.36
511.722	23963.56
512.09	24189.1
512.458	24169.66
512.826	24386.6
513.193	24483.55
513.561	24683.09
513.929	24724.22
514.297	25097.09
514.664	25250.08
515.032	25394.26
515.4	25622.5
515.767	26044.87
516.135	26168.03
516.502	26005.32
516.869	26652.99
517.237	26771.4
517.604	26662.93
517.972	26945.86
518.339	27088.68
518.706	27028.79
519.073	27078.74
519.44	27363.02
519.808	27661.32
520.175	27677.37
520.542	27961.65
520.909	28182.89
521.276	28161.42
521.643	28478.93
522.009	28816.09
522.376	28979.48
522.743	29221.28
523.11	29572.91
523.477	29928.61
523.843	30108.94
524.21	30473
524.577	30715.7
524.943	30826.21
525.31	30878.41
525.676	31126.09
526.043	31384.16
526.409	31601.56
526.776	31865.28
527.142	31833.41
527.508	32033.64
527.874	32306.85
528.241	32450.12
528.607	32624.13
528.973	33054.63
529.339	33126.94
529.705	33546.59
530.071	33856.86
530.437	34080.59
530.803	34427.92
531.169	34601.48
531.535	34587.24
531.901	34785.65
532.267	34875.37
532.632	35190.39
532.998	35304.96
533.364	35545.41
533.73	35462.25
534.095	35579.98
534.461	35663.82
534.826	35886.42
535.192	36018.62
535.557	36159.63
535.923	36145.62
536.288	36202.34
536.653	36540.41
537.019	36536.34
537.384	36840.06
537.749	37252.48
538.114	37491.57
538.479	37401.18
538.845	37699.93
539.21	37715.07
539.575	37976.98
539.94	37933.37
540.305	38205.68
540.67	38010.2
541.034	38122.51
541.399	38294.04
541.764	38283.64
542.129	38457.2
542.494	38431.66
542.858	38561.6
543.223	38700.35
543.587	38792.33
543.952	38801.59
544.316	39130.62
544.681	39277.96
545.045	39638.18
545.41	39790.27
545.774	40065.29
546.138	40021
546.503	40314.77
546.867	40483.13
547.231	40766.29
547.595	40781.88
547.959	40831.82
548.324	40824.59
548.688	40946.17
549.052	40824.14
549.416	41003.12
549.779	40964.47
550.143	40995.43
550.507	41151.81
550.871	41130.8
551.235	41230.23
551.599	41505.93
551.962	41491.47
552.326	41621.63
552.689	42094.61
553.053	42011.23
553.417	42159.24
553.78	42759.68
554.143	42623.64
554.507	42847.14
554.87	43119.67
555.234	43451.19
555.597	43164.87
555.96	43450.06
556.323	43518.08
556.686	43480.79
557.05	43674.46
557.413	43632.43
557.776	43643.05
558.139	43926.66
558.502	43834.91
558.865	43949.25
559.228	44084.17
559.59	44232.41
559.953	44350.15
560.316	44784.94
560.679	44864.26
561.041	45044.37
561.404	45310.35
561.767	45624.01
562.129	45705.14
562.492	46209.08
562.854	46187.16
563.217	46375.4
563.579	46543.99
563.941	46859.01
564.304	46939.46
564.666	47106.23
565.028	47198.66
565.39	47315.95
565.753	47559.1
566.115	47602.94
566.477	47601.59
566.839	47590.51
567.201	47833.67
567.563	47807.91
567.925	47898.53
568.287	47916.38
568.648	48167
569.01	48461.68
569.372	48557.27
569.734	48441.79
570.095	48835
570.457	49003.81
570.819	49187.53
571.18	49274.76
571.542	49606.05
571.903	49573.74
572.265	49803.11
572.626	49769.67
572.987	49912.71
573.349	50062.09
573.71	50216.21
574.071	50221.86
574.432	50177.34
574.794	50363.32
575.155	50189.32
575.516	49961.07
575.877	50122.88
576.238	50148.87
576.599	50157.68
576.96	50171.46
577.32	50269.99
577.681	50474.73
578.042	50557.89
578.403	50691.68
578.763	50618.01
579.124	50809.19
579.485	51019.58
579.845	51107.71
580.206	51148.61
580.566	51311.77
580.927	51426.12
581.287	51526
581.648	51459.11
582.008	51527.36
582.368	51569.84
582.728	51630.63
583.089	51559.45
583.449	51480.58
583.809	51570.3
584.169	51482.84
584.529	51479.45
584.889	51630.63
585.249	51382.73
585.609	51288.95
585.969	51448.72
586.329	51291.43
586.688	51440.58
587.048	51446.46
587.408	51518.09
587.768	51630.63
588.127	51616.4
588.487	51699.33
588.846	51869.72
589.206	51802.15
589.565	51794.02
589.925	52085.09
590.284	52035.37
590.643	52092.99
591.003	52188.13
591.362	52233.1
591.721	52083.96
592.08	52085.76
592.44	52113.33
592.799	52126.44
593.158	52099.77
593.517	52024.3
593.876	52049.15
594.235	51937.29
594.593	51870.18
594.952	52001.47
595.311	51754.47
595.67	51876.96
596.029	52048.93
596.387	52099.1
596.746	51974.35
597.104	51905.65
597.463	51943.39
597.822	52109.72
598.18	52026.33
598.538	52113.79
598.897	52303.84
599.255	52058.65
599.613	52531.63
599.972	52316.27
600.33	52457.5
600.688	52401.46
601.046	52578.18
601.404	52592.19
601.762	52531.63
602.12	52688.23
602.478	52701.11
602.836	52718.06
603.194	52558.97
603.552	52452.08
603.91	52406.88
604.268	52561.23
604.625	52373.21
604.983	52520.33
605.341	52191.98
605.698	52335.25
606.056	52475.58
606.413	52452.53
606.771	52629.48
607.128	52659.31
607.485	52461.8
607.843	52643.04
608.2	52871.28
608.557	53053.65
608.914	52924.61
609.272	53202.34
609.629	53207.77
609.986	53421.32
610.343	53334.77
610.7	53464.71
611.057	53486.63
611.414	53472.17
611.771	53511.71
612.127	53630.36
612.484	53559.17
612.841	53671.94
613.198	53532.73
613.554	53451.83
613.911	53609.56
614.267	53524.82
614.624	53440.08
614.98	53521.66
615.337	53651.37
615.693	53574.31
616.05	53539.51
616.406	53584.93
616.762	53585.61
617.118	53502.22
617.475	53509.68
617.831	53569.79
618.187	53610.02
618.543	53755.32
618.899	53819.95
619.255	53782.67
619.611	53692.27
619.967	53988.76
620.323	54021.98
620.678	53932.04
621.034	53968.43
621.39	54053.17
621.746	54044.81
622.101	54322.99
622.457	54028.99
622.812	54090.68
623.168	54069.21
623.523	54097.24
623.879	54195.54
624.234	53934.98
624.589	53873.06
624.945	53884.13
625.3	53905.38
625.655	53805.27
626.01	53892.72
626.365	53799.16
626.72	53716.45
627.075	53674.2
627.43	53694.76
627.785	53717.36
628.14	53705.16
628.495	53685.27
628.85	53622.67
629.205	53672.39
629.559	53890.91
629.914	53666.74
630.269	53771.59
630.623	53811.82
630.978	53913.51
631.332	53969.33
631.687	54064.24
632.041	53938.6
632.396	54037.58
632.75	53870.8
633.104	54024.24
633.459	53887.07
633.813	53956.22
634.167	53875.77
634.521	53901.76
634.875	53850.69
635.229	53759.62
635.583	53665.61
635.937	53609.34
636.291	53554.88
636.645	53452.96
636.999	53339.06
637.352	53340.65
637.706	53179.97
638.06	53221.1
638.413	53144.49
638.767	53083.48
639.121	52982.01
639.474	52773.2
639.828	52847.78
640.181	52888.23
640.534	52876.48
640.888	52825.63
641.241	52801.45
641.594	52820.43
641.947	52958.06
642.301	52883.93
642.654	52901.11
643.007	52895.46
643.36	52879.87
643.713	52885.97
644.066	53112.4
644.419	52888.45
644.771	52873.77
645.124	52762.58
645.477	52736.82
645.83	52388.81
646.182	52009.61
646.535	51770.29
646.888	51686.9
647.24	51462.95
647.593	51510.86
647.945	51373.47
648.298	51141.16
648.65	50972.35
649.002	50841.73
649.355	51066.81
649.707	50984.1
650.059	51150.19
650.411	51574.59
650.763	51625.21
651.115	51978.87
651.467	51818.2
651.819	51787.69
652.171	51723.96
652.523	51726.68
652.875	51760.57
653.227	51701.14
653.578	52002.83
653.93	51947.69
654.282	51896.39
654.633	51914.69
654.985	51928.93
655.337	51950.85
655.688	52062.71
656.039	52133.9
656.391	51868.82
656.742	52056.84
657.094	52031.08
657.445	52201.24
657.796	51964.64
658.147	52002.6
658.498	51941.13
658.849	51959.66
659.2	51920.57
659.551	51848.93
659.902	51817.52
660.253	51719.22
660.604	51804.87
660.955	51513.12
661.306	51582.05
661.656	51446.46
662.007	51384.99
662.358	51314.48
662.708	51314.26
663.059	51305.67
663.409	50982.97
663.76	51343.64
664.11	51234.71
664.461	51183.87
664.811	51316.52
665.161	51393.35
665.511	51305.44
665.862	51516.06
666.212	51678.54
666.562	51608.71
666.912	51562.84
667.262	51609.62
667.612	51632.44
667.962	51672.67
668.312	51600.8
668.662	51813.68
669.011	51814.13
669.361	51774.58
669.711	51641.93
670.06	51464.99
670.41	51419.11
670.76	51387.48
671.109	51437.19
671.459	51247.14
671.808	51218.22
672.157	51236.07
672.507	50850.32
672.856	50867.94
673.205	50822.29
673.554	50843.76
673.904	50673.15
674.253	50797.89
674.602	50600.15
674.951	50033.39
675.3	49912.26
675.649	50462.53
675.998	50326.71
676.346	50231.57
676.695	50409.2
677.044	50197.9
677.393	50533.04
677.741	50444.22
678.09	50440.16
678.438	50376.2
678.787	50399.48
679.135	50455.98
679.484	50329.43
679.832	50576.88
680.181	50318.35
680.529	50610.77
680.877	50548.63
681.225	50570.32
681.573	50605.35
681.922	50540.72
682.27	50443.55
682.618	50353.83
682.966	50259.82
683.314	50314.06
683.661	50225.25
684.009	50019.38
684.357	49979.83
684.705	49854.64
685.053	49766.95
685.4	49697.58
685.748	49394.99
686.095	49319.06
686.443	49129.68
686.79	49123.36
687.138	49024.6
687.485	48994.32
687.832	48753.87
688.18	48900.31
688.527	48616.48
688.874	48513.88
689.221	48407.89
689.568	48395.01
689.915	48206.54
690.262	48274.79
690.609	48291.06
690.956	48301
691.303	48244.96
691.65	48080.22
691.997	48218.75
692.344	47924.74
692.69	47913.67
693.037	47876.61
693.383	47725.88
693.73	47905.31
694.077	47773.11
694.423	47771.53
694.769	47534.02
695.116	47475.71
695.462	47331.09
695.808	47350.75
696.155	47364.76
696.501	47124.31
696.847	47051.77
697.193	46634.83
697.539	46768.16
697.885	46435.74
698.231	46210.89
698.577	46053.15
698.923	45800.5
699.269	45715.76
699.614	45457.91
699.96	45244.36
700.306	45322.55
700.651	44972.05
700.997	45008.21
701.342	44658.16
701.688	44567.09
702.033	44435.57
702.379	44441.22
702.724	44466.3
703.069	44490.93
703.415	44031.29
703.76	43963.04
704.105	44032.19
704.45	43938.63
704.795	43899.99
705.14	43598.08
705.485	43636.95
705.83	43600.79
706.175	43742.25
706.52	43643.05
706.865	43492.54
707.209	43594.91
707.554	43448.25
707.899	43433.11
708.243	43303.85
708.588	43300.91
708.932	43106.34
709.277	43239.22
709.621	43200.8
709.966	42691.43
710.31	42887.14
710.654	42570.99
710.998	42545
711.342	42488.73
711.687	42335.29
712.031	42216.87
712.375	41895.3
712.719	42110.88
713.063	41877.67
713.407	41827.28
713.75	41443.11
714.094	41486.72
714.438	41319.04
714.782	41306.61
715.125	41019.61
715.469	40931.25
715.812	40780.07
716.156	40703.24
716.499	40557.25
716.843	40556.35
717.186	40400.65
717.53	40601.55
717.873	40587.53
718.216	40366.3
718.559	40401.32
718.902	40387.54
719.246	40555.67
719.589	40617.82
719.932	40459.18
720.275	40576.46
720.617	40432.28
720.96	40479.29
721.303	40498.27
721.646	40623.24
721.989	40353.64
722.331	40604.71
722.674	40518.61
723.016	40598.83
723.359	40472.74
723.701	40424.37
724.044	40027.78
724.386	40036.59
724.729	40105.51
725.071	40018.06
725.413	39976.48
725.755	39965.63
726.097	39779.87
726.439	39529.26
726.782	39454.91
727.124	39553.89
727.465	39168.59
727.807	39137.63
728.149	38929.95
728.491	38882.04
728.833	38828.94
729.175	38521.83
729.516	38543.75
729.858	38617.19
730.199	38649.28
730.541	38478.44
730.882	38443.41
731.224	38645.66
731.565	38223.08
731.906	38370.64
732.248	38515.05
732.589	38206.35
732.93	38119.35
733.271	38269.63
733.612	38335.39
733.953	38401.6
734.294	38311.44
734.635	38132.01
734.976	38309.18
735.317	38300.14
735.658	38200.48
735.999	38252.23
736.339	38318.67
736.68	38392.79
737.021	38236.64
737.361	38198.67
737.702	38443.41
738.042	38254.26
738.383	38067.6
738.723	38304.2
739.063	38164.55
739.404	38225.56
739.744	38140.59
740.084	37983.31
740.424	38031.22
740.764	37969.75
741.104	38168.39
741.444	37857.89
741.784	37649.53
742.124	37736.54
742.464	37493.15
742.804	37642.08
743.143	37615.64
743.483	37531.34
743.823	37365.02
744.162	37255.42
744.502	37353.04
744.841	37166.38
745.181	37435.08
745.52	37214.06
745.86	37327.06
746.199	37231.69
746.538	37160.96
746.877	37380.61
747.216	37251.13
747.556	37080.28
747.895	37236.21
748.234	37233.5
748.573	37137
748.911	37149.21
749.25	37260.84
749.589	37266.72
749.928	37341.52
750.267	37462.87
750.605	37409.54
750.944	37519.82
751.283	37427.39
751.621	37600.04
751.96	37481.4
752.298	37593.49
752.636	37649.98
752.975	37694.73
753.313	37467.84
753.651	37753.26
753.989	37553.72
754.327	37671.68
754.666	37494.73
755.004	37617.9
755.342	37672.58
755.679	37582.42
756.017	37330.44
756.355	37461.51
756.693	37274.85
757.031	37491.57
757.368	37402.76
757.706	37310.33
758.044	37126.38
758.381	37134.29
758.719	37040.28
759.056	36981.08
759.394	36859.27
759.731	36712.61
760.068	36676
760.405	36547.41
760.743	36368.89
761.08	36581.09
761.417	36269
761.754	36423.12
762.091	36356.23
762.428	36225.62
762.765	36166.41
763.102	36316.91
763.438	36040.76
763.775	36020.87
764.112	35892.74
764.449	36146.3
764.785	35953.98
765.122	35791.05
765.458	35755.57
765.795	35850.48
766.131	35779.75
766.467	35702.92
766.804	35628.34
767.14	35576.59
767.476	35565.29
767.812	35641.22
768.148	35683.93
768.485	35378.63
768.821	35292.31
769.157	35306.77
769.492	35376.6
769.828	35267.9
770.164	35043.73
770.5	34984.07
770.836	35053.67
771.171	34790.62
771.507	34655.71
771.842	34554.02
772.178	34636.05
772.513	34389.73
772.849	34281.94
773.184	34078.33
773.519	34027.71
773.855	33881.95
774.19	33793.36
774.525	33671.78
774.86	33653.71
775.195	33456.2
775.53	33359.93
775.865	33309.08
776.2	33048.75
776.535	32758.81
776.87	32735.31
777.205	32508.65
777.539	32351.37
777.874	32273.4
778.209	32119.51
778.543	32065.27
778.878	31900.53
779.212	31783.92
779.547	31706.41
779.881	31731.5
780.215	31608.79
780.55	31584.83
780.884	31408.11
781.218	31530.6
781.552	31346.42
781.886	31195.01
782.22	31023.04
782.554	31013.55
782.888	30669.6
783.222	30711.41
783.556	30667.57
783.889	30635.71
784.223	30260.8
784.557	30273.68
784.89	30459.67
785.224	30170.63
785.557	30118.66
785.891	30166.11
786.224	30125.44
786.558	30173.57
786.891	29771.1
787.224	29710.98
787.557	29712.57
787.891	29597.99
788.224	29626.69
788.557	29706.46
788.89	29492.91
789.223	29420.14
789.556	29217.89
789.888	29234.84
790.221	29077.55
790.554	28934.28
790.887	28936.99
791.219	28787.62
791.552	28652.93
791.884	28435.76
792.217	28395.99
792.549	28226.5
792.882	28029.67
793.214	27913.29
793.546	28076.23
793.879	27772.28
794.211	27768.44
794.543	27804.59
794.875	27564.15
795.207	27620.64
795.539	27487.09
795.871	27274.66
796.203	26913.54
796.535	26895.69
796.867	26749.25
797.198	26734.79
797.53	26783.6
797.862	26663.61
798.193	26612.31
798.525	26421.81
798.856	26546.55
799.188	26215.93
799.519	26126.67
799.85	26101.36
800.182	26095.49
800.513	26105.2
800.844	25889.84
801.175	26157.41
801.506	25950.41
801.837	25803.29
802.168	25782.73
802.499	25776.17
802.83	25574.82
803.161	25559.46
803.491	25583.41
803.822	25479.91
804.153	25365.11
804.483	25315.39
804.814	25149.3
805.145	25350.65
805.475	25350.42
805.805	25126.92
806.136	25170.54
806.466	25192.69
806.796	25086.02
807.126	24820.72
807.457	24776.65
807.787	24801.96
808.117	24664.34
808.447	24525.13
808.777	24632.93
809.107	24533.04
809.436	24350.67
809.766	24272.71
810.096	24134.86
810.426	24061.42
810.755	24004.24
811.085	23965.15
811.414	23867.52
811.744	23762.67
812.073	23693.29
812.403	23653.29
812.732	23404.94
813.061	23446.97
813.39	23304.6
813.719	23211.27
814.049	23288.33
814.378	23144.83
814.707	23099.41
815.036	22875.23
815.365	22776.03
815.693	22639.76
816.022	22704.61
816.351	22646.09
816.68	22426.2
817.008	22642.7
817.337	22377.84
817.665	22248.13
817.994	22324.06
818.322	22270.05
818.651	22221.01
818.979	22067.12
819.307	22265.08
819.636	22103.5
819.964	21986.22
820.292	22098.53
820.62	22216.72
820.948	22067.57
821.276	22307.79
821.604	22154.35
821.932	22168.81
822.259	22239.99
822.587	22136.04
822.915	22218.75
823.243	22279.99
823.57	22246.1
823.898	22203.16
824.225	22209.26
824.553	22123.16
824.88	22389.59
825.207	22477.28
825.535	22273.21
825.862	22410.39
826.189	22307.11
826.516	22428.01
826.843	22562.25
827.17	22446.99
827.497	22477.05
827.824	22341.46
828.151	22329.94
828.478	22321.8
828.805	22422.14
829.131	22235.93
829.458	22231.86
829.785	22172.88
830.111	22129.04
830.438	22270.5
830.764	22120.9
831.09	22208.58
831.417	21980.79
831.743	22106.21
832.069	22159.77
832.395	22016.27
832.722	22047.46
833.048	21856.73
833.374	21885.88
833.7	21733.11
834.026	21733.79
834.351	21814.92
834.677	21804.53
835.003	21732.21
835.329	21736.05
835.654	21694.25
835.98	21707.35
836.306	21544.42
836.631	21354.14
836.956	21545.55
837.282	21491.77
837.607	21392.33
837.932	21379
838.258	21439.11
838.583	21435.5
838.908	21266.23
839.233	21346.01
839.558	21254.48
839.883	21238.44
840.208	21114.83
840.533	21239.12
840.858	21272.56
841.182	21304.43
841.507	21287.25
841.832	21159.34
842.156	21146.01
842.481	21174.49
842.805	21106.46
843.13	21019.69
843.454	21016.07
843.778	20946.24
844.103	20944.66
844.427	20906.92
844.751	20884.78
845.075	20801.16
845.399	20700.83
845.723	20667.38
846.047	20561.62
846.371	20584.9
846.695	20547.61
847.019	20344.22
847.343	20217.22
847.666	20266.26
847.99	20111.91
848.313	20137.22
848.637	19758.03
848.96	19875.08
849.284	19775.2
849.607	19605.26
849.931	19525.94
850.254	19334.08
850.577	19104.48
850.9	19080.98
851.223	19127.76
851.546	18933.19
851.869	18823.59
852.192	18805.73
852.515	18647.77
852.838	18510.83
853.161	18533.43
853.483	18334.79
853.806	18276.26
854.129	18124.85
854.451	18168.91
854.774	18051.86
855.096	18019.99
855.419	17912.42
855.741	17895.02
856.063	17804.86
856.385	17746.1
856.708	17610.51
857.03	17698.87
857.352	17689.15
857.674	17645.76
857.996	17559.67
858.318	17541.13
858.64	17507.01
858.961	17493.23
859.283	17458.88
859.605	17434.02
859.926	17373.68
860.248	17376.17
860.57	17355.83
860.891	17297.3
861.212	17275.61
861.534	17289.62
861.855	17249.17
862.176	17196.51
862.498	17368.03
862.819	17220.92
863.14	17149.05
863.461	17192.9
863.782	17130.75
864.103	17152.9
864.424	17066.8
864.745	17144.08
865.065	17116.51
865.386	17024.99
865.707	17098.43
866.027	17052.33
866.348	17017.98
866.668	17014.14
866.989	16979.79
867.309	16721.5
867.63	16910.42
867.95	16782.96
868.27	16721.27
868.59	16817.99
868.91	16819.35
869.23	16723.3
869.55	16627.26
869.87	16729.4
870.19	16652.8
870.51	16554.95
870.83	16590.2
871.15	16312.24
871.469	16367.15
871.789	16423.42
872.109	16380.04
872.428	16108.86
872.748	16173.26
873.067	16190.89
873.386	16100.27
873.706	16034.73
874.025	15999.93
874.344	15961.29
874.663	16020.72
874.982	15945.24
875.301	15856.66
875.62	15828.19
875.939	15729.66
876.258	15788.41
876.577	15709.09
876.896	15738.02
877.214	15646.72
877.533	15605.14
877.852	15564.92
878.17	15599.49
878.489	15635.2
878.807	15611.02
879.125	15644.91
879.444	15599.04
879.762	15561.53
880.08	15560.62
880.398	15491.25
880.716	15466.16
881.034	15467.07
881.352	15417.35
881.67	15425.26
881.988	15499.83
882.306	15434.52
882.624	15320.4
882.941	15391.36
883.259	15373.73
883.577	15334.64
883.894	15322.89
884.212	15306.17
884.529	15183
884.846	15184.36
885.164	15290.35
885.481	15223.91
885.798	15338.48
886.115	15156.56
886.432	15286.96
886.75	15146.17
887.067	15142.55
887.383	15104.14
887.7	15146.85
888.017	15038.38
888.334	15053.52
888.651	14978.04
888.967	14986.63
889.284	14932.16
889.6	14802
889.917	14710.7
890.233	14658.05
890.55	14653.08
890.866	14661.21
891.182	14536.92
891.498	14498.05
891.815	14415.79
892.131	14364.5
892.447	14319.52
892.763	14230.26
893.079	14209.92
893.395	14035.69
893.71	14101.68
894.026	13971.29
894.342	13997.27
894.657	13863.94
894.973	13891.51
895.289	13837.5
895.604	13751.86
895.92	13653.33
896.235	13514.12
896.55	13514.57
896.865	13477.51
897.181	13363.17
897.496	13304.86
897.811	13296.27
898.126	13197.07
898.441	13163.62
898.756	13155.49
899.071	13062.61
899.386	13145.09
899.7	12921.14
900.015	12947.58
900.33	12861.26
900.644	12862.84
900.959	12813.8
901.273	12767.25
901.588	12750.98
901.902	12696.97
902.216	12685.67
902.531	12720.24
902.845	12612.68
903.159	12572.68
903.473	12617.2
903.787	12465.34
904.101	12455.39
904.415	12502.85
904.729	12511.44
905.042	12416.75
905.356	12296.98
905.67	12368.84
905.984	12354.83
906.297	12231.22
906.611	12235.96
906.924	12269.41
907.237	12157.1
907.551	12100.6
907.864	11999.81
908.177	12032.81
908.491	11974.73
908.804	11995.97
909.117	11877.55
909.43	11815.86
909.743	11750.55
910.056	11739.93
910.368	11753.49
910.681	11647.73
910.994	11736.54
911.307	11700.61
911.619	11520.28
911.932	11608.18
912.244	11367.74
912.557	11414.74
912.869	11408.19
913.181	11280.51
913.494	11270.79
913.806	11114.86
914.118	11063.34
914.43	11011.59
914.742	11055.43
915.054	10935.88
915.366	10941.99
915.678	10819.96
915.99	10781.99
916.302	10689.79
916.613	10643.46
916.925	10608.44
917.236	10571.6
917.548	10454.32
917.859	10450.25
918.171	10356.46
918.482	10345.17
918.794	10229.46
919.105	10277.6
919.416	10136.58
919.727	10161.89
920.038	10140.43
920.349	10009.13
920.66	9934.78
920.971	9943.14
921.282	9903.37
921.593	9784.95
921.903	9723.71
922.214	9727.33
922.525	9774.33
922.835	9694.56
923.146	9589.93
923.456	9565.75
923.767	9566.43
924.077	9575.24
924.387	9554
924.697	9424.51
925.008	9436.72
925.318	9437.85
925.628	9415.7
925.938	9376.83
926.248	9305.87
926.558	9218.64
926.867	9231.75
927.177	9270.39
927.487	9232.2
927.796	9157.17
928.106	9115.37
928.416	9147.23
928.725	9093.45
929.034	9012.09
929.344	9030.62
929.653	9074.46
929.962	8979.33
930.271	8951.08
930.581	8870.18
930.89	8888.71
931.199	8923.73
931.508	8848.71
931.817	8816.39
932.125	8769.16
932.434	8801.03
932.743	8726.45
933.051	8700.92
933.36	8704.98
933.669	8647.58
933.977	8575.95
934.286	8567.59
934.594	8565.33
934.902	8469.06
935.21	8465.89
935.519	8455.95
935.827	8374.82
936.135	8329.4
936.443	8240.81
936.751	8278.1
937.059	8274.26
937.367	8206.92
937.674	8112.68
937.982	8110.42
938.29	8072.01
938.597	8007.15
938.905	7992.69
939.213	7888.06
939.52	7878.34
939.827	7859.36
940.135	7809.41
940.442	7735.29
940.749	7741.17
941.056	7658.23
941.363	7584.11
941.67	7611
941.977	7417.79
942.284	7429.08
942.591	7395.41
942.898	7340.05
943.205	7414.17
943.511	7303.44
943.818	7282.65
944.125	7251.01
944.431	7222.99
944.738	7192.93
945.044	7154.52
945.35	7051.92
945.657	7041.52
945.963	7007.85
946.269	7021.41
946.575	6994.75
946.881	6946.84
947.187	6956.55
947.493	6929.44
947.799	6824.58
948.105	6790.23
948.41	6822.55
948.716	6815.32
949.022	6754.75
949.327	6752.94
949.633	6658.48
949.938	6695.09
950.244	6677.69
950.549	6642.21
950.854	6589.78
951.16	6531.03
951.465	6538.94
951.77	6538.94
952.075	6498.26
952.38	6526.51
952.685	6487.87
952.99	6416
953.294	6482.44
953.599	6402.22
953.904	6384.82
954.209	6319.73
954.513	6375.33
954.818	6342.56
955.122	6268.21
955.426	6275.89
955.731	6226.18
956.035	6216.01
956.339	6247.19
956.643	6253.97
956.948	6159.29
957.252	6162.22
957.556	6157.71
957.86	6101.89
958.163	6068.44
958.467	6052.62
958.771	6008.78
959.075	6004.26
959.378	5973.3
959.682	5964.26
959.985	5919.29
960.289	5889.01
960.592	5845.85
960.896	5869.8
961.199	5769.24
961.502	5764.27
961.805	5743.7
962.108	5690.82
962.411	5700.09
962.714	5628.23
963.017	5621
963.32	5646.31
963.623	5598.85
963.926	5537.16
964.228	5524.95
964.531	5503.26
964.833	5467.33
965.136	5379.65
965.438	5438.18
965.741	5339.2
966.043	5352.98
966.345	5310.95
966.648	5252.42
966.95	5246.77
967.252	5166.09
967.554	5195.7
967.856	5124.51
968.158	5131.07
968.46	5092.42
968.761	5065.08
969.063	5046.32
969.365	4991.86
969.666	4998.19
969.968	4962.71
970.269	4984.85
970.571	4925.87
970.872	4879.32
971.174	4864.41
971.475	4842.71
971.776	4818.76
972.077	4809.04
972.378	4769.95
972.679	4789.15
972.98	4735.6
973.281	4733.56
973.582	4725.43
973.883	4680
974.183	4683.17
974.484	4665.09
974.785	4625.32
975.085	4629.84
975.386	4622.6
975.686	4540.35
975.986	4538.54
976.287	4542.83
976.587	4503.51
976.887	4481.14
977.187	4496.28
977.487	4475.72
977.787	4482.95
978.087	4487.24
978.387	4445.21
978.687	4409.73
978.987	4395.49
979.286	4365.44
979.586	4357.75
979.885	4382.16
980.185	4318.21
980.484	4357.07
980.784	4275.49
981.083	4308.94
981.382	4295.61
981.682	4287.92
981.981	4242.73
982.28	4225.1
982.579	4228.72
982.878	4253.8
983.177	4176.97
983.475	4208.83
983.774	4147.36
984.073	4148.49
984.372	4129.28
984.67	4134.26
984.969	4107.36
985.267	4149.62
985.566	4050.19
985.864	4042.28
986.162	4095.39
986.461	4035.5
986.759	4020.13
987.057	4008.84
987.355	4010.87
987.653	3968.16
987.951	3945.33
988.249	3910.76
988.547	3882.28
988.844	3836.41
989.142	3856.3
989.44	3835.73
989.737	3812.23
990.035	3782.63
990.332	3755.73
990.63	3750.54
990.927	3743.76
991.224	3697.66
991.521	3726.58
991.819	3666.92
992.116	3625.34
992.413	3593.7
992.71	3563.88
993.006	3532.01
993.303	3537.66
993.6	3542.41
993.897	3471
994.193	3481.17
994.49	3478.23
994.787	3418.12
995.083	3399.36
995.379	3401.17
995.676	3425.35
995.972	3351.45
996.268	3376.54
996.565	3323.88
996.861	3288.63
997.157	3273.04
997.453	3275.07
997.749	3269.42
998.044	3241.62
998.34	3198.69
998.636	3233.04
998.932	3176.99
999.227	3167.05
999.523	3155.98
999.818	3133.6
1000.114	3131.57
1000.409	3119.14
1000.704	3073.94
1001	3040.5
1001.295	3070.33
1001.59	3048.63
1001.885	3027.62
1002.18	2996.66
1002.475	3012.48
1002.77	3007.73
1003.065	2955.76
1003.359	2932.48
1003.654	2962.76
1003.949	2942.87
1004.243	2913.72
1004.538	2912.37
1004.832	2876.44
1005.127	2875.76
1005.421	2824.46
1005.715	2863.78
1006.009	2822.88
1006.304	2779.72
1006.598	2791.24
1006.892	2768.64
1007.186	2794.63
1007.48	2751.02
1007.773	2726.84
1008.067	2702.88
1008.361	2671.02
1008.655	2676.67
1008.948	2653.62
1009.242	2658.14
1009.535	2659.72
1009.829	2630.11
1010.122	2625.37
1010.415	2630.79
1010.708	2614.52
1011.001	2617.69
1011.295	2583.11
1011.588	2565.03
1011.881	2564.81
1012.173	2531.13
1012.466	2528.87
1012.759	2517.58
1013.052	2491.14
1013.344	2438.48
1013.637	2446.16
1013.93	2420.85
1014.222	2431.93
1014.514	2405.94
1014.807	2389.22
1015.099	2358.03
1015.391	2337.69
1015.683	2355.55
1015.976	2361.42
1016.268	2316.9
1016.56	2274.19
1016.851	2281.65
1017.143	2252.95
1017.435	2258.6
1017.727	2259.73
1018.018	2221.31
1018.31	2228.32
1018.602	2182.67
1018.893	2187.19
1019.185	2174.31
1019.476	2121.43
1019.767	2111.26
1020.058	2099.51
1020.35	2101.54
1020.641	2075.78
1020.932	2049.79
1021.223	2028.55
1021.514	2060.41
1021.804	2040.75
1022.095	1995.78
1022.386	1984.03
1022.677	1984.71
1022.967	1987.87
1023.258	1948.32
1023.548	1909
1023.839	1933.41
1024.129	1918.49
1024.419	1866.74
1024.709	1897.48
1025	1873.75
1025.29	1836.24
1025.58	1824.03
1025.87	1793.75
1026.16	1788.1
1026.449	1764.37
1026.739	1784.49
1027.029	1780.65
1027.319	1761.89
1027.608	1733.19
1027.898	1727.54
1028.187	1723.02
1028.477	1690.7
1028.766	1695.45
1029.055	1650.71
1029.344	1655.45
1029.634	1633.08
1029.923	1648.67
1030.212	1638.73
1030.501	1618.16
1030.79	1600.31
1031.078	1612.97
1031.367	1559.86
1031.656	1575
1031.945	1586.3
1032.233	1559.86
1032.522	1580.88
1032.81	1537.71
1033.099	1523.48
1033.387	1504.49
1033.675	1507.66
1033.963	1544.27
1034.251	1503.14
1034.54	1490.71
1034.828	1491.61
1035.116	1490.26
1035.403	1474.44
1035.691	1473.08
1035.979	1433.31
1036.267	1450.71
1036.554	1439.19
1036.842	1426.98
1037.129	1388.11
1037.417	1398.06
1037.704	1382.69
1037.992	1371.84
1038.279	1371.84
1038.566	1354.67
1038.853	1354.67
1039.14	1354.67
