Data from blue_surface_keyboard_FLMS001491_049.txt Node
Date: Tue Feb 07 11:13:11 GMT 2017
User: dcchb
Spectrometer: FLMS00149
Trigger mode: 0
Integration Time (sec): 2.000000E-2
Scans to average: 10
Electric dark correction enabled: true
Nonlinearity correction enabled: false
Boxcar width: 0
XAxis mode: Wavelengths
Number of Pixels in Spectrum: 2048
>>>>>Begin Spectral Data<<<<<
341.393	13.19
341.776	13.19
342.16	13.19
342.543	-61.38
342.927	-56.18
343.31	-81.27
343.693	-74.94
344.077	-98.22
344.46	-48.73
344.843	-61.16
345.226	-45.56
345.61	-50.99
345.993	-6.02
346.376	4.83
346.759	17.03
347.142	28.78
347.525	65.17
347.908	89.35
348.291	62
348.674	87.09
349.057	112.62
349.44	107.2
349.823	124.6
350.206	151.95
350.588	170.02
350.971	186.97
351.354	189.23
351.737	243.69
352.119	224.03
352.502	233.07
352.884	254.32
353.267	247.76
353.65	261.32
354.032	283.69
354.414	264.71
354.797	284.37
355.179	295.22
355.562	310.81
355.944	306.52
356.326	302.22
356.709	335.44
357.091	309.23
357.473	326.86
357.855	288.66
358.238	313.07
358.62	320.75
359.002	309
359.384	317.59
359.766	313.75
360.148	318.95
360.53	336.12
360.912	305.84
361.294	315.1
361.676	311.49
362.057	308.33
362.439	317.59
362.821	310.13
363.203	299.06
363.584	293.86
363.966	305.84
364.348	292.28
364.729	297.48
365.111	314.2
365.493	279.63
365.874	296.57
366.256	290.7
366.637	300.64
367.019	296.12
367.4	284.15
367.781	286.4
368.163	286.18
368.544	293.64
368.925	281.43
369.306	311.04
369.688	279.85
370.069	278.04
370.45	278.5
370.831	268.1
371.212	292.28
371.593	287.53
371.974	286.18
372.355	291.6
372.736	284.6
373.117	296.8
373.498	292.05
373.879	286.86
374.26	298.16
374.641	285.5
375.021	286.63
375.402	283.69
375.783	290.7
376.163	270.36
376.544	299.06
376.925	299.96
377.305	291.38
377.686	299.06
378.066	292.51
378.447	284.82
378.827	309.46
379.208	302.68
379.588	285.73
379.968	309
380.349	303.58
380.729	304.71
381.109	298.83
381.489	314.65
381.87	295.9
382.25	310.81
382.63	301.32
383.01	302.9
383.39	302
383.77	307.65
384.15	306.07
384.53	316.23
384.91	318.95
385.29	308.78
385.67	282.11
386.049	297.25
386.429	317.82
386.809	303.81
387.189	321.66
387.568	311.94
387.948	331.15
388.328	327.99
388.707	310.81
389.087	322.11
389.466	328.66
389.846	306.97
390.225	325.5
390.605	331.83
390.984	312.39
391.363	315.56
391.743	312.39
392.122	330.7
392.501	322.11
392.881	319.17
393.26	316.69
393.639	343.8
394.018	312.84
394.397	308.1
394.776	337.93
395.155	343.35
395.534	342.9
395.913	327.53
396.292	329.57
396.671	322.11
397.05	340.41
397.429	332.05
397.808	334.09
398.186	325.5
398.565	325.5
398.944	332.51
399.323	355.56
399.701	332.51
400.08	348.32
400.458	333.64
400.837	343.13
401.215	339.74
401.594	354.2
401.972	354.65
402.351	338.83
402.729	370.02
403.107	365.5
403.486	357.59
403.864	334.77
404.242	356.01
404.62	349
404.999	360.08
405.377	329.57
405.755	354.88
406.133	357.14
406.511	338.83
406.889	344.03
407.267	344.03
407.645	339.06
408.023	353.97
408.401	368.21
408.779	356.69
409.156	378.83
409.534	366.4
409.912	363.92
410.29	358.49
410.667	364.14
411.045	362.34
411.422	382.67
411.8	368.44
412.178	379.06
412.555	366.85
412.933	365.05
413.31	372.73
413.687	380.64
414.065	399.85
414.442	377.48
414.819	370.7
415.197	370.02
415.574	379.96
415.951	387.42
416.328	392.16
416.705	397.81
417.082	393.52
417.46	380.87
417.837	394.42
418.214	377.7
418.591	408.44
418.967	393.07
419.344	405.5
419.721	412.73
420.098	391.03
420.475	397.14
420.852	383.58
421.228	408.66
421.605	412.05
421.982	398.72
422.358	393.52
422.735	413.63
423.111	404.37
423.488	398.49
423.864	405.05
424.241	425.16
424.617	414.31
424.994	414.99
425.37	424.93
425.746	443.24
426.123	427.64
426.499	425.16
426.875	423.8
427.251	431.94
427.627	434.88
428.003	421.77
428.379	442.11
428.756	438.94
429.132	443.46
429.507	454.08
429.883	430.58
430.259	467.87
430.635	448.43
431.011	431.26
431.387	438.94
431.763	448.21
432.138	465.38
432.514	464.03
432.89	441.43
433.265	453.18
433.641	487.76
434.016	466.74
434.392	457.25
434.767	488.21
435.143	480.3
435.518	476
435.894	499.96
436.269	500.41
436.644	491.37
437.02	471.26
437.395	485.72
437.77	509.45
438.145	508.09
438.52	505.61
438.895	491.82
439.271	503.57
439.646	519.17
440.021	521.2
440.395	509
440.77	501.77
441.145	522.33
441.52	502.44
441.895	513.52
442.27	512.39
442.645	523.23
443.019	534.08
443.394	522.78
443.769	501.77
444.143	525.95
444.518	507.64
444.892	560.3
445.267	529.34
445.641	529.34
446.016	534.53
446.39	521.65
446.764	536.79
447.139	536.34
447.513	535.89
447.887	547.64
448.262	536.79
448.636	526.85
449.01	547.87
449.384	556.45
449.758	566.4
450.132	572.5
450.506	558.94
450.88	583.8
451.254	553.74
451.628	557.13
452.002	559.17
452.376	571.6
452.75	579.5
453.123	579.05
453.497	570.92
453.871	593.29
454.244	585.15
454.618	590.58
454.992	598.04
455.365	577.92
455.739	604.81
456.112	602.78
456.486	605.49
456.859	626.73
457.232	615.21
457.606	646.4
457.979	640.52
458.352	610.24
458.725	623.35
459.099	617.92
459.472	630.58
459.845	638.94
460.218	643.23
460.591	642.33
460.964	627.41
461.337	645.72
461.71	654.53
462.083	662.21
462.456	649.56
462.829	650.01
463.201	691.59
463.574	672.84
463.947	680.29
464.32	699.28
464.692	699.5
465.065	689.78
465.438	706.05
465.81	710.57
466.183	696.56
466.555	713.06
466.928	705.38
467.3	702.21
467.672	723
468.045	719.61
468.417	719.39
468.789	748.31
469.161	714.64
469.534	739.05
469.906	739.73
470.278	734.75
470.65	722.33
471.022	768.2
471.394	780.86
471.766	776.56
472.138	805.26
472.51	804.36
472.882	805.71
473.253	804.36
473.625	818.82
473.997	833.06
474.369	843.23
474.74	842.1
475.112	847.97
475.484	845.71
475.855	852.72
476.227	875.54
476.598	889.78
476.97	887.07
477.341	880.74
477.713	904.92
478.084	921.87
478.455	887.75
478.827	932.26
479.198	956.22
479.569	917.8
479.94	939.95
480.311	961.19
480.682	992.38
481.053	985.37
481.424	1006.39
481.795	1011.81
482.166	1015.2
482.537	1001.87
482.908	1028.76
483.279	1043.9
483.65	1035.99
484.021	1058.14
484.391	1053.84
484.762	1064.46
485.133	1070.57
485.503	1094.29
485.874	1073.5
486.244	1100.85
486.615	1105.14
486.985	1103.78
487.356	1137.91
487.726	1111.47
488.097	1144.69
488.467	1149.66
488.837	1163.67
489.207	1187.4
489.578	1170.45
489.948	1189.43
490.318	1170.9
490.688	1217
491.058	1238.47
491.428	1218.13
491.798	1232.14
492.168	1215.65
492.538	1252.71
492.908	1242.76
493.278	1242.99
493.648	1241.18
494.017	1297.9
494.387	1263.1
494.757	1256.77
495.126	1266.72
495.496	1297.45
495.866	1268.53
496.235	1281.86
496.605	1299.71
496.974	1272.37
497.344	1285.93
497.713	1313.27
498.082	1322.31
498.452	1333.83
498.821	1334.06
499.19	1308.98
499.559	1345.59
499.928	1314.4
500.298	1337.45
500.667	1319.37
501.036	1316.21
501.405	1328.86
501.774	1350.11
502.143	1332.25
502.512	1341.52
502.88	1344.23
503.249	1366.6
503.618	1364.79
503.987	1364.79
504.356	1333.83
504.724	1358.92
505.093	1371.35
505.462	1377.9
505.83	1369.77
506.199	1370.44
506.567	1395.53
506.936	1381.52
507.304	1389.43
507.672	1414.96
508.041	1364.12
508.409	1392.82
508.777	1389.65
509.145	1421.29
509.514	1431.69
509.882	1444.34
510.25	1409.31
510.618	1414.51
510.986	1383.78
511.354	1422.65
511.722	1403.89
512.09	1425.13
512.458	1396.66
512.826	1415.87
513.193	1417.9
513.561	1452.25
513.929	1438.92
514.297	1428.52
514.664	1440.72
515.032	1431.23
515.4	1453.38
515.767	1463.78
516.135	1450.44
516.502	1427.39
516.869	1480.95
517.237	1458.58
517.604	1453.38
517.972	1474.17
518.339	1469.88
518.706	1498.12
519.073	1486.37
519.44	1469.42
519.808	1479.37
520.175	1475.3
520.542	1527.28
520.909	1486.15
521.276	1484.57
521.643	1489.09
522.009	1508.07
522.376	1475.75
522.743	1500.16
523.11	1518.91
523.477	1508.52
523.843	1505.36
524.21	1519.59
524.577	1521.85
524.943	1516.2
525.31	1532.47
525.676	1539.48
526.043	1519.82
526.409	1538.8
526.776	1541.51
527.142	1593.94
527.508	1545.13
527.874	1551.68
528.241	1572.47
528.607	1553.26
528.973	1556.88
529.339	1575.18
529.705	1599.59
530.071	1576.09
530.437	1591
530.803	1586.48
531.169	1566.37
531.535	1577.44
531.901	1593.26
532.267	1602.75
532.632	1626.26
532.998	1552.81
533.364	1588.29
533.73	1609.31
534.095	1594.39
534.461	1610.66
534.826	1591.46
535.192	1626.93
535.557	1618.8
535.923	1619.93
536.288	1619.93
536.653	1590.78
537.019	1616.77
537.384	1608.86
537.749	1589.65
538.114	1611.79
538.479	1635.07
538.845	1626.48
539.21	1623.09
539.575	1607.5
539.94	1616.99
540.305	1597.78
540.67	1613.83
541.034	1638.01
541.399	1595.3
541.764	1644.79
542.129	1627.39
542.494	1602.3
542.858	1658.8
543.223	1647.27
543.587	1662.64
543.952	1634.62
544.316	1626.71
544.681	1614.73
545.045	1621.51
545.41	1647.5
545.774	1628.52
546.138	1628.74
546.503	1656.31
546.867	1661.51
547.231	1645.01
547.595	1618.35
547.959	1647.27
548.324	1637.78
548.688	1618.35
549.052	1654.73
549.416	1614.51
549.779	1615.86
550.143	1633.49
550.507	1632.13
550.871	1635.97
551.235	1653.6
551.599	1659.7
551.962	1661.96
552.326	1656.99
552.689	1643.66
553.053	1652.24
553.417	1655.41
553.78	1678.23
554.143	1673.49
554.507	1646.6
554.87	1670.32
555.234	1661.74
555.597	1674.39
555.96	1659.7
556.323	1658.12
556.686	1671.68
557.05	1696.31
557.413	1669.19
557.776	1675.97
558.139	1647.27
558.502	1671.23
558.865	1653.37
559.228	1682.3
559.59	1692.02
559.953	1707.16
560.316	1696.31
560.679	1692.7
561.041	1680.94
561.404	1700.38
561.767	1713.49
562.129	1701.51
562.492	1720.27
562.854	1692.24
563.217	1749.87
563.579	1707.61
563.941	1699.02
564.304	1702.41
564.666	1735.86
565.028	1717.33
565.39	1715.75
565.753	1719.36
566.115	1732.47
566.477	1754.61
566.839	1755.74
567.201	1758.23
567.563	1747.16
567.925	1749.87
568.287	1756.2
568.648	1759.13
569.01	1764.33
569.372	1768.85
569.734	1759.81
570.095	1763.65
570.457	1816.31
570.819	1745.35
571.18	1791.45
571.542	1782.86
571.903	1793.26
572.265	1777.89
572.626	1762.75
572.987	1783.54
573.349	1804.78
573.71	1809.3
574.071	1782.18
574.432	1781.96
574.794	1788.06
575.155	1786.93
575.516	1788.96
575.877	1819.92
576.238	1811.11
576.599	1829.19
576.96	1829.42
577.32	1806.36
577.681	1826.93
578.042	1839.58
578.403	1804.56
578.763	1827.16
579.124	1816.53
579.485	1827.16
579.845	1845.69
580.206	1850.66
580.566	1808.85
580.927	1810.21
581.287	1857.21
581.648	1816.76
582.008	1838
582.368	1826.93
582.728	1817.66
583.089	1835.06
583.449	1820.6
583.809	1827.38
584.169	1822.86
584.529	1842.07
584.889	1868.74
585.249	1832.8
585.609	1834.84
585.969	1853.14
586.329	1853.37
586.688	1828.74
587.048	1867.83
587.408	1854.27
587.768	1840.26
588.127	1826.03
588.487	1844.1
588.846	1855.86
589.206	1854.95
589.565	1843.65
589.925	1834.16
590.284	1867.83
590.643	1845.69
591.003	1872.58
591.362	1875.06
591.721	1827.38
592.08	1866.93
592.44	1861.73
592.799	1849.53
593.158	1841.62
593.517	1866.48
593.876	1868.51
594.235	1854.95
594.593	1860.83
594.952	1901.05
595.311	1857.44
595.67	1861.28
596.029	1885.68
596.387	1899.24
596.746	1890.66
597.104	1870.09
597.463	1916.64
597.822	1905.8
598.18	1866.7
598.538	1886.59
598.897	1895.85
599.255	1881.39
599.613	1909.64
599.972	1890.66
600.33	1901.5
600.688	1908.96
601.046	1896.76
601.404	1910.09
601.762	1900.83
602.12	1915.06
602.478	1911.45
602.836	1886.81
603.194	1875.29
603.552	1900.37
603.91	1909.87
604.268	1891.56
604.625	1925.23
604.983	1911.9
605.341	1881.62
605.698	1935.4
606.056	1938.56
606.413	1929.53
606.771	1919.36
607.128	1946.25
607.485	1926.14
607.843	1938.11
608.2	1949.86
608.557	1959.36
608.914	1954.38
609.272	1950.54
609.629	1964.1
609.986	1938.11
610.343	1964.55
610.7	1932.01
611.057	1952.35
611.414	1953.48
611.771	1964.1
612.127	1975.85
612.484	1955.97
612.841	1948.96
613.198	1967.26
613.554	1995.06
613.911	2003.87
614.267	1985.34
614.624	2033.48
614.98	2018.34
615.337	1997.77
615.693	2005.46
616.05	1998.9
616.406	1970.2
616.762	2012.46
617.118	1972.01
617.475	1993.7
617.831	2001.16
618.187	2031.44
618.543	2005.23
618.899	2009.98
619.255	2061.5
619.611	2034.16
619.967	2015.17
620.323	2025.79
620.678	2018.56
621.034	2017.43
621.39	2028.05
621.746	2025.79
622.101	2041.39
622.457	2037.77
622.812	2092.46
623.168	2051.56
623.523	2047.71
623.879	2049.97
624.234	2048.62
624.589	2069.18
624.945	2015.85
625.3	2090.65
625.655	2068.05
626.01	2085.91
626.365	2056.53
626.72	2077.77
627.075	2056.98
627.43	2067.15
627.785	2044.78
628.14	2062.18
628.495	2108.05
628.85	2101.5
629.205	2117.32
629.559	2063.08
629.914	2120.93
630.269	2122.51
630.623	2084.55
630.978	2109.41
631.332	2128.16
631.687	2092.91
632.041	2126.58
632.396	2118
632.75	2096.75
633.104	2096.07
633.459	2134.72
633.813	2134.94
634.167	2116.64
634.521	2118.9
634.875	2143.98
635.229	2152.34
635.583	2151.21
635.937	2164.55
636.291	2175.39
636.645	2154.15
636.999	2181.95
637.352	2174.94
637.706	2196.86
638.06	2130.2
638.413	2173.13
638.767	2185.79
639.121	2152.34
639.474	2159.58
639.828	2186.92
640.181	2195.73
640.534	2175.85
640.888	2188.5
641.241	2205.9
641.594	2190.31
641.947	2233.7
642.301	2214.49
642.654	2211.78
643.007	2243.87
643.36	2230.53
643.713	2245.45
644.066	2246.13
644.419	2254.49
644.771	2273.47
645.124	2219.46
645.477	2225.56
645.83	2211.1
646.182	2195.51
646.535	2267.14
646.888	2254.71
647.24	2278.67
647.593	2264.43
647.945	2268.27
648.298	2272.34
648.65	2273.92
649.002	2283.87
649.355	2303.08
649.707	2310.31
650.059	2344.2
650.411	2329.97
650.763	2327.71
651.115	2340.36
651.467	2357.99
651.819	2369.06
652.171	2416.52
652.523	2419.68
652.875	2430.08
653.227	2407.48
653.578	2459.46
653.93	2430.53
654.282	2461.71
654.633	2473.24
654.985	2487.48
655.337	2471.66
655.688	2502.39
656.039	2540.81
656.391	2519.11
656.742	2541.03
657.094	2532.22
657.445	2558.21
657.796	2557.76
658.147	2582.62
658.498	2574.48
658.849	2603.41
659.2	2595.04
659.551	2598.43
659.902	2634.14
660.253	2633.24
660.604	2670.97
660.955	2637.53
661.306	2659.22
661.656	2666
662.007	2694.93
662.358	2680.24
662.708	2717.98
663.059	2740.58
663.409	2704.19
663.76	2726.57
664.11	2783.06
664.461	2798.2
664.811	2749.17
665.161	2812.67
665.511	2784.87
665.862	2837.98
666.212	2846.79
666.562	2830.52
666.912	2865.09
667.262	2862.61
667.612	2878.88
667.962	2925.21
668.312	2953.23
668.662	2924.3
669.011	2950.97
669.361	2924.53
669.711	2942.15
670.06	2960.91
670.41	2989.61
670.76	2957.97
671.109	3042.49
671.459	3006.79
671.808	3008.59
672.157	3028.93
672.507	3019.89
672.856	3066.67
673.205	3111.87
673.554	3113.22
673.904	3097.4
674.253	3159.1
674.602	3122.04
674.951	3079.55
675.3	3108.48
675.649	3155.48
675.998	3190.06
676.346	3185.54
676.695	3171.75
677.044	3180.57
677.393	3185.54
677.741	3231.41
678.09	3231.86
678.438	3237.29
678.787	3236.16
679.135	3260.79
679.484	3291.98
679.832	3278.87
680.181	3292.43
680.529	3324.74
680.877	3318.42
681.225	3337.4
681.573	3362.93
681.922	3385.31
682.27	3371.3
682.618	3348.7
682.966	3402.26
683.314	3378.3
683.661	3413.33
684.009	3397.06
684.357	3376.04
684.705	3413.1
685.053	3428.02
685.4	3429.37
685.748	3417.85
686.095	3441.8
686.443	3424.18
686.79	3404.52
687.138	3473.21
687.485	3449.49
687.832	3461.46
688.18	3466.66
688.527	3449.03
688.874	3508.69
689.221	3473.44
689.568	3485.87
689.915	3498.07
690.262	3512.31
690.609	3490.61
690.956	3480.67
691.303	3541.01
691.65	3497.39
691.997	3516.6
692.344	3547.56
692.69	3532.2
693.037	3540.1
693.383	3557.51
693.73	3545.75
694.077	3547.11
694.423	3545.75
694.769	3525.87
695.116	3546.43
695.462	3559.09
695.808	3571.52
696.155	3520.22
696.501	3573.32
696.847	3544.62
697.193	3519.99
697.539	3548.92
697.885	3565.87
698.231	3524.06
698.577	3545.3
698.923	3528.13
699.269	3534.23
699.614	3521.35
699.96	3505.08
700.306	3538.75
700.651	3527
700.997	3518.41
701.342	3502.59
701.688	3506.43
702.033	3471.41
702.379	3523.38
702.724	3507.34
703.069	3508.69
703.415	3499.88
703.76	3512.99
704.105	3506.89
704.45	3491.07
704.795	3453.55
705.14	3495.36
705.485	3456.94
705.83	3453.78
706.175	3458.3
706.52	3459.43
706.865	3451.75
707.209	3435.25
707.554	3456.04
707.899	3440.22
708.243	3448.58
708.588	3452.2
708.932	3374.69
709.277	3447.68
709.621	3440.22
709.966	3440.22
710.31	3374.69
710.654	3408.36
710.998	3391.86
711.342	3403.84
711.687	3424.4
712.031	3388.47
712.375	3425.98
712.719	3413.78
713.063	3363.16
713.407	3403.84
713.75	3435.7
714.094	3379.43
714.438	3373.56
714.782	3379.2
715.125	3397.96
715.469	3411.97
715.812	3360
716.156	3380.79
716.499	3360.67
716.843	3393.22
717.186	3402.93
717.53	3424.4
717.873	3392.54
718.216	3365.42
718.559	3389.15
718.902	3359.09
719.246	3383.5
719.589	3369.49
719.932	3356.61
720.275	3391.63
720.617	3341.24
720.96	3360.22
721.303	3356.38
721.646	3356.61
721.989	3324.52
722.331	3421.69
722.674	3412.65
723.016	3402.26
723.359	3409.26
723.701	3401.8
724.044	3398.41
724.386	3387.57
724.729	3383.72
725.071	3416.72
725.413	3423.72
725.755	3396.83
726.097	3429.37
726.439	3418.07
726.782	3436.6
727.124	3422.82
727.465	3411.97
727.807	3389.6
728.149	3374.46
728.491	3414.46
728.833	3388.7
729.175	3407.23
729.516	3398.64
729.858	3389.37
730.199	3408.13
730.541	3408.13
730.882	3416.49
731.224	3404.52
731.565	3419.2
731.906	3412.65
732.248	3413.55
732.589	3406.55
732.93	3432.08
733.271	3449.71
733.612	3441.58
733.953	3423.27
734.294	3414.01
734.635	3417.4
734.976	3429.15
735.317	3491.29
735.658	3470.5
735.999	3413.78
736.339	3481.8
736.68	3463.04
737.021	3457.39
737.361	3511.4
737.702	3490.39
738.042	3461.01
738.383	3481.35
738.723	3503.04
739.063	3535.36
739.404	3537.62
739.744	3507.56
740.084	3503.5
740.424	3556.38
740.764	3549.6
741.104	3557.96
741.444	3578.75
741.784	3547.79
742.124	3624.85
742.464	3589.82
742.804	3552.76
743.143	3570.16
743.483	3566.32
743.823	3586.21
744.162	3644.73
744.502	3629.37
744.841	3641.12
745.181	3677.73
745.52	3635.92
745.86	3712.08
746.199	3674.34
746.538	3669.14
746.877	3717.95
747.216	3752.53
747.556	3717.95
747.895	3754.56
748.234	3771.06
748.573	3745.97
748.911	3797.05
749.25	3839.31
749.589	3810.38
749.928	3877.04
750.267	3867.33
750.605	3835.69
750.944	3895.35
751.283	3931.05
751.621	3940.55
751.96	3903.71
752.298	3943.03
752.636	3959.53
752.975	3974.67
753.313	4011.5
753.651	4050.6
753.989	4075.91
754.327	4052.63
754.666	4099.64
755.004	4084.27
755.342	4118.17
755.679	4159.75
756.017	4160.2
756.355	4219.86
756.693	4169.24
757.031	4228.67
757.368	4228.45
757.706	4199.07
758.044	4271.38
758.381	4323.59
758.719	4255.11
759.056	4274.55
759.394	4282.01
759.731	4254.44
760.068	4331.5
760.405	4347.32
760.743	4346.64
761.08	4376.47
761.417	4359.97
761.754	4360.87
762.091	4444.26
762.428	4375.11
762.765	4383.47
763.102	4436.8
763.438	4396.13
763.775	4412.4
764.112	4437.71
764.449	4491.72
764.785	4415.56
765.122	4445.84
765.458	4437.03
765.795	4457.37
766.131	4500.98
766.467	4463.47
766.804	4455.33
767.14	4446.52
767.476	4463.92
767.812	4436.13
768.148	4491.04
768.485	4506.18
768.821	4422.79
769.157	4471.83
769.492	4453.98
769.828	4457.82
770.164	4491.94
770.5	4445.62
770.836	4496.24
771.171	4468.89
771.507	4448.1
771.842	4423.92
772.178	4445.39
772.513	4419.63
772.849	4414.21
773.184	4432.06
773.519	4442.68
773.855	4423.02
774.19	4397.26
774.525	4428.89
774.86	4389.35
775.195	4411.72
775.53	4423.02
775.865	4372.4
776.2	4354.77
776.535	4319.07
776.87	4332.63
777.205	4340.31
777.539	4293.76
777.874	4329.46
778.209	4295.79
778.543	4296.24
778.878	4276.58
779.212	4262.35
779.547	4260.54
779.881	4265.51
780.215	4253.08
780.55	4234.1
780.884	4197.71
781.218	4190.26
781.552	4221.67
781.886	4202.91
782.22	4204.27
782.554	4162.01
782.888	4103.71
783.222	4084.95
783.556	4104.16
783.889	4091.5
784.223	4060.77
784.557	4058.51
784.89	4087.89
785.224	4078.85
785.557	4065.97
785.891	4057.83
786.224	4023.71
786.558	4033.65
786.891	3965.4
787.224	3967.44
787.557	3985.52
787.891	3993.65
788.224	3959.53
788.557	3955.01
788.89	3952.98
789.223	3921.34
789.556	3921.11
789.888	3926.08
790.221	3864.39
790.554	3852.41
790.887	3901.23
791.219	3843.37
791.552	3885.18
791.884	3818.52
792.217	3838.4
792.549	3813.54
792.882	3816.93
793.214	3792.98
793.546	3800.89
793.879	3769.03
794.211	3738.74
794.543	3790.27
794.875	3786.65
795.207	3762.7
795.539	3709.82
795.871	3729.25
796.203	3701
796.535	3702.59
796.867	3714.56
797.198	3689.48
797.53	3655.81
797.862	3695.13
798.193	3708.69
798.525	3661.01
798.856	3626.66
799.188	3651.74
799.519	3580.78
799.85	3620.33
800.182	3588.24
800.513	3632.98
800.844	3545.08
801.175	3572.19
801.506	3572.65
801.837	3520.9
802.168	3561.35
802.499	3548.69
802.83	3528.81
803.161	3492.2
803.491	3539.88
803.822	3510.27
804.153	3510.95
804.483	3463.95
804.814	3457.62
805.145	3461.91
805.475	3440.9
805.805	3454.01
806.136	3473.44
806.466	3480.9
806.796	3477.51
807.126	3436.6
807.457	3423.27
807.787	3406.1
808.117	3388.47
808.447	3415.14
808.777	3407.45
809.107	3364.97
809.436	3384.63
809.766	3392.76
810.096	3370.39
810.426	3351.18
810.755	3350.96
811.085	3327.68
811.414	3366.32
811.744	3311.86
812.073	3323.39
812.403	3254.69
812.732	3326.78
813.061	3277.51
813.39	3264.63
813.719	3270.96
814.049	3290.62
814.378	3249.26
814.707	3256.95
815.036	3211.53
815.365	3213.11
815.693	3209.27
816.022	3227.8
816.351	3216.95
816.68	3204.52
817.008	3202.26
817.337	3203.84
817.665	3160.45
817.994	3154.8
818.322	3197.29
818.651	3151.19
818.979	3134.92
819.307	3186.89
819.636	3179.89
819.964	3106.22
820.292	3124.07
820.62	3155.03
820.948	3125.43
821.276	3148.25
821.604	3126.1
821.932	3138.31
822.259	3104.41
822.587	3103.96
822.915	3114.13
823.243	3166.33
823.57	3107.35
823.898	3130.85
824.225	3088.37
824.553	3101.25
824.88	3110.51
825.207	3144.18
825.535	3165.2
825.862	3114.13
826.189	3133.34
826.516	3084.52
826.843	3105.09
827.17	3145.31
827.497	3160.91
827.824	3141.47
828.151	3121.81
828.478	3143.96
828.805	3132.43
829.131	3166.56
829.458	3115.26
829.785	3114.81
830.111	3086.11
830.438	3098.53
830.764	3094.69
831.09	3103.51
831.417	3125.43
831.743	3113.68
832.069	3102.15
832.395	3122.26
832.722	3123.62
833.048	3111.19
833.374	3124.75
833.7	3113.68
834.026	3112.09
834.351	3085.2
834.677	3115.71
835.003	3115.03
835.329	3077.74
835.654	3076.16
835.98	3089.95
836.306	3101.7
836.631	3094.69
836.956	3087.69
837.282	3048.37
837.607	3051.98
837.932	3053.56
838.258	3021.93
838.583	3040.46
838.908	3061.02
839.233	3030.74
839.558	2995.49
839.883	3040.23
840.208	3033.9
840.533	3068.48
840.858	3029.38
841.182	3033
841.507	3029.16
841.832	2996.62
842.156	3016.05
842.481	3008.82
842.805	2975.83
843.13	2975.83
843.454	2989.61
843.778	2971.53
844.103	2981.93
844.427	2899.67
844.751	2931.08
845.075	2950.52
845.399	2953.23
845.723	2917.07
846.047	2970.85
846.371	2920.69
846.695	2897.64
847.019	2872.1
847.343	2870.74
847.666	2861.03
847.99	2873.91
848.313	2834.59
848.637	2845.43
848.96	2842.5
849.284	2774.7
849.607	2804.3
849.931	2780.35
850.254	2774.48
850.577	2804.08
850.9	2736.28
851.223	2776.06
851.546	2745.1
851.869	2730.86
852.192	2748.94
852.515	2739
852.838	2713.01
853.161	2695.83
853.483	2681.37
853.806	2641.6
854.129	2703.29
854.451	2675.27
854.774	2670.97
855.096	2670.07
855.419	2653.8
855.741	2639.11
856.063	2662.16
856.385	2638.66
856.708	2611.77
857.03	2660.35
857.352	2661.71
857.674	2632.33
857.996	2585.33
858.318	2593.01
858.64	2581.26
858.961	2530.87
859.283	2572.45
859.605	2574.03
859.926	2582.16
860.248	2557.31
860.57	2569.06
860.891	2538.55
861.212	2531.54
861.534	2525.22
861.855	2551.66
862.176	2525.22
862.498	2512.56
862.819	2506.69
863.14	2525.67
863.461	2562.28
863.782	2482.73
864.103	2467.59
864.424	2501.49
864.745	2533.8
865.065	2485.22
865.386	2467.59
865.707	2469.85
866.027	2467.36
866.348	2480.02
866.668	2509.17
866.989	2452.9
867.309	2430.76
867.63	2445.9
867.95	2441.6
868.27	2443.64
868.59	2462.62
868.91	2449.96
869.23	2430.98
869.55	2435.05
869.87	2448.38
870.19	2451.77
870.51	2431.89
870.83	2429.17
871.15	2428.04
871.469	2423.07
871.789	2414.71
872.109	2415.61
872.428	2442.28
872.748	2393.69
873.067	2385.56
873.386	2389.63
873.706	2411.09
874.025	2390.76
874.344	2374.49
874.663	2412
874.982	2418.78
875.301	2414.94
875.62	2369.06
875.939	2379.23
876.258	2346.46
876.577	2344.66
876.896	2363.86
877.214	2350.08
877.533	2335.16
877.852	2340.81
878.17	2362.96
878.489	2329.97
878.807	2345.56
879.125	2316.41
879.444	2331.77
879.762	2349.4
880.08	2345.33
880.398	2310.08
880.716	2333.13
881.034	2362.06
881.352	2328.16
881.67	2316.63
881.988	2316.63
882.306	2296.97
882.624	2313.47
882.941	2275.73
883.259	2273.02
883.577	2303.08
883.894	2262.85
884.212	2281.83
884.529	2266.47
884.846	2243.42
885.164	2248.16
885.481	2238.22
885.798	2246.35
886.115	2246.58
886.432	2254.26
886.75	2251.32
887.067	2214.49
887.383	2210.87
887.7	2244.32
888.017	2203.64
888.334	2228.95
888.651	2221.5
888.967	2229.18
889.284	2206.35
889.6	2190.54
889.917	2167.26
890.233	2180.14
890.55	2206.35
890.866	2185.79
891.182	2197.09
891.498	2189.63
891.815	2188.28
892.131	2146.47
892.447	2112.57
892.763	2155.51
893.079	2163.64
893.395	2142.85
893.71	2154.38
894.026	2133.59
894.342	2150.31
894.657	2135.17
894.973	2105.11
895.289	2089.75
895.604	2087.71
895.92	2115.74
896.235	2073.48
896.55	2045.68
896.865	2088.39
897.181	2062.18
897.496	2080.26
897.811	2075.74
898.126	2045.23
898.441	2047.26
898.756	2062.86
899.071	2064.44
899.386	2036.64
899.7	1980.15
900.015	2012.01
900.33	2012.46
900.644	1990.54
900.959	2013.14
901.273	1981.05
901.588	1995.51
901.902	2002.52
902.216	1970.43
902.531	1986.25
902.845	1954.84
903.159	1958.68
903.473	1947.38
903.787	1976.08
904.101	1959.58
904.415	1961.16
904.729	1919.81
905.042	1913.25
905.356	1876.87
905.67	1893.82
905.984	1906.48
906.297	1913.25
906.611	1904.44
906.924	1889.98
907.237	1879.81
907.551	1857.89
907.864	1873.93
908.177	1891.56
908.491	1850.66
908.804	1834.61
909.117	1835.52
909.43	1840.94
909.743	1810.21
910.056	1838
910.368	1843.88
910.681	1825.35
910.994	1788.74
911.307	1788.96
911.619	1799.81
911.932	1798
912.244	1799.36
912.557	1775.41
912.869	1754.39
913.181	1764.11
913.494	1779.47
913.806	1757.33
914.118	1759.36
914.43	1752.58
914.742	1726.14
915.054	1703.32
915.366	1720.49
915.678	1761.17
915.99	1719.14
916.302	1710.32
916.613	1706.48
916.925	1727.95
917.236	1675.52
917.548	1681.4
917.859	1669.87
918.171	1689.08
918.482	1656.99
918.794	1676.42
919.105	1649.98
919.416	1678.01
919.727	1658.8
920.038	1678.01
920.349	1645.92
920.66	1654.73
920.971	1638.91
921.282	1655.63
921.593	1627.39
921.903	1620.61
922.214	1585.35
922.525	1640.72
922.835	1605.69
923.146	1584.22
923.456	1598.91
923.767	1568.86
924.077	1580.38
924.387	1571.57
924.697	1586.03
925.008	1570.44
925.318	1565.47
925.628	1537.22
925.938	1549.42
926.248	1525.92
926.558	1536.99
926.867	1528.86
927.177	1496.77
927.487	1525.69
927.796	1525.02
928.106	1499.25
928.416	1498.8
928.725	1503.77
929.034	1487.5
929.344	1497.9
929.653	1459.71
929.962	1468.52
930.271	1484.34
930.581	1474.85
930.89	1472.14
931.199	1440.5
931.508	1459.71
931.817	1460.61
932.125	1445.92
932.434	1418.58
932.743	1396.66
933.051	1432.82
933.36	1436.88
933.669	1411.57
933.977	1435.98
934.286	1392.82
934.594	1411.57
934.902	1395.75
935.21	1392.59
935.519	1386.94
935.827	1404.12
936.135	1406.83
936.443	1402.99
936.751	1383.78
937.059	1342.2
937.367	1354.17
937.674	1377.9
937.982	1357.11
938.29	1321.18
938.597	1370.9
938.905	1336.77
939.213	1337.22
939.52	1336.55
939.827	1311.46
940.135	1319.82
940.442	1331.35
940.749	1306.49
941.056	1308.52
941.363	1340.84
941.67	1285.25
941.977	1299.94
942.284	1312.59
942.591	1300.39
942.898	1280.05
943.205	1303.1
943.511	1302.42
943.818	1276.21
944.125	1285.7
944.431	1263.1
944.738	1243.22
945.044	1265.81
945.35	1258.81
945.657	1224.69
945.963	1234.4
946.269	1237.79
946.575	1250
946.881	1231.69
947.187	1232.14
947.493	1221.97
947.799	1229.2
948.105	1192.6
948.41	1192.6
948.716	1217.45
949.022	1194.63
949.327	1195.53
949.633	1172.26
949.938	1198.02
950.244	1181.52
950.549	1176.55
950.854	1174.74
951.16	1174.52
951.465	1174.52
951.77	1170
952.075	1183.33
952.38	1180.39
952.685	1177
952.99	1109.66
953.294	1139.72
953.599	1131.58
953.904	1126.38
954.209	1141.07
954.513	1120.96
954.818	1121.41
955.122	1113.05
955.426	1131.13
955.731	1093.84
956.035	1115.08
956.339	1114.86
956.643	1103.33
956.948	1087.74
957.252	1098.81
957.556	1113.73
957.86	1089.32
958.163	1085.71
958.467	1094.75
958.771	1080.73
959.075	1083.22
959.378	1101.52
959.682	1083.22
959.985	1049.77
960.289	1077.12
960.592	1070.57
960.896	1072.82
961.199	1040.06
961.502	1047.51
961.805	1066.5
962.108	1057.23
962.411	1039.38
962.714	1040.96
963.017	1025.82
963.32	1028.08
963.623	1026.95
963.926	1029.21
964.228	1039.38
964.531	1003
964.833	1005.93
965.136	995.99
965.438	1006.84
965.741	1007.06
966.043	1012.26
966.345	1002.09
966.648	1026.27
966.95	1013.62
967.252	995.99
967.554	961.19
967.856	978.82
968.158	978.82
968.46	963.45
968.761	976.56
969.063	985.14
969.365	967.29
969.666	955.54
969.968	970.23
970.269	986.95
970.571	981.75
970.872	963.45
971.174	946.27
971.475	950.57
971.776	947.18
972.077	930.23
972.378	912.6
972.679	930.46
972.98	936.56
973.281	932.94
973.582	927.29
973.883	950.57
974.183	920.51
974.484	902.89
974.785	914.19
975.085	927.29
975.386	910.57
975.686	916.44
975.986	918.48
976.287	931.59
976.587	908.76
976.887	894.98
977.187	906.5
977.487	857.69
977.787	900.17
978.087	881.64
978.387	890.68
978.687	878.71
978.987	890.23
979.286	887.07
979.586	865.82
979.885	873.06
980.185	860.4
980.484	885.71
980.784	856.56
981.083	856.33
981.382	848.42
981.682	865.37
981.981	851.81
982.28	828.76
982.579	835.32
982.878	847.07
983.177	823.79
983.475	858.59
983.774	831.7
984.073	833.28
984.372	810.01
984.67	824.24
984.969	832.38
985.267	830.35
985.566	821.98
985.864	822.89
986.162	814.98
986.461	805.71
986.759	808.43
987.057	833.28
987.355	786.05
987.653	798.03
987.951	802.78
988.249	798.71
988.547	835.09
988.844	800.52
989.142	796
989.44	791.02
989.737	795.32
990.035	784.7
990.332	758.26
990.63	776.34
990.927	771.14
991.224	791.02
991.521	778.6
991.819	775.88
992.116	764.58
992.413	747.41
992.71	771.82
993.006	789.89
993.303	783.12
993.6	770.23
993.897	755.77
994.193	735.21
994.49	754.87
994.787	729.33
995.083	752.83
995.379	729.78
995.676	751.93
995.972	727.3
996.268	743.57
996.565	737.92
996.861	713.29
997.157	732.04
997.453	722.55
997.749	724.59
998.044	728.43
998.34	724.13
998.636	732.27
998.932	731.59
999.227	710.35
999.523	714.42
999.818	712.16
1000.114	707.86
1000.409	691.14
1000.704	703.57
1001	703.57
1001.295	692.5
1001.59	682.78
1001.885	692.5
1002.18	672.38
1002.475	698.82
1002.77	674.87
1003.065	682.78
1003.359	674.19
1003.654	670.8
1003.949	663.8
1004.243	678.26
1004.538	659.28
1004.832	666.73
1005.127	663.34
1005.421	656.11
1005.715	661.76
1006.009	648.2
1006.304	657.47
1006.598	674.42
1006.892	651.37
1007.186	667.41
1007.48	650.46
1007.773	641.65
1008.067	656.11
1008.361	654.53
1008.655	629.22
1008.948	628.32
1009.242	638.94
1009.535	643.91
1009.829	630.58
1010.122	647.53
1010.415	622.67
1010.708	626.73
1011.001	620.63
1011.295	624.25
1011.588	610.01
1011.881	625.83
1012.173	618.6
1012.466	608.43
1012.759	625.83
1013.052	609.56
1013.344	605.94
1013.637	605.94
1013.93	611.37
1014.222	593.06
1014.514	602.78
1014.807	593.29
1015.099	579.05
1015.391	601.2
1015.683	584.48
1015.976	597.13
1016.268	588.32
1016.56	565.27
1016.851	580.63
1017.143	555.1
1017.435	581.76
1017.727	556.45
1018.018	567.53
1018.31	558.26
1018.602	583.12
1018.893	555.1
1019.185	580.63
1019.476	574.31
1019.767	551.48
1020.058	577.02
1020.35	558.94
1020.641	535.66
1020.932	563.01
1021.223	559.84
1021.514	530.92
1021.804	538.38
1022.095	551.03
1022.386	549.9
1022.677	560.07
1022.967	523.01
1023.258	530.69
1023.548	546.51
1023.839	541.99
1024.129	516.23
1024.419	530.24
1024.709	499.28
1025	530.01
1025.29	514.42
1025.58	516.23
1025.87	526.17
1026.16	504.25
1026.449	523.69
1026.739	525.95
1027.029	534.53
1027.319	511.03
1027.608	523.23
1027.898	535.21
1028.187	513.07
1028.477	503.12
1028.766	516.46
1029.055	511.03
1029.344	516
1029.634	507.19
1029.923	487.98
1030.212	477.59
1030.501	506.51
1030.79	493.41
1031.078	467.42
1031.367	471.03
1031.656	496.12
1031.945	495.89
1032.233	473.29
1032.522	481.43
1032.81	509.45
1033.099	469.68
1033.387	465.84
1033.675	497.02
1033.963	489.79
1034.251	482.78
1034.54	461.54
1034.828	485.5
1035.116	450.24
1035.403	478.72
1035.691	475.55
1035.979	486.4
1036.267	468.55
1036.554	476.68
1036.842	462.45
1037.129	476.23
1037.417	458.38
1037.704	450.24
1037.992	469.9
1038.279	475.78
1038.566	443.24
1038.853	443.24
1039.14	443.24
