Data from blue_clamp_base_FLMS001491_00091.txt Node
Date: Wed Feb 08 15:16:47 GMT 2017
User: dcchb
Spectrometer: FLMS00149
Trigger mode: 0
Integration Time (sec): 2.000000E-2
Scans to average: 10
Electric dark correction enabled: true
Nonlinearity correction enabled: false
Boxcar width: 0
XAxis mode: Wavelengths
Number of Pixels in Spectrum: 2048
>>>>>Begin Spectral Data<<<<<
341.393	-6.86
341.776	-6.86
342.16	-6.86
342.543	-43.02
342.927	-64.49
343.31	-55.9
343.693	-81.66
344.077	-64.72
344.46	-55
344.843	-55
345.226	-36.92
345.61	-40.76
345.993	-15.23
346.376	-9.12
346.759	-2.12
347.142	31.33
347.525	41.95
347.908	39.69
348.291	83.75
348.674	107.71
349.057	112
349.44	126.01
349.823	146.13
350.206	163.98
350.588	186.8
350.971	214.15
351.354	226.12
351.737	245.78
352.119	241.49
352.502	260.02
352.884	269.29
353.267	274.26
353.65	279.46
354.032	293.01
354.414	293.69
354.797	323.3
355.179	325.56
355.562	325.33
355.944	326.23
356.326	349.51
356.709	326.69
357.091	344.99
357.473	347.02
357.855	335.5
358.238	333.47
358.62	319.45
359.002	345.44
359.384	339.57
359.766	360.81
360.148	328.27
360.53	342.73
360.912	351.09
361.294	343.86
361.676	304.77
362.057	345.67
362.439	344.09
362.821	339.79
363.203	328.95
363.584	342.51
363.966	314.94
364.348	332.34
364.729	319.45
365.111	330.75
365.493	331.43
365.874	325.1
366.256	316.07
366.637	333.69
367.019	337.08
367.4	344.76
367.781	331.88
368.163	331.43
368.544	311.77
368.925	336.18
369.306	334.6
369.688	331.88
370.069	334.37
370.45	324.43
370.831	323.3
371.212	315.61
371.593	324.88
371.974	327.82
372.355	344.31
372.736	314.71
373.117	314.48
373.498	333.92
373.879	326.23
374.26	311.55
374.641	312.45
375.021	337.53
375.402	343.18
375.783	334.6
376.163	358.32
376.544	360.36
376.925	333.47
377.305	344.54
377.686	349.74
378.066	373.01
378.447	357.87
378.827	364.88
379.208	338.44
379.588	347.7
379.968	351.09
380.349	353.35
380.729	360.36
381.109	358.1
381.489	368.49
381.87	357.42
382.25	368.04
382.63	352.22
383.01	364.43
383.39	366.01
383.77	367.36
384.15	356.06
384.53	359.68
384.91	396.74
385.29	380.24
385.67	357.19
386.049	390.19
386.429	396.97
386.809	414.59
387.189	388.83
387.568	395.16
387.948	413.69
388.328	405.1
388.707	408.94
389.087	420.24
389.466	386.12
389.846	441.26
390.225	412.79
390.605	404.42
390.984	403.97
391.363	434.03
391.743	449.85
392.122	435.38
392.501	455.72
392.881	438.32
393.26	462.28
393.639	433.12
394.018	448.04
394.397	460.69
394.776	448.72
395.155	461.82
395.534	485.78
395.913	463.18
396.292	461.37
396.671	474.48
397.05	477.87
397.429	499.11
397.808	496.63
398.186	510.41
398.565	496.4
398.944	486
399.323	532.1
399.701	517.42
400.08	536.62
400.458	509.05
400.837	528.71
401.215	542.5
401.594	522.61
401.972	536.85
402.351	539.34
402.729	542.95
403.107	551.54
403.486	575.95
403.864	556.51
404.242	584.31
404.62	590.18
404.999	576.62
405.377	598.54
405.755	608.03
406.133	606.9
406.511	631.31
406.889	620.01
407.267	645.1
407.645	649.39
408.023	642.84
408.401	638.99
408.779	668.37
409.156	678.77
409.534	678.77
409.912	696.85
410.29	694.13
410.667	705.89
411.045	711.31
411.422	711.99
411.8	723.51
412.178	721.7
412.555	758.99
412.933	741.82
413.31	763.06
413.687	791.53
414.065	769.39
414.442	802.61
414.819	779.78
415.197	789.27
415.574	814.58
415.951	816.16
416.328	805.54
416.705	806.9
417.082	846.9
417.46	854.36
417.837	842.83
418.214	873.56
418.591	892.1
418.967	885.32
419.344	883.51
419.721	908.14
420.098	896.16
420.475	888.03
420.852	927.8
421.228	949.72
421.605	959.21
421.982	928.7
422.358	965.31
422.735	977.74
423.111	970.29
423.488	960.79
423.864	980.45
424.241	1020.68
424.617	1010.06
424.994	1018.65
425.37	1026.33
425.746	1020.91
426.123	1065.42
426.499	1043.96
426.875	1095.71
427.251	1095.03
427.627	1108.59
428.003	1122.37
428.379	1139.77
428.756	1151.98
429.132	1173.9
429.507	1172.99
429.883	1201.92
430.259	1218.87
430.635	1212.76
431.011	1234.23
431.387	1273.55
431.763	1287.57
432.138	1287.11
432.514	1279.2
432.89	1264.97
433.265	1323.5
433.641	1361.46
434.016	1364.4
434.392	1390.39
434.767	1409.6
435.143	1441.46
435.518	1419.76
435.894	1457.5
436.269	1474.23
436.644	1482.36
437.02	1511.74
437.395	1490.05
437.77	1530.04
438.145	1532.76
438.52	1553.09
438.895	1566.43
439.271	1589.25
439.646	1574.56
440.021	1622.25
440.395	1631.51
440.77	1648.46
441.145	1658.63
441.52	1699.53
441.895	1650.95
442.27	1708.8
442.645	1698.85
443.019	1727.55
443.394	1741.56
443.769	1760.77
444.143	1763.03
444.518	1780.43
444.892	1774.56
445.267	1818.62
445.641	1789.25
446.016	1833.31
446.39	1869.02
446.764	1835.12
447.139	1858.17
447.513	1906.76
447.887	1895.23
448.262	1926.42
448.636	1944.04
449.01	1946.3
449.384	1928.68
449.758	1972.07
450.132	1968
450.506	1985.85
450.88	1983.82
451.254	2016.36
451.628	2057.04
452.002	2078.96
452.376	2080.54
452.75	2128.67
453.123	2157.82
453.497	2153.08
453.871	2159.18
454.244	2214.09
454.618	2211.16
454.992	2293.41
455.365	2258.84
455.739	2344.94
456.112	2323.47
456.486	2350.14
456.859	2379.74
457.232	2423.35
457.606	2389
457.979	2433.75
458.352	2474.88
458.725	2502.22
459.099	2506.06
459.472	2583.35
459.845	2593.52
460.218	2584.03
460.591	2600.98
460.964	2644.59
461.337	2676.23
461.71	2704.25
462.083	2774.76
462.456	2780.18
462.829	2773.85
463.201	2802.1
463.574	2832.84
463.947	2831.48
464.32	2966.39
464.692	2907.86
465.065	2963.91
465.438	3004.13
465.81	3042.55
466.183	3049.55
466.555	3115.77
466.928	3125.93
467.3	3093.62
467.672	3173.62
468.045	3247.29
468.417	3251.13
468.789	3247.74
469.161	3315.99
469.534	3421.75
469.906	3426.04
470.278	3416.77
470.65	3487.73
471.022	3551.01
471.394	3573.83
471.766	3620.39
472.138	3617.67
472.51	3767.73
472.882	3791.91
473.253	3799.59
473.625	3861.28
473.997	3894.5
474.369	3939.47
474.74	3954.61
475.112	4039.81
475.484	4061.05
475.855	4129.52
476.227	4158.22
476.598	4274.38
476.97	4261.5
477.341	4362.74
477.713	4415.39
478.084	4403.64
478.455	4535.84
478.827	4562.96
479.198	4707.36
479.569	4616.07
479.94	4789.17
480.311	4818.09
480.682	4891.54
481.053	4995.72
481.424	5054.47
481.795	5098.54
482.166	5147.35
482.537	5224.86
482.908	5296.27
483.279	5325.2
483.65	5389.6
484.021	5484.06
484.391	5597.51
484.762	5544.18
485.133	5574.91
485.503	5642.03
485.874	5726.32
486.244	5788.92
486.615	5834.34
486.985	5924.51
487.356	5969.93
487.726	6057.38
488.097	6108.46
488.467	6086.08
488.837	6208.79
489.207	6266.87
489.578	6301.22
489.948	6349.58
490.318	6390.03
490.688	6428.22
491.058	6539.18
491.428	6533.75
491.798	6607.88
492.168	6674.32
492.538	6673.41
492.908	6746.86
493.278	6760.87
493.648	6766.97
494.017	6795.67
494.387	6873.63
494.757	6902.11
495.126	6961.77
495.496	6978.49
495.866	6954.08
496.235	7002.22
496.605	7063.23
496.974	7086.28
497.344	7122.21
497.713	7198.37
498.082	7180.07
498.452	7241.53
498.821	7256.67
499.19	7234.3
499.559	7315.43
499.928	7289.44
500.298	7286.05
500.667	7427.97
501.036	7365.82
501.405	7447.18
501.774	7380.51
502.143	7502.99
502.512	7488.31
502.88	7556.33
503.249	7463
503.618	7516.1
503.987	7635.42
504.356	7559.72
504.724	7569.21
505.093	7625.7
505.462	7659.6
505.83	7689.2
506.199	7714.29
506.567	7780.95
506.936	7754.29
507.304	7791.8
507.672	7858.92
508.041	7812.82
508.409	7878.8
508.777	7895.3
509.145	7999.25
509.514	7976.43
509.882	7949.99
510.25	7928.97
510.618	8051.68
510.986	8078.8
511.354	8167.61
511.722	8126.48
512.09	8166.48
512.458	8148.85
512.826	8265.69
513.193	8263.88
513.561	8242.86
513.929	8236.76
514.297	8357.66
514.664	8337.1
515.032	8375.29
515.4	8364.67
515.767	8413.48
516.135	8454.61
516.502	8425.23
516.869	8512.91
517.237	8560.37
517.604	8463.87
517.972	8644.21
518.339	8577.99
518.706	8555.4
519.073	8590.88
519.44	8680.36
519.808	8726.69
520.175	8725.56
520.542	8819.34
520.909	8834.94
521.276	8841.49
521.643	8870.19
522.009	8885.11
522.376	8894.37
522.743	9023.63
523.11	8996.51
523.477	9158.32
523.843	9137.3
524.21	9167.81
524.577	9193.35
524.943	9228.15
525.31	9273.8
525.676	9310.63
526.043	9423.62
526.409	9334.36
526.776	9444.41
527.142	9440.12
527.508	9503.62
527.874	9562.15
528.241	9591.98
528.607	9607.57
528.973	9670.85
529.339	9729.6
529.705	9776.16
530.071	9804.4
530.437	9789.49
530.803	9865.64
531.169	9942.03
531.535	9883.05
531.901	9906.32
532.267	9972.53
532.632	9989.94
532.998	10071.97
533.364	10072.19
533.73	10090.27
534.095	10172.98
534.461	10196.71
534.826	10264.96
535.192	10265.63
535.557	10306.31
535.923	10357.38
536.288	10357.16
536.653	10443.93
537.019	10416.14
537.384	10458.62
537.749	10497.27
538.114	10484.39
538.479	10477.61
538.845	10535.23
539.21	10517.38
539.575	10572.29
539.94	10598.96
540.305	10630.37
540.67	10616.36
541.034	10709.46
541.399	10715.34
541.764	10697.04
542.129	10837.37
542.494	10771.38
542.858	10869.91
543.223	10809.57
543.587	10942.23
543.952	10910.14
544.316	11000.98
544.681	10935.45
545.045	10991.26
545.41	11121.2
545.774	11026.52
546.138	11040.53
546.503	11114.65
546.867	11127.31
547.231	11157.59
547.595	11142.45
547.959	11187.42
548.324	11215.44
548.688	11272.61
549.052	11355.32
549.416	11320.75
549.779	11337.24
550.143	11396.68
550.507	11443.68
550.871	11438.94
551.235	11445.26
551.599	11553.06
551.962	11518.71
552.326	11460.63
552.689	11541.76
553.053	11540.63
553.417	11534.98
553.78	11746.73
554.143	11600.06
554.507	11682.55
554.87	11744.24
555.234	11824.24
555.597	11793.28
555.96	11770.45
556.323	11880.73
556.686	11804.8
557.05	11892.71
557.413	11985.14
557.776	11964.35
558.139	12001.63
558.502	11972.48
558.865	11996.89
559.228	12117.34
559.59	12174.51
559.953	12160.27
560.316	12147.84
560.679	12254.51
561.041	12288.63
561.404	12336.99
561.767	12442.75
562.129	12363.66
562.492	12468.51
562.854	12515.97
563.217	12431.68
563.579	12501.73
563.941	12596.19
564.304	12590.77
564.666	12832.8
565.028	12682.75
565.39	12733.14
565.753	12823.53
566.115	12924.32
566.477	12924.77
566.839	12964.55
567.201	12947.37
567.563	13072.11
567.925	13091.32
568.287	13136.52
568.648	13164.77
569.01	13263.75
569.372	13348.49
569.734	13267.59
570.095	13336.06
570.457	13429.62
570.819	13479.79
571.18	13484.98
571.542	13602.04
571.903	13576.28
572.265	13632.1
572.626	13651.76
572.987	13696.96
573.349	13761.81
573.71	13762.49
574.071	13852.43
574.432	13897.85
574.794	13991.86
575.155	13930.4
575.516	13848.59
575.877	13987.57
576.238	13999.32
576.599	14070.51
576.96	14047.68
577.32	14075.48
577.681	14168.81
578.042	14216.04
578.403	14169.71
578.763	14195.93
579.124	14242.93
579.485	14312.99
579.845	14430.04
580.206	14361.8
580.566	14416.26
580.927	14367.45
581.287	14458.74
581.648	14416.26
582.008	14428.01
582.368	14429.37
582.728	14524.51
583.089	14548.91
583.449	14439.76
583.809	14489.25
584.169	14590.94
584.529	14526.54
584.889	14651.28
585.249	14519.08
585.609	14463.94
585.969	14608.57
586.329	14571.51
586.688	14639.08
587.048	14656.93
587.408	14622.81
587.768	14575.35
588.127	14579.42
588.487	14597.27
588.846	14716.59
589.206	14606.31
589.565	14671.62
589.925	14716.36
590.284	14670.26
590.643	14717.49
591.003	14682.69
591.362	14838.85
591.721	14790.94
592.08	14801.79
592.44	14874.55
592.799	14816.47
593.158	14728.12
593.517	14810.15
593.876	14874.33
594.235	14830.71
594.593	14817.38
594.952	14879.98
595.311	14831.39
595.67	14797.27
596.029	14883.37
596.387	14945.74
596.746	14937.6
597.104	14885.17
597.463	14902.8
597.822	14862.58
598.18	14911.84
598.538	14972.85
598.897	15038.39
599.255	14851.95
599.613	15083.59
599.972	14966.08
600.33	15018.73
600.688	14958.84
601.046	14998.84
601.404	15039.29
601.762	15053.53
602.12	15132.17
602.478	15150.25
602.836	15118.39
603.194	15065.96
603.552	15087.2
603.91	15040.65
604.268	15164.26
604.625	15096.24
604.983	15161.55
605.341	15089.69
605.698	15172.85
606.056	15192.74
606.413	15178.27
606.771	15299.4
607.128	15302.34
607.485	15231.15
607.843	15212.62
608.2	15225.73
608.557	15324.26
608.914	15201.1
609.272	15371.04
609.629	15361.55
609.986	15455.78
610.343	15333.52
610.7	15481.32
611.057	15524.7
611.414	15374.65
611.771	15516.8
612.127	15512.95
612.484	15461.66
612.841	15532.84
613.198	15514.08
613.554	15544.59
613.911	15586.85
614.267	15517.25
614.624	15623.91
614.98	15520.64
615.337	15746.85
615.693	15600.86
616.05	15641.76
616.406	15704.81
616.762	15648.54
617.118	15675.66
617.475	15678.83
617.831	15728.99
618.187	15750.01
618.543	15740.52
618.899	15865.94
619.255	15834.53
619.611	15881.31
619.967	15796.56
620.323	15905.71
620.678	15834.75
621.034	15840.63
621.39	15823
621.746	15852.38
622.101	16013.96
622.457	15936.45
622.812	15975.77
623.168	16015.31
623.523	15980.51
623.879	15993.62
624.234	15947.52
624.589	16036.78
624.945	16048.31
625.3	16095.99
625.655	16044.69
626.01	16016.44
626.365	16098.7
626.72	16100.28
627.075	16136.44
627.43	16135.76
627.785	16089.21
628.14	16053.96
628.495	16165.37
628.85	16147.51
629.205	16161.3
629.559	16230.45
629.914	16205.82
630.269	16238.13
630.623	16168.53
630.978	16113.84
631.332	16231.13
631.687	16241.97
632.041	16220.96
632.396	16306.61
632.75	16199.72
633.104	16346.83
633.459	16229.77
633.813	16288.07
634.167	16253.05
634.521	16192.94
634.875	16328.75
635.229	16205.14
635.583	16237.45
635.937	16260.05
636.291	16286.27
636.645	16283.78
636.999	16342.76
637.352	16334.4
637.706	16257.57
638.06	16395.87
638.413	16328.53
638.767	16386.6
639.121	16313.38
639.474	16224.8
639.828	16278.81
640.181	16263.89
640.534	16293.95
640.888	16233.39
641.241	16269.32
641.594	16237.91
641.947	16362.65
642.301	16375.76
642.654	16310.45
643.007	16352.48
643.36	16364.46
643.713	16411.24
644.066	16430.44
644.419	16388.41
644.771	16292.82
645.124	16151.58
645.477	16126.04
645.83	16004.24
646.182	15912.72
646.535	15879.95
646.888	16088.31
647.24	16023.22
647.593	16205.82
647.945	16147.51
648.298	16128.76
648.65	16084.24
649.002	15975.09
649.355	16137.8
649.707	16100.28
650.059	16129.43
650.411	16329.66
650.763	16392.93
651.115	16612.81
651.467	16600.61
651.819	16565.13
652.171	16592.93
652.523	16582.08
652.875	16615.98
653.227	16510.89
653.578	16742.75
653.93	16594.06
654.282	16637.44
654.633	16642.64
654.985	16692.58
655.337	16713.15
655.688	16747.5
656.039	16834.05
656.391	16667.05
656.742	16686.71
657.094	16734.39
657.445	16839.47
657.796	16773.49
658.147	16768.97
658.498	16720.61
658.849	16799.25
659.2	16747.72
659.551	16734.84
659.902	16744.79
660.253	16803.99
660.604	16850.32
660.955	16724.67
661.306	16818.68
661.656	16815.07
662.007	16862.3
662.358	16875.18
662.708	16859.58
663.059	16907.27
663.409	16702.75
663.76	16892.58
664.11	16799.47
664.461	16959.7
664.811	16872.01
665.161	16811.9
665.511	16838.34
665.862	16847.16
666.212	17002.86
666.562	16894.84
666.912	16779.59
667.262	16804.22
667.612	16811.9
667.962	16834.5
668.312	16828.63
668.662	16911.33
669.011	16824.11
669.361	16739.81
669.711	16759.47
670.06	16776.42
670.41	16717.44
670.76	16708.4
671.109	16676.31
671.459	16646.71
671.808	16606.26
672.157	16668.63
672.507	16610.78
672.856	16503.21
673.205	16511.35
673.554	16538.24
673.904	16479.71
674.253	16556.32
674.602	16438.13
674.951	16182.77
675.3	16081.07
675.649	16369.43
675.998	16314.51
676.346	16320.84
676.695	16412.14
677.044	16204.91
677.393	16286.94
677.741	16295.76
678.09	16178.7
678.438	16099.83
678.787	16189.09
679.135	16169.21
679.484	16057.8
679.832	16125.59
680.181	16051.7
680.529	16037.46
680.877	16026.61
681.225	15955.88
681.573	16034.75
681.922	15838.37
682.27	15840.63
682.618	15872.94
682.966	15856
683.314	15782.55
683.661	15753.85
684.009	15738.03
684.357	15650.35
684.705	15724.02
685.053	15637.02
685.4	15642.22
685.748	15576.45
686.095	15468.89
686.443	15539.85
686.79	15451.26
687.138	15510.92
687.485	15467.76
687.832	15431.83
688.18	15433.18
688.527	15340.08
688.874	15387.08
689.221	15309.8
689.568	15267.54
689.915	15305.28
690.262	15331.49
690.609	15249.68
690.956	15176.69
691.303	15136.01
691.65	15045.4
691.997	15111.16
692.344	15122.23
692.69	15024.38
693.037	15086.98
693.383	14959.75
693.73	15019.18
694.077	14879.3
694.423	14862.8
694.769	14936.92
695.116	14873.42
695.462	14891.28
695.808	14900.77
696.155	14971.05
696.501	14730.38
696.847	14803.59
697.193	14645.18
697.539	14750.71
697.885	14686.53
698.231	14631.62
698.577	14711.17
698.923	14705.74
699.269	14573.54
699.614	14523.38
699.96	14462.13
700.306	14575.58
700.651	14449.93
700.997	14371.29
701.342	14414.23
701.688	14487.44
702.033	14496.03
702.379	14374.68
702.724	14322.25
703.069	14354.34
703.415	14228.69
703.76	14304.17
704.105	14300.56
704.45	14272.08
704.795	14198.41
705.14	14155.02
705.485	14204.29
705.83	14185.76
706.175	14242.48
706.52	14184.63
706.865	14157.51
707.209	14139.88
707.554	14078.64
707.899	14152.54
708.243	13984.41
708.588	13952.99
708.932	13950.73
709.277	13993.67
709.621	13958.87
709.966	13904.41
710.31	13959.55
710.654	13818.53
710.998	13934.92
711.342	13950.28
711.687	13846.78
712.031	13859.44
712.375	13821.47
712.719	13908.25
713.063	13881.58
713.407	13943.05
713.75	13871.41
714.094	13806.78
714.438	13828.93
714.782	13806.11
715.125	13845.65
715.469	13825.54
715.812	13774.02
716.156	13670.97
716.499	13724.98
716.843	13776.05
717.186	13714.36
717.53	13758.88
717.873	13767.01
718.216	13713.68
718.559	13785.09
718.902	13680.69
719.246	13707.35
719.589	13619.9
719.932	13592.33
720.275	13606.34
720.617	13586.45
720.96	13561.59
721.303	13573.57
721.646	13607.02
721.989	13527.47
722.331	13602.95
722.674	13571.08
723.016	13605.21
723.359	13511.42
723.701	13604.3
724.044	13462.84
724.386	13427.13
724.729	13485.21
725.071	13512.33
725.413	13463.52
725.755	13562.72
726.097	13375.38
726.439	13417.87
726.782	13421.48
727.124	13477.3
727.465	13420.81
727.807	13457.87
728.149	13400.69
728.491	13391.65
728.833	13429.84
729.175	13394.59
729.516	13363.41
729.858	13378.55
730.199	13409.05
730.541	13418.77
730.882	13433.46
731.224	13477.75
731.565	13413.8
731.906	13436.62
732.248	13363.41
732.589	13334.03
732.93	13416.74
733.271	13488.6
733.612	13508.71
733.953	13473.91
734.294	13431.2
734.635	13443.4
734.976	13497.19
735.317	13500.8
735.658	13484.53
735.999	13584.87
736.339	13485.21
736.68	13494.48
737.021	13484.08
737.361	13516.17
737.702	13536.28
738.042	13577.64
738.383	13606.11
738.723	13597.3
739.063	13594.13
739.404	13653.79
739.744	13656.96
740.084	13599.33
740.424	13711.65
740.764	13680.46
741.104	13765.2
741.444	13749.38
741.784	13705.77
742.124	13795.03
742.464	13803.17
742.804	13851.3
743.143	13756.84
743.483	13923.62
743.823	13776.95
744.162	13830.96
744.502	13906.89
744.841	13948.25
745.181	14027.34
745.52	14016.27
745.86	14060.56
746.199	13960.23
746.538	14055.36
746.877	14121.35
747.216	14200.67
747.556	14134.01
747.895	14192.08
748.234	14179.43
748.573	14221.91
748.911	14246.55
749.25	14297.84
749.589	14225.53
749.928	14313.21
750.267	14390.5
750.605	14370.84
750.944	14431.4
751.283	14373.1
751.621	14493.55
751.96	14370.16
752.298	14446.99
752.636	14519.53
752.975	14503.49
753.313	14456.26
753.651	14522.7
753.989	14524.05
754.327	14647.44
754.666	14599.76
755.004	14615.12
755.342	14672.3
755.679	14658.96
756.017	14703.48
756.355	14798.4
756.693	14703.26
757.031	14790.03
757.368	14758.17
757.706	14779.19
758.044	14866.19
758.381	14921.33
758.719	14841.33
759.056	14928.11
759.394	14904.16
759.731	14868.45
760.068	14933.53
760.405	14930.14
760.743	14916.36
761.08	14954.55
761.417	14990.48
761.754	14897.15
762.091	14972.4
762.428	14925.4
762.765	14877.26
763.102	15019.18
763.438	14976.02
763.775	14950.93
764.112	15020.99
764.449	15037.03
764.785	15069.8
765.122	14997.04
765.458	15011.72
765.795	15105.05
766.131	15066.41
766.467	14976.7
766.804	14965.4
767.14	15100.99
767.476	15070.25
767.812	14941.22
768.148	15057.6
768.485	14936.25
768.821	15044.27
769.157	15081.33
769.492	15008.56
769.828	15006.07
770.164	14879.98
770.5	15018.96
770.836	15078.39
771.171	14914.78
771.507	14989.35
771.842	14909.35
772.178	14916.13
772.513	14969.92
772.849	15048.11
773.184	14864.16
773.519	14957.94
773.855	14976.02
774.19	14871.39
774.525	14910.03
774.86	14945.51
775.195	15037.03
775.53	14872.74
775.865	14919.07
776.2	14760.66
776.535	14773.54
776.87	14819.86
777.205	14783.03
777.539	14794.33
777.874	14797.27
778.209	14691.51
778.543	14705.52
778.878	14743.26
779.212	14758.4
779.547	14707.33
779.881	14793.65
780.215	14640.89
780.55	14772.86
780.884	14739.64
781.218	14634.78
781.552	14665.74
781.886	14632.3
782.22	14621.68
782.554	14637.95
782.888	14478.4
783.222	14460.33
783.556	14449.48
783.889	14403.38
784.223	14458.07
784.557	14364.96
784.89	14534.67
785.224	14422.59
785.557	14385.3
785.891	14403.83
786.224	14380.78
786.558	14350.27
786.891	14270.27
787.224	14307.56
787.557	14285.19
787.891	14315.92
788.224	14223.5
788.557	14286.77
788.89	14291.97
789.223	14287.68
789.556	14092.2
789.888	14109.15
790.221	14115.02
790.554	14068.25
790.887	14138.3
791.219	14088.13
791.552	14046.55
791.884	13965.2
792.217	13966.78
792.549	13867.8
792.882	13877.06
793.214	13906.22
793.546	13950.51
793.879	13864.18
794.211	13853.34
794.543	13825.99
794.875	13860.79
795.207	13885.65
795.539	13841.81
795.871	13829.83
796.203	13707.58
796.535	13703.06
796.867	13678.88
797.198	13627.81
797.53	13647.47
797.862	13647.47
798.193	13624.19
798.525	13605.21
798.856	13517.75
799.188	13510.97
799.519	13531.99
799.85	13402.27
800.182	13457.64
800.513	13463.97
800.844	13405.21
801.175	13473.23
801.506	13446.79
801.837	13351.65
802.168	13399.11
802.499	13325.44
802.83	13305.33
803.161	13274.37
803.491	13336.51
803.822	13347.81
804.153	13255.16
804.483	13117.54
804.814	13216.29
805.145	13132
805.475	13143.07
805.805	13048.84
806.136	13134.94
806.466	13019.91
806.796	13097.42
807.126	12975.62
807.457	12966.35
807.787	13000.03
808.117	12983.75
808.447	12985.56
808.777	13013.81
809.107	12974.26
809.436	12911.21
809.766	12873.48
810.096	12812.91
810.426	12801.84
810.755	12820.6
811.085	12800.93
811.414	12745.57
811.744	12645.68
812.073	12689.3
812.403	12686.36
812.732	12659.24
813.061	12648.85
813.39	12571.11
813.719	12607.27
814.049	12611.34
814.378	12599.13
814.707	12543.54
815.036	12570.21
815.365	12590.77
815.693	12426.93
816.022	12425.58
816.351	12462.86
816.68	12349.65
817.008	12318.01
817.337	12278.91
817.665	12280.27
817.994	12292.02
818.322	12311.23
818.651	12191.01
818.979	12183.1
819.307	12259.48
819.636	12190.33
819.964	12060.62
820.292	12124.57
820.62	12148.3
820.948	12211.57
821.276	12166.38
821.604	12110.33
821.932	12147.39
822.259	12188.07
822.587	12160.73
822.915	12239.59
823.243	12239.59
823.57	12149.2
823.898	12226.03
824.225	12124.79
824.553	12095.42
824.88	12120.5
825.207	12252.93
825.535	12110.56
825.862	12274.17
826.189	12181.74
826.516	12244.34
826.843	12350.55
827.17	12248.63
827.497	12334.28
827.824	12250.89
828.151	12346.26
828.478	12267.39
828.805	12428.52
829.131	12285.24
829.458	12199.37
829.785	12272.36
830.111	12221.51
830.438	12270.33
830.764	12196.43
831.09	12291.57
831.417	12215.19
831.743	12266.26
832.069	12280.95
832.395	12215.41
832.722	12308.07
833.048	12209.76
833.374	12273.26
833.7	12222.42
834.026	12261.29
834.351	12260.38
834.677	12228.75
835.003	12230.33
835.329	12182.65
835.654	12312.36
835.98	12193.94
836.306	12210.22
836.631	12144.91
836.956	12151.23
837.282	12123.44
837.607	12193.49
837.932	12193.04
838.258	12132.93
838.583	12160.5
838.908	12048.19
839.233	12100.61
839.558	12059.03
839.883	11962.76
840.208	11974.97
840.533	11973.39
840.858	11993.05
841.182	11988.3
841.507	11979.49
841.832	11832.82
842.156	11880.96
842.481	11962.99
842.805	11868.08
843.13	11837.57
843.454	11893.84
843.778	11800.51
844.103	11754.86
844.427	11734.3
844.751	11726.39
845.075	11709.66
845.399	11701.3
845.723	11578.82
846.047	11634.64
846.371	11521.65
846.695	11514.41
847.019	11513.74
847.343	11474.42
847.666	11381.99
847.99	11346.51
848.313	11406.85
848.637	11298.83
848.96	11290.24
849.284	11256.34
849.607	11149.23
849.931	11126.85
850.254	11106.52
850.577	11024.71
850.9	11011.38
851.223	10918.5
851.546	10957.37
851.869	10895
852.192	10860.19
852.515	10764.38
852.838	10738.39
853.161	10783.36
853.483	10712.18
853.806	10679.63
854.129	10585.63
854.451	10648.45
854.774	10583.59
855.096	10560.09
855.419	10492.97
855.741	10437.15
856.063	10396.7
856.385	10366.65
856.708	10376.14
857.03	10350.15
857.352	10411.62
857.674	10336.59
857.996	10249.82
858.318	10203.04
858.64	10158.74
858.961	10169.37
859.283	10175.01
859.605	10089.14
859.926	10129.59
860.248	10002.82
860.57	10105.19
860.891	10037.17
861.212	10003.49
861.534	9992.87
861.855	10043.27
862.176	9971.86
862.498	9998.75
862.819	10088.69
863.14	9956.04
863.461	9911.29
863.782	9850.96
864.103	9877.62
864.424	9845.31
864.745	9860.22
865.065	9725.76
865.386	9803.73
865.707	9784.29
866.027	9715.82
866.348	9719.43
866.668	9690.06
866.989	9718.08
867.309	9617.29
867.63	9616.61
867.95	9744.97
868.27	9670.4
868.59	9662.71
868.91	9580
869.23	9572.09
869.55	9620.91
869.87	9651.41
870.19	9567.57
870.51	9613.9
870.83	9626.78
871.15	9516.73
871.469	9525.54
871.789	9520.34
872.109	9481.7
872.428	9417.52
872.748	9493.45
873.067	9478.54
873.386	9538.87
873.706	9369.39
874.025	9364.19
874.344	9423.85
874.663	9424.53
874.982	9366.22
875.301	9329.16
875.62	9352.44
875.939	9384.08
876.258	9286.22
876.577	9247.81
876.896	9233.12
877.214	9229.5
877.533	9183.18
877.852	9270.86
878.17	9212.55
878.489	9251.88
878.807	9181.82
879.125	9166.91
879.444	9213.23
879.762	9137.98
880.08	9172.56
880.398	9129.84
880.716	9153.35
881.034	9068.6
881.352	9088.72
881.67	9017.98
881.988	9027.7
882.306	9078.77
882.624	9017.76
882.941	8957.65
883.259	8928.49
883.577	8965.78
883.894	8892.79
884.212	8884.43
884.529	8879.68
884.846	8871.32
885.164	8869.51
885.481	8803.3
885.798	8848.04
886.115	8733.7
886.432	8747.03
886.75	8767.14
887.067	8771.44
887.383	8721.27
887.7	8715.17
888.017	8656.86
888.334	8665
888.651	8636.3
888.967	8643.53
889.284	8546.13
889.6	8535.96
889.917	8490.09
890.233	8575.73
890.55	8513.59
890.866	8522.4
891.182	8447.83
891.498	8435.17
891.815	8427.04
892.131	8334.61
892.447	8374.84
892.763	8270.66
893.079	8254.39
893.395	8289.64
893.71	8278.12
894.026	8260.26
894.342	8205.8
894.657	8211.68
894.973	8118.8
895.289	8146.37
895.604	8108.85
895.92	8068.63
896.235	8055.3
896.55	8044
896.865	7992.25
897.181	7968.29
897.496	8014.39
897.811	7910.44
898.126	7855.53
898.441	7894.17
898.756	7821.63
899.071	7789.77
899.386	7860.27
899.7	7657.57
900.015	7767.62
900.33	7650.11
900.644	7641.07
900.959	7674.29
901.273	7639.71
901.588	7587.96
901.902	7535.08
902.216	7542.99
902.531	7490.57
902.845	7526.95
903.159	7450.34
903.473	7440.4
903.787	7446.95
904.101	7401.08
904.415	7367.63
904.729	7314.53
905.042	7268.2
905.356	7294.19
905.67	7293.06
905.984	7282.66
906.297	7216.45
906.611	7203.34
906.924	7144.59
907.237	7160.4
907.551	7130.35
907.864	7057.13
908.177	7083.57
908.491	7021.43
908.804	6996.79
909.117	6952.5
909.43	6925.61
909.743	6899.62
910.056	6915.89
910.368	6863.01
910.681	6857.59
910.994	6806.06
911.307	6736.46
911.619	6689.46
911.932	6739.17
912.244	6606.97
912.557	6698.72
912.869	6602.68
913.181	6639.29
913.494	6583.02
913.806	6567.65
914.118	6538.05
914.43	6465.06
914.742	6479.97
915.054	6459.86
915.366	6429.58
915.678	6408.11
915.99	6383.48
916.302	6330.6
916.613	6308.9
916.925	6311.16
917.236	6296.02
917.548	6238.85
917.859	6231.62
918.171	6187.32
918.482	6178.74
918.794	6136.7
919.105	6188.45
919.416	6124.73
919.727	6080.66
920.038	6084.5
920.349	6013.32
920.66	6004.05
920.971	5985.29
921.282	5990.27
921.593	5887.22
921.903	5907.56
922.214	5878.4
922.525	5832.53
922.835	5820.78
923.146	5816.26
923.456	5824.17
923.767	5734.91
924.077	5750.5
924.387	5664.85
924.697	5652.2
925.008	5682.25
925.318	5633.21
925.628	5558.64
925.938	5579.2
926.248	5519.09
926.558	5528.81
926.867	5545.98
927.177	5514.57
927.487	5470.28
927.796	5440
928.106	5428.47
928.416	5369.04
928.725	5396.38
929.034	5321.58
929.344	5387.34
929.653	5296.95
929.962	5304.86
930.271	5276.84
930.581	5285.65
930.89	5146.67
931.199	5172.89
931.508	5203.39
931.817	5182.6
932.125	5131.98
932.434	5101.25
932.743	5120.23
933.051	5057.64
933.36	5050.18
933.669	5031.87
933.977	5024.87
934.286	5029.61
934.594	4957.3
934.902	4979.9
935.21	4892.44
935.519	4927.92
935.827	4861.03
936.135	4842.05
936.443	4797.08
936.751	4781.71
937.059	4829.39
937.367	4816.06
937.674	4790.3
937.982	4702.16
938.29	4704.42
938.597	4692
938.905	4652.22
939.213	4629.85
939.52	4625.33
939.827	4632.34
940.135	4593.24
940.442	4571.77
940.749	4545.56
941.056	4582.17
941.363	4503.3
941.67	4474.15
941.977	4496.75
942.284	4474.83
942.591	4431.44
942.898	4429.86
943.205	4433.47
943.511	4381.49
943.818	4407.03
944.125	4327.03
944.431	4352.34
944.738	4283.42
945.044	4341.5
945.35	4335.39
945.657	4282.06
945.963	4242.06
946.269	4241.39
946.575	4227.15
946.881	4203.65
947.187	4217.88
947.493	4151.22
947.799	4164.1
948.105	4152.35
948.41	4044.1
948.716	4148.05
949.022	4043.65
949.327	4038.45
949.633	4054.05
949.938	3991.9
950.244	4003.65
950.549	3965.23
950.854	3967.04
951.16	3953.94
951.465	3938.57
951.77	3942.86
952.075	3901.06
952.38	3867.38
952.685	3893.6
952.99	3869.19
953.294	3807.5
953.599	3842.07
953.904	3829.87
954.209	3834.39
954.513	3798.91
954.818	3740.38
955.122	3780.61
955.426	3737.44
955.731	3720.72
956.035	3684.11
956.339	3664.9
956.643	3680.5
956.948	3692.47
957.252	3665.58
957.556	3630.1
957.86	3639.59
958.163	3621.97
958.467	3619.48
958.771	3578.13
959.075	3549.88
959.378	3547.39
959.682	3520.05
959.985	3499.26
960.289	3485.47
960.592	3472.37
960.896	3409.77
961.199	3403.44
961.502	3417.68
961.805	3399.15
962.108	3405.93
962.411	3369.54
962.714	3372.71
963.017	3344.23
963.32	3328.64
963.623	3319.38
963.926	3313.5
964.228	3275.08
964.531	3300.17
964.833	3259.26
965.136	3228.08
965.438	3238.25
965.741	3217.23
966.043	3218.14
966.345	3150.34
966.648	3198.02
966.95	3184.92
967.252	3174.75
967.554	3110.79
967.856	3101.98
968.158	3110.34
968.46	3087.07
968.761	3078.03
969.063	3053.62
969.365	3039.16
969.666	3036.45
969.968	3032.83
970.269	3000.97
970.571	3010.46
970.872	3010.68
971.174	2969.55
971.475	2971.59
971.776	2972.49
972.077	2949.44
972.378	2920.97
972.679	2925.49
972.98	2926.62
973.281	2909.44
973.582	2871.48
973.883	2843.23
974.183	2865.83
974.484	2831.71
974.785	2830.35
975.085	2806.85
975.386	2807.53
975.686	2790.12
975.986	2775.89
976.287	2765.04
976.587	2762.78
976.887	2781.54
977.187	2707.41
977.487	2721.65
977.787	2722.78
978.087	2673.29
978.387	2701.54
978.687	2651.82
978.987	2656.12
979.286	2627.19
979.586	2678.49
979.885	2635.55
980.185	2658.6
980.484	2568.66
980.784	2623.8
981.083	2567.08
981.382	2586.74
981.682	2562.79
981.981	2576.8
982.28	2578.38
982.579	2535.22
982.878	2503.35
983.177	2509.91
983.475	2506.74
983.774	2472.84
984.073	2466.29
984.372	2493.41
984.67	2447.53
984.969	2437.14
985.267	2439.17
985.566	2418.38
985.864	2424.94
986.162	2372.73
986.461	2382
986.759	2377.48
987.057	2368.67
987.355	2342
987.653	2352.17
987.951	2357.82
988.249	2327.09
988.547	2338.61
988.844	2316.92
989.142	2289.57
989.44	2297.93
989.737	2265.39
990.035	2294.54
990.332	2223.36
990.63	2208.9
990.927	2236.47
991.224	2229.46
991.521	2214.32
991.819	2209.12
992.116	2180.42
992.413	2191.95
992.71	2166.19
993.006	2160.99
993.303	2127.77
993.6	2145.85
993.897	2145.62
994.193	2095.68
994.49	2121.44
994.787	2101.55
995.083	2069.01
995.379	2085.96
995.676	2047.77
995.972	2068.56
996.268	2059.52
996.565	2051.84
996.861	2055
997.157	2054.55
997.453	2023.59
997.749	2008.22
998.044	2017.49
998.34	1968
998.636	1967.55
998.932	1959.86
999.227	1954.67
999.523	1941.56
999.818	1919.41
1000.114	1911.73
1000.409	1933.88
1000.704	1919.86
1001	1881.9
1001.295	1861.34
1001.59	1877.38
1001.885	1911.5
1002.18	1860.66
1002.475	1838.51
1002.77	1837.83
1003.065	1802.81
1003.359	1803.71
1003.654	1797.38
1003.949	1800.32
1004.243	1786.31
1004.538	1781.56
1004.832	1776.59
1005.127	1743.15
1005.421	1771.39
1005.715	1741.11
1006.009	1739.76
1006.304	1728.91
1006.598	1697.5
1006.892	1692.07
1007.186	1703.83
1007.48	1691.62
1007.773	1685.97
1008.067	1665.86
1008.361	1676.48
1008.655	1644.39
1008.948	1624.73
1009.242	1645.07
1009.535	1627.44
1009.829	1630.61
1010.122	1607.33
1010.415	1601
1010.708	1557.61
1011.001	1573.66
1011.295	1567.56
1011.588	1550.83
1011.881	1553.55
1012.173	1574.34
1012.466	1550.38
1012.759	1513.55
1013.052	1546.32
1013.344	1543.15
1013.637	1516.94
1013.93	1510.84
1014.222	1524.17
1014.514	1467
1014.807	1469.03
1015.099	1418.18
1015.391	1449.37
1015.683	1428.35
1015.976	1444.62
1016.268	1398.3
1016.56	1421.12
1016.851	1389.03
1017.143	1427
1017.435	1385.42
1017.727	1379.31
1018.018	1368.47
1018.31	1350.61
1018.602	1356.26
1018.893	1354.46
1019.185	1371.86
1019.476	1352.2
1019.767	1330.5
1020.058	1317.62
1020.35	1301.8
1020.641	1321.46
1020.932	1284.63
1021.223	1283.72
1021.514	1298.64
1021.804	1236.49
1022.095	1282.14
1022.386	1252.09
1022.677	1234.69
1022.967	1232.88
1023.258	1212.99
1023.548	1228.13
1023.839	1221.13
1024.129	1211.41
1024.419	1171.64
1024.709	1184.06
1025	1170.51
1025.29	1182.71
1025.58	1145.65
1025.87	1176.83
1026.16	1151.98
1026.449	1149.72
1026.739	1126.89
1027.029	1116.72
1027.319	1138.87
1027.608	1115.82
1027.898	1105.65
1028.187	1111.98
1028.477	1072.66
1028.766	1089.15
1029.055	1077.85
1029.344	1069.72
1029.634	1051.41
1029.923	1031.53
1030.212	1053.45
1030.501	1057.29
1030.79	1040.34
1031.078	1038.98
1031.367	1019.78
1031.656	1013.9
1031.945	1021.36
1032.233	1001.47
1032.522	987.01
1032.81	984.75
1033.099	971.42
1033.387	1001.02
1033.675	974.35
1033.963	986.78
1034.251	965.09
1034.54	942.04
1034.828	950.17
1035.116	986.78
1035.403	933.45
1035.691	933.45
1035.979	951.08
1036.267	934.35
1036.554	911.08
1036.842	916.5
1037.129	907.69
1037.417	905.65
1037.704	865.88
1037.992	900
1038.279	903.39
1038.566	869.27
1038.853	869.27
1039.14	869.27
