Data from blue_chair_FLMS001491_00001.txt Node
Date: Wed Feb 08 10:28:54 GMT 2017
User: dcchb
Spectrometer: FLMS00149
Trigger mode: 0
Integration Time (sec): 2.000000E-2
Scans to average: 10
Electric dark correction enabled: true
Nonlinearity correction enabled: false
Boxcar width: 0
XAxis mode: Wavelengths
Number of Pixels in Spectrum: 2048
>>>>>Begin Spectral Data<<<<<
341.393	-24.52
341.776	-24.52
342.16	-24.52
342.543	-43.05
342.927	-63.61
343.31	-62.03
343.693	-65.65
344.077	-61.58
344.46	-74.69
344.843	-51.41
345.226	-33.33
345.61	-26.33
345.993	-19.55
346.376	-1.02
346.759	23.16
347.142	20.23
347.525	17.51
347.908	60.68
348.291	70.62
348.674	93.22
349.057	110.17
349.44	119.88
349.823	127.12
350.206	166.21
350.588	180.67
350.971	179.09
351.354	198.53
351.737	222.03
352.119	204.85
352.502	235.81
352.884	262.25
353.267	261.58
353.65	269.71
354.032	257.73
354.414	285.53
354.797	305.42
355.179	296.83
355.562	292.99
355.944	295.25
356.326	294.34
356.709	326.21
357.091	316.26
357.473	323.04
357.855	312.87
358.238	325.08
358.62	334.12
359.002	312.65
359.384	308.81
359.766	309.03
360.148	318.52
360.53	313.78
360.912	321.23
361.294	324.62
361.676	310.84
362.057	297.51
362.439	297.96
362.821	316.94
363.203	305.19
363.584	325.75
363.966	304.06
364.348	297.73
364.729	319.43
365.111	291.4
365.493	281.01
365.874	294.12
366.256	281.46
366.637	299.99
367.019	296.38
367.4	281.91
367.781	277.17
368.163	295.92
368.544	279.88
368.925	301.57
369.306	283.5
369.688	308.58
370.069	278.75
370.45	285.53
370.831	302.48
371.212	288.24
371.593	278.52
371.974	286.43
372.355	286.43
372.736	281.01
373.117	274.91
373.498	285.76
373.879	279.43
374.26	273.1
374.641	267.22
375.021	279.88
375.402	307
375.783	285.3
376.163	273.33
376.544	286.66
376.925	286.89
377.305	288.02
377.686	267
378.066	302.7
378.447	307.68
378.827	292.76
379.208	286.43
379.588	303.83
379.968	298.18
380.349	277.85
380.729	278.98
381.109	279.65
381.489	303.61
381.87	290.5
382.25	292.31
382.63	299.77
383.01	299.31
383.39	298.41
383.77	314.68
384.15	291.18
384.53	292.76
384.91	292.53
385.29	291.86
385.67	302.25
386.049	304.51
386.429	306.09
386.809	299.99
387.189	295.25
387.568	316.94
387.948	313.55
388.328	311.97
388.707	310.61
389.087	321.46
389.466	293.89
389.846	323.27
390.225	324.85
390.605	320.1
390.984	318.07
391.363	313.1
391.743	320.33
392.122	322.82
392.501	321.46
392.881	325.3
393.26	313.33
393.639	329.82
394.018	317.39
394.397	314.91
394.776	323.95
395.155	337.28
395.534	340.67
395.913	330.05
396.292	313.78
396.671	340.44
397.05	321.91
397.429	331.18
397.808	326.43
398.186	361.23
398.565	333.44
398.944	348.13
399.323	323.49
399.701	338.18
400.08	344.28
400.458	340.67
400.837	346.09
401.215	353.1
401.594	353.55
401.972	357.84
402.351	324.85
402.729	339.77
403.107	362.14
403.486	341.8
403.864	343.15
404.242	345.64
404.62	336.83
404.999	349.71
405.377	339.09
405.755	365.98
406.133	361.23
406.511	353.1
406.889	356.26
407.267	363.49
407.645	366.43
408.023	370.95
408.401	377.73
408.779	393.77
409.156	383.61
409.534	367.33
409.912	391.74
410.29	387.45
410.667	361.46
411.045	385.87
411.422	366.88
411.8	403.04
412.178	392.65
412.555	409.82
412.933	396.94
413.31	401.68
413.687	407.11
414.065	400.33
414.442	400.33
414.819	419.54
415.197	429.71
415.574	412.76
415.951	416.6
416.328	416.15
416.705	430.61
417.082	422.02
417.46	429.93
417.837	415.02
418.214	414.79
418.591	443.27
418.967	430.84
419.344	425.86
419.721	423.83
420.098	431.29
420.475	422.7
420.852	420.44
421.228	430.61
421.605	472.42
421.982	426.77
422.358	434.68
422.735	433.55
423.111	444.62
423.488	447.11
423.864	460.44
424.241	472.19
424.617	469.25
424.994	473.55
425.37	512.19
425.746	464.96
426.123	459.54
426.499	493.21
426.875	474
427.251	490.04
427.627	469.03
428.003	482.81
428.379	510.83
428.756	500.89
429.132	499.76
429.507	516.48
429.883	490.04
430.259	500.44
430.635	484.62
431.011	484.17
431.387	514.22
431.763	532.75
432.138	517.39
432.514	546.54
432.89	513.55
433.265	558.29
433.641	533.66
434.016	530.95
434.392	567.33
434.767	581.34
435.143	575.01
435.518	584.28
435.894	563.49
436.269	580.21
436.644	605.29
437.02	581.57
437.395	572.53
437.77	595.58
438.145	579.08
438.52	631.28
438.895	626.31
439.271	613.88
439.646	631.28
440.021	639.42
440.395	649.81
440.77	665.63
441.145	634.45
441.52	660.66
441.895	650.72
442.27	662.47
442.645	673.99
443.019	691.39
443.394	665.63
443.769	706.31
444.143	679.64
444.518	706.31
444.892	678.29
445.267	693.88
445.641	702.92
446.016	723.94
446.39	734.78
446.764	693.88
447.139	725.52
447.513	735.46
447.887	722.35
448.262	729.13
448.636	699.53
449.01	741.79
449.384	763.48
449.758	735.01
450.132	757.16
450.506	778.4
450.88	774.56
451.254	756.7
451.628	760.32
452.002	786.31
452.376	805.97
452.75	770.26
453.123	790.6
453.497	807.1
453.871	800.77
454.244	804.61
454.618	808
454.992	831.73
455.365	812.07
455.739	865.85
456.112	846.19
456.486	834.44
456.859	849.58
457.232	837.15
457.606	876.47
457.979	868.56
458.352	873.76
458.725	886.42
459.099	900.2
459.472	892.29
459.845	894.55
460.218	919.41
460.591	903.14
460.964	893.2
461.337	936.81
461.71	935.91
462.083	943.59
462.456	932.97
462.829	955.12
463.201	973.42
463.574	942.24
463.947	956.47
464.32	961.44
464.692	982.01
465.065	966.87
465.438	982.23
465.81	1005.28
466.183	1012.52
466.555	1030.14
466.928	1006.64
467.3	1036.92
467.672	1041.89
468.045	1051.84
468.417	1054.32
468.789	1037.83
469.161	1087.54
469.534	1090.48
469.906	1123.02
470.278	1097.71
470.65	1107.2
471.022	1118.5
471.394	1137.26
471.766	1148.33
472.138	1130.03
472.51	1137.03
472.882	1145.39
473.253	1182.91
473.625	1192.4
473.997	1192.17
474.369	1179.29
474.74	1209.57
475.112	1209.12
475.484	1218.16
475.855	1223.13
476.227	1233.98
476.598	1268.55
476.97	1252.06
477.341	1268.33
477.713	1285.5
478.084	1283.02
478.455	1320.98
478.827	1336.12
479.198	1336.58
479.569	1363.92
479.94	1379.06
480.311	1366.18
480.682	1391.49
481.053	1394.65
481.424	1418.83
481.795	1443.01
482.166	1429.91
482.537	1413.86
482.908	1448.66
483.279	1442.56
483.65	1487.53
484.021	1493.41
484.391	1495.67
484.762	1494.54
485.133	1480.3
485.503	1506.97
485.874	1516.23
486.244	1527.08
486.615	1520.3
486.985	1524.14
487.356	1543.35
487.726	1568.89
488.097	1556.23
488.467	1535.21
488.837	1570.24
489.207	1567.3
489.578	1590.81
489.948	1644.82
490.318	1604.14
490.688	1587.42
491.058	1625.61
491.428	1639.84
491.798	1629.45
492.168	1656.57
492.538	1635.55
492.908	1626.06
493.278	1658.37
493.648	1637.13
494.017	1652.05
494.387	1642.78
494.757	1677.13
495.126	1647.75
495.496	1667.87
495.866	1654.08
496.235	1648.43
496.605	1629.9
496.974	1639.84
497.344	1636.91
497.713	1652.95
498.082	1626.28
498.452	1654.98
498.821	1641.88
499.19	1658.15
499.559	1649.79
499.928	1660.18
500.298	1641.43
500.667	1631.03
501.036	1641.43
501.405	1638.94
501.774	1631.93
502.143	1629.22
502.512	1653.18
502.88	1631.03
503.249	1615.66
503.618	1655.89
503.987	1602.78
504.356	1626.96
504.724	1601.43
505.093	1587.64
505.462	1641.43
505.83	1605.95
506.199	1611.37
506.567	1567.98
506.936	1616.12
507.304	1588.09
507.672	1583.57
508.041	1589
508.409	1588.77
508.777	1589.45
509.145	1574.99
509.514	1551.94
509.882	1569.34
510.25	1559.85
510.618	1573.18
510.986	1563.01
511.354	1614.99
511.722	1561.65
512.09	1563.24
512.458	1556.23
512.826	1570.47
513.193	1550.58
513.561	1540.86
513.929	1543.58
514.297	1568.21
514.664	1500.86
515.032	1504.93
515.4	1538.38
515.767	1533.86
516.135	1513.29
516.502	1507.19
516.869	1502.9
517.237	1491.6
517.604	1477.81
517.972	1518.49
518.339	1476.01
518.706	1453.63
519.073	1468.1
519.44	1485.72
519.808	1461.09
520.175	1477.81
520.542	1483.01
520.909	1486.85
521.276	1472.16
521.643	1448.66
522.009	1487.31
522.376	1439.62
522.743	1456.12
523.11	1456.57
523.477	1465.84
523.843	1472.16
524.21	1419.96
524.577	1463.58
524.943	1428.1
525.31	1432.84
525.676	1447.76
526.043	1449.34
526.409	1464.71
526.776	1464.26
527.142	1411.38
527.508	1441.66
527.874	1460.64
528.241	1449.79
528.607	1455.89
528.973	1445.95
529.339	1441.66
529.705	1442.33
530.071	1465.39
530.437	1428.32
530.803	1452.5
531.169	1429.23
531.535	1419.28
531.901	1422.22
532.267	1405.73
532.632	1425.61
532.998	1428.1
533.364	1429.91
533.73	1441.88
534.095	1435.56
534.461	1407.31
534.826	1411.83
535.192	1453.18
535.557	1417.93
535.923	1402.11
536.288	1441.43
536.653	1414.54
537.019	1407.31
537.384	1394.43
537.749	1399.4
538.114	1405.73
538.479	1400.98
538.845	1417.25
539.21	1391.71
539.575	1371.38
539.94	1408.89
540.305	1417.48
540.67	1398.95
541.034	1396.23
541.399	1385.16
541.764	1406.63
542.129	1399.62
542.494	1373.64
542.858	1391.49
543.223	1374.09
543.587	1372.05
543.952	1385.61
544.316	1380.42
544.681	1373.41
545.045	1372.05
545.41	1372.28
545.774	1337.25
546.138	1358.04
546.503	1353.98
546.867	1329.57
547.231	1360.53
547.595	1365.73
547.959	1363.92
548.324	1360.53
548.688	1333.41
549.052	1360.98
549.416	1335.9
549.779	1327.99
550.143	1333.64
550.507	1339.06
550.871	1347.2
551.235	1345.39
551.599	1315.56
551.962	1328.89
552.326	1336.58
552.689	1314.43
553.053	1329.34
553.417	1326.18
553.78	1320.76
554.143	1295.9
554.507	1327.31
554.87	1307.2
555.234	1311.94
555.597	1332.51
555.96	1325.28
556.323	1284.6
556.686	1318.27
557.05	1289.34
557.413	1331.83
557.776	1333.41
558.139	1293.41
558.502	1301.77
558.865	1308.33
559.228	1290.47
559.59	1327.08
559.953	1304.71
560.316	1302.9
560.679	1297.03
561.041	1317.14
561.404	1320.76
561.767	1270.14
562.129	1332.96
562.492	1312.85
562.854	1305.84
563.217	1294.32
563.579	1319.17
563.941	1303.58
564.304	1298.38
564.666	1324.15
565.028	1325.95
565.39	1344.48
565.753	1336.35
566.115	1309.91
566.477	1336.8
566.839	1328.21
567.201	1335.9
567.563	1322.56
567.925	1346.07
568.287	1335.45
568.648	1327.76
569.01	1355.33
569.372	1363.47
569.734	1321.89
570.095	1360.53
570.457	1358.5
570.819	1345.16
571.18	1322.34
571.542	1393.97
571.903	1360.08
572.265	1384.48
572.626	1375.44
572.987	1373.41
573.349	1389.91
573.71	1391.71
574.071	1354.88
574.432	1384.48
574.794	1384.03
575.155	1357.59
575.516	1392.84
575.877	1389.68
576.238	1386.74
576.599	1421.32
576.96	1381.09
577.32	1392.17
577.681	1411.6
578.042	1415.89
578.403	1421.54
578.763	1442.11
579.124	1397.82
579.485	1436.23
579.845	1455.89
580.206	1406.86
580.566	1437.82
580.927	1443.92
581.287	1430.58
581.648	1467.65
582.008	1426.52
582.368	1478.94
582.728	1444.59
583.089	1455.44
583.449	1444.37
583.809	1453.41
584.169	1448.89
584.529	1450.92
584.889	1467.65
585.249	1434.2
585.609	1458.38
585.969	1463.13
586.329	1474.42
586.688	1506.74
587.048	1484.37
587.408	1460.19
587.768	1463.35
588.127	1478.49
588.487	1484.14
588.846	1487.76
589.206	1482.79
589.565	1483.92
589.925	1487.31
590.284	1503.8
590.643	1477.14
591.003	1473.97
591.362	1501.32
591.721	1437.14
592.08	1476.91
592.44	1484.59
592.799	1478.27
593.158	1486.85
593.517	1487.31
593.876	1473.07
594.235	1459.06
594.593	1484.37
594.952	1509.23
595.311	1514.42
595.67	1472.16
596.029	1465.39
596.387	1475.78
596.746	1464.93
597.104	1461.09
597.463	1456.57
597.822	1462.22
598.18	1480.07
598.538	1477.59
598.897	1492.73
599.255	1478.27
599.613	1482.33
599.972	1469.68
600.33	1504.25
600.688	1473.97
601.046	1483.01
601.404	1516.91
601.762	1471.49
602.12	1484.59
602.478	1495.89
602.836	1485.72
603.194	1461.09
603.552	1490.24
603.91	1490.7
604.268	1445.27
604.625	1470.36
604.983	1466.52
605.341	1471.94
605.698	1459.06
606.056	1480.75
606.413	1465.16
606.771	1481.43
607.128	1487.53
607.485	1486.4
607.843	1495.67
608.2	1500.41
608.557	1480.07
608.914	1475.1
609.272	1478.04
609.629	1494.09
609.986	1497.7
610.343	1498.6
610.7	1507.64
611.057	1478.04
611.414	1509.9
611.771	1499.73
612.127	1475.33
612.484	1509.23
612.841	1485.05
613.198	1465.84
613.554	1506.51
613.911	1474.65
614.267	1503.35
614.624	1477.36
614.98	1514.2
615.337	1516.46
615.693	1510.81
616.05	1513.97
616.406	1500.19
616.762	1503.58
617.118	1457.93
617.475	1518.27
617.831	1503.8
618.187	1475.55
618.543	1481.66
618.899	1520.3
619.255	1511.03
619.611	1495.44
619.967	1459.96
620.323	1508.55
620.678	1503.58
621.034	1501.99
621.39	1524.59
621.746	1494.76
622.101	1508.77
622.457	1509.45
622.812	1515.33
623.168	1493.41
623.523	1531.82
623.879	1524.82
624.234	1506.06
624.589	1501.99
624.945	1519.17
625.3	1549
625.655	1544.25
626.01	1515.55
626.365	1507.87
626.72	1542.45
627.075	1546.96
627.43	1529.34
627.785	1508.1
628.14	1515.33
628.495	1543.58
628.85	1511.49
629.205	1501.77
629.559	1539.28
629.914	1523.24
630.269	1558.26
630.623	1525.27
630.978	1558.94
631.332	1528.43
631.687	1510.13
632.041	1512.39
632.396	1514.65
632.75	1545.16
633.104	1525.95
633.459	1543.8
633.813	1536.34
634.167	1541.32
634.521	1522.78
634.875	1523.01
635.229	1510.81
635.583	1501.99
635.937	1526.4
636.291	1541.09
636.645	1539.73
636.999	1555.78
637.352	1530.24
637.706	1527.3
638.06	1515.55
638.413	1538.6
638.767	1507.87
639.121	1539.96
639.474	1513.97
639.828	1520.52
640.181	1532.05
640.534	1528.89
640.888	1525.04
641.241	1526.17
641.594	1531.15
641.947	1525.5
642.301	1543.35
642.654	1532.95
643.007	1539.73
643.36	1538.15
643.713	1532.95
644.066	1529.11
644.419	1539.73
644.771	1527.76
645.124	1503.8
645.477	1523.01
645.83	1509.23
646.182	1522.11
646.535	1501.54
646.888	1534.08
647.24	1516.23
647.593	1517.81
647.945	1547.42
648.298	1515.1
648.65	1507.42
649.002	1527.3
649.355	1525.5
649.707	1515.55
650.059	1547.19
650.411	1558.04
650.763	1573.63
651.115	1549.22
651.467	1582.44
651.819	1579.96
652.171	1589.9
652.523	1542.9
652.875	1560.3
653.227	1546.74
653.578	1564.37
653.93	1587.64
654.282	1552.84
654.633	1562.56
654.985	1552.16
655.337	1587.87
655.688	1605.27
656.039	1581.31
656.391	1550.35
656.742	1574.08
657.094	1594.65
657.445	1605.49
657.796	1592.84
658.147	1600.97
658.498	1580.41
658.849	1620.18
659.2	1607.3
659.551	1581.54
659.902	1612.73
660.253	1614.31
660.604	1619.28
660.955	1593.52
661.306	1619.73
661.656	1646.85
662.007	1613.86
662.358	1605.95
662.708	1620.64
663.059	1642.33
663.409	1612.05
663.76	1645.04
664.11	1619.05
664.461	1643.91
664.811	1605.27
665.161	1609.56
665.511	1635.55
665.862	1608.21
666.212	1634.19
666.562	1625.16
666.912	1610.01
667.262	1644.59
667.612	1635.1
667.962	1623.35
668.312	1635.55
668.662	1636.45
669.011	1646.17
669.361	1634.42
669.711	1634.42
670.06	1599.84
670.41	1613.18
670.76	1631.26
671.109	1628.77
671.459	1646.17
671.808	1652.27
672.157	1610.69
672.507	1630.8
672.856	1610.47
673.205	1585.83
673.554	1592.16
673.904	1588.55
674.253	1624.48
674.602	1612.27
674.951	1577.92
675.3	1583.35
675.649	1610.24
675.998	1598.72
676.346	1604.59
676.695	1600.3
677.044	1591.71
677.393	1575.89
677.741	1580.41
678.09	1573.4
678.438	1570.24
678.787	1556.68
679.135	1590.58
679.484	1540.64
679.832	1548.55
680.181	1562.56
680.529	1563.24
680.877	1553.52
681.225	1564.59
681.573	1552.84
681.922	1561.88
682.27	1560.98
682.618	1513.52
682.966	1516.01
683.314	1529.79
683.661	1512.39
684.009	1540.86
684.357	1541.77
684.705	1529.34
685.053	1504.03
685.4	1514.65
685.748	1497.7
686.095	1509.9
686.443	1489.11
686.79	1463.13
687.138	1519.4
687.485	1507.87
687.832	1511.94
688.18	1491.6
688.527	1510.13
688.874	1470.13
689.221	1487.53
689.568	1469.68
689.915	1502.45
690.262	1462.67
690.609	1441.21
690.956	1476.23
691.303	1445.72
691.65	1440.98
691.997	1447.53
692.344	1452.5
692.69	1444.37
693.037	1438.72
693.383	1433.75
693.73	1465.39
694.077	1432.62
694.423	1419.06
694.769	1423.35
695.116	1419.96
695.462	1413.86
695.808	1443.92
696.155	1375.44
696.501	1398.72
696.847	1413.86
697.193	1363.92
697.539	1380.19
697.885	1365.95
698.231	1383.13
698.577	1344.71
698.923	1368.89
699.269	1386.52
699.614	1370.25
699.96	1352.85
700.306	1355.33
700.651	1364.82
700.997	1347.65
701.342	1355.78
701.688	1368.89
702.033	1364.37
702.379	1355.11
702.724	1367.31
703.069	1361.21
703.415	1322.79
703.76	1314.65
704.105	1361.66
704.45	1349.91
704.795	1340.87
705.14	1341.55
705.485	1342.9
705.83	1335.9
706.175	1332.73
706.52	1341.77
706.865	1313.3
707.209	1324.6
707.554	1320.08
707.899	1354.2
708.243	1360.08
708.588	1322.34
708.932	1335.67
709.277	1336.12
709.621	1334.32
709.966	1348.55
710.31	1358.5
710.654	1325.73
710.998	1353.07
711.342	1327.76
711.687	1330.25
712.031	1344.26
712.375	1340.19
712.719	1343.58
713.063	1326.41
713.407	1326.18
713.75	1343.58
714.094	1345.39
714.438	1344.26
714.782	1345.61
715.125	1356.01
715.469	1349
715.812	1372.05
716.156	1341.09
716.499	1376.35
716.843	1380.87
717.186	1357.14
717.53	1379.74
717.873	1372.51
718.216	1376.35
718.559	1359.63
718.902	1382.68
719.246	1372.73
719.589	1384.26
719.932	1354.43
720.275	1383.35
720.617	1386.52
720.96	1418.38
721.303	1412.96
721.646	1405.73
721.989	1413.86
722.331	1413.18
722.674	1402.34
723.016	1427.65
723.359	1432.62
723.701	1418.38
724.044	1443.92
724.386	1439.4
724.729	1422.22
725.071	1443.92
725.413	1487.76
725.755	1451.6
726.097	1453.86
726.439	1443.92
726.782	1449.11
727.124	1463.8
727.465	1476.46
727.807	1485.05
728.149	1516.01
728.491	1479.62
728.833	1527.98
729.175	1514.88
729.516	1525.95
729.858	1523.91
730.199	1537.93
730.541	1534.31
730.882	1547.19
731.224	1546.51
731.565	1549
731.906	1568.43
732.248	1585.38
732.589	1586.06
732.93	1572.95
733.271	1603.23
733.612	1650.69
733.953	1633.06
734.294	1607.53
734.635	1652.95
734.976	1653.4
735.317	1644.59
735.658	1688.88
735.999	1675.1
736.339	1668.77
736.68	1668.09
737.021	1673.97
737.361	1720.75
737.702	1745.15
738.042	1708.32
738.383	1720.97
738.723	1784.92
739.063	1800.97
739.404	1791.7
739.744	1812.04
740.084	1828.77
740.424	1827.41
740.764	1856.11
741.104	1889.78
741.444	1898.82
741.784	1890.91
742.124	1938.59
742.464	1927.75
742.804	1949.89
743.143	1979.5
743.483	2020.85
743.823	2026.05
744.162	2021.75
744.502	2035.54
744.841	2059.72
745.181	2105.14
745.52	2158.25
745.86	2134.97
746.199	2196.21
746.538	2202.54
746.877	2248.42
747.216	2276.21
747.556	2300.84
747.895	2357.57
748.234	2360.5
748.573	2403.21
748.911	2454.74
749.25	2463.33
749.589	2471.46
749.928	2520.27
750.267	2553.49
750.605	2604.11
750.944	2616.09
751.283	2684.11
751.621	2751
751.96	2777.67
752.298	2802.53
752.636	2882.52
752.975	2909.64
753.313	2948.51
753.651	3003.2
753.989	3007.94
754.327	3093.82
754.666	3101.05
755.004	3195.28
755.342	3219.69
755.679	3304.66
756.017	3300.14
756.355	3382.62
756.693	3428.95
757.031	3464.43
757.368	3542.62
757.706	3592.11
758.044	3663.97
758.381	3684.99
758.719	3726.12
759.056	3816.51
759.394	3870.07
759.731	3897.41
760.068	3946.68
760.405	3995.04
760.743	4048.82
761.08	4139.21
761.417	4146.67
761.754	4248.36
762.091	4241.58
762.428	4312.99
762.765	4355.03
763.102	4384.4
763.438	4434.8
763.775	4474.35
764.112	4508.47
764.449	4586.89
764.785	4588.92
765.122	4636.83
765.458	4706.66
765.795	4758.41
766.131	4798.86
766.467	4837.73
766.804	4895.13
767.14	4917.05
767.476	4973.09
767.812	4988.68
768.148	5052.18
768.485	5067.1
768.821	5113.88
769.157	5124.72
769.492	5149.13
769.828	5259.64
770.164	5235.23
770.5	5266.87
770.836	5283.82
771.171	5292.18
771.507	5305.96
771.842	5375.11
772.178	5417.6
772.513	5449.01
772.849	5441.78
773.184	5421.44
773.519	5525.17
773.855	5541.21
774.19	5577.59
774.525	5583.47
774.86	5564.94
775.195	5614.43
775.53	5612.17
775.865	5627.99
776.2	5650.13
776.535	5689.23
776.87	5663.47
777.205	5705.05
777.539	5661.21
777.874	5743.46
778.209	5752.05
778.543	5787.08
778.878	5757.93
779.212	5731.49
779.547	5777.81
779.881	5812.62
780.215	5826.17
780.55	5789.11
780.884	5800.41
781.218	5797.02
781.552	5849.68
781.886	5853.97
782.22	5895.33
782.554	5827.08
782.888	5852.84
783.222	5869.11
783.556	5886.06
783.889	5846.96
784.223	5833.86
784.557	5856
784.89	5895.1
785.224	5850.81
785.557	5898.26
785.891	5846.96
786.224	5879.28
786.558	5910.24
786.891	5866.85
787.224	5842.67
787.557	5861.43
787.891	5899.17
788.224	5875.66
788.557	5900.75
788.89	5896.91
789.223	5947.3
789.556	5856.91
789.888	5884.7
790.221	5852.39
790.554	5929.45
790.887	5950.01
791.219	5806.06
791.552	5869.79
791.884	5868.66
792.217	5871.37
792.549	5860.98
792.882	5841.09
793.214	5823.46
793.546	5845.38
793.879	5824.37
794.211	5805.16
794.543	5818.72
794.875	5816.46
795.207	5877.25
795.539	5822.33
795.871	5854.42
796.203	5876.12
796.535	5807.19
796.867	5775.33
797.198	5791.15
797.53	5816.91
797.862	5752.5
798.193	5819.4
798.525	5796.8
798.856	5773.52
799.188	5758.15
799.519	5714.09
799.85	5669.79
800.182	5704.82
800.513	5725.16
800.844	5677.03
801.175	5769
801.506	5731.26
801.837	5701.66
802.168	5645.84
802.499	5699.62
802.83	5693.52
803.161	5627.54
803.491	5645.84
803.822	5697.36
804.153	5613.98
804.483	5619.4
804.814	5608.78
805.145	5643.13
805.475	5609.68
805.805	5616.91
806.136	5626.86
806.466	5603.81
806.796	5622.56
807.126	5591.15
807.457	5589.57
807.787	5567.2
808.117	5571.49
808.447	5534.43
808.777	5573.07
809.107	5557.71
809.436	5518.39
809.766	5569.23
810.096	5524.94
810.426	5497.6
810.755	5526.3
811.085	5527.43
811.414	5506.41
811.744	5434.77
812.073	5501.89
812.403	5503.02
812.732	5483.58
813.061	5491.95
813.39	5448.56
813.719	5452.17
814.049	5472.74
814.378	5425.06
814.707	5400.87
815.036	5371.05
815.365	5394.1
815.693	5374.89
816.022	5368.56
816.351	5341.67
816.68	5362.91
817.008	5402.68
817.337	5366.53
817.665	5330.59
817.994	5340.09
818.322	5357.94
818.651	5362.46
818.979	5308.67
819.307	5289.24
819.636	5311.84
819.964	5309.8
820.292	5311.61
820.62	5274.78
820.948	5317.26
821.276	5319.52
821.604	5312.06
821.932	5336.24
822.259	5315.23
822.587	5343.93
822.915	5286.98
823.243	5372.85
823.57	5317.04
823.898	5284.72
824.225	5297.83
824.553	5322.91
824.88	5374.21
825.207	5356.58
825.535	5358.16
825.862	5391.84
826.189	5313.65
826.516	5376.69
826.843	5373.53
827.17	5347.09
827.497	5354.32
827.824	5369.92
828.151	5408.11
828.478	5350.71
828.805	5335.79
829.131	5411.95
829.458	5336.7
829.785	5316.81
830.111	5367.66
830.438	5451.95
830.764	5412.63
831.09	5396.13
831.417	5389.35
831.743	5374.89
832.069	5425.06
832.395	5363.14
832.722	5410.14
833.048	5387.54
833.374	5387.09
833.7	5340.99
834.026	5349.35
834.351	5417.37
834.677	5352.97
835.003	5392.97
835.329	5391.61
835.654	5406.07
835.98	5401.33
836.306	5354.77
836.631	5348.22
836.956	5329.69
837.282	5377.15
837.607	5355.9
837.932	5303.48
838.258	5336.47
838.583	5287.88
838.908	5248.56
839.233	5304.83
839.558	5311.61
839.883	5278.62
840.208	5273.65
840.533	5303.02
840.858	5261.9
841.182	5258.05
841.507	5274.1
841.832	5261.22
842.156	5202.91
842.481	5283.14
842.805	5250.37
843.13	5232.74
843.454	5252.63
843.778	5164.72
844.103	5180.77
844.427	5173.99
844.751	5186.42
845.075	5189.13
845.399	5154.78
845.723	5128.34
846.047	5155.91
846.371	5085.63
846.695	5105.29
847.019	5050.15
847.343	5044.5
847.666	5018.74
847.99	5022.81
848.313	5013.54
848.637	4950.49
848.96	4967.44
849.284	4947.78
849.607	4903.94
849.931	4912.98
850.254	4872.75
850.577	4808.8
850.9	4830.49
851.223	4787.33
851.546	4786.43
851.869	4804.96
852.192	4783.49
852.515	4758.18
852.838	4722.02
853.161	4760.89
853.483	4727.22
853.806	4698.75
854.129	4704.17
854.451	4660.78
854.774	4650.61
855.096	4679.09
855.419	4607.22
855.741	4697.84
856.063	4601.35
856.385	4594.57
856.708	4539.65
857.03	4550.73
857.352	4575.36
857.674	4549.37
857.996	4545.3
858.318	4581.69
858.64	4513.21
858.961	4495.59
859.283	4501.92
859.605	4476.15
859.926	4480.22
860.248	4455.59
860.57	4418.75
860.891	4452.65
861.212	4408.36
861.534	4451.07
861.855	4401.58
862.176	4414.23
862.498	4423.73
862.819	4425.53
863.14	4406.32
863.461	4398.19
863.782	4400.9
864.103	4382.82
864.424	4357.74
864.745	4399.77
865.065	4353.44
865.386	4305.54
865.707	4311.86
866.027	4351.64
866.348	4292.2
866.668	4298.31
866.989	4311.86
867.309	4281.36
867.63	4275.25
867.95	4315.03
868.27	4307.12
868.59	4313.9
868.91	4270.28
869.23	4249.94
869.55	4261.02
869.87	4287.91
870.19	4253.33
870.51	4227.57
870.83	4245.65
871.15	4204.3
871.469	4219.89
871.789	4221.7
872.109	4235.93
872.428	4182.38
872.748	4206.78
873.067	4183.05
873.386	4176.5
873.706	4180.79
874.025	4175.82
874.344	4155.03
874.663	4147.8
874.982	4130.17
875.301	4153.68
875.62	4146.22
875.939	4155.03
876.258	4134.02
876.577	4107.58
876.896	4125.65
877.214	4110.97
877.533	4110.74
877.852	4079.78
878.17	4101.93
878.489	4088.59
878.807	4077.29
879.125	4024.41
879.444	4070.51
879.762	4047.46
880.08	4030.74
880.398	4051.98
880.716	4047.69
881.034	4018.54
881.352	4019.67
881.67	3994.58
881.988	4043.85
882.306	3996.39
882.624	3996.17
882.941	4015.37
883.259	3942.83
883.577	4005.66
883.894	3950.29
884.212	3978.31
884.529	3950.29
884.846	3892.67
885.164	3927.69
885.481	3880.69
885.798	3941.48
886.115	3908.94
886.432	3883.4
886.75	3886.56
887.067	3899.22
887.383	3844.53
887.7	3836.17
888.017	3837.3
888.334	3845.66
888.651	3823.06
888.967	3853.57
889.284	3814.48
889.6	3786.91
889.917	3778.09
890.233	3739
890.55	3802.05
890.866	3783.97
891.182	3743.07
891.498	3739.9
891.815	3696.96
892.131	3673.69
892.447	3678.21
892.763	3703.97
893.079	3693.8
893.395	3687.25
893.71	3676.17
894.026	3593.01
894.342	3622.62
894.657	3632.79
894.973	3574.71
895.289	3634.14
895.604	3589.17
895.92	3524.09
896.235	3526.35
896.55	3542.17
896.865	3528.16
897.181	3526.8
897.496	3529.29
897.811	3508.72
898.126	3468.95
898.441	3484.99
898.756	3501.26
899.071	3467.82
899.386	3462.85
899.7	3453.36
900.015	3456.97
900.33	3360.48
900.644	3408.61
900.959	3392.11
901.273	3406.58
901.588	3360.48
901.902	3345.79
902.216	3318.22
902.531	3333.58
902.845	3316.18
903.159	3257.65
903.473	3322.96
903.787	3266.47
904.101	3261.95
904.415	3236.86
904.729	3229.86
905.042	3225.34
905.356	3214.04
905.67	3199.35
905.984	3239.12
906.297	3188.73
906.611	3214.04
906.924	3195.96
907.237	3208.39
907.551	3118.68
907.864	3141.05
908.177	3120.03
908.491	3089.07
908.804	3085.46
909.117	3076.42
909.43	3088.17
909.743	3040.71
910.056	3045.46
910.368	3041.16
910.681	3018.34
910.994	3019.47
911.307	2989.64
911.619	2990.32
911.932	2927.95
912.244	2926.82
912.557	2980.6
912.869	2947.15
913.181	2912.58
913.494	2941.73
913.806	2915.06
914.118	2891.11
914.43	2879.59
914.742	2860.38
915.054	2860.38
915.366	2846.82
915.678	2814.5
915.99	2837.78
916.302	2789.19
916.613	2789.64
916.925	2767.72
917.236	2770.66
917.548	2760.94
917.859	2739.7
918.171	2762.98
918.482	2758.01
918.794	2745.58
919.105	2729.08
919.416	2713.49
919.727	2731.11
920.038	2698.12
920.349	2687.95
920.66	2686.14
920.971	2682.75
921.282	2684.11
921.593	2676.2
921.903	2648.18
922.214	2601.85
922.525	2614.51
922.835	2585.81
923.146	2584.68
923.456	2583.55
923.767	2576.77
924.077	2561.4
924.387	2548.07
924.697	2568.63
925.008	2535.19
925.318	2520.95
925.628	2527.96
925.938	2523.44
926.248	2520.5
926.558	2489.99
926.867	2474.85
927.177	2461.74
927.487	2478.47
927.796	2439.82
928.106	2444.12
928.416	2444.34
928.725	2433.27
929.034	2422.2
929.344	2434.63
929.653	2393.72
929.962	2409.54
930.271	2394.85
930.581	2368.86
930.89	2362.31
931.199	2354.18
931.508	2334.51
931.817	2337.68
932.125	2335.87
932.434	2367.51
932.743	2339.03
933.051	2301.07
933.36	2300.17
933.669	2275.99
933.977	2297.45
934.286	2285.48
934.594	2272.82
934.902	2208.42
935.21	2246.61
935.519	2250.22
935.827	2233.05
936.135	2215.42
936.443	2241.18
936.751	2200.28
937.059	2199.83
937.367	2161.41
937.674	2184.69
937.982	2179.49
938.29	2158.7
938.597	2171.58
938.905	2096.1
939.213	2136.1
939.52	2135.2
939.827	2115.76
940.135	2107.63
940.442	2079.38
940.749	2103.56
941.056	2112.83
941.363	2060.17
941.67	2103.11
941.977	2054.3
942.284	2041.19
942.591	2038.7
942.898	2064.24
943.205	2024.47
943.511	2022.43
943.818	2023.79
944.125	2043.22
944.431	2011.59
944.738	1998.7
945.044	2000.96
945.35	1991.02
945.657	1981.76
945.963	1972.04
946.269	1938.37
946.575	1957.35
946.881	1904.7
947.187	1908.99
947.493	1906.5
947.799	1907.63
948.105	1899.05
948.41	1902.44
948.716	1908.09
949.022	1893.85
949.327	1885.49
949.633	1893.85
949.938	1896.11
950.244	1848.2
950.549	1856.11
950.854	1841.65
951.16	1851.82
951.465	1876
951.77	1815.88
952.075	1809.1
952.38	1838.03
952.685	1836.9
952.99	1803.23
953.294	1806.17
953.599	1796.22
953.904	1777.24
954.209	1787.41
954.513	1779.28
954.818	1766.85
955.122	1752.38
955.426	1736.11
955.731	1727.3
956.035	1734.08
956.339	1738.15
956.643	1751.48
956.948	1719.62
957.252	1713.74
957.556	1714.19
957.86	1685.94
958.163	1696.34
958.467	1683.23
958.771	1702.44
959.075	1690.92
959.378	1639.17
959.682	1691.37
959.985	1660.41
960.289	1668.32
960.592	1622.44
960.896	1648.66
961.199	1643.69
961.502	1613.63
961.805	1612.05
962.108	1600.75
962.411	1610.24
962.714	1607.08
963.017	1570.92
963.32	1613.86
963.623	1580.64
963.926	1562.11
964.228	1542.45
964.531	1545.61
964.833	1588.55
965.136	1538.38
965.438	1549.22
965.741	1536.8
966.043	1528.43
966.345	1530.24
966.648	1522.56
966.95	1539.73
967.252	1519.85
967.554	1525.5
967.856	1518.49
968.158	1504.03
968.46	1503.35
968.761	1484.82
969.063	1467.87
969.365	1479.4
969.666	1470.81
969.968	1462.22
970.269	1449.34
970.571	1423.13
970.872	1442.79
971.174	1433.52
971.475	1420.87
971.776	1437.82
972.077	1422
972.378	1421.77
972.679	1432.39
972.98	1408.89
973.281	1423.13
973.582	1403.92
973.883	1380.42
974.183	1374.31
974.484	1380.87
974.785	1385.84
975.085	1386.74
975.386	1376.12
975.686	1356.01
975.986	1356.91
976.287	1339.74
976.587	1321.89
976.887	1335.45
977.187	1355.78
977.487	1353.75
977.787	1317.59
978.087	1320.3
978.387	1309.01
978.687	1325.95
978.987	1311.26
979.286	1293.19
979.586	1302.68
979.885	1280.98
980.185	1288.21
980.484	1261.1
980.784	1288.67
981.083	1266.97
981.382	1277.82
981.682	1251.83
981.981	1251.83
982.28	1259.29
982.579	1268.78
982.878	1241.89
983.177	1265.39
983.475	1224.26
983.774	1221.1
984.073	1219.29
984.372	1224.71
984.67	1188.1
984.969	1182.91
985.267	1199.86
985.566	1192.4
985.864	1219.52
986.162	1196.24
986.461	1205.51
986.759	1168.9
987.057	1174.32
987.355	1169.8
987.653	1184.26
987.951	1150.37
988.249	1140.65
988.547	1132.06
988.844	1156.24
989.142	1150.59
989.44	1154.88
989.737	1133.87
990.035	1135.68
990.332	1131.83
990.63	1117.37
990.927	1127.31
991.224	1110.59
991.521	1115.79
991.819	1110.59
992.116	1118.5
992.413	1119.18
992.71	1106.52
993.006	1068.11
993.303	1080.31
993.6	1073.31
993.897	1077.15
994.193	1092.51
994.49	1043.7
994.787	1071.95
995.083	1050.25
995.379	1086.64
995.676	1044.61
995.972	1077.82
996.268	1043.02
996.565	1034.21
996.861	1030.14
997.157	1033.08
997.453	1034.89
997.749	1032.85
998.044	1039.86
998.34	1022.01
998.636	1008.67
998.932	987.88
999.227	997.15
999.523	999.63
999.818	978.17
1000.114	1000.99
1000.409	999.41
1000.704	995.34
1001	954.44
1001.295	972.52
1001.59	988.79
1001.885	957.38
1002.18	968.45
1002.475	965.51
1002.77	970.26
1003.065	934.78
1003.359	948.11
1003.654	926.19
1003.949	928.22
1004.243	923.93
1004.538	937.94
1004.832	941.33
1005.127	908.79
1005.421	904.04
1005.715	913.08
1006.009	896.81
1006.304	904.72
1006.598	905.63
1006.892	896.59
1007.186	874.67
1007.48	876.93
1007.773	872.18
1008.067	882.12
1008.361	853.2
1008.655	876.47
1008.948	883.03
1009.242	850.49
1009.535	858.62
1009.829	856.36
1010.122	853.65
1010.415	866.76
1010.708	844.61
1011.001	822.69
1011.295	852.97
1011.588	844.61
1011.881	812.75
1012.173	842.8
1012.466	815.23
1012.759	821.11
1013.052	813.88
1013.344	817.94
1013.637	836.02
1013.93	797.61
1014.222	795.57
1014.514	773.65
1014.807	805.29
1015.099	773.2
1015.391	767.1
1015.683	771.62
1015.976	763.71
1016.268	778.4
1016.56	754.44
1016.851	749.47
1017.143	755.8
1017.435	748.34
1017.727	756.93
1018.018	750.38
1018.31	725.07
1018.602	748.79
1018.893	723.26
1019.185	740.21
1019.476	721.9
1019.767	733.2
1020.058	721.9
1020.35	721.45
1020.641	719.42
1020.932	726.87
1021.223	708.79
1021.514	700.89
1021.804	683.26
1022.095	700.89
1022.386	712.41
1022.677	706.08
1022.967	706.54
1023.258	695.01
1023.548	686.2
1023.839	675.58
1024.129	690.94
1024.419	669.02
1024.709	669.7
1025	674.9
1025.29	670.83
1025.58	672.86
1025.87	663.37
1026.16	650.94
1026.449	671.06
1026.739	649.14
1027.029	654.33
1027.319	633.32
1027.608	647.78
1027.898	631.51
1028.187	625.41
1028.477	647.55
1028.766	615.46
1029.055	615.46
1029.344	635.8
1029.634	605.52
1029.923	608.91
1030.212	625.41
1030.501	622.47
1030.79	608.91
1031.078	625.18
1031.367	614.56
1031.656	610.72
1031.945	598.97
1032.233	611.85
1032.522	595.8
1032.81	615.69
1033.099	572.08
1033.387	577.5
1033.675	577.05
1033.963	573.66
1034.251	572.98
1034.54	556.71
1034.828	556.71
1035.116	593.77
1035.403	590.38
1035.691	575.92
1035.979	590.38
1036.267	557.16
1036.554	551.51
1036.842	553.09
1037.129	564.17
1037.417	570.72
1037.704	572.08
1037.992	546.99
1038.279	570.95
1038.566	558.74
1038.853	558.74
1039.14	558.74
