Data from blue_shiny_book_FLMS001491_00062.txt Node
Date: Wed Feb 08 15:27:21 GMT 2017
User: dcchb
Spectrometer: FLMS00149
Trigger mode: 0
Integration Time (sec): 2.000000E-2
Scans to average: 10
Electric dark correction enabled: true
Nonlinearity correction enabled: false
Boxcar width: 0
XAxis mode: Wavelengths
Number of Pixels in Spectrum: 2048
>>>>>Begin Spectral Data<<<<<
341.393	-15.75
341.776	-15.75
342.16	-15.75
342.543	-71.11
342.927	-81.51
343.31	-48.74
343.693	-66.14
344.077	-83.54
344.46	-69.98
344.843	-45.13
345.226	-40.15
345.61	-38.8
345.993	-14.17
346.376	-12.81
346.759	15.21
347.142	33.97
347.525	30.13
347.908	61.76
348.291	84.14
348.674	76.68
349.057	117.58
349.44	125.94
349.823	157.35
350.206	137.24
350.588	201.2
350.971	214.08
351.354	224.7
351.737	251.14
352.119	239.16
352.502	269.67
352.884	286.62
353.267	300.4
353.65	293.4
354.032	321.42
354.414	318.03
354.797	323.9
355.179	306.28
355.562	338.82
355.944	339.04
356.326	330.46
356.709	344.02
357.091	352.6
357.473	364.58
357.855	345.6
358.238	356.9
358.62	338.82
359.002	373.17
359.384	361.42
359.766	352.83
360.148	349.21
360.53	363.68
360.912	345.15
361.294	338.82
361.676	351.47
362.057	355.09
362.439	331.81
362.821	340.4
363.203	341.53
363.584	334.75
363.966	345.37
364.348	341.98
364.729	335.66
365.111	350.57
365.493	330.91
365.874	345.15
366.256	317.12
366.637	327.07
367.019	330.46
367.4	331.36
367.781	347.18
368.163	315.99
368.544	344.02
368.925	342.21
369.306	331.81
369.688	348.99
370.069	358.03
370.45	314.64
370.831	327.07
371.212	319.38
371.593	325.03
371.974	339.27
372.355	343.56
372.736	349.44
373.117	340.4
373.498	355.09
373.879	345.15
374.26	350.8
374.641	345.82
375.021	374.98
375.402	352.83
375.783	373.17
376.163	365.94
376.544	381.98
376.925	378.37
377.305	335.88
377.686	360.29
378.066	373.85
378.447	376.11
378.827	377.91
379.208	377.69
379.588	367.74
379.968	392.38
380.349	385.6
380.729	372.72
381.109	373.85
381.489	392.15
381.87	394.86
382.25	391.25
382.63	388.76
383.01	409.78
383.39	410
383.77	384.47
384.15	396.22
384.53	393.28
384.91	388.99
385.29	417.46
385.67	430.57
386.049	428.53
386.429	438.93
386.809	446.61
387.189	440.74
387.568	449.55
387.948	454.07
388.328	468.31
388.707	454.07
389.087	468.76
389.466	446.16
389.846	455.43
390.225	466.5
390.605	488.87
390.984	501.53
391.363	474.18
391.743	491.58
392.122	519.15
392.501	496.33
392.881	499.49
393.26	521.64
393.639	508.53
394.018	513.73
394.397	549.89
394.776	543.11
395.155	532.26
395.534	541.98
395.913	529.55
396.292	574.29
396.671	591.69
397.05	559.15
397.429	566.16
397.808	566.38
398.186	574.07
398.565	602.09
398.944	595.08
399.323	588.53
399.701	605.25
400.08	587.63
400.458	605.25
400.837	614.29
401.215	624.91
401.594	636.21
401.972	645.03
402.351	628.53
402.729	647.51
403.107	661.07
403.486	658.58
403.864	662.88
404.242	692.03
404.62	682.99
404.999	704.23
405.377	690.45
405.755	702.43
406.133	744.91
406.511	727.74
406.889	733.38
407.267	742.42
407.645	779.71
408.023	782.87
408.401	782.2
408.779	784.23
409.156	814.06
409.534	831.91
409.912	829.65
410.29	841.63
410.667	860.16
411.045	877.79
411.422	869.43
411.8	867.17
412.178	892.25
412.555	911.46
412.933	952.81
413.31	924.11
413.687	960.72
414.065	948.75
414.442	969.54
414.819	993.26
415.197	973.38
415.574	1019.03
415.951	1063.09
416.328	1050.21
416.705	1050.89
417.082	1052.25
417.46	1083.88
417.837	1087.05
418.214	1111.23
418.591	1130.44
418.967	1108.06
419.344	1106.26
419.721	1145.58
420.098	1186.25
420.475	1196.88
420.852	1204.56
421.228	1226.48
421.605	1240.04
421.982	1238.46
422.358	1234.84
422.735	1264.44
423.111	1282.3
423.488	1292.92
423.864	1301.05
424.241	1309.64
424.617	1341.5
424.994	1370.2
425.37	1384.89
425.746	1386.02
426.123	1436.87
426.499	1455.17
426.875	1466.7
427.251	1495.85
427.627	1499.69
428.003	1508.51
428.379	1506.47
428.756	1525.23
429.132	1578.56
429.507	1595.51
429.883	1621.5
430.259	1670.54
430.635	1683.87
431.011	1691.78
431.387	1750.53
431.763	1765.67
432.138	1769.97
432.514	1783.3
432.89	1815.84
433.265	1889.29
433.641	1861.49
434.016	1881.83
434.392	1900.36
434.767	1951.43
435.143	1999.79
435.518	2025.55
435.894	2070.3
436.269	2071.65
436.644	2122.27
437.02	2129.51
437.395	2093.12
437.77	2169.96
438.145	2209.28
438.52	2215.38
438.895	2261.93
439.271	2250.63
439.646	2349.39
440.021	2371.08
440.395	2368.37
440.77	2373.57
441.145	2386.9
441.52	2483.62
441.895	2447.01
442.27	2492.66
442.645	2454.92
443.019	2518.42
443.394	2557.74
443.769	2540.12
444.143	2549.16
444.518	2630.96
444.892	2627.8
445.267	2668.93
445.641	2668.25
446.016	2702.15
446.39	2723.84
446.764	2770.39
447.139	2756.38
447.513	2783.95
447.887	2765.42
448.262	2795.7
448.636	2816.95
449.01	2850.84
449.384	2883.61
449.758	2917.06
450.132	2935.36
450.506	2987.56
450.88	3026.66
451.254	2993.89
451.628	3092.87
452.002	3098.52
452.376	3146.65
452.75	3160.21
453.123	3237.05
453.497	3260.55
453.871	3282.02
454.244	3331.73
454.618	3362.92
454.992	3434.56
455.365	3389.36
455.739	3559.75
456.112	3598.62
456.486	3631.61
456.859	3675.45
457.232	3721.1
457.606	3733.98
457.979	3804.04
458.352	3894.21
458.725	3907.31
459.099	3909.35
459.472	3984.82
459.845	4056.91
460.218	4084.03
460.591	4163.12
460.964	4161.32
461.337	4284.03
461.71	4404.47
462.083	4491.03
462.456	4443.57
462.829	4471.59
463.201	4552.49
463.574	4608.54
463.947	4619.84
464.32	4748.42
464.692	4791.81
465.065	4849.66
465.438	4908.87
465.81	4945.25
466.183	4999.49
466.555	5148.86
466.928	5215.98
467.3	5218.01
467.672	5327.61
468.045	5493.71
468.417	5469.98
468.789	5484.9
469.161	5528.06
469.534	5629.53
469.906	5726.02
470.278	5760.6
470.65	5863.87
471.022	6007.37
471.394	6121.49
471.766	6163.52
472.138	6300.92
472.51	6380.69
472.882	6527.13
473.253	6591.31
473.625	6731.65
473.997	6805.09
474.369	6893.67
474.74	7005.08
475.112	7093.67
475.484	7201.92
475.855	7327.11
476.227	7340.67
476.598	7568.46
476.97	7639.19
477.341	7876.47
477.713	8048.67
478.084	8071.95
478.455	8337.7
478.827	8339.51
479.198	8648.2
479.569	8678.94
479.94	8960.74
480.311	8899.05
480.682	9142.2
481.053	9382.2
481.424	9490.67
481.795	9616.77
482.166	9761.17
482.537	9916.65
482.908	10091.1
483.279	10251.33
483.65	10458.55
484.021	10648.15
484.391	10857.86
484.762	10979.22
485.133	11007.92
485.503	11189.15
485.874	11422.82
486.244	11546.21
486.615	11734.68
486.985	11961.11
487.356	12182.35
487.726	12239.75
488.097	12521.1
488.467	12563.36
488.837	12894.65
489.207	13018.26
489.578	13215.99
489.948	13405.82
490.318	13550.22
490.688	13598.13
491.058	13915.86
491.428	14155.4
491.798	14273.14
492.168	14549.97
492.538	14559.69
492.908	14773.92
493.278	14985.89
493.648	14970.98
494.017	15263.17
494.387	15354.7
494.757	15475.37
495.126	15751.07
495.496	15815.93
495.866	15974.57
496.235	16174.56
496.605	16306.99
496.974	16373.88
497.344	16550.6
497.713	16732.29
498.082	16851.15
498.452	17050.02
498.821	17181.31
499.19	17234.19
499.559	17415.66
499.928	17478.71
500.298	17677.35
500.667	17675.31
501.036	17779.04
501.405	18054.96
501.774	18112.14
502.143	18397.55
502.512	18368.85
502.88	18544.22
503.249	18680.03
503.618	18762.74
503.987	18861.27
504.356	19026.46
504.724	19130.64
505.093	19242.28
505.462	19341.48
505.83	19473.46
506.199	19662.83
506.567	19797.52
506.936	19871.86
507.304	20082.48
507.672	20122.93
508.041	20425.75
508.409	20561.11
508.777	20691.73
509.145	20929.92
509.514	21040.65
509.882	21120.19
510.25	21164.49
510.618	21438.38
510.986	21501.88
511.354	21598.6
511.722	21781.87
512.09	21891.25
512.458	21968.98
512.826	22113.84
513.193	22349.77
513.561	22466.37
513.929	22581.85
514.297	22827.27
514.664	23011.44
515.032	23180.7
515.4	23365.56
515.767	23500.92
516.135	23584.76
516.502	23669.96
516.869	24184.07
517.237	24133
517.604	24080.34
517.972	24276.49
518.339	24551.29
518.706	24510.61
519.073	24686.65
519.44	24947.44
519.808	25250.48
520.175	25154.89
520.542	25452.73
520.909	25711.26
521.276	25817.47
521.643	26048.43
522.009	26300.17
522.376	26438.92
522.743	26725.7
523.11	26913.71
523.477	27165.91
523.843	27275.29
524.21	27509.86
524.577	27652
524.943	27747.36
525.31	27928.38
525.676	28200.91
526.043	28393.67
526.409	28588.92
526.776	28819.2
527.142	29004.73
527.508	29129.47
527.874	29435.23
528.241	29615.56
528.607	29757.48
528.973	30075.89
529.339	30199.05
529.705	30441.3
530.071	30738.7
530.437	30932.59
530.803	31066.6
531.169	31158.35
531.535	31114.05
531.901	31276.99
532.267	31411.22
532.632	31564.21
532.998	31627.04
533.364	31792.23
533.73	31972.79
534.095	32105.44
534.461	32223.18
534.826	32557.41
535.192	32836.72
535.557	33081.69
535.923	33033.78
536.288	33229.25
536.653	33506.76
537.019	33363.49
537.384	33685.51
537.749	33853.19
538.114	33867.88
538.479	33809.35
538.845	34002.11
539.21	33896.81
539.575	34044.6
539.94	34087.08
540.305	34197.82
540.67	34186.29
541.034	34282.79
541.399	34485.94
541.764	34433.52
542.129	34756.9
542.494	34936.33
542.858	34964.8
543.223	35151.69
543.587	35656.76
543.952	35490.21
544.316	35645.91
544.681	35679.81
545.045	35935.62
545.41	36043.19
545.774	36074.83
546.138	35992.8
546.503	35993.25
546.867	36077.54
547.231	36165.45
547.595	36211.77
547.959	36330.41
548.324	36245.45
548.688	36388.94
549.052	36419.45
549.416	36563.85
549.779	36588.04
550.143	36676.62
550.507	36914.13
550.871	37056.95
551.235	37097.17
551.599	37500.1
551.962	37589.82
552.326	37631.4
552.689	38125.62
553.053	37898.06
553.417	37797.95
553.78	38266.18
554.143	38208.56
554.507	38193.19
554.87	38198.39
555.234	38578.49
555.597	38318.84
555.96	38497.82
556.323	38476.8
556.686	38557.25
557.05	38815.32
557.413	38867.98
557.776	38897.8
558.139	39272.71
558.502	39300.73
558.865	39619.59
559.228	39749.31
559.59	40039.02
559.953	40067.72
560.316	40412.12
560.679	40613.24
561.041	40805.33
561.404	40929.39
561.767	41176.84
562.129	40991.99
562.492	41427.91
562.854	41100.91
563.217	41101.59
563.579	41358.98
563.941	41312.66
564.304	41468.81
564.666	41685.08
565.028	41680.1
565.39	41581.58
565.753	41949.02
566.115	42109.25
566.477	42330.93
566.839	42420.65
567.201	42756.23
567.563	42951.48
567.925	43143.57
568.287	43311.25
568.648	43575.65
569.01	43888.18
569.372	43963.89
569.734	43705.14
570.095	44117.33
570.457	44161.17
570.819	44173.37
571.18	44240.04
571.542	44370.66
571.903	44247.72
572.265	44298.34
572.626	44468.28
572.987	44413.37
573.349	44465.57
573.71	44559.35
574.071	44796.41
574.432	44819.23
574.794	45158.43
575.155	45117.3
575.516	45049.28
575.877	45185.1
576.238	45441.59
576.599	45643.62
576.96	45908.69
577.32	45962.25
577.681	46159.53
578.042	46383.48
578.403	46300.55
578.763	46387.55
579.124	46348
579.485	46447.89
579.845	46579.41
580.206	46434.1
580.566	46392.52
580.927	46472.75
581.287	46491.96
581.648	46425.74
582.008	46558.62
582.368	46350.72
582.728	46362.47
583.089	46272.3
583.449	46406.99
583.809	46430.49
584.169	46559.98
584.529	46579.64
584.889	46859.4
585.249	46818.73
585.609	46691.5
585.969	47021.43
586.329	47047.65
586.688	47116.35
587.048	47241.99
587.408	47196.57
587.768	47236.12
588.127	47276.79
588.487	47197.7
588.846	47501.19
589.206	47175.33
589.565	47061.66
589.925	47107.98
590.284	46898.5
590.643	46905.5
591.003	47110.47
591.362	47105.95
591.721	46878.61
592.08	46795.9
592.44	46999.96
592.799	47055.1
593.158	46879.52
593.517	46987.08
593.876	46959.97
594.235	47101.88
594.593	47239.51
594.952	47419.84
595.311	47284.03
595.67	47499.39
596.029	47698.7
596.387	47841.75
596.746	47841.75
597.104	47701.19
597.463	47780.06
597.822	47962.65
598.18	47756.78
598.538	47742.32
598.897	47928.98
599.255	47627.74
599.613	47942.54
599.972	47700.51
600.33	47642.43
600.688	47532.61
601.046	47489.44
601.404	47568.31
601.762	47373.51
602.12	47717.69
602.478	47840.85
602.836	47724.24
603.194	47633.62
603.552	47750.23
603.91	47677.01
604.268	47901.18
604.625	47873.84
604.983	48027.96
605.341	47969.2
605.698	48242.19
606.056	48321.06
606.413	48509.3
606.771	48651.22
607.128	48638.11
607.485	48492.35
607.843	48592.47
608.2	48912.91
608.557	48758.11
608.914	48598.11
609.272	48689.41
609.629	48763.99
609.986	48652.35
610.343	48430.44
610.7	48581.84
611.057	48527.61
611.414	48454.16
611.771	48559.47
612.127	48726.92
612.484	48642.18
612.841	48835.62
613.198	48602.86
613.554	48580.49
613.911	48946.35
614.267	48993.13
614.624	49104.77
614.98	49186.8
615.337	49449.39
615.693	49380.47
616.05	49388.15
616.406	49702.72
616.762	49605.32
617.118	49620.69
617.475	49701.81
617.831	49725.32
618.187	49724.86
618.543	49732.1
618.899	49895.71
619.255	49777.07
619.611	49848.48
619.967	49844.18
620.323	49694.58
620.678	49549.5
621.034	49404.2
621.39	49356.29
621.746	49318.1
622.101	49655.49
622.457	49365.55
622.812	49462.72
623.168	49462.5
623.523	49547.24
623.879	49663.17
624.234	49394.25
624.589	49739.1
624.945	49820
625.3	49763.73
625.655	49671.76
626.01	49900
626.365	49846.44
626.72	49861.81
627.075	50080.34
627.43	49966.89
627.785	50003.73
628.14	50163.05
628.495	50098.87
628.85	50052.77
629.205	49944.75
629.559	49963.05
629.914	49805.77
630.269	49858.42
630.623	49638.09
630.978	49469.05
631.332	49683.74
631.687	49660.46
632.041	49417.08
632.396	49460.24
632.75	49192
633.104	49202.17
633.459	49106.12
633.813	49081.27
634.167	49088.5
634.521	48989.29
634.875	49062.28
635.229	48948.16
635.583	48925.34
635.937	48937.09
636.291	49073.58
636.645	48992.91
636.999	49074.49
637.352	49134.37
637.706	49003.75
638.06	49140.47
638.413	49155.39
638.767	49095.28
639.121	48949.52
639.474	48810.31
639.828	48980.48
640.181	48876.75
640.534	48921.95
640.888	48604.22
641.241	48498.91
641.594	48549.3
641.947	48540.49
642.301	48449.19
642.654	48551.11
643.007	48395.41
643.36	48238.12
643.713	48132.59
644.066	48086.26
644.419	47966.94
644.771	47799.94
645.124	47734.18
645.477	47837.91
645.83	47448.77
646.182	47123.13
646.535	46805.85
646.888	46697.83
647.24	46170.83
647.593	46402.92
647.945	46489.24
648.298	46362.24
648.65	46420.77
649.002	46299.42
649.355	46578.05
649.707	46712.97
650.059	47130.13
650.411	47644.02
650.763	47600.17
651.115	47992.48
651.467	47846.95
651.819	47906.16
652.171	47829.32
652.523	47631.36
652.875	47497.58
653.227	47369.45
653.578	47597.92
653.93	47370.12
654.282	47147.98
654.633	47081.09
654.985	46983.24
655.337	47000.64
655.688	46814.88
656.039	46922.9
656.391	46584.83
656.742	46622.12
657.094	46704.61
657.445	46859.63
657.796	46839.07
658.147	46705.51
658.498	46835.9
658.849	46789.8
659.2	46766.3
659.551	46668.67
659.902	46954.32
660.253	47032.96
660.604	47079.51
660.955	46998.38
661.306	47231.82
661.656	47097.14
662.007	47016.24
662.358	47092.39
662.708	47090.36
663.059	47150.92
663.409	46770.82
663.76	46950.93
664.11	46955.67
664.461	46764.26
664.811	46791.61
665.161	46802.46
665.511	46593.65
665.862	46712.97
666.212	46702.35
666.562	46740.08
666.912	46700.99
667.262	46493.76
667.612	46401.11
667.962	46542.12
668.312	46352.3
668.662	46278.4
669.011	46351.39
669.361	46405.63
669.711	46209.7
670.06	46108.46
670.41	46039.99
670.76	46106.88
671.109	46192.53
671.459	46106.65
671.808	46006.54
672.157	46264.84
672.507	45995.47
672.856	46156.6
673.205	46173.55
673.554	46369.02
673.904	46202.02
674.253	46492.86
674.602	46266.65
674.951	45832.76
675.3	45521.59
675.649	46252.19
675.998	46084.28
676.346	46052.87
676.695	46241.57
677.044	45820.33
677.393	45882.25
677.741	45926.32
678.09	45593.9
678.438	45538.53
678.787	45426.67
679.135	45386.67
679.484	45155.49
679.832	45121.14
680.181	44865.78
680.529	44838.67
680.877	44759.57
681.225	44666.69
681.573	44757.99
681.922	44679.8
682.27	44652.68
682.618	44507.37
682.966	44549.41
683.314	44333.37
683.661	44473.25
684.009	44268.96
684.357	44287.49
684.705	44185.58
685.053	44231
685.4	44212.02
685.748	44259.25
686.095	44224.22
686.443	44042.53
686.79	44126.59
687.138	44176.76
687.485	44109.65
687.832	43934.06
688.18	44133.15
688.527	43811.35
688.874	43827.84
689.221	43626.72
689.568	43729.32
689.915	43391.92
690.262	43274.64
690.609	43174.3
690.956	42922.56
691.303	42854.31
691.65	42778.83
691.997	42473.76
692.344	42222.46
692.69	42056.37
693.037	42017.04
693.383	41697.05
693.73	41649.6
694.077	41457.51
694.423	41500.67
694.769	41268.59
695.116	41018.88
695.462	40980.69
695.808	40819.11
696.155	41176.84
696.501	40824.76
696.847	40939.79
697.193	40565.56
697.539	40905.89
697.885	40483.07
698.231	40415.73
698.577	40582.73
698.923	40508.84
699.269	40494.83
699.614	40144.55
699.96	40141.39
700.306	40199.92
700.651	40213.02
700.997	40012.8
701.342	39959.25
701.688	39818.23
702.033	39684.22
702.379	39825.92
702.724	39662.53
703.069	39653.49
703.415	39103.9
703.76	39097.57
704.105	38873.17
704.45	38796.34
704.795	38539.4
705.14	38383.92
705.485	38337.37
705.83	37978.06
706.175	38164.49
706.52	37974.21
706.865	37549.37
707.209	37574
707.554	37329.71
707.899	37338.52
708.243	37214.69
708.588	37018.53
708.932	36827.8
709.277	37015.82
709.621	37005.65
709.966	36691.99
710.31	36940.34
710.654	36615.61
710.998	36766.34
711.342	36831.19
711.687	36819.67
712.031	36643.85
712.375	36510.75
712.719	36626.23
713.063	36506.46
713.407	36785.09
713.75	36495.16
714.094	36636.17
714.438	36467.13
714.782	36565.66
715.125	36589.84
715.469	36578.77
715.812	36447.93
716.156	36243.86
716.499	36136.52
716.843	36064.66
717.186	35837.09
717.53	35953.7
717.873	35844.1
718.216	35513.26
718.559	35388.74
718.902	35132.03
719.246	35391.91
719.589	35322.53
719.932	35095.64
720.275	34936.1
720.617	34775.2
720.96	34656.33
721.303	34828.08
721.646	34693.85
721.989	34393.97
722.331	34570.46
722.674	34381.31
723.016	34283.91
723.359	34240.3
723.701	34370.01
724.044	34137.25
724.386	34016.35
724.729	34186.74
725.071	34127.76
725.413	34296.12
725.755	34185.61
726.097	34115.78
726.439	34073.52
726.782	34240.3
727.124	34332.05
727.465	34318.04
727.807	34131.83
728.149	34126.18
728.491	34125.28
728.833	34216.12
729.175	34188.1
729.516	34226.29
729.858	34057.48
730.199	34135.44
730.541	34115.11
730.882	34209.57
731.224	34309.68
731.565	33965.51
731.906	33965.51
732.248	33921.66
732.589	33873.98
732.93	33618.62
733.271	33656.36
733.612	33590.37
733.953	33612.97
734.294	33458.63
734.635	33319.19
734.976	33355.13
735.317	33180.67
735.658	33099.99
735.999	33090.05
736.339	33080.56
736.68	33177.5
737.021	33053.89
737.361	32883.27
737.702	33005.98
738.042	32964.18
738.383	32929.15
738.723	32962.14
739.063	32768.47
739.404	32905.87
739.744	32905.19
740.084	32858.64
740.424	33049.82
740.764	32948.36
741.104	33087.34
741.444	33033.1
741.784	33051.18
742.124	33189.25
742.464	33306.09
742.804	33369.59
743.143	33237.16
743.483	33233.77
743.823	33046.66
744.162	33277.16
744.502	33358.74
744.841	33315.13
745.181	33330.04
745.52	33263.15
745.86	33308.8
746.199	33336.6
746.538	33387.67
746.877	33512.18
747.216	33550.83
747.556	33165.53
747.895	33279.87
748.234	33113.55
748.573	33204.17
748.911	33083.49
749.25	33019.09
749.589	32765.54
749.928	32949.26
750.267	32942.71
750.605	32843.5
750.944	32725.99
751.283	32773.67
751.621	32917.4
751.96	32625.43
752.298	32711.53
752.636	32692.54
752.975	32663.39
753.313	32626.56
753.651	32836.95
753.989	32585.2
754.327	32495.94
754.666	32433.12
755.004	32493.91
755.342	32569.16
755.679	32775.93
756.017	32637.63
756.355	32876.72
756.693	32797.4
757.031	33034.46
757.368	32840.34
757.706	32926.21
758.044	32865.42
758.381	32937.51
758.719	32799.66
759.056	33062.03
759.394	32903.84
759.731	32858.64
760.068	32876.72
760.405	32844.86
760.743	32858.42
761.08	33010.05
761.417	32780.68
761.754	32741.36
762.091	32829.72
762.428	32591.76
762.765	32529.84
763.102	32737.51
763.438	32509.5
763.775	32507.01
764.112	32448.26
764.449	32380.24
764.785	32314.48
765.122	32031.77
765.458	31952.22
765.795	32021.83
766.131	32006.46
766.467	31808.05
766.804	31772.57
767.14	31487.38
767.476	31653.02
767.812	31459.36
768.148	31555.17
768.485	31329.42
768.821	31048.75
769.157	31074.96
769.492	30977.79
769.828	31076.77
770.164	30834.97
770.5	30848.53
770.836	30663.22
771.171	30626.38
771.507	30547.06
771.842	30364.92
772.178	30557.01
772.513	30395.43
772.849	30429.1
773.184	30406.73
773.519	30246.96
773.855	30206.73
774.19	30055.1
774.525	30089.9
774.86	30147.07
775.195	30036.34
775.53	30060.3
775.865	29939.17
776.2	29767.65
776.535	29699.85
776.87	29626.41
777.205	29425.74
777.539	29373.31
777.874	29563.14
778.209	29212.86
778.543	29187.33
778.878	28948.01
779.212	28995.47
779.547	28884.96
779.881	28890.38
780.215	28660.56
780.55	28691.52
780.884	28551.86
781.218	28353.22
781.552	28224.41
781.886	28090.86
782.22	27811.32
782.554	27756.4
782.888	27600.02
783.222	27564.54
783.556	27418.33
783.889	27270.09
784.223	27081.39
784.557	27048.17
784.89	27078
785.224	26851.34
785.557	26700.39
785.891	26659.48
786.224	26577.9
786.558	26463.1
786.891	26199.61
787.224	26064.24
787.557	26040.06
787.891	26110.57
788.224	26090.68
788.557	26046.39
788.89	25983.34
789.223	25928.43
789.556	25823.12
789.888	25749.68
790.221	25784.7
790.554	25541.55
790.887	25551.94
791.219	25439.4
791.552	25540.64
791.884	25247.77
792.217	25295.22
792.549	25136.58
792.882	25222.68
793.214	25127.55
793.546	25118.51
793.879	25048.9
794.211	24896.82
794.543	24998.51
794.875	24880.77
795.207	24869.47
795.539	24703.38
795.871	24666.99
796.203	24415.93
796.535	24311.3
796.867	24170.28
797.198	24186.1
797.53	24208.25
797.862	24002.6
798.193	24034.92
798.525	23853.91
798.856	23828.6
799.188	23529.85
799.519	23374.82
799.85	23342.28
800.182	23347.03
800.513	23259.12
800.844	23091.44
801.175	23228.16
801.506	23130.99
801.837	22973.7
802.168	22961.27
802.499	22812.35
802.83	22813.03
803.161	22752.47
803.491	22683.09
803.822	22467.05
804.153	22432.02
804.483	22213.05
804.814	22269.77
805.145	22307.28
805.475	22123.56
805.805	22091.24
806.136	22037.46
806.466	22021.41
806.796	22009.89
807.126	21730.12
807.457	21794.07
807.787	21787.97
808.117	21763.11
808.447	21656.9
808.777	21719.5
809.107	21619.16
809.436	21556.79
809.766	21656.9
810.096	21506.62
810.426	21431.82
810.755	21454.87
811.085	21434.76
811.414	21411.03
811.744	21124.03
812.073	21280.19
812.403	21140.76
812.732	21121.32
813.061	21086.07
813.39	21039.07
813.719	20918.39
814.049	20988.9
814.378	20983.02
814.707	20846.53
815.036	20795.46
815.365	20718.17
815.693	20533.09
816.022	20666.42
816.351	20432.75
816.68	20408.35
817.008	20473.88
817.337	20233.21
817.665	20187.79
817.994	20187.11
818.322	20216.04
818.651	20020.79
818.979	19908.25
819.307	20017.17
819.636	19870.73
819.964	19731.53
820.292	19785.54
820.62	19896.5
820.948	19795.26
821.276	19871.19
821.604	19722.94
821.932	19737.4
822.259	19698.99
822.587	19656.05
822.915	19681.59
823.243	19679.33
823.57	19646.79
823.898	19646.11
824.225	19536.28
824.553	19497.19
824.88	19506.45
825.207	19629.61
825.535	19514.13
825.862	19668.48
826.189	19641.59
826.516	19661.93
826.843	19731.98
827.17	19693.56
827.497	19658.54
827.824	19721.59
828.151	19649.72
828.478	19666.22
828.805	19794.8
829.131	19714.81
829.458	19656.05
829.785	19705.32
830.111	19728.14
830.438	19691.08
830.764	19624.64
831.09	19778.31
831.417	19528.82
831.743	19761.36
832.069	19675.03
832.395	19674.81
832.722	19682.94
833.048	19695.15
833.374	19714.13
833.7	19600.01
834.026	19619.67
834.351	19699.89
834.677	19688.37
835.003	19618.09
835.329	19621.7
835.654	19635.26
835.98	19528.6
836.306	19409.28
836.631	19417.19
836.956	19394.81
837.282	19507.13
837.607	19254.93
837.932	19164.54
838.258	19155.27
838.583	19052.68
838.908	18949.4
839.233	19018.1
839.558	18921.61
839.883	18925.45
840.208	18856.3
840.533	18781.05
840.858	18871.66
841.182	18785.11
841.507	18790.76
841.832	18599.13
842.156	18558.9
842.481	18594.84
842.805	18489.3
843.13	18494.05
843.454	18421.73
843.778	18291.34
844.103	18257.67
844.427	18188.74
844.751	18253.6
845.075	18194.62
845.399	18094.74
845.723	17968.64
846.047	18158.24
846.371	17873.72
846.695	17892.48
847.019	17822.88
847.343	17718.47
847.666	17640.74
847.99	17692.71
848.313	17713.73
848.637	17523.9
848.96	17513.73
849.284	17535.65
849.607	17403.23
849.931	17389.9
850.254	17231.03
850.577	17153.97
850.9	17037.81
851.223	17020.64
851.546	16989.68
851.869	16873.98
852.192	16996.91
852.515	16857.03
852.838	16667.43
853.161	16695.45
853.483	16601.22
853.806	16633.08
854.129	16568.67
854.451	16504.27
854.774	16369.81
855.096	16290.26
855.419	16318.06
855.741	16241.68
856.063	16158.74
856.385	16133.43
856.708	15994.68
857.03	16017.28
857.352	15928.69
857.674	15844.4
857.996	15839.65
858.318	15697.06
858.64	15674.46
858.961	15646.89
859.283	15618.42
859.605	15544.29
859.926	15539.55
860.248	15411.64
860.57	15497.06
860.891	15447.35
861.212	15343.17
861.534	15273.57
861.855	15297.97
862.176	15180.24
862.498	15108.37
862.819	15127.13
863.14	15109.28
863.461	15046.23
863.782	14939.56
864.103	14946.12
864.424	14816.4
864.745	14999.68
865.065	14918.1
865.386	14788.61
865.707	14752.23
866.027	14810.75
866.348	14747.71
866.668	14765.78
866.989	14817.08
867.309	14599.69
867.63	14761.94
867.95	14684.88
868.27	14541.84
868.59	14671.1
868.91	14634.49
869.23	14620.03
869.55	14542.29
869.87	14655.5
870.19	14608.95
870.51	14634.49
870.83	14594.04
871.15	14497.77
871.469	14510.65
871.789	14563.3
872.109	14514.04
872.428	14485.34
872.748	14483.08
873.067	14484.44
873.386	14530.08
873.706	14599.46
874.025	14480.14
874.344	14364.21
874.663	14462.29
874.982	14371.44
875.301	14363.99
875.62	14267.72
875.939	14195.18
876.258	14303.88
876.577	14186.36
876.896	14164.44
877.214	14137.78
877.533	14149.76
877.852	14065.69
878.17	14042.64
878.489	14085.12
878.807	14008.29
879.125	14023.66
879.444	14079.7
879.762	13944.79
880.08	13928.52
880.398	13804
880.716	13828.63
881.034	13778.92
881.352	13713.61
881.67	13660.95
881.988	13603.55
882.306	13524.91
882.624	13552.93
882.941	13494.86
883.259	13438.36
883.577	13418.93
883.894	13310.46
884.212	13276.33
884.529	13307.74
884.846	13232.94
885.164	13180.97
885.481	13155.88
885.798	13183
886.115	13070.46
886.432	13075.88
886.75	13000.63
887.067	13021.88
887.383	12964.7
887.7	12988.66
888.017	13005.83
888.334	12985.49
888.651	12888.32
888.967	12955.66
889.284	12890.35
889.6	12859.39
889.917	12786.4
890.233	12800.86
890.55	12691.94
890.866	12769.45
891.182	12751.6
891.498	12770.81
891.815	12700.98
892.131	12583.69
892.447	12634.31
892.763	12567.65
893.079	12512.06
893.395	12460.76
893.71	12431.61
894.026	12525.62
894.342	12463.92
894.657	12399.07
894.973	12353.42
895.289	12410.59
895.604	12438.61
895.92	12294.89
896.235	12190.71
896.55	12228.9
896.865	12159.98
897.181	12127.66
897.496	12079.98
897.811	12044.27
898.126	11986.2
898.441	11941.23
898.756	11926.76
899.071	11835.47
899.386	11886.31
899.7	11774.22
900.015	11789.37
900.33	11681.12
900.644	11644.06
900.959	11600.67
901.273	11503.95
901.588	11489.94
901.902	11421.69
902.216	11347.57
902.531	11263.73
902.845	11291.3
903.159	11228.02
903.473	11228.7
903.787	11129.95
904.101	11025.09
904.415	11003.85
904.729	10990.06
905.042	10876.17
905.356	10782.16
905.67	10776.28
905.984	10740.81
906.297	10730.41
906.611	10633.24
906.924	10606.35
907.237	10583.75
907.551	10553.47
907.864	10509.85
908.177	10442.28
908.491	10459
908.804	10348.27
909.117	10310.31
909.43	10215.17
909.743	10211.55
910.056	10166.36
910.368	10081.84
910.681	10167.03
910.994	10060.37
911.307	10023.99
911.619	9984.67
911.932	10021.28
912.244	9992.35
912.557	9922.52
912.869	9835.07
913.181	9850.43
913.494	9857.66
913.806	9706.71
914.118	9750.55
914.43	9704.45
914.742	9735.18
915.054	9644.56
915.366	9680.72
915.678	9641.63
915.99	9560.05
916.302	9545.36
916.613	9463.1
916.925	9529.09
917.236	9525.24
917.548	9393.95
917.859	9472.14
918.171	9368.86
918.482	9296.32
918.794	9332.48
919.105	9344.01
919.416	9239.38
919.727	9206.16
920.038	9206.61
920.349	9093.84
920.66	9027.18
920.971	9093.16
921.282	9092.26
921.593	9012.71
921.903	8951.02
922.214	8880.06
922.525	8900.63
922.835	8777.69
923.146	8762.1
923.456	8757.81
923.767	8738.15
924.077	8720.07
924.387	8667.41
924.697	8561.65
925.008	8526.85
925.318	8457.7
925.628	8503.35
925.938	8415.22
926.248	8377.7
926.558	8284.37
926.867	8217.71
927.177	8176.58
927.487	8136.81
927.796	8035.57
928.106	7959.86
928.416	8011.61
928.725	7948.56
929.034	7860.88
929.344	7877.38
929.653	7865.4
929.962	7780.21
930.271	7773.43
930.581	7724.39
930.89	7718.74
931.199	7688.91
931.508	7610.04
931.817	7513.32
932.125	7481.46
932.434	7547.44
932.743	7410.95
933.051	7466.09
933.36	7426.54
933.669	7286.21
933.977	7339.54
934.286	7336.15
934.594	7283.95
934.902	7180.67
935.21	7250.05
935.519	7242.14
935.827	7208.02
936.135	7207.56
936.443	7189.94
936.751	7136.83
937.059	7108.13
937.367	7104.06
937.674	7133.44
937.982	7022.26
938.29	7001.92
938.597	7048.7
938.905	6908.82
939.213	6980.45
939.52	6950.17
939.827	6932.32
940.135	6909.04
940.442	6930.51
940.749	6855.94
941.056	6840.12
941.363	6836.05
941.67	6769.84
941.977	6693
942.284	6707.46
942.591	6716.96
942.898	6653.91
943.205	6690.29
943.511	6619.33
943.818	6585.66
944.125	6535.94
944.431	6522.61
944.738	6509.73
945.044	6442.39
945.35	6452.56
945.657	6409.39
945.963	6426.79
946.269	6373.24
946.575	6355.16
946.881	6361.49
947.187	6335.5
947.493	6298.21
947.799	6233.35
948.105	6143.64
948.41	6150.64
948.716	6173.69
949.022	6076.52
949.327	6041.95
949.633	5996.52
949.938	6026.58
950.244	6007.14
950.549	5888.73
950.854	5884.44
951.16	5893.7
951.465	5863.87
951.77	5754.5
952.075	5741.84
952.38	5734.16
952.685	5752.46
952.99	5634.5
953.294	5675.85
953.599	5627.72
953.904	5632.24
954.209	5623.88
954.513	5515.18
954.818	5516.54
955.122	5469.08
955.426	5483.77
955.731	5469.98
956.035	5352.02
956.339	5350.89
956.643	5378.23
956.948	5314.28
957.252	5319.03
957.556	5295.98
957.86	5270.44
958.163	5306.6
958.467	5213.72
958.771	5229.76
959.075	5200.84
959.378	5191.12
959.682	5148.64
959.985	5123.55
960.289	5086.94
960.592	5033.16
960.896	5066.6
961.199	5044.91
961.502	5040.39
961.805	5026.61
962.108	4928.98
962.411	4984.35
962.714	4963.1
963.017	4970.79
963.32	4921.98
963.623	4990.9
963.926	4927.17
964.228	4911.13
964.531	4896.21
964.833	4888.76
965.136	4828.87
965.438	4815.76
965.741	4851.02
966.043	4767.85
966.345	4750.45
966.648	4752.49
966.95	4748.65
967.252	4701.19
967.554	4704.58
967.856	4659.84
968.158	4630.91
968.46	4643.34
968.761	4574.64
969.063	4539.61
969.365	4545.71
969.666	4583.23
969.968	4542.32
970.269	4501.42
970.571	4509.56
970.872	4503
971.174	4458.03
971.475	4439.28
971.776	4402.67
972.077	4407.19
972.378	4366.74
972.679	4390.01
972.98	4354.53
973.281	4370.58
973.582	4312.5
973.883	4235.44
974.183	4253.97
974.484	4211.71
974.785	4184.14
975.085	4194.54
975.386	4153.86
975.686	4146.85
975.986	4087.19
976.287	4096.69
976.587	4098.49
976.887	4048.33
977.187	4058.72
977.487	3979.18
977.787	3953.86
978.087	3937.37
978.387	3916.8
978.687	3912.06
978.987	3906.18
979.286	3839.97
979.586	3878.61
979.885	3842.46
980.185	3800.87
980.484	3810.37
980.784	3780.31
981.083	3739.63
981.382	3758.84
981.682	3714.1
981.981	3663.25
982.28	3687.88
982.579	3669.35
982.878	3664.83
983.177	3645.62
983.475	3644.72
983.774	3643.36
984.073	3590.48
984.372	3600.43
984.67	3573.08
984.969	3555.23
985.267	3535.57
985.566	3517.27
985.864	3548
986.162	3501
986.461	3477.49
986.759	3505.74
987.057	3472.07
987.355	3437.49
987.653	3437.95
987.951	3468.45
988.249	3393.65
988.547	3419.64
988.844	3386.2
989.142	3387.55
989.44	3380.09
989.737	3341.23
990.035	3336.25
990.332	3366.54
990.63	3286.76
990.927	3295.35
991.224	3307.78
991.521	3245.63
991.819	3232.75
992.116	3217.39
992.413	3242.02
992.71	3203.38
993.006	3176.03
993.303	3193.43
993.6	3195.92
993.897	3157.73
994.193	3115.02
994.49	3110.5
994.787	3151.17
995.083	3077.73
995.379	3091.97
995.676	3094.9
995.972	3077.28
996.268	3049.71
996.565	3015.36
996.861	3011.06
997.157	2962.93
997.453	2979.2
997.749	2988.47
998.044	2951.41
998.34	2910.95
998.636	2936.49
998.932	2911.18
999.227	2872.76
999.523	2863.95
999.818	2852.2
1000.114	2824.18
1000.409	2821.01
1000.704	2819.21
1001	2795.03
1001.295	2739.66
1001.59	2762.71
1001.885	2738.53
1002.18	2708.02
1002.475	2699.66
1002.77	2712.99
1003.065	2693.79
1003.359	2671.41
1003.654	2630.06
1003.949	2617.4
1004.243	2607.01
1004.538	2583.73
1004.832	2564.52
1005.127	2542.83
1005.421	2526.11
1005.715	2485.65
1006.009	2522.72
1006.304	2477.52
1006.598	2477.52
1006.892	2452.89
1007.186	2386
1007.48	2386.22
1007.773	2388.71
1008.067	2354.81
1008.361	2354.81
1008.655	2340.35
1008.948	2336.51
1009.242	2326.11
1009.535	2284.98
1009.829	2287.24
1010.122	2262.38
1010.415	2270.29
1010.708	2264.19
1011.001	2260.12
1011.295	2217.87
1011.588	2236.4
1011.881	2201.37
1012.173	2179.22
1012.466	2195.49
1012.759	2199.56
1013.052	2195.27
1013.344	2142.16
1013.637	2161.14
1013.93	2135.16
1014.222	2124.31
1014.514	2131.54
1014.807	2098.32
1015.099	2096.74
1015.391	2070.75
1015.683	2034.59
1015.976	2060.81
1016.268	2066.46
1016.56	2022.16
1016.851	2028.72
1017.143	2015.38
1017.435	1999.57
1017.727	2023.07
1018.018	2016.97
1018.31	2017.19
1018.602	2006.12
1018.893	1945.56
1019.185	1941.26
1019.476	1928.38
1019.767	1955.73
1020.058	1911.88
1020.35	1916.4
1020.641	1878.67
1020.932	1888.16
1021.223	1896.29
1021.514	1899.23
1021.804	1853.36
1022.095	1838.21
1022.386	1818.1
1022.677	1830.3
1022.967	1790.53
1023.258	1774.04
1023.548	1766.8
1023.839	1756.41
1024.129	1739.91
1024.419	1721.83
1024.709	1728.39
1025	1686.58
1025.29	1711.66
1025.58	1668.73
1025.87	1655.17
1026.16	1651.33
1026.449	1635.28
1026.739	1647.71
1027.029	1607.49
1027.319	1629.63
1027.608	1622.4
1027.898	1596.19
1028.187	1598.67
1028.477	1571.78
1028.766	1560.03
1029.055	1546.7
1029.344	1532.01
1029.634	1511.67
1029.923	1509.41
1030.212	1511.67
1030.501	1517.09
1030.79	1473.25
1031.078	1457.21
1031.367	1468.51
1031.656	1457.89
1031.945	1405.68
1032.233	1435.74
1032.522	1427.6
1032.81	1413.82
1033.099	1390.54
1033.387	1371.33
1033.675	1380.15
1033.963	1371.33
1034.251	1365.01
1034.54	1361.62
1034.828	1335.63
1035.116	1331.11
1035.403	1302.64
1035.691	1329.75
1035.979	1276.42
1036.267	1311.45
1036.554	1297.21
1036.842	1261.51
1037.129	1259.25
1037.417	1275.29
1037.704	1253.6
1037.992	1203.2
1038.279	1230.77
1038.566	1231.45
1038.853	1231.45
1039.14	1231.45
