Data from blue_surface_keyboard_FLMS001491_078.txt Node
Date: Tue Feb 07 11:13:38 GMT 2017
User: dcchb
Spectrometer: FLMS00149
Trigger mode: 0
Integration Time (sec): 2.000000E-2
Scans to average: 10
Electric dark correction enabled: true
Nonlinearity correction enabled: false
Boxcar width: 0
XAxis mode: Wavelengths
Number of Pixels in Spectrum: 2048
>>>>>Begin Spectral Data<<<<<
341.393	2.18
341.776	2.18
342.16	2.18
342.543	-61.55
342.927	-59.29
343.31	-59.52
343.693	-90.7
344.077	-61.78
344.46	-66.75
344.843	-41.44
345.226	-44.38
345.61	-31.95
345.993	-18.84
346.376	-8.67
346.759	-1.44
347.142	26.13
347.525	46.92
347.908	75.17
348.291	66.13
348.674	98.67
349.057	112.45
349.44	115.17
349.823	151.78
350.206	163.75
350.588	154.49
350.971	191.1
351.354	218.89
351.737	213.02
352.119	231.1
352.502	248.72
352.884	239.91
353.267	262.51
353.65	269.06
354.032	271.55
354.414	274.26
354.797	301.38
355.179	284.43
355.562	284.43
355.944	309.06
356.326	319.68
356.709	319.68
357.091	316.97
357.473	321.49
357.855	304.77
358.238	316.07
358.62	321.04
359.002	299.12
359.384	311.32
359.766	309.06
360.148	315.61
360.53	315.61
360.912	305.9
361.294	293.01
361.676	297.08
362.057	319.45
362.439	304.54
362.821	303.64
363.203	299.34
363.584	291.21
363.966	302.51
364.348	299.57
364.729	286.46
365.111	289.17
365.493	286.24
365.874	282.85
366.256	292.79
366.637	302.28
367.019	293.69
367.4	307.93
367.781	301.6
368.163	293.01
368.544	293.01
368.925	286.69
369.306	309.96
369.688	285.56
370.069	291.43
370.45	290.53
370.831	277.2
371.212	299.34
371.593	280.36
371.974	266.35
372.355	273.13
372.736	284.43
373.117	288.95
373.498	274.94
373.879	273.58
374.26	295.95
374.641	275.61
375.021	272.22
375.402	291.43
375.783	286.24
376.163	296.18
376.544	275.39
376.925	302.28
377.305	300.47
377.686	304.77
378.066	311.55
378.447	284.43
378.827	309.96
379.208	308.83
379.588	299.79
379.968	294.82
380.349	309.96
380.729	301.38
381.109	304.54
381.489	300.02
381.87	293.24
382.25	309.06
382.63	309.29
383.01	302.96
383.39	323.52
383.77	293.24
384.15	291.66
384.53	309.06
384.91	313.35
385.29	315.16
385.67	310.64
386.049	304.09
386.429	299.34
386.809	319.68
387.189	306.12
387.568	312.68
387.948	315.84
388.328	311.55
388.707	328.72
389.087	312.9
389.466	321.94
389.846	330.75
390.225	309.06
390.605	328.95
390.984	321.94
391.363	308.83
391.743	338.89
392.122	330.53
392.501	319.45
392.881	318.1
393.26	327.36
393.639	326.23
394.018	334.14
394.397	308.83
394.776	316.29
395.155	309.51
395.534	307.93
395.913	309.29
396.292	316.52
396.671	299.12
397.05	304.31
397.429	336.4
397.808	351.09
398.186	351.77
398.565	334.6
398.944	362.17
399.323	306.57
399.701	336.4
400.08	350.19
400.458	337.99
400.837	327.36
401.215	347.93
401.594	353.35
401.972	324.88
402.351	312.45
402.729	343.86
403.107	332.56
403.486	353.13
403.864	354.71
404.242	353.58
404.62	346.35
404.999	343.18
405.377	358.78
405.755	343.41
406.133	351.09
406.511	370.08
406.889	341.15
407.267	348.15
407.645	360.13
408.023	370.08
408.401	354.48
408.779	359.91
409.156	342.05
409.534	362.84
409.912	382.73
410.29	377.53
410.667	368.49
411.045	369.62
411.422	358.32
411.8	372.33
412.178	364.2
412.555	381.15
412.933	369.17
413.31	377.08
413.687	387.48
414.065	377.98
414.442	379.79
414.819	373.24
415.197	377.31
415.574	375.72
415.951	384.09
416.328	375.05
416.705	380.02
417.082	391.09
417.46	372.33
417.837	379.34
418.214	401.49
418.591	370.75
418.967	390.19
419.344	385.89
419.721	391.09
420.098	373.46
420.475	394.93
420.852	389.74
421.228	389.06
421.605	385.67
421.982	385.89
422.358	409.17
422.735	411.66
423.111	406.91
423.488	412.33
423.864	390.41
424.241	433.35
424.617	397.64
424.994	426.8
425.37	407.81
425.746	424.31
426.123	400.58
426.499	400.81
426.875	439
427.251	412.56
427.627	438.1
428.003	416.63
428.379	424.31
428.756	410.3
429.132	412.56
429.507	435.84
429.883	427.7
430.259	445.33
430.635	440.81
431.011	428.6
431.387	449.85
431.763	433.35
432.138	438.32
432.514	442.16
432.89	444.88
433.265	457.53
433.641	472.9
434.016	454.59
434.392	438.77
434.767	489.17
435.143	444.42
435.518	473.35
435.894	462.5
436.269	465.21
436.644	476.74
437.02	486.91
437.395	475.38
437.77	467.02
438.145	480.13
438.52	485.55
438.895	478.55
439.271	483.07
439.646	504.76
440.021	487.81
440.395	500.92
440.77	496.63
441.145	515.83
441.52	496.4
441.895	499.79
442.27	495.95
442.645	527.13
443.019	500.24
443.394	510.41
443.769	511.31
444.143	500.69
444.518	512.9
444.892	527.13
445.267	520.58
445.641	527.58
446.016	521.26
446.39	518.77
446.764	516.74
447.139	533.01
447.513	521.71
447.887	519.9
448.262	537.08
448.636	532.56
449.01	536.85
449.384	547.25
449.758	549.51
450.132	555.38
450.506	539.11
450.88	536.85
451.254	551.77
451.628	538.21
452.002	528.26
452.376	561.26
452.75	575.04
453.123	575.72
453.497	582.5
453.871	563.74
454.244	554.02
454.618	581.14
454.992	586.57
455.365	592.89
455.739	569.17
456.112	593.35
456.486	559.45
456.859	588.37
457.232	612.1
457.606	590.86
457.979	618.88
458.352	575.27
458.725	603.74
459.099	605.1
459.472	603.29
459.845	615.04
460.218	618.66
460.591	633.57
460.964	620.24
461.337	635.83
461.71	643.51
462.083	626.34
462.456	639.9
462.829	648.03
463.201	648.71
463.574	629.5
463.947	666.79
464.32	667.02
464.692	694.59
465.065	658.2
465.438	681.71
465.81	710.18
466.183	673.12
466.555	687.13
466.928	705.66
467.3	670.86
467.672	698.65
468.045	706.34
468.417	694.13
468.789	729.84
469.161	735.04
469.534	718.54
469.906	716.73
470.278	731.42
470.65	754.25
471.022	742.04
471.394	732.78
471.766	745.66
472.138	764.41
472.51	769.84
472.882	756.05
473.253	754.7
473.625	787.47
473.997	795.6
474.369	813.91
474.74	796.73
475.112	798.54
475.484	827.92
475.855	826.33
476.227	827.24
476.598	848.93
476.97	827.46
477.341	858.42
477.713	861.36
478.084	849.16
478.455	877.18
478.827	883.96
479.198	897.97
479.569	892.55
479.94	910.17
480.311	916.28
480.682	950.85
481.053	968.03
481.424	959.66
481.795	971.64
482.166	962.38
482.537	989.27
482.908	979.1
483.279	1004.41
483.65	985.65
484.021	1000.79
484.391	1015.26
484.762	1040.57
485.133	1023.39
485.503	1020
485.874	1050.96
486.244	1055.71
486.615	1044.18
486.985	1067.01
487.356	1082.37
487.726	1102.26
488.097	1084.18
488.467	1096.61
488.837	1083.28
489.207	1088.25
489.578	1106.33
489.948	1140.22
490.318	1135.48
490.688	1131.41
491.058	1125.08
491.428	1158.3
491.798	1173.22
492.168	1173.22
492.538	1176.83
492.908	1163.05
493.278	1195.82
493.648	1182.93
494.017	1189.94
494.387	1190.62
494.757	1215.93
495.126	1224.06
495.496	1220.67
495.866	1243.5
496.235	1216.61
496.605	1229.94
496.974	1229.26
497.344	1205.31
497.713	1231.3
498.082	1259.09
498.452	1246.21
498.821	1230.39
499.19	1238.53
499.559	1231.75
499.928	1246.66
500.298	1240.79
500.667	1259.54
501.036	1259.77
501.405	1252.31
501.774	1251.63
502.143	1271.07
502.512	1296.38
502.88	1290.73
503.249	1292.31
503.618	1280.56
503.987	1291.63
504.356	1288.24
504.724	1282.37
505.093	1302.71
505.462	1303.38
505.83	1315.59
506.199	1319.2
506.567	1317.62
506.936	1292.54
507.304	1319.88
507.672	1319.2
508.041	1333.21
508.409	1349.03
508.777	1311.75
509.145	1335.02
509.514	1348.81
509.882	1349.71
510.25	1358.07
510.618	1333.44
510.986	1348.35
511.354	1337.73
511.722	1379.77
512.09	1368.01
512.458	1354.91
512.826	1355.36
513.193	1382.25
513.561	1376.38
513.929	1391.29
514.297	1384.51
514.664	1366.43
515.032	1367.11
515.4	1363.27
515.767	1385.87
516.135	1371.18
516.502	1377.73
516.869	1402.14
517.237	1419.54
517.604	1397.17
517.972	1393.78
518.339	1380.22
518.706	1386.55
519.073	1378.41
519.44	1419.09
519.808	1381.8
520.175	1406.21
520.542	1391.52
520.909	1408.69
521.276	1417.05
521.643	1425.19
522.009	1417.05
522.376	1446.66
522.743	1437.17
523.11	1425.64
523.477	1426.32
523.843	1467.9
524.21	1468.35
524.577	1476.49
524.943	1482.81
525.31	1438.52
525.676	1476.94
526.043	1461.8
526.409	1495.47
526.776	1514.68
527.142	1460.67
527.508	1491.85
527.874	1487.11
528.241	1451.85
528.607	1471.97
528.973	1500.21
529.339	1478.29
529.705	1522.81
530.071	1469.93
530.437	1498.41
530.803	1520.1
531.169	1524.85
531.535	1517.16
531.901	1514
532.267	1524.62
532.632	1532.53
532.998	1556.48
533.364	1519.42
533.73	1537.05
534.095	1527.78
534.461	1518.52
534.826	1537.73
535.192	1556.71
535.557	1553.77
535.923	1554.22
536.288	1562.59
536.653	1526.2
537.019	1515.81
537.384	1551.74
537.749	1508.8
538.114	1553.77
538.479	1548.12
538.845	1561.46
539.21	1539.08
539.575	1525.52
539.94	1554.45
540.305	1569.37
540.67	1561.46
541.034	1559.2
541.399	1586.54
541.764	1570.04
542.129	1556.71
542.494	1590.83
542.858	1568.46
543.223	1551.06
543.587	1559.65
543.952	1558.97
544.316	1596.71
544.681	1564.17
545.045	1564.62
545.41	1588.57
545.774	1567.11
546.138	1550.61
546.503	1560.1
546.867	1576.14
547.231	1601.91
547.595	1563.72
547.959	1570.27
548.324	1578.18
548.688	1563.94
549.052	1571.63
549.416	1577.27
549.779	1589.93
550.143	1600.55
550.507	1604.62
550.871	1561.68
551.235	1600.1
551.599	1608.46
551.962	1592.64
552.326	1611.62
552.689	1598.97
553.053	1581.12
553.417	1614.34
553.78	1601.91
554.143	1595.35
554.507	1594.9
554.87	1604.84
555.234	1628.12
555.597	1609.36
555.96	1589.48
556.323	1630.38
556.686	1622.25
557.05	1621.12
557.413	1606.65
557.776	1616.37
558.139	1618.86
558.502	1622.25
558.865	1619.08
559.228	1617.5
559.59	1628.57
559.953	1649.82
560.316	1643.94
560.679	1621.12
561.041	1636.71
561.404	1648.69
561.767	1636.26
562.129	1654.79
562.492	1666.76
562.854	1624.96
563.217	1643.04
563.579	1634.67
563.941	1670.83
564.304	1661.79
564.666	1701.34
565.028	1654.56
565.39	1633.54
565.753	1682.13
566.115	1660.44
566.477	1653.88
566.839	1703.83
567.201	1706.54
567.563	1663.15
567.925	1717.38
568.287	1711.28
568.648	1719.87
569.01	1681.23
569.372	1664.28
569.734	1715.35
570.095	1697.05
570.457	1699.76
570.819	1717.38
571.18	1711.06
571.542	1712.41
571.903	1720.32
572.265	1711.28
572.626	1727.55
572.987	1740.43
573.349	1713.54
573.71	1734.78
574.071	1753.09
574.432	1721.9
574.794	1744.95
575.155	1732.3
575.516	1725.75
575.877	1739.53
576.238	1759.64
576.599	1780.43
576.96	1726.88
577.32	1766.2
577.681	1739.08
578.042	1755.8
578.403	1757.84
578.763	1765.52
579.124	1755.35
579.485	1800.55
579.845	1765.07
580.206	1771.85
580.566	1792.18
580.927	1761
581.287	1787.44
581.648	1775.69
582.008	1770.72
582.368	1782.24
582.728	1758.74
583.089	1796.48
583.449	1755.12
583.809	1778.85
584.169	1792.64
584.529	1786.99
584.889	1782.92
585.249	1774.56
585.609	1781.79
585.969	1811.85
586.329	1765.52
586.688	1779.08
587.048	1761.68
587.408	1804.39
587.768	1744.95
588.127	1808.46
588.487	1815.69
588.846	1804.16
589.206	1799.87
589.565	1810.72
589.925	1803.48
590.284	1803.94
590.643	1775.91
591.003	1822.69
591.362	1829.92
591.721	1794.44
592.08	1815.23
592.44	1790.38
592.799	1791.05
593.158	1819.53
593.517	1798.51
593.876	1802.35
594.235	1809.59
594.593	1808.23
594.952	1831.73
595.311	1792.86
595.67	1819.75
596.029	1822.47
596.387	1793.31
596.746	1816.36
597.104	1810.04
597.463	1800.09
597.822	1833.31
598.18	1816.36
598.538	1794.67
598.897	1810.26
599.255	1827.89
599.613	1835.8
599.972	1833.31
600.33	1825.18
600.688	1802.13
601.046	1814.33
601.404	1813.65
601.762	1815.01
602.12	1858.4
602.478	1823.37
602.836	1822.69
603.194	1848.45
603.552	1855.91
603.91	1850.49
604.268	1871.96
604.625	1851.39
604.983	1839.19
605.341	1856.59
605.698	1883.03
606.056	1875.57
606.413	1847.55
606.771	1866.53
607.128	1881.67
607.485	1861.11
607.843	1832.64
608.2	1878.28
608.557	1864.05
608.914	1907.21
609.272	1852.75
609.629	1845.52
609.986	1881.67
610.343	1902.01
610.7	1910.83
611.057	1897.72
611.414	1887.32
611.771	1896.14
612.127	1908.11
612.484	1907.21
612.841	1925.74
613.198	1919.86
613.554	1932.97
613.911	1896.14
614.267	1932.97
614.624	1916.93
614.98	1907.89
615.337	1920.32
615.693	1945.63
616.05	1944.04
616.406	1928.68
616.762	1936.14
617.118	1935.91
617.475	1948.79
617.831	1934.1
618.187	1897.27
618.543	1954.89
618.899	1934.1
619.255	1976.59
619.611	1951.28
619.967	1931.16
620.323	1947.89
620.678	1959.41
621.034	1965.51
621.39	1982.24
621.746	1950.37
622.101	1962.35
622.457	1963.93
622.812	1971.84
623.168	1962.8
623.523	1974.33
623.879	1956.93
624.234	1971.61
624.589	2002.57
624.945	1972.74
625.3	1986.53
625.655	1983.37
626.01	1971.61
626.365	1994.21
626.72	1976.36
627.075	1972.52
627.43	2002.12
627.785	1983.82
628.14	1992.86
628.495	2014.33
628.85	2026.98
629.205	2008.45
629.559	2015.23
629.914	2018.85
630.269	2017.72
630.623	2033.53
630.978	2026.08
631.332	2024.27
631.687	2043.7
632.041	2010.94
632.396	2022.69
632.75	2021.11
633.104	2031.5
633.459	2027.66
633.813	2043.03
634.167	2025.62
634.521	2049.8
634.875	2057.71
635.229	2017.26
635.583	2054.78
635.937	2029.24
636.291	2074.89
636.645	2057.04
636.999	2056.58
637.352	2046.87
637.706	2055.45
638.06	2066.08
638.413	2055.68
638.767	2092.52
639.121	2072.86
639.474	2095.91
639.828	2086.41
640.181	2091.39
640.534	2082.12
640.888	2085.96
641.241	2090.26
641.594	2108.56
641.947	2109.69
642.301	2132.74
642.654	2137.49
643.007	2117.15
643.36	2121.44
643.713	2129.12
644.066	2127.54
644.419	2120.09
644.771	2148.79
645.124	2120.09
645.477	2113.98
645.83	2131.38
646.182	2119.86
646.535	2123.7
646.888	2145.4
647.24	2137.26
647.593	2123.02
647.945	2175.23
648.298	2154.66
648.65	2158.5
649.002	2156.47
649.355	2189.01
649.707	2182.68
650.059	2193.76
650.411	2219.07
650.763	2255.45
651.115	2255.22
651.467	2233.75
651.819	2271.49
652.171	2292.74
652.523	2285.28
652.875	2269.46
653.227	2289.35
653.578	2319.18
653.93	2341.32
654.282	2324.15
654.633	2302.23
654.985	2340.42
655.337	2382
655.688	2352.4
656.039	2369.34
656.391	2340.42
656.742	2373.41
657.094	2370.47
657.445	2442.56
657.796	2374.32
658.147	2439.4
658.498	2427.42
658.849	2423.35
659.2	2437.59
659.551	2445.27
659.902	2462.68
660.253	2483.47
660.604	2444.82
660.955	2487.76
661.306	2501.54
661.656	2508.32
662.007	2523.24
662.358	2520.3
662.708	2519.17
663.059	2517.82
663.409	2542.22
663.76	2584.25
664.11	2597.81
664.461	2601.2
664.811	2609.79
665.161	2586.97
665.511	2587.42
665.862	2609.79
666.212	2660.41
666.562	2618.38
666.912	2657.47
667.262	2687.53
667.612	2688.21
667.962	2668.09
668.312	2666.96
668.662	2710.13
669.011	2709
669.361	2706.96
669.711	2758.49
670.06	2737.24
670.41	2750.13
670.76	2755.1
671.109	2724.59
671.459	2759.62
671.808	2783.57
672.157	2787.41
672.507	2808.2
672.856	2819.73
673.205	2796.45
673.554	2851.82
673.904	2878.71
674.253	2873.29
674.602	2839.39
674.951	2825.6
675.3	2827.64
675.649	2892.27
675.998	2891.82
676.346	2914.41
676.695	2908.54
677.044	2922.55
677.393	2945.83
677.741	2892.72
678.09	2894.98
678.438	2986.73
678.787	2963.91
679.135	2984.24
679.484	2966.62
679.832	2995.54
680.181	3038.71
680.529	2995.09
680.877	3014.07
681.225	2969.1
681.573	3035.99
681.922	3035.77
682.27	3033.73
682.618	3052.72
682.966	3054.75
683.314	3064.24
683.661	3021.98
684.009	3079.16
684.357	3074.18
684.705	3043
685.053	3050.46
685.4	3097.69
685.748	3079.16
686.095	3087.52
686.443	3094.75
686.79	3066.28
687.138	3157.12
687.485	3166.84
687.832	3115.99
688.18	3076.44
688.527	3103.11
688.874	3132.49
689.221	3092.94
689.568	3081.87
689.915	3107.18
690.262	3112.15
690.609	3153.28
690.956	3152.15
691.303	3133.84
691.65	3119.83
691.997	3141.53
692.344	3124.58
692.69	3111.47
693.037	3154.18
693.383	3093.62
693.73	3152.83
694.077	3148.53
694.423	3125.93
694.769	3117.12
695.116	3111.92
695.462	3117.12
695.808	3115.09
696.155	3157.8
696.501	3092.94
696.847	3084.81
697.193	3100.4
697.539	3127.52
697.885	3078.48
698.231	3099.04
698.577	3097.01
698.923	3102.21
699.269	3081.87
699.614	3062.66
699.96	3078.03
700.306	3078.03
700.651	3103.11
700.997	3065.37
701.342	3102.43
701.688	3067.63
702.033	3051.36
702.379	3062.43
702.724	3072.38
703.069	3068.99
703.415	3040.97
703.76	2994.86
704.105	3039.16
704.45	3065.6
704.795	3035.77
705.14	3051.36
705.485	3022.66
705.83	3011.81
706.175	3007.52
706.52	2976.79
706.865	3043.9
707.209	3009.1
707.554	3021.53
707.899	3023.34
708.243	3025.6
708.588	3007.29
708.932	3001.42
709.277	3002.55
709.621	2992.83
709.966	2995.77
710.31	2987.18
710.654	2976.11
710.998	2965.49
711.342	3005.26
711.687	2978.37
712.031	2979.5
712.375	2977.24
712.719	2970.23
713.063	2943.57
713.407	2950.8
713.75	2966.16
714.094	2967.75
714.438	2907.41
714.782	2955.54
715.125	2975.66
715.469	2962.78
715.812	2937.92
716.156	2943.79
716.499	2985.37
716.843	2930.91
717.186	2956.22
717.53	2986.73
717.873	2958.48
718.216	2959.39
718.559	2945.83
718.902	2900.63
719.246	2971.14
719.589	2928.65
719.932	2965.71
720.275	2945.37
720.617	2954.64
720.96	2936.11
721.303	3000.06
721.646	2953.74
721.989	2938.14
722.331	2967.75
722.674	2920.74
723.016	2945.6
723.359	2936.79
723.701	2912.61
724.044	2936.79
724.386	2934.75
724.729	2919.39
725.071	2940.85
725.413	2929.56
725.755	2928.2
726.097	2909.9
726.439	2935.43
726.782	2924.58
727.124	2952.61
727.465	2932.27
727.807	2943.57
728.149	2948.31
728.491	2921.65
728.833	2956.67
729.175	2961.19
729.516	2966.84
729.858	2955.09
730.199	2967.97
730.541	2970.01
730.882	2964.13
731.224	2978.37
731.565	2941.53
731.906	2920.29
732.248	2962.55
732.589	2953.51
732.93	2938.37
733.271	2995.32
733.612	2993.06
733.953	2970.23
734.294	2981.08
734.635	2995.32
734.976	2960.29
735.317	3009.1
735.658	3005.26
735.999	2962.78
736.339	3028.08
736.68	3033.73
737.021	2995.54
737.361	3035.99
737.702	3029.44
738.042	3014.07
738.383	3012.27
738.723	3036.67
739.063	3057.46
739.404	3074.64
739.744	2999.16
740.084	3060.4
740.424	3083.68
740.764	3097.01
741.104	3111.47
741.444	3087.52
741.784	3101.53
742.124	3089.1
742.464	3099.49
742.804	3102.21
743.143	3124.8
743.483	3147.63
743.823	3132.49
744.162	3165.93
744.502	3178.81
744.841	3156.67
745.181	3195.99
745.52	3184.01
745.86	3210
746.199	3243.22
746.538	3245.93
746.877	3261.3
747.216	3259.04
747.556	3259.26
747.895	3308.75
748.234	3278.7
748.573	3297.46
748.911	3301.3
749.25	3331.81
749.589	3348.3
749.928	3367.74
750.267	3409.77
750.605	3384.69
750.944	3417.9
751.283	3381.52
751.621	3450.67
751.96	3417.23
752.298	3476.21
752.636	3505.13
752.975	3495.19
753.313	3531.12
753.651	3551.69
753.989	3548.75
754.327	3604.11
754.666	3578.13
755.004	3636.2
755.342	3649.08
755.679	3635.75
756.017	3674.62
756.355	3732.02
756.693	3737.44
757.031	3746.48
757.368	3734.05
757.706	3737.44
758.044	3750.1
758.381	3838.91
758.719	3818.8
759.056	3810.44
759.394	3791.23
759.731	3827.84
760.068	3878.91
760.405	3850.44
760.743	3884.33
761.08	3917.1
761.417	3954.39
761.754	3954.84
762.091	3900.15
762.428	3967.04
762.765	3942.18
763.102	3985.57
763.438	3955.07
763.775	3936.31
764.112	3977.21
764.449	4040.94
764.785	3997.32
765.122	4011.11
765.458	4038.68
765.795	4020.6
766.131	4047.27
766.467	3967.95
766.804	4025.8
767.14	4002.52
767.476	3990.09
767.812	4061.73
768.148	4034.61
768.485	4023.99
768.821	4027.38
769.157	4076.64
769.492	4027.15
769.828	4065.35
770.164	4053.14
770.5	4012.01
770.836	4049.3
771.171	4029.19
771.507	3993.26
771.842	3992.13
772.178	4003.43
772.513	4021.05
772.849	4006.59
773.184	3975.63
773.519	4007.04
773.855	3978.34
774.19	3989.64
774.525	3961.84
774.86	3955.52
775.195	3960.26
775.53	3943.31
775.865	3944.22
776.2	3894.5
776.535	3919.36
776.87	3904.45
777.205	3925.69
777.539	3896.31
777.874	3925.01
778.209	3882.53
778.543	3880.04
778.878	3845.92
779.212	3878.91
779.547	3818.12
779.881	3868.06
780.215	3833.03
780.55	3853.15
780.884	3816.31
781.218	3807.5
781.552	3864.22
781.886	3806.37
782.22	3773.15
782.554	3766.6
782.888	3727.73
783.222	3754.39
783.556	3686.82
783.889	3703.32
784.223	3694.28
784.557	3709.2
784.89	3720.5
785.224	3682.76
785.557	3679.59
785.891	3674.85
786.224	3705.58
786.558	3600.27
786.891	3651.34
787.224	3649.99
787.557	3643.44
787.891	3596.88
788.224	3603.21
788.557	3550.33
788.89	3594.17
789.223	3611.57
789.556	3585.81
789.888	3565.92
790.221	3504
790.554	3519.6
790.887	3506.04
791.219	3513.95
791.552	3499.03
791.884	3502.87
792.217	3453.84
792.549	3515.53
792.882	3452.25
793.214	3431.24
793.546	3446.38
793.879	3410.67
794.211	3405.48
794.543	3425.36
794.875	3358.7
795.207	3410.67
795.539	3380.39
795.871	3443.44
796.203	3388.3
796.535	3368.64
796.867	3358.25
797.198	3342.88
797.53	3360.73
797.862	3350.11
798.193	3301.75
798.525	3289.77
798.856	3317.12
799.188	3287.06
799.519	3251.81
799.85	3264.69
800.182	3264.46
800.513	3279.38
800.844	3207.97
801.175	3240.96
801.506	3276.67
801.837	3230.79
802.168	3200.74
802.499	3208.19
802.83	3190.57
803.161	3158.93
803.491	3214.52
803.822	3210.68
804.153	3171.13
804.483	3173.39
804.814	3158.93
805.145	3167.29
805.475	3139.72
805.805	3127.97
806.136	3131.13
806.466	3151.24
806.796	3122.55
807.126	3094.98
807.457	3054.3
807.787	3090.46
808.117	3105.14
808.447	3046.61
808.777	3076.44
809.107	3080.29
809.436	3054.75
809.766	3097.01
810.096	3032.6
810.426	3026.05
810.755	3004.13
811.085	3066.28
811.414	3043.9
811.744	3031.25
812.073	3034.19
812.403	3010.68
812.732	2976.79
813.061	2988.09
813.39	2956.22
813.719	2933.4
814.049	2991.48
814.378	2938.6
814.707	2984.92
815.036	2961.65
815.365	2936.11
815.693	2925.49
816.022	2921.87
816.351	2952.61
816.68	2912.83
817.008	2894.08
817.337	2913.51
817.665	2874.19
817.994	2900.4
818.322	2879.61
818.651	2874.19
818.979	2885.26
819.307	2892.49
819.636	2840.74
819.964	2826.28
820.292	2881.2
820.62	2911.7
820.948	2852.72
821.276	2885.94
821.604	2836.45
821.932	2838.26
822.259	2824.7
822.587	2869.67
822.915	2835.77
823.243	2829.22
823.57	2851.14
823.898	2890.69
824.225	2853.85
824.553	2840.29
824.88	2837.58
825.207	2826.96
825.535	2845.04
825.862	2837.35
826.189	2811.82
826.516	2815.43
826.843	2826.51
827.17	2896.79
827.497	2815.21
827.824	2852.72
828.151	2853.85
828.478	2837.58
828.805	2836.68
829.131	2825.6
829.458	2824.47
829.785	2820.86
830.111	2814.53
830.438	2859.95
830.764	2812.5
831.09	2837.13
831.417	2829.45
831.743	2882.55
832.069	2828.99
832.395	2814.53
832.722	2842.55
833.048	2847.98
833.374	2814.53
833.7	2813.17
834.026	2841.42
834.351	2812.95
834.677	2805.94
835.003	2815.66
835.329	2851.37
835.654	2808.65
835.98	2808.65
836.306	2826.28
836.631	2802.55
836.956	2796.68
837.282	2793.74
837.607	2792.38
837.932	2770.24
838.258	2783.57
838.583	2783.34
838.908	2782.67
839.233	2804.36
839.558	2792.61
839.883	2767.98
840.208	2752.84
840.533	2759.62
840.858	2709.45
841.182	2760.75
841.507	2758.94
841.832	2725.72
842.156	2737.92
842.481	2745.61
842.805	2733.85
843.13	2709.22
843.454	2729.56
843.778	2714.19
844.103	2699.28
844.427	2727.08
844.751	2711.93
845.075	2707.41
845.399	2693.86
845.723	2639.85
846.047	2633.29
846.371	2656.12
846.695	2631.48
847.019	2645.04
847.343	2626.29
847.666	2597.81
847.99	2597.14
848.313	2614.31
848.637	2606.63
848.96	2600.07
849.284	2555.55
849.607	2546.06
849.931	2590.13
850.254	2515.78
850.577	2536.12
850.9	2521.2
851.223	2498.38
851.546	2511.71
851.869	2462.68
852.192	2470.36
852.515	2482.79
852.838	2486.86
853.161	2450.92
853.483	2463.81
853.806	2467.87
854.129	2456.8
854.451	2422
854.774	2454.77
855.096	2450.02
855.419	2410.93
855.741	2400.98
856.063	2417.7
856.385	2416.57
856.708	2401.21
857.03	2389.46
857.352	2403.02
857.674	2391.26
857.996	2341.32
858.318	2362.11
858.64	2386.75
858.961	2343.13
859.283	2332.51
859.605	2337.48
859.926	2324.15
860.248	2318.05
860.57	2332.06
860.891	2296.8
861.212	2289.12
861.534	2363.47
861.855	2283.7
862.176	2304.04
862.498	2311.49
862.819	2293.64
863.14	2284.83
863.461	2325.96
863.782	2252.29
864.103	2289.8
864.424	2274.21
864.745	2284.15
865.065	2288.44
865.386	2244.6
865.707	2275.56
866.027	2233.53
866.348	2286.18
866.668	2280.99
866.989	2271.49
867.309	2226.3
867.63	2217.71
867.95	2228.33
868.27	2225.39
868.59	2227.43
868.91	2255.22
869.23	2221.33
869.55	2215
869.87	2226.75
870.19	2237.37
870.51	2241.66
870.83	2222.46
871.15	2208.67
871.469	2198.5
871.789	2198.05
872.109	2192.4
872.428	2168.22
872.748	2190.14
873.067	2201.21
873.386	2229.91
873.706	2193.76
874.025	2222.68
874.344	2179.07
874.663	2161.67
874.982	2197.15
875.301	2199.18
875.62	2188.11
875.939	2168.22
876.258	2155.79
876.577	2163.25
876.896	2163.02
877.214	2184.04
877.533	2151.72
877.852	2181.33
878.17	2173.64
878.489	2173.19
878.807	2146.3
879.125	2168.9
879.444	2127.32
879.762	2118.96
880.08	2123.48
880.398	2105.4
880.716	2135
881.034	2109.46
881.352	2133.42
881.67	2134.55
881.988	2172.29
882.306	2116.24
882.624	2118.5
882.941	2116.92
883.259	2111.5
883.577	2115.57
883.894	2116.7
884.212	2083.7
884.529	2093.65
884.846	2077.37
885.164	2059.07
885.481	2078.28
885.798	2063.36
886.115	2036.25
886.432	2052.52
886.75	2040.77
887.067	2049.35
887.383	2059.3
887.7	2067.43
888.017	2043.7
888.334	2033.76
888.651	2010.26
888.967	2022.01
889.284	2007.55
889.6	2011.84
889.917	2027.66
890.233	2009.13
890.55	1989.24
890.866	1972.52
891.182	1973.42
891.498	1961.67
891.815	1975.91
892.131	1964.84
892.447	1977.72
892.763	1951.95
893.079	1959.86
893.395	1968.23
893.71	1994.44
894.026	1934.33
894.342	1945.63
894.657	1947.43
894.973	1941.33
895.289	1935.91
895.604	1935.46
895.92	1910.83
896.235	1911.28
896.55	1904.72
896.865	1899.75
897.181	1901.11
897.496	1918.96
897.811	1897.72
898.126	1893.65
898.441	1900.43
898.756	1864.95
899.071	1852.97
899.386	1869.47
899.7	1839.87
900.015	1862.47
900.33	1817.27
900.644	1838.06
900.959	1834.22
901.273	1835.8
901.588	1802.81
901.902	1793.99
902.216	1817.95
902.531	1797.61
902.845	1798.51
903.159	1797.16
903.473	1819.08
903.787	1799.87
904.101	1775.91
904.415	1768.68
904.729	1769.13
905.042	1755.58
905.356	1777.04
905.67	1769.13
905.984	1781.11
906.297	1729.81
906.611	1756.03
906.924	1725.97
907.237	1746.54
907.551	1723.71
907.864	1736.14
908.177	1716.48
908.491	1736.37
908.804	1713.32
909.117	1681.9
909.43	1690.94
909.743	1675.8
910.056	1678.97
910.368	1679.65
910.681	1652.75
910.994	1667.22
911.307	1624.05
911.619	1642.81
911.932	1636.03
912.244	1640.78
912.557	1617.5
912.869	1652.98
913.181	1621.34
913.494	1630.61
913.806	1626.99
914.118	1633.77
914.43	1588.8
914.742	1636.71
915.054	1603.71
915.366	1595.81
915.678	1606.43
915.99	1593.77
916.302	1568.01
916.613	1598.07
916.925	1577.5
917.236	1584.05
917.548	1551.51
917.859	1541.57
918.171	1571.85
918.482	1528.01
918.794	1516.26
919.105	1546.99
919.416	1512.19
919.727	1502.02
920.038	1530.72
920.349	1505.86
920.66	1516.94
920.971	1510.16
921.282	1526.88
921.593	1506.09
921.903	1517.84
922.214	1471.29
922.525	1466.09
922.835	1453.89
923.146	1480.33
923.456	1449.59
923.767	1463.38
924.077	1447.33
924.387	1435.36
924.697	1442.82
925.008	1435.81
925.318	1453.89
925.628	1445.75
925.938	1425.87
926.248	1415.92
926.558	1436.94
926.867	1386.09
927.177	1383.83
927.487	1391.97
927.796	1381.8
928.106	1405.3
928.416	1403.27
928.725	1406.43
929.034	1376.15
929.344	1406.21
929.653	1393.1
929.962	1358.07
930.271	1370.05
930.581	1336.83
930.89	1361.69
931.199	1329.37
931.508	1343.38
931.817	1309.49
932.125	1345.87
932.434	1342.03
932.743	1324.17
933.051	1311.07
933.36	1319.88
933.669	1294.8
933.977	1321.46
934.286	1293.67
934.594	1268.36
934.902	1298.19
935.21	1303.84
935.519	1304.51
935.827	1299.54
936.135	1293.67
936.443	1283.72
936.751	1260
937.059	1282.59
937.367	1257.51
937.674	1257.74
937.982	1247.79
938.29	1211.86
938.597	1254.8
938.905	1247.11
939.213	1235.14
939.52	1238.98
939.827	1261.8
940.135	1246.44
940.442	1220.22
940.749	1203.05
941.056	1231.97
941.363	1194.69
941.67	1217.28
941.977	1184.74
942.284	1182.71
942.591	1180.45
942.898	1191.07
943.205	1193.56
943.511	1179.32
943.818	1190.62
944.125	1172.77
944.431	1198.53
944.738	1155.14
945.044	1159.66
945.35	1162.6
945.657	1139.55
945.963	1143.61
946.269	1161.92
946.575	1134.12
946.881	1132.09
947.187	1139.55
947.493	1158.75
947.799	1148.81
948.105	1138.19
948.41	1117.85
948.716	1118.76
949.022	1107
949.327	1103.39
949.633	1089.6
949.938	1102.26
950.244	1101.58
950.549	1098.19
950.854	1081.92
951.16	1078.53
951.465	1081.69
951.77	1073.33
952.075	1091.19
952.38	1087.12
952.685	1060.9
952.99	1077.63
953.294	1045.31
953.599	1061.36
953.904	1057.29
954.209	1062.26
954.513	1035.82
954.818	1043.96
955.122	1066.78
955.426	1068.14
955.731	1027.68
956.035	1032.66
956.339	1026.1
956.643	1036.5
956.948	1035.82
957.252	1045.31
957.556	1046.22
957.86	1002.83
958.163	1005.31
958.467	990.17
958.771	990.17
959.075	1001.92
959.378	973.22
959.682	1018.19
959.985	1004.86
960.289	981.13
960.592	987.01
960.896	982.26
961.199	982.26
961.502	966.9
961.805	989.27
962.108	958.31
962.411	984.75
962.714	961.47
963.017	971.64
963.32	972.77
963.623	969.38
963.926	956.5
964.228	965.99
964.531	966.22
964.833	943.85
965.136	926.9
965.438	946.78
965.741	940.68
966.043	914.92
966.345	921.92
966.648	914.92
966.95	937.07
967.252	923.73
967.554	925.09
967.856	935.71
968.158	923.05
968.46	911.3
968.761	903.85
969.063	896.84
969.365	928.03
969.666	907.24
969.968	909.5
970.269	903.62
970.571	900.91
970.872	883.51
971.174	897.07
971.475	902.94
971.776	885.54
972.077	873.11
972.378	883.96
972.679	878.76
972.98	875.82
973.281	860.91
973.582	874.02
973.883	878.08
974.183	870.17
974.484	871.76
974.785	857.97
975.085	846.22
975.386	867.01
975.686	862.27
975.986	847.35
976.287	843.96
976.587	822.04
976.887	817.52
977.187	845.54
977.487	842.6
977.787	833.57
978.087	837.63
978.387	817.29
978.687	820.23
978.987	826.11
979.286	817.07
979.586	811.65
979.885	816.62
980.185	827.69
980.484	793.11
980.784	796.5
981.083	798.99
981.382	783.85
981.682	784.98
981.981	809.61
982.28	776.17
982.579	797.86
982.878	805.77
983.177	783.62
983.475	804.87
983.774	778.88
984.073	784.75
984.372	779.78
984.67	775.71
984.969	788.6
985.267	771.65
985.566	773
985.864	760.35
986.162	774.13
986.461	768.26
986.759	750.86
987.057	752.44
987.355	759.9
987.653	754.02
987.951	774.36
988.249	742.27
988.547	752.66
988.844	751.53
989.142	750.86
989.44	773.91
989.737	749.95
990.035	739.56
990.332	746.79
990.63	741.82
990.927	739.56
991.224	725.77
991.521	739.56
991.819	731.65
992.116	727.13
992.413	730.07
992.71	744.08
993.006	716.51
993.303	718.54
993.6	717.64
993.897	702.5
994.193	719.9
994.49	705.21
994.787	697.3
995.083	714.02
995.379	711.08
995.676	709.05
995.972	704.98
996.268	711.99
996.565	682.38
996.861	698.65
997.157	679.67
997.453	699.11
997.749	691.2
998.044	662.04
998.34	685.77
998.636	683.74
998.932	675.6
999.227	662.27
999.523	670.86
999.818	664.98
1000.114	659.56
1000.409	660.69
1000.704	657.07
1001	661.82
1001.295	684.87
1001.59	654.81
1001.885	650.29
1002.18	651.2
1002.475	634.02
1002.77	649.84
1003.065	637.64
1003.359	644.87
1003.654	628.37
1003.949	662.5
1004.243	618.88
1004.538	631.31
1004.832	629.73
1005.127	640.58
1005.421	639.45
1005.715	641.25
1006.009	630.63
1006.304	626.11
1006.598	601.93
1006.892	596.28
1007.186	609.84
1007.48	619.56
1007.773	586.79
1008.067	619.11
1008.361	608.03
1008.655	617.07
1008.948	596.51
1009.242	614.14
1009.535	600.13
1009.829	615.04
1010.122	602.16
1010.415	584.31
1010.708	577.3
1011.001	589.05
1011.295	593.57
1011.588	586.11
1011.881	602.39
1012.173	587.24
1012.466	587.02
1012.759	555.15
1013.052	583.85
1013.344	570.75
1013.637	595.15
1013.93	568.04
1014.222	578.43
1014.514	576.85
1014.807	539.34
1015.099	551.77
1015.391	557.19
1015.683	561.03
1015.976	573.69
1016.268	568.94
1016.56	553.8
1016.851	568.94
1017.143	567.36
1017.435	532.78
1017.727	543.86
1018.018	556.96
1018.31	550.18
1018.602	544.08
1018.893	523.74
1019.185	542.5
1019.476	569.17
1019.767	557.19
1020.058	539.34
1020.35	517.42
1020.641	544.08
1020.932	510.86
1021.223	534.82
1021.514	509.73
1021.804	521.26
1022.095	516.96
1022.386	509.96
1022.677	519.22
1022.967	528.26
1023.258	512.22
1023.548	517.64
1023.839	482.39
1024.129	525.33
1024.419	488.04
1024.709	523.07
1025	503.63
1025.29	513.57
1025.58	507.92
1025.87	527.13
1026.16	517.42
1026.449	503.86
1026.739	479.22
1027.029	488.49
1027.319	497.98
1027.608	506.34
1027.898	482.61
1028.187	472.22
1028.477	489.62
1028.766	491.43
1029.055	462.95
1029.344	482.61
1029.634	473.58
1029.923	471.54
1030.212	481.48
1030.501	473.12
1030.79	485.1
1031.078	485.33
1031.367	458.21
1031.656	471.09
1031.945	475.61
1032.233	458.21
1032.522	462.05
1032.81	451.43
1033.099	459.56
1033.387	467.7
1033.675	452.33
1033.963	477.64
1034.251	458.21
1034.54	447.36
1034.828	455.04
1035.116	426.8
1035.403	442.62
1035.691	450.3
1035.979	460.69
1036.267	441.94
1036.554	453.01
1036.842	460.02
1037.129	431.54
1037.417	418.21
1037.704	439.23
1037.992	445.1
1038.279	441.71
1038.566	437.87
1038.853	437.87
1039.14	437.87
