Data from blue_clamp_base_FLMS001491_00095.txt Node
Date: Wed Feb 08 15:16:48 GMT 2017
User: dcchb
Spectrometer: FLMS00149
Trigger mode: 0
Integration Time (sec): 2.000000E-2
Scans to average: 10
Electric dark correction enabled: true
Nonlinearity correction enabled: false
Boxcar width: 0
XAxis mode: Wavelengths
Number of Pixels in Spectrum: 2048
>>>>>Begin Spectral Data<<<<<
341.393	-36.79
341.776	-36.79
342.16	-36.79
342.543	-68.66
342.927	-72.05
343.31	-67.3
343.693	-65.94
344.077	-58.26
344.46	-53.97
344.843	-52.16
345.226	-60.75
345.61	-29.79
345.993	-17.36
346.376	11.79
346.759	18.57
347.142	18.12
347.525	35.3
347.908	60.61
348.291	75.75
348.674	86.82
349.057	98.57
349.44	131.56
349.823	144.22
350.206	150.09
350.588	179.47
350.971	203.88
351.354	220.6
351.737	211.11
352.119	238.45
352.502	247.72
352.884	275.29
353.267	278.91
353.65	292.92
354.032	296.98
354.414	283.2
354.797	290.66
355.179	318
355.562	323.65
355.944	317.55
356.326	336.53
356.709	343.08
357.091	343.76
357.473	327.04
357.855	334.04
358.238	332.91
358.62	331.11
359.002	318
359.384	317.1
359.766	339.69
360.148	341.05
360.53	361.16
360.912	354.16
361.294	332.01
361.676	348.51
362.057	339.69
362.439	325.23
362.821	322.29
363.203	326.14
363.584	339.02
363.966	339.02
364.348	334.04
364.729	330.2
365.111	315.74
365.493	315.74
365.874	320.26
366.256	326.14
366.637	304.89
367.019	303.09
367.4	302.86
367.781	299.92
368.163	291.33
368.544	314.38
368.925	309.19
369.306	324.33
369.688	314.84
370.069	299.02
370.45	328.4
370.831	325.68
371.212	313.93
371.593	289.98
371.974	316.87
372.355	330.66
372.736	323.65
373.117	326.81
373.498	319.58
373.879	314.16
374.26	308.06
374.641	323.88
375.021	326.59
375.402	334.72
375.783	338.11
376.163	345.12
376.544	329.75
376.925	331.79
377.305	345.8
377.686	340.15
378.066	335.63
378.447	336.3
378.827	349.64
379.208	346.47
379.588	339.24
379.968	331.11
380.349	354.84
380.729	349.19
381.109	356.19
381.489	367.26
381.87	362.52
382.25	358.23
382.63	357.55
383.01	383.76
383.39	360.26
383.77	331.56
384.15	356.19
384.53	369.52
384.91	361.84
385.29	383.54
385.67	390.99
386.049	388.96
386.429	343.08
386.809	399.35
387.189	380.82
387.568	382.18
387.948	397.32
388.328	398
388.707	392.35
389.087	403.87
389.466	422.63
389.846	391.9
390.225	412.23
390.605	417.66
390.984	398.68
391.363	433.25
391.743	414.95
392.122	406.81
392.501	429.64
392.881	433.48
393.26	439.58
393.639	429.41
394.018	436.19
394.397	447.26
394.776	460.6
395.155	454.72
395.534	465.79
395.913	456.98
396.292	470.54
396.671	491.1
397.05	438.9
397.429	482.74
397.808	508.96
398.186	488.84
398.565	470.09
398.944	491.1
399.323	527.26
399.701	512.12
400.08	517.32
400.458	517.32
400.837	513.7
401.215	521.38
401.594	524.77
401.972	553.7
402.351	557.99
402.729	527.26
403.107	532.68
403.486	541.72
403.864	558.9
404.242	562.06
404.62	580.59
404.999	585.56
405.377	575.17
405.755	585.56
406.133	586.24
406.511	607.94
406.889	612.23
407.267	602.06
407.645	635.73
408.023	641.16
408.401	648.39
408.779	666.01
409.156	664.88
409.534	678.67
409.912	672.57
410.29	681.61
410.667	698.1
411.045	710.53
411.422	700.14
411.8	702.17
412.178	729.29
412.555	725.67
412.933	746.92
413.31	756.86
413.687	755.05
414.065	780.81
414.442	772.9
414.819	776.52
415.197	793.02
415.574	798.44
415.951	795.95
416.328	835.95
416.705	819.91
417.082	851.32
417.46	861.94
417.837	840.47
418.214	851.55
418.591	879.79
418.967	863.52
419.344	896.06
419.721	895.16
420.098	882.96
420.475	915.72
420.852	916.63
421.228	921.83
421.605	925.89
421.982	934.93
422.358	948.49
422.735	955.5
423.111	965.89
423.488	960.7
423.864	988.49
424.241	1000.92
424.617	1010.86
424.994	1030.07
425.37	1026
425.746	1024.2
426.123	1028.26
426.499	1060.81
426.875	1053.57
427.251	1081.82
427.627	1094.25
428.003	1117.53
428.379	1129.73
428.756	1129.05
429.132	1148.49
429.507	1143.74
429.883	1171.09
430.259	1201.37
430.635	1214.25
431.011	1225.32
431.387	1259.67
431.763	1262.16
432.138	1243.17
432.514	1269.16
432.89	1323.17
433.265	1329.95
433.641	1355.03
434.016	1322.49
434.392	1386.9
434.767	1418.08
435.143	1376.5
435.518	1414.69
435.894	1462.83
436.269	1454.92
436.644	1461.47
437.02	1480.46
437.395	1503.73
437.77	1506.22
438.145	1547.8
438.52	1527.01
438.895	1564.52
439.271	1545.09
439.646	1594.35
440.021	1614.69
440.395	1626.21
440.77	1626.44
441.145	1654.01
441.52	1659.89
441.895	1674.35
442.27	1709.38
442.645	1686.1
443.019	1719.77
443.394	1746.89
443.769	1745.08
444.143	1753.89
444.518	1757.28
444.892	1766.32
445.267	1760.22
445.641	1823.05
446.016	1836.15
446.39	1840.67
446.764	1831.41
447.139	1864.63
447.513	1861.01
447.887	1887.68
448.262	1874.57
448.636	1864.4
449.01	1952.31
449.384	1931.97
449.758	1951.63
450.132	1983.49
450.506	1995.47
450.88	2021.91
451.254	2017.16
451.628	2052.64
452.002	2086.77
452.376	2090.83
452.75	2082.47
453.123	2125.86
453.497	2140.33
453.871	2157.27
454.244	2227.78
454.618	2234.79
454.992	2243.15
455.365	2259.19
455.739	2271.85
456.112	2268.91
456.486	2348.68
456.859	2337.61
457.232	2378.51
457.606	2426.42
457.979	2449.92
458.352	2479.3
458.725	2507.1
459.099	2497.6
459.472	2606.98
459.845	2565.85
460.218	2612.86
460.591	2587.77
460.964	2607.66
461.337	2687.43
461.71	2730.37
462.083	2765.62
462.456	2761.1
462.829	2760.42
463.201	2825.5
463.574	2835.22
463.947	2872.51
464.32	2924.94
464.692	2963.81
465.065	2924.71
465.438	2975.33
465.81	3029.79
466.183	3078.83
466.555	3143.24
466.928	3149.34
467.3	3134.42
467.672	3165.16
468.045	3261.2
468.417	3258.04
468.789	3271.82
469.161	3297.13
469.534	3353.85
469.906	3378.94
470.278	3467.97
470.65	3510.23
471.022	3540.29
471.394	3608.99
471.766	3632.26
472.138	3639.49
472.51	3711.81
472.882	3764.92
473.253	3787.97
473.625	3838.59
473.997	3880.84
474.369	3908.87
474.74	3969.66
475.112	4004.46
475.484	4085.58
475.855	4092.59
476.227	4174.4
476.598	4248.07
476.97	4274.05
477.341	4359.7
477.713	4439.02
478.084	4431.79
478.455	4510.88
478.827	4577.78
479.198	4677.21
479.569	4678.11
479.94	4745
480.311	4810.76
480.682	4883.98
481.053	5006.01
481.424	5076.97
481.795	5086.46
482.166	5142.05
482.537	5209.4
482.908	5279.68
483.279	5242.84
483.65	5371.88
484.021	5482.61
484.391	5512.89
484.762	5547.02
485.133	5576.39
485.503	5652.55
485.874	5704.3
486.244	5809.38
486.615	5811.87
486.985	5879.89
487.356	5960.79
487.726	5945.42
488.097	6103.16
488.467	6126.89
488.837	6170.28
489.207	6219.99
489.578	6362.13
489.948	6306.09
490.318	6432.64
490.688	6354
491.058	6530.49
491.428	6537.05
491.798	6579.3
492.168	6631.96
492.538	6673.77
492.908	6656.14
493.278	6789.47
493.648	6787.89
494.017	6839.41
494.387	6902.91
494.757	6886.19
495.126	7006.41
495.496	6913.98
495.866	6964.38
496.235	7034.21
496.605	7062.91
496.974	7089.57
497.344	7125.28
497.713	7143.81
498.082	7191.27
498.452	7226.07
498.821	7252.06
499.19	7262.68
499.559	7298.61
499.928	7300.19
500.298	7310.13
500.667	7386.06
501.036	7357.82
501.405	7428.1
501.774	7385.61
502.143	7459.28
502.512	7460.86
502.88	7519.39
503.249	7524.82
503.618	7520.75
503.987	7546.74
504.356	7570.01
504.724	7600.29
505.093	7616.34
505.462	7585.83
505.83	7620.41
506.199	7749.22
506.567	7782.66
506.936	7733.17
507.304	7836.45
507.672	7827.18
508.041	7848.42
508.409	7836.45
508.777	7925.71
509.145	7905.82
509.514	7933.62
509.882	7947.63
510.25	7996.22
510.618	8022.88
510.986	8058.81
511.354	8127.96
511.722	8189.66
512.09	8164.8
512.458	8172.26
512.826	8241.41
513.193	8248.64
513.561	8214.29
513.929	8279.15
514.297	8316.89
514.664	8406.6
515.032	8343.33
515.4	8408.63
515.767	8399.37
516.135	8499.48
516.502	8364.79
516.869	8520.27
517.237	8506.71
517.604	8534.28
517.972	8602.75
518.339	8634.17
518.706	8587.84
519.073	8659.02
519.44	8637.56
519.808	8722.3
520.175	8707.16
520.542	8814.95
520.909	8824.22
521.276	8758.23
521.643	8818.57
522.009	8845.91
522.376	8974.5
522.743	8962.07
523.11	9047.26
523.477	9087.04
523.843	9068.05
524.21	9180.82
524.577	9191.89
524.943	9233.25
525.31	9251.1
525.676	9343.75
526.043	9328.16
526.409	9383.98
526.776	9473.69
527.142	9438.89
527.508	9464.65
527.874	9553.69
528.241	9569.51
528.607	9621.03
528.973	9745.32
529.339	9681.82
529.705	9727.02
530.071	9832.78
530.437	9824.42
530.803	9866
531.169	9866.9
531.535	9848.15
531.901	9922.49
532.267	9932.44
532.632	10063.73
532.998	10055.37
533.364	10143.05
533.73	10074.13
534.095	10199.77
534.461	10259.89
534.826	10254.69
535.192	10266.67
535.557	10301.24
535.923	10291.52
536.288	10375.14
536.653	10409.49
537.019	10386.44
537.384	10402.48
537.749	10425.53
538.114	10465.76
538.479	10521.35
538.845	10510.95
539.21	10534.91
539.575	10562.02
539.94	10647.22
540.305	10634.11
540.67	10564.51
541.034	10691.06
541.399	10762.02
541.764	10771.06
542.129	10721.57
542.494	10790.72
542.858	10799.76
543.223	10852.41
543.587	10912.3
543.952	10893.32
544.316	10920.66
544.681	10919.98
545.045	10927.44
545.41	10982.35
545.774	11098.96
546.138	11072.29
546.503	11106.42
546.867	11124.04
547.231	11198.17
547.595	11111.39
547.959	11165.85
548.324	11234.1
548.688	11257.6
549.052	11269.12
549.416	11323.36
549.779	11314.77
550.143	11304.6
550.507	11398.16
550.871	11400.87
551.235	11408.56
551.599	11486.52
551.962	11556.12
552.326	11505.95
552.689	11629.79
553.053	11544.6
553.417	11559.51
553.78	11665.95
554.143	11624.14
554.507	11699.17
554.87	11751.6
555.234	11813.97
555.597	11639.74
555.96	11776
556.323	11841.54
556.686	11785.95
557.05	11856.91
557.413	11918.37
557.776	11868.66
558.139	11922.89
558.502	11988.88
558.865	12101.42
559.228	12096.67
559.59	12126.73
559.953	12185.03
560.316	12245.6
560.679	12267.06
561.041	12364.01
561.404	12324.24
561.767	12422.54
562.129	12323.11
562.492	12491.24
562.854	12514.52
563.217	12495.76
563.579	12566.04
563.941	12609.2
564.304	12691.01
564.666	12697.11
565.028	12692.82
565.39	12780.5
565.753	12795.86
566.115	12896.2
566.477	12960.38
566.839	12997.44
567.201	13103.43
567.563	13038.12
567.925	13098.23
568.287	13076.76
568.648	13072.69
569.01	13188.62
569.372	13353.14
569.734	13282.18
570.095	13387.71
570.457	13460.03
570.819	13458.22
571.18	13400.14
571.542	13552.23
571.903	13554.49
572.265	13565.11
572.626	13631.1
572.987	13679.46
573.349	13744.99
573.71	13780.47
574.071	13848.04
574.432	13884.2
574.794	13937.08
575.155	13942.73
575.516	13861.15
575.877	13956.96
576.238	13983.63
576.599	14013.69
576.96	14115.15
577.32	14168.26
577.681	14117.64
578.042	14188.6
578.403	14170.97
578.763	14179.56
579.124	14208.48
579.485	14285.09
579.845	14319.89
580.206	14336.16
580.566	14335.03
580.927	14375.71
581.287	14379.55
581.648	14387.46
582.008	14476.27
582.368	14461.81
582.728	14511.3
583.089	14567.79
583.449	14502.94
583.809	14522.37
584.169	14519.43
584.529	14469.72
584.889	14632.65
585.249	14601.69
585.609	14486.22
585.969	14638.75
586.329	14550.85
586.688	14667.91
587.048	14612.77
587.408	14649.15
587.768	14636.95
588.127	14670.84
588.487	14596.72
588.846	14774.8
589.206	14652.09
589.565	14681.01
589.925	14699.77
590.284	14763.27
590.643	14747.45
591.003	14764.85
591.362	14808.47
591.721	14719.2
592.08	14770.5
592.44	14863.38
592.799	14789.48
593.158	14746.55
593.517	14836.26
593.876	14881.01
594.235	14763.95
594.593	14771.86
594.952	14824.06
595.311	14802.37
595.67	14802.37
596.029	14930.27
596.387	14968.91
596.746	14991.96
597.104	14846.66
597.463	14891.4
597.822	14926.88
598.18	14954.45
598.538	14893.44
598.897	14997.39
599.255	14871.74
599.613	15062.7
599.972	15008.01
600.33	15004.39
600.688	14962.36
601.046	15068.35
601.404	15150.15
601.762	15031.51
602.12	15116.03
602.478	15117.38
602.836	15105.86
603.194	15001
603.552	15080.78
603.91	15010.5
604.268	15127.33
604.625	15134.56
604.983	15190.83
605.341	15126.42
605.698	15216.14
606.056	15148.12
606.413	15221.79
606.771	15289.36
607.128	15269.02
607.485	15144.95
607.843	15221.79
608.2	15399.41
608.557	15392.86
608.914	15313.99
609.272	15419.3
609.629	15356.25
609.986	15496.58
610.343	15339.75
610.7	15529.58
611.057	15461.78
611.414	15462.01
611.771	15445.29
612.127	15501.1
612.484	15501.33
612.841	15481.44
613.198	15466.53
613.554	15572.51
613.911	15567.09
614.267	15551.5
614.624	15532.97
614.98	15611.84
615.337	15692.51
615.693	15607.77
616.05	15630.37
616.406	15749.23
616.762	15654.55
617.118	15660.87
617.475	15667.2
617.831	15760.76
618.187	15758.05
618.543	15756.92
618.899	15900.42
619.255	15854.09
619.611	15854.09
619.967	15907.65
620.323	15845.28
620.678	15890.02
621.034	15824.71
621.39	15877.14
621.746	15812.51
622.101	16037.81
622.457	15946.29
622.812	15941.54
623.168	16025.16
623.523	15970.7
623.879	16026.51
624.234	15945.84
624.589	16086.85
624.945	16044.37
625.3	16080.98
625.655	16089.34
626.01	15993.97
626.365	16078.26
626.72	15991.26
627.075	16110.35
627.43	16082.11
627.785	16149
628.14	16044.37
628.495	16168.66
628.85	16109.9
629.205	16026.29
629.559	16308.31
629.914	16236.9
630.269	16225.38
630.623	16160.52
630.978	16116.45
631.332	16140.86
631.687	16334.3
632.041	16244.59
632.396	16360.97
632.75	16221.08
633.104	16302.66
633.459	16190.35
633.813	16202.1
634.167	16296.34
634.521	16246.62
634.875	16237.81
635.229	16297.92
635.583	16284.13
635.937	16248.43
636.291	16249.11
636.645	16297.01
636.999	16321.65
637.352	16308.99
637.706	16191.03
638.06	16388.76
638.413	16349.22
638.767	16235.1
639.121	16275.09
639.474	16212.95
639.828	16219.73
640.181	16280.07
640.534	16386.05
640.888	16269.9
641.241	16239.62
641.594	16241.2
641.947	16327.97
642.301	16224.7
642.654	16268.77
643.007	16312.83
643.36	16418.37
643.713	16344.47
644.066	16542.66
644.419	16348.99
644.771	16214.98
645.124	16125.27
645.477	16076.46
645.83	15916.46
646.182	15995.33
646.535	16002.33
646.888	16162.33
647.24	16048.89
647.593	16246.62
647.945	16101.54
648.298	16065.38
648.65	16066.29
649.002	15999.17
649.355	16132.95
649.707	16030.81
650.059	16093.4
650.411	16421.53
650.763	16338.14
651.115	16659.49
651.467	16559.15
651.819	16559.61
652.171	16649.55
652.523	16661.3
652.875	16624.69
653.227	16529.55
653.578	16751.24
653.93	16632.37
654.282	16647.51
654.633	16678.25
654.985	16715.08
655.337	16712.37
655.688	16713.28
656.039	16719.15
656.391	16610
656.742	16772.93
657.094	16684.8
657.445	16750.34
657.796	16762.99
658.147	16767.51
658.498	16794.4
658.849	16813.16
659.2	16675.76
659.551	16746.49
659.902	16789.88
660.253	16788.53
660.604	16835.53
660.955	16756.21
661.306	16852.71
661.656	16797.11
662.007	16817.45
662.358	16755.31
662.708	16843.22
663.059	16815.42
663.409	16714.63
663.76	16888.86
664.11	16842.09
664.461	16906.04
664.811	16873.5
665.161	16866.94
665.511	16917.34
665.862	16835.53
666.212	16858.81
666.562	16832.82
666.912	16871.69
667.262	16822.42
667.612	16856.1
667.962	16849.32
668.312	16770
668.662	16862.42
669.011	16868.53
669.361	16731.13
669.711	16778.81
670.06	16769.32
670.41	16745.59
670.76	16655.42
671.109	16750.11
671.459	16555.31
671.808	16584.69
672.157	16635.09
672.507	16462.66
672.856	16572.04
673.205	16553.05
673.554	16487.52
673.904	16504.69
674.253	16587.4
674.602	16446.84
674.951	16211.59
675.3	16072.39
675.649	16464.24
675.998	16268.32
676.346	16350.12
676.695	16339.5
677.044	16194.19
677.393	16257.02
677.741	16177.7
678.09	16205.49
678.438	16185.61
678.787	16189
679.135	16144.02
679.484	16042.11
679.832	16101.77
680.181	15948.78
680.529	15990.36
680.877	15944.03
681.225	15980.87
681.573	15979.06
681.922	15958.72
682.27	15852.51
682.618	15873.52
682.966	15812.96
683.314	15819.29
683.661	15764.6
684.009	15764.6
684.357	15599.86
684.705	15603.93
685.053	15607.99
685.4	15666.3
685.748	15523.02
686.095	15605.73
686.443	15486.41
686.79	15350.37
687.138	15478.05
687.485	15491.39
687.832	15401.9
688.18	15385.4
688.527	15341.79
688.874	15425.4
689.221	15298.4
689.568	15340.2
689.915	15300.21
690.262	15226.76
690.609	15266.53
690.956	15224.05
691.303	15216.59
691.65	15073.77
691.997	15064.96
692.344	15011.63
692.69	15049.59
693.037	15083.26
693.383	14924.17
693.73	15004.17
694.077	14881.68
694.423	14889.82
694.769	14894.11
695.116	14848.69
695.462	14756.04
695.808	14874.91
696.155	14885.75
696.501	14700.45
696.847	14793.33
697.193	14742.71
697.539	14810.73
697.885	14680.33
698.231	14667
698.577	14624.74
698.923	14582.71
699.269	14634.23
699.614	14500.68
699.96	14473.79
700.306	14499.55
700.651	14485.09
700.997	14440.34
701.342	14497.29
701.688	14480.79
702.033	14455.48
702.379	14364.86
702.724	14327.12
703.069	14428.36
703.415	14231.08
703.76	14229.5
704.105	14365.09
704.45	14281.7
704.795	14165.09
705.14	14305.43
705.485	14170.74
705.83	14230.18
706.175	14135.72
706.52	14135.04
706.865	14080.12
707.209	14149.73
707.554	14062.27
707.899	14002.16
708.243	14062.95
708.588	14026.11
708.932	14019.33
709.277	14008.26
709.621	14025.44
709.966	13867.02
710.31	13903.18
710.654	13957.42
710.998	13852.11
711.342	13938.88
711.687	13938.88
712.031	13898.66
712.375	13785.44
712.719	13820.47
713.063	13822.05
713.407	13872.45
713.75	13831.09
714.094	13780.7
714.438	13777.99
714.782	13790.19
715.125	13797.87
715.469	13721.26
715.812	13724.65
716.156	13683.07
716.499	13768.49
716.843	13745.44
717.186	13643.07
717.53	13794.26
717.873	13728.49
718.216	13766.46
718.559	13690.3
718.902	13598.55
719.246	13710.19
719.589	13603.98
719.932	13614.15
720.275	13618.44
720.617	13556.75
720.96	13626.35
721.303	13593.36
721.646	13613.24
721.989	13489.18
722.331	13581.61
722.674	13497.77
723.016	13483.53
723.359	13508.16
723.701	13571.44
724.044	13496.64
724.386	13453.02
724.729	13554.94
725.071	13534.83
725.413	13435.17
725.755	13545.67
726.097	13379.35
726.439	13358.79
726.782	13434.72
727.124	13481.5
727.465	13356.98
727.807	13436.75
728.149	13458.67
728.491	13339.58
728.833	13515.62
729.175	13318.34
729.516	13447.37
729.858	13391.55
730.199	13512.46
730.541	13374.15
730.882	13404.44
731.224	13446.69
731.565	13439.46
731.906	13364.89
732.248	13460.03
732.589	13421.16
732.93	13426.58
733.271	13425.68
733.612	13490.54
733.953	13416.41
734.294	13447.82
734.635	13458.9
734.976	13430.42
735.317	13457.32
735.658	13511.55
735.999	13513.36
736.339	13455.96
736.68	13498.44
737.021	13489.86
737.361	13512
737.702	13544.09
738.042	13544.32
738.383	13551.78
738.723	13628.61
739.063	13588.84
739.404	13713.13
739.744	13732.11
740.084	13666.12
740.424	13697.76
740.764	13597.2
741.104	13723.98
741.444	13719.46
741.784	13729.62
742.124	13793.8
742.464	13704.77
742.804	13908.15
743.143	13835.61
743.483	13821.6
743.823	13797.87
744.162	13886
744.502	13968.71
744.841	13937.53
745.181	14012.1
745.52	14027.24
745.86	13988.6
746.199	14067.24
746.538	14065.66
746.877	14160.35
747.216	14138.65
747.556	14144.98
747.895	14192.44
748.234	14234.7
748.573	14219.56
748.911	14241.25
749.25	14268.82
749.589	14308.37
749.928	14322.83
750.267	14323.06
750.605	14415.93
750.944	14406.44
751.283	14351.08
751.621	14458.87
751.96	14461.58
752.298	14547.68
752.636	14500.68
752.975	14433.56
753.313	14486.67
753.651	14606.44
753.989	14530.51
754.327	14501.13
754.666	14554.91
755.004	14672.65
755.342	14728.02
755.679	14631.07
756.017	14665.65
756.355	14690.96
756.693	14687.57
757.031	14852.99
757.368	14763.5
757.706	14760.56
758.044	14791.74
758.381	14867.67
758.719	14823.38
759.056	14861.8
759.394	14904.28
759.731	14838.3
760.068	14900.89
760.405	14881.68
760.743	14903.83
761.08	14999.2
761.417	14959.65
761.754	14931.85
762.091	14921.46
762.428	14956.94
762.765	14889.82
763.102	14984.06
763.438	15004.39
763.775	14977.05
764.112	14944.96
764.449	15046.43
764.785	15074.9
765.122	14992.19
765.458	14977.73
765.795	15091.62
766.131	15057.95
766.467	15043.49
766.804	15001.46
767.14	15041.23
767.476	15037.84
767.812	14956.26
768.148	15085.52
768.485	14986.77
768.821	14938.86
769.157	14992.87
769.492	15018.63
769.828	15071.51
770.164	14882.14
770.5	14964.17
770.836	15003.26
771.171	14948.58
771.507	14988.57
771.842	14901.57
772.178	15028.35
772.513	14924.4
772.849	14964.39
773.184	14888.01
773.519	14983.6
773.855	14915.81
774.19	14890.05
774.525	14937.28
774.86	14973.21
775.195	14999.2
775.53	14926.43
775.865	14764.63
776.2	14801.46
776.535	14648.92
776.87	14749.03
777.205	14812.76
777.539	14811.63
777.874	14824.96
778.209	14765.53
778.543	14709.49
778.878	14721.69
779.212	14736.15
779.547	14703.84
779.881	14711.29
780.215	14655.7
780.55	14698.86
780.884	14679.66
781.218	14653.22
781.552	14630.62
781.886	14603.05
782.22	14467.23
782.554	14494.58
782.888	14484.41
783.222	14446.67
783.556	14404.18
783.889	14467.68
784.223	14415.48
784.557	14411.19
784.89	14464.97
785.224	14374.13
785.557	14349.04
785.891	14352.43
786.224	14365.77
786.558	14417.06
786.891	14284.41
787.224	14232.21
787.557	14222.27
787.891	14210.97
788.224	14256.16
788.557	14269.95
788.89	14221.82
789.223	14238.31
789.556	14246
789.888	14087.13
790.221	14119.9
790.554	14092.78
790.887	14201.48
791.219	14038.32
791.552	14066.34
791.884	14032.67
792.217	13964.65
792.549	14033.12
792.882	13859.11
793.214	13975.95
793.546	13897.53
793.879	13776.4
794.211	13829.28
794.543	13847.36
794.875	13832.67
795.207	13939.11
795.539	13827.7
795.871	13817.08
796.203	13796.06
796.535	13722.62
796.867	13756.29
797.198	13652.34
797.53	13749.96
797.862	13607.14
798.193	13693.02
798.525	13625.45
798.856	13618.22
799.188	13486.69
799.519	13512.68
799.85	13434.72
800.182	13481.5
800.513	13390.65
800.844	13423.19
801.175	13505.45
801.506	13493.47
801.837	13403.31
802.168	13275.63
802.499	13316.98
802.83	13253.03
803.161	13283.31
803.491	13252.58
803.822	13293.25
804.153	13279.24
804.483	13271.33
804.814	13124.22
805.145	13132.58
805.475	13170.09
805.805	13099.36
806.136	13117.44
806.466	13126.02
806.796	13059.59
807.126	12982.53
807.457	12992.24
807.787	13081.51
808.117	12919.93
808.447	12920.61
808.777	12946.59
809.107	12893.04
809.436	12882.87
809.766	12837.67
810.096	12833.6
810.426	12805.81
810.755	12821.4
811.085	12787.28
811.414	12787.73
811.744	12741.85
812.073	12614.17
812.403	12627.05
812.732	12608.3
813.061	12715.41
813.39	12570.56
813.719	12516.78
814.049	12615.98
814.378	12589.54
814.707	12541.41
815.036	12581.86
815.365	12404.69
815.693	12425.48
816.022	12353.62
816.351	12324.24
816.68	12357.23
817.008	12399.94
817.337	12218.48
817.665	12266.84
817.994	12322.66
818.322	12339.6
818.651	12228.2
818.979	12195.2
819.307	12202.89
819.636	12183.22
819.964	12160.17
820.292	12200.63
820.62	12083.57
820.948	12140.29
821.276	12156.78
821.604	12183.45
821.932	12097.35
822.259	12178.71
822.587	12214.18
822.915	12125.83
823.243	12161.3
823.57	12108.42
823.898	12194.3
824.225	12185.94
824.553	12065.94
824.88	12111.59
825.207	12142.77
825.535	12185.26
825.862	12232.94
826.189	12148.2
826.516	12277.23
826.843	12290.34
827.17	12261.87
827.497	12363.79
827.824	12329.21
828.151	12289.21
828.478	12318.59
828.805	12316.78
829.131	12257.57
829.458	12260.06
829.785	12240.85
830.111	12207.41
830.438	12351.81
830.764	12264.8
831.09	12360.4
831.417	12302.09
831.743	12292.83
832.069	12253.05
832.395	12276.33
832.722	12235.88
833.048	12283.11
833.374	12252.15
833.7	12232.04
834.026	12206.5
834.351	12249.21
834.677	12198.14
835.003	12267.06
835.329	12245.14
835.654	12243.56
835.98	12139.38
836.306	12125.6
836.631	12207.18
836.956	12183
837.282	12229.55
837.607	12191.13
837.932	12148.65
838.258	12112.27
838.583	12050.12
838.908	12068.2
839.233	12113.62
839.558	12065.04
839.883	12037.47
840.208	11980.29
840.533	11989.78
840.858	12004.25
841.182	11993.4
841.507	11973.06
841.832	11970.58
842.156	11914.53
842.481	11963.8
842.805	11789.56
843.13	11780.52
843.454	11846.51
843.778	11801.31
844.103	11747.53
844.427	11765.38
844.751	11747.53
845.075	11741.43
845.399	11688.32
845.723	11690.81
846.047	11660.98
846.371	11623.01
846.695	11510.47
847.019	11537.59
847.343	11411.04
847.666	11368.33
847.99	11397.71
848.313	11300.31
848.637	11212.18
848.96	11247.66
849.284	11243.59
849.607	11161.78
849.931	11158.62
850.254	11092.18
850.577	11047.44
850.9	10940.55
851.223	10958.62
851.546	10921.34
851.869	10744.84
852.192	10943.94
852.515	10759.53
852.838	10705.3
853.161	10752.53
853.483	10730.61
853.806	10703.72
854.129	10631.85
854.451	10559.09
854.774	10557.96
855.096	10527.22
855.419	10489.48
855.741	10490.61
856.063	10428.92
856.385	10342.82
856.708	10334.69
857.03	10297.4
857.352	10403.61
857.674	10269.38
857.996	10313.9
858.318	10178.31
858.64	10228.7
858.961	10146.44
859.283	10132.21
859.605	10080.91
859.926	10120
860.248	10101.92
860.57	10037.52
860.891	9997.97
861.212	9985.09
861.534	10036.39
861.855	9909.84
862.176	9942.38
862.498	9945.77
862.819	9962.49
863.14	9890.86
863.461	9896.28
863.782	9924.53
864.103	9824.19
864.424	9803.17
864.745	9845.66
865.065	9787.36
865.386	9756.62
865.707	9795.27
866.027	9765.66
866.348	9712.56
866.668	9701.71
866.989	9754.81
867.309	9679.11
867.63	9706.23
867.95	9711.2
868.27	9602.95
868.59	9619.22
868.91	9692.22
869.23	9681.14
869.55	9564.54
869.87	9644.99
870.19	9583.75
870.51	9576.29
870.83	9555.72
871.15	9534.71
871.469	9501.04
871.789	9497.19
872.109	9480.47
872.428	9544.42
872.748	9497.65
873.067	9418.78
873.386	9376.52
873.706	9423.3
874.025	9431.88
874.344	9307.59
874.663	9310.31
874.982	9306.01
875.301	9325.45
875.62	9396.41
875.939	9292.23
876.258	9336.52
876.577	9307.59
876.896	9273.02
877.214	9256.3
877.533	9284.09
877.852	9264.43
878.17	9225.56
878.489	9276.63
878.807	9165.9
879.125	9181.04
879.444	9186.92
879.762	9132.23
880.08	9130.65
880.398	9113.02
880.716	9167.71
881.034	9102.4
881.352	9101.72
881.67	9128.62
881.988	8986.02
882.306	9029.41
882.624	9011.78
882.941	8993.7
883.259	8924.55
883.577	8926.36
883.894	8882.07
884.212	8846.36
884.529	8859.7
884.846	8851.56
885.164	8793.26
885.481	8837.32
885.798	8837.1
886.115	8774.05
886.432	8778.57
886.75	8797.55
887.067	8796.2
887.383	8739.25
887.7	8723.43
888.017	8623.54
888.334	8603.88
888.651	8684.11
888.967	8619.48
889.284	8603.88
889.6	8583.32
889.917	8526.6
890.233	8555.07
890.55	8501.74
890.866	8520.72
891.182	8456.09
891.498	8393.95
891.815	8430.56
892.131	8449.54
892.447	8410.67
892.763	8330.9
893.079	8270.56
893.395	8258.58
893.71	8275.98
894.026	8280.28
894.342	8268.53
894.657	8124.35
894.973	8107.17
895.289	8078.93
895.604	8137.91
895.92	8016.78
896.235	8027.63
896.55	8033.96
896.865	7958.7
897.181	7943.11
897.496	7941.53
897.811	7901.08
898.126	7890.68
898.441	7821.76
898.756	7853.85
899.071	7834.41
899.386	7780.4
899.7	7713.74
900.015	7703.12
900.33	7594.87
900.644	7658.6
900.959	7622.44
901.273	7586.96
901.588	7599.84
901.902	7567.98
902.216	7539.28
902.531	7492.05
902.845	7476.68
903.159	7443.46
903.473	7407.98
903.787	7397.81
904.101	7337.48
904.415	7390.58
904.729	7312.84
905.042	7251.6
905.356	7244.82
905.67	7279.4
905.984	7254.54
906.297	7188.55
906.611	7179.29
906.924	7146.97
907.237	7106.75
907.551	7097.93
907.864	7071.04
908.177	7000.08
908.491	7039.63
908.804	7005.51
909.117	7009.12
909.43	6919.63
909.743	6947.43
910.056	6876.47
910.368	6882.35
910.681	6812.07
910.994	6752.41
911.307	6826.98
911.619	6734.55
911.932	6710.6
912.244	6663.82
912.557	6715.12
912.869	6544.5
913.181	6604.16
913.494	6611.85
913.806	6489.59
914.118	6482.36
914.43	6537.05
914.742	6443.94
915.054	6455.69
915.366	6452.08
915.678	6436.26
915.99	6311.06
916.302	6382.25
916.613	6298.63
916.925	6304.06
917.236	6303.61
917.548	6234.45
917.859	6205.53
918.171	6193.33
918.482	6213.21
918.794	6130.5
919.105	6125.76
919.416	6097.74
919.727	6077.62
920.038	6044.4
920.349	5989.49
920.66	5953.78
920.971	5949.26
921.282	5953.33
921.593	5900.23
921.903	5871.3
922.214	5886.22
922.525	5808.93
922.835	5798.99
923.146	5801.47
923.456	5769.38
923.767	5758.08
924.077	5711.3
924.387	5676.05
924.697	5675.6
925.008	5635.37
925.318	5596.05
925.628	5652.1
925.938	5585.43
926.248	5544.76
926.558	5537.3
926.867	5488.49
927.177	5495.04
927.487	5480.35
927.796	5431.31
928.106	5412.1
928.416	5420.92
928.725	5359.45
929.034	5353.57
929.344	5374.14
929.653	5319.9
929.962	5271.77
930.271	5258.21
930.581	5209.85
930.89	5217.08
931.199	5136.18
931.508	5168.72
931.817	5169.85
932.125	5126.01
932.434	5027.48
932.743	5070.64
933.051	5022.74
933.36	5058.67
933.669	4977.09
933.977	4982.28
934.286	4927.6
934.594	4958.1
934.902	4865.9
935.21	4912
935.519	4907.26
935.827	4869.52
936.135	4852.34
936.443	4810.31
936.751	4836.3
937.059	4740.26
937.367	4768.28
937.674	4736.42
937.982	4691.22
938.29	4697.09
938.597	4703.2
938.905	4653.48
939.213	4633.59
939.52	4608.73
939.827	4577.1
940.135	4579.58
940.442	4613.93
940.749	4563.09
941.056	4573.26
941.363	4468.85
941.67	4464.56
941.977	4461.85
942.284	4451.9
942.591	4435.86
942.898	4429.08
943.205	4401.28
943.511	4363.32
943.818	4389.76
944.125	4340.04
944.431	4339.59
944.738	4328.52
945.044	4298.23
945.35	4283.77
945.657	4274.28
945.963	4266.6
946.269	4205.81
946.575	4238.8
946.881	4194.28
947.187	4155.87
947.493	4184.11
947.799	4123.1
948.105	4111.8
948.41	4108.63
948.716	4111.12
949.022	4069.99
949.327	4029.77
949.633	3959.71
949.938	4007.39
950.244	4022.08
950.549	3982.99
950.854	3953.38
951.16	3950.67
951.465	3909.54
951.77	3883.78
952.075	3902.31
952.38	3900.73
952.685	3896.66
952.99	3849.43
953.294	3827.29
953.599	3815.76
953.904	3815.99
954.209	3813.5
954.513	3842.65
954.818	3747.74
955.122	3742.09
955.426	3717.01
955.731	3693.96
956.035	3658.25
956.339	3699.61
956.643	3699.83
956.948	3651.7
957.252	3624.35
957.556	3634.75
957.86	3584.35
958.163	3612.6
958.467	3580.29
958.771	3565.37
959.075	3554.3
959.378	3504.13
959.682	3509.33
959.985	3482.44
960.289	3445.6
960.592	3454.19
960.896	3456.22
961.199	3434.53
961.502	3444.7
961.805	3367.41
962.108	3397.69
962.411	3401.31
962.714	3371.71
963.017	3279.5
963.32	3350.69
963.623	3312.05
963.926	3321.99
964.228	3269.79
964.531	3303.23
964.833	3282.44
965.136	3218.49
965.438	3190.24
965.741	3246.28
966.043	3238.83
966.345	3201.09
966.648	3139.62
966.95	3205.83
967.252	3115.21
967.554	3142.33
967.856	3091.49
968.158	3089.45
968.46	3053.52
968.761	3047.65
969.063	3074.54
969.365	3054.43
969.666	3021.88
969.968	2995.9
970.269	3007.65
970.571	3033.86
970.872	2981.88
971.174	2972.17
971.475	2976.24
971.776	2926.07
972.077	2954.31
972.378	2900.08
972.679	2914.99
972.98	2901.89
973.281	2886.52
973.582	2878.38
973.883	2880.19
974.183	2860.76
974.484	2850.36
974.785	2832.28
975.085	2806.3
975.386	2823.24
975.686	2751.83
975.986	2773.08
976.287	2783.47
976.587	2733.3
976.887	2714.55
977.187	2728.11
977.487	2728.78
977.787	2668.45
978.087	2705.51
978.387	2704.15
978.687	2663.48
978.987	2675.68
979.286	2656.24
979.586	2657.83
979.885	2659.63
980.185	2624.83
980.484	2605.85
980.784	2599.52
981.083	2557.49
981.382	2560.65
981.682	2559.07
981.981	2535.34
982.28	2539.41
982.579	2559.98
982.878	2533.08
983.177	2519.07
983.475	2526.98
983.774	2465.97
984.073	2442.69
984.372	2433.2
984.67	2440.43
984.969	2445.63
985.267	2426.42
985.566	2432.29
985.864	2417.38
986.162	2408.57
986.461	2394.1
986.759	2391.84
987.057	2331.51
987.355	2363.14
987.653	2326.99
987.951	2317.5
988.249	2334.44
988.547	2288.12
988.844	2299.42
989.142	2304.84
989.44	2283.15
989.737	2301.68
990.035	2247.89
990.332	2223.26
990.63	2230.27
990.927	2220.1
991.224	2221
991.521	2235.92
991.819	2183.26
992.116	2172.41
992.413	2178.97
992.71	2156.82
993.006	2176.26
993.303	2143.26
993.6	2109.37
993.897	2130.61
994.193	2122.92
994.49	2105.98
994.787	2126.09
995.083	2091.96
995.379	2068.46
995.676	2053.77
995.972	2055.81
996.268	2057.16
996.565	2056.26
996.861	2036.15
997.157	2037.28
997.453	1994.11
997.749	1982.59
998.044	1982.36
998.34	1966.54
998.636	1964.28
998.932	1936.94
999.227	1968.8
999.523	1916.38
999.818	1936.04
1000.114	1912.99
1000.409	1884.06
1000.704	1904.4
1001	1917.28
1001.295	1889.48
1001.59	1892.87
1001.885	1876.83
1002.18	1859.2
1002.475	1841.58
1002.77	1844.74
1003.065	1816.94
1003.359	1781.69
1003.654	1804.06
1003.949	1804.74
1004.243	1760.9
1004.538	1804.74
1004.832	1749.37
1005.127	1735.59
1005.421	1776.27
1005.715	1739.43
1006.009	1714.12
1006.304	1731.3
1006.598	1694.01
1006.892	1708.47
1007.186	1679.77
1007.48	1669.6
1007.773	1676.16
1008.067	1698.53
1008.361	1611.75
1008.655	1653.56
1008.948	1627.12
1009.242	1625.08
1009.535	1603.62
1009.829	1642.94
1010.122	1582.15
1010.415	1588.48
1010.708	1569.04
1011.001	1571.53
1011.295	1567.46
1011.588	1563.62
1011.881	1545.09
1012.173	1535.14
1012.466	1535.37
1012.759	1510.06
1013.052	1516.39
1013.344	1488.36
1013.637	1489.49
1013.93	1489.04
1014.222	1466.22
1014.514	1461.7
1014.807	1466.9
1015.099	1437.97
1015.391	1435.71
1015.683	1449.04
1015.976	1407.01
1016.268	1416.73
1016.56	1414.02
1016.851	1389.38
1017.143	1414.69
1017.435	1388.93
1017.727	1360.01
1018.018	1378.76
1018.31	1338.31
1018.602	1325.66
1018.893	1329.72
1019.185	1328.37
1019.476	1309.84
1019.767	1322.72
1020.058	1313.91
1020.35	1317.07
1020.641	1302.83
1020.932	1277.3
1021.223	1285.21
1021.514	1266.45
1021.804	1267.35
1022.095	1267.35
1022.386	1225.32
1022.677	1217.86
1022.967	1204.08
1023.258	1236.85
1023.548	1219.45
1023.839	1224.42
1024.129	1208.37
1024.419	1183.29
1024.709	1176.28
1025	1160.01
1025.29	1164.31
1025.58	1156.4
1025.87	1137.87
1026.16	1143.06
1026.449	1156.4
1026.739	1126.11
1027.029	1154.59
1027.319	1099.9
1027.608	1115.95
1027.898	1110.52
1028.187	1086.79
1028.477	1108.71
1028.766	1091.31
1029.055	1041.37
1029.344	1079.11
1029.634	1075.72
1029.923	1062.16
1030.212	1064.65
1030.501	1043.4
1030.79	1033.91
1031.078	1014.7
1031.367	984.2
1031.656	994.59
1031.945	1003.63
1032.233	991.88
1032.522	992.33
1032.81	971.54
1033.099	1005.44
1033.387	983.07
1033.675	948.49
1033.963	929.28
1034.251	928.38
1034.54	965.67
1034.828	943.52
1035.116	935.16
1035.403	943.29
1035.691	932
1035.979	905.78
1036.267	917.76
1036.554	899.23
1036.842	914.82
1037.129	891.77
1037.417	908.95
1037.704	877.08
1037.992	897.42
1038.279	882.28
1038.566	911.43
1038.853	911.43
1039.14	911.43
