Data from blue_shiny_book_FLMS001491_00046.txt Node
Date: Wed Feb 08 15:27:01 GMT 2017
User: dcchb
Spectrometer: FLMS00149
Trigger mode: 0
Integration Time (sec): 2.000000E-2
Scans to average: 10
Electric dark correction enabled: true
Nonlinearity correction enabled: false
Boxcar width: 0
XAxis mode: Wavelengths
Number of Pixels in Spectrum: 2048
>>>>>Begin Spectral Data<<<<<
341.393	-1.21
341.776	-1.21
342.16	-1.21
342.543	-57.03
342.927	-70.14
343.31	-80.31
343.693	-69.01
344.077	-50.93
344.46	-59.74
344.843	-60.2
345.226	-51.16
345.61	-7.77
345.993	-10.03
346.376	-4.15
346.759	-5.73
347.142	12.12
347.525	42.17
347.908	67.94
348.291	86.01
348.674	80.37
349.057	110.42
349.44	141.61
349.823	135.73
350.206	160.81
350.588	196.75
350.971	230.64
351.354	232.68
351.737	218.89
352.119	261.83
352.502	269.96
352.884	284.88
353.267	288.95
353.65	303.41
354.032	313.13
354.414	313.13
354.797	323.97
355.179	342.73
355.562	347.93
355.944	335.95
356.326	346.57
356.709	341.83
357.091	357.19
357.473	342.96
357.855	333.01
358.238	349.06
358.62	353.58
359.002	354.26
359.384	367.36
359.766	341.15
360.148	334.37
360.53	341.15
360.912	354.48
361.294	350.19
361.676	347.48
362.057	355.61
362.439	348.61
362.821	366.23
363.203	356.29
363.584	341.83
363.966	340.7
364.348	346.35
364.729	342.73
365.111	348.61
365.493	332.11
365.874	346.12
366.256	335.5
366.637	356.06
367.019	339.57
367.4	349.74
367.781	361.26
368.163	356.29
368.544	347.48
368.925	329.85
369.306	336.86
369.688	347.02
370.069	333.47
370.45	360.81
370.831	332.79
371.212	353.58
371.593	333.69
371.974	351.09
372.355	356.74
372.736	355.61
373.117	360.58
373.498	352.67
373.879	352.67
374.26	354.48
374.641	345.22
375.021	368.27
375.402	348.61
375.783	363.97
376.163	368.04
376.544	385.44
376.925	366.46
377.305	364.43
377.686	381.37
378.066	369.62
378.447	371.88
378.827	370.08
379.208	376.18
379.588	387.48
379.968	389.96
380.349	390.64
380.729	391.32
381.109	398.77
381.489	409.85
381.87	399.45
382.25	404.65
382.63	421.83
383.01	395.61
383.39	402.84
383.77	406.68
384.15	399.23
384.53	399.68
384.91	410.98
385.29	417.31
385.67	447.36
386.049	437.87
386.429	437.87
386.809	423.18
387.189	437.87
387.568	474.25
387.948	453.91
388.328	477.19
388.707	460.02
389.087	442.16
389.466	467.02
389.846	447.59
390.225	477.64
390.605	457.76
390.984	483.74
391.363	493.69
391.743	505.66
392.122	499.11
392.501	497.98
392.881	495.72
393.26	504.53
393.639	521.03
394.018	520.81
394.397	518.55
394.776	526.68
395.155	552.44
395.534	549.96
395.913	542.05
396.292	576.62
396.671	549.51
397.05	568.26
397.429	576.17
397.808	595.38
398.186	562.39
398.565	572.78
398.944	599
399.323	595.15
399.701	589.5
400.08	587.92
400.458	601.03
400.837	623.4
401.215	634.47
401.594	623.18
401.972	638.99
402.351	651.88
402.729	640.8
403.107	674.93
403.486	657.98
403.864	686.68
404.242	658.88
404.62	702.95
404.999	676.06
405.377	711.76
405.755	708.15
406.133	715.15
406.511	721.7
406.889	734.59
407.267	748.37
407.645	764.41
408.023	756.51
408.401	755.83
408.779	781.36
409.156	792.21
409.534	816.62
409.912	793.11
410.29	827.24
410.667	810.52
411.045	844.64
411.422	857.97
411.8	877.41
412.178	863.85
412.555	889.61
412.933	914.92
413.31	925.77
413.687	925.99
414.065	936.61
414.442	955.14
414.819	956.73
415.197	946.56
415.574	984.97
415.951	995.37
416.328	996.73
416.705	1007.57
417.082	1041.47
417.46	1044.86
417.837	1033.33
418.214	1043.96
418.591	1078.53
418.967	1064.52
419.344	1117.17
419.721	1099.1
420.098	1104.52
420.475	1122.82
420.852	1151.98
421.228	1131.64
421.605	1159.21
421.982	1177.51
422.358	1194.01
422.735	1203.05
423.111	1203.05
423.488	1243.72
423.864	1243.72
424.241	1248.92
424.617	1263.16
424.994	1271.75
425.37	1296.6
425.746	1292.31
426.123	1331.41
426.499	1342.03
426.875	1372.76
427.251	1387.9
427.627	1429.48
428.003	1418.86
428.379	1441.91
428.756	1455.47
429.132	1463.38
429.507	1504.51
429.883	1547.22
430.259	1543.6
430.635	1563.72
431.011	1576.82
431.387	1639.87
431.763	1637.39
432.138	1641
432.514	1668.35
432.89	1700.66
433.265	1744.05
433.641	1747.44
434.016	1742.92
434.392	1763.48
434.767	1818.85
435.143	1815.01
435.518	1859.3
435.894	1881.22
436.269	1891.39
436.644	1957.15
437.02	1958.51
437.395	1957.6
437.77	2032.18
438.145	2055.91
438.52	2052.06
438.895	2075.34
439.271	2074.21
439.646	2147.2
440.021	2150.82
440.395	2125.96
440.77	2151.27
441.145	2202.34
441.52	2222.68
441.895	2258.84
442.27	2268.56
442.645	2270.14
443.019	2322.11
443.394	2322.34
443.769	2314.88
444.143	2309.01
444.518	2351.04
444.892	2344.94
445.267	2385.84
445.641	2401.89
446.016	2401.66
446.39	2464.71
446.764	2493.86
447.139	2498.61
447.513	2518.95
447.887	2547.42
448.262	2552.62
448.636	2537.48
449.01	2600.98
449.384	2578.38
449.758	2632.61
450.132	2649.34
450.506	2659.05
450.88	2708.09
451.254	2737.02
451.628	2781.76
452.002	2783.57
452.376	2832.84
452.75	2894.53
453.123	2900.86
453.497	2934.08
453.871	2934.3
454.244	3019.72
454.618	3040.06
454.992	3064.92
455.365	3058.59
455.739	3174.52
456.112	3186.95
456.486	3203.22
456.859	3261.75
457.232	3307.17
457.606	3278.47
457.979	3374.52
458.352	3464.68
458.725	3512.82
459.099	3518.92
459.472	3623.77
459.845	3621.29
460.218	3649.54
460.591	3668.97
460.964	3712.59
461.337	3771.79
461.71	3848.85
462.083	3908.06
462.456	3899.93
462.829	3932.24
463.201	4059.92
463.574	4064.89
463.947	4073.25
464.32	4231.67
464.692	4262.4
465.065	4268.28
465.438	4313.02
465.81	4383.3
466.183	4386.47
466.555	4535.16
466.928	4586.24
467.3	4566.35
467.672	4657.87
468.045	4747.36
468.417	4799.34
468.789	4858.54
469.161	4941.71
469.534	5025.09
469.906	5169.04
470.278	5131.76
470.65	5247.01
471.022	5288.59
471.394	5409.04
471.766	5461.01
472.138	5505.76
472.51	5586.66
472.882	5706.88
473.253	5758.63
473.625	5838.86
473.997	5998.18
474.369	6008.57
474.74	6138.74
475.112	6247.43
475.484	6352.29
475.855	6442.46
476.227	6485.85
476.598	6663.02
476.97	6756.8
477.341	6922.67
477.713	7021.88
478.084	7041.54
478.455	7231.14
478.827	7252.15
479.198	7452.15
479.569	7474.75
479.94	7693.95
480.311	7827.73
480.682	8048.97
481.053	8199.02
481.424	8325.8
481.795	8387.04
482.166	8598.33
482.537	8652.34
482.908	8834.26
483.279	8887.59
483.65	9130.75
484.021	9250.29
484.391	9377.52
484.762	9410.06
485.133	9613.45
485.503	9593.56
485.874	9932.76
486.244	9963.5
486.615	10257.95
486.985	10375.01
487.356	10582.46
487.726	10632.86
488.097	10879.4
488.467	10917.14
488.837	11146.97
489.207	11292.5
489.578	11419.28
489.948	11550.35
490.318	11727.74
490.688	11789.66
491.058	11975.42
491.428	12145.58
491.798	12313.04
492.168	12616.31
492.538	12682.07
492.908	12707.83
493.278	13009.06
493.648	12979.91
494.017	13246.8
494.387	13279.34
494.757	13423.29
495.126	13628.71
495.496	13651.31
495.866	13820.34
496.235	13911.87
496.605	14072.54
496.974	14190.95
497.344	14311.4
497.713	14323.61
498.082	14477.5
498.452	14611.06
498.821	14717.95
499.19	14875.23
499.559	14998.62
499.928	15023.25
500.298	15143.92
500.667	15263.69
501.036	15390.02
501.405	15572.84
501.774	15615.32
502.143	15805.38
502.512	15797.92
502.88	15994.07
503.249	15928.99
503.618	16032.49
503.987	16233.39
504.356	16357.68
504.724	16546.82
505.093	16542.76
505.462	16650.78
505.83	16745.92
506.199	16862.75
506.567	17099.13
506.936	17186.13
507.304	17438.1
507.672	17345.67
508.041	17482.62
508.409	17661.6
508.777	17851.88
509.145	17867.24
509.514	18050.97
509.882	18151.3
510.25	18199.21
510.618	18339.32
510.986	18409.83
511.354	18640.56
511.722	18819.31
512.09	18976.37
512.458	18945.18
512.826	19018.62
513.193	19186.98
513.561	19275.11
513.929	19502
514.297	19607.99
514.664	19726.85
515.032	19800.52
515.4	20043.23
515.767	20236.45
516.135	20342.88
516.502	20267.63
516.869	20578.36
517.237	20646.15
517.604	20728.64
517.972	20969.08
518.339	21223.54
518.706	21124.33
519.073	21325
519.44	21469.86
519.808	21721.38
520.175	21659.23
520.542	22030.52
520.909	22108.26
521.276	22051.76
521.643	22330.63
522.009	22578.53
522.376	22637.74
522.743	22847.9
523.11	23072.53
523.477	23349.81
523.843	23473.42
524.21	23778.27
524.577	24019.85
524.943	24043.8
525.31	24168.77
525.676	24341.87
526.043	24530.57
526.409	24789.55
526.776	24939.15
527.142	24958.13
527.508	25197.9
527.874	25342.53
528.241	25326.93
528.607	25547.49
528.973	25969.4
529.339	25843.98
529.705	26058.89
530.071	26212.33
530.437	26527.81
530.803	26845.99
531.169	26910.85
531.535	26934.12
531.901	26983.61
532.267	27286.66
532.632	27336.37
532.998	27497.95
533.364	27723.03
533.73	27783.37
534.095	28108.55
534.461	28044.15
534.826	28276.91
535.192	28343.58
535.557	28407.98
535.923	28511.93
536.288	28550.13
536.653	28751.93
537.019	28690.23
537.384	28888.65
537.749	29075.53
538.114	29192.14
538.479	29258.35
538.845	29494.51
539.21	29496.77
539.575	29627.16
539.94	29723.2
540.305	29955.51
540.67	30050.65
541.034	30143.3
541.399	30110.08
541.764	30300.14
542.129	30326.8
542.494	30394.82
542.858	30466.46
543.223	30549.62
543.587	30586.68
543.952	30713.23
544.316	30820.8
544.681	30809.95
545.045	30930.4
545.41	31097.4
545.774	31229.83
546.138	31283.84
546.503	31381.69
546.867	31525.41
547.231	31924.05
547.595	31786.65
547.959	31871.62
548.324	32127.88
548.688	32183.93
549.052	32188.22
549.416	32242.23
549.779	32414.88
550.143	32309.12
550.507	32566.74
550.871	32622.79
551.235	32519.74
551.599	32867.53
551.962	32725.83
552.326	32756.57
552.689	33064.81
553.053	32846.28
553.417	32899.84
553.78	33514.97
554.143	33295.76
554.507	33350.45
554.87	33773.04
555.234	34059.81
555.597	34004.9
555.96	34132.35
556.323	34405.79
556.686	34319.92
557.05	34595.39
557.413	34527.37
557.776	34704.54
558.139	35011.65
558.502	34872.67
558.865	34925.55
559.228	35084.64
559.59	35163.96
559.953	35155.15
560.316	35528.92
560.679	35481.69
561.041	35664.74
561.404	35707.45
561.767	35899.99
562.129	35896.6
562.492	36331.16
562.854	36452.29
563.217	36374.33
563.579	36690.93
563.941	36966.17
564.304	37121.88
564.666	37407.75
565.028	37358.25
565.39	37554.63
565.753	37760.28
566.115	37922.08
566.477	37978.13
566.839	38068.07
567.201	38238.23
567.563	38243.66
567.925	38318.91
568.287	38373.6
568.648	38320.72
569.01	38485.46
569.372	38545.79
569.734	38536.53
570.095	38738.78
570.457	38975.61
570.819	39030.75
571.18	39123.41
571.542	39308.71
571.903	39449.27
572.265	39668.48
572.626	39724.52
572.987	39966.1
573.349	40269.36
573.71	40349.59
574.071	40466.42
574.432	40653.76
574.794	40853.98
575.155	40713.65
575.516	40594.78
575.877	40689.47
576.238	40866.86
576.599	40875.45
576.96	40851.5
577.32	40759.07
577.681	40832.06
578.042	41044.49
578.403	41012.17
578.763	40959.52
579.124	41030.25
579.485	41124.26
579.845	41297.36
580.206	41396.79
580.566	41466.85
580.927	41633.4
581.287	41795.2
581.648	41686.95
582.008	42080.16
582.368	41891.02
582.728	42169.2
583.089	42142.08
583.449	41986.83
583.809	42203.1
584.169	42314.73
584.529	42217.56
584.889	42504.33
585.249	42266.6
585.609	42203.55
585.969	42214.4
586.329	41952.71
586.688	41959.94
587.048	42019.83
587.408	41892.6
587.768	41920.85
588.127	41897.12
588.487	41818.02
588.846	42125.59
589.206	41867.06
589.565	41955.87
589.925	42237.22
590.284	42043.56
590.643	42225.7
591.003	42326.49
591.362	42512.7
591.721	42657.32
592.08	42536.2
592.44	42755.63
592.799	42846.47
593.158	42795.4
593.517	42852.57
593.876	42905.23
594.235	42807.15
594.593	42861.16
594.952	42694.16
595.311	42578.23
595.67	42589.76
596.029	42774.61
596.387	42788.39
596.746	42694.84
597.104	42493.49
597.463	42512.24
597.822	42805.12
598.18	42530.1
598.538	42441.74
598.897	42689.64
599.255	42456.2
599.613	43041.5
599.972	42862.97
600.33	43118.1
600.688	42996.07
601.046	43316.97
601.404	43500.47
601.762	43323.07
602.12	43563.52
602.478	43599.67
602.836	43710.86
603.194	43627.92
603.552	43726
603.91	43558.54
604.268	43625.89
604.625	43359
604.983	43501.14
605.341	43105.67
605.698	43284.65
606.056	43374.59
606.413	43234.48
606.771	43424.08
607.128	43544.76
607.485	43166.24
607.843	43317.42
608.2	43420.92
608.557	43648.26
608.914	43437.19
609.272	43608.26
609.629	43861.59
609.986	44067.68
610.343	43765.32
610.7	44333.66
611.057	44326.66
611.414	44281.01
611.771	44543.38
612.127	44605.52
612.484	44647.78
612.841	44735.91
613.198	44713.77
613.554	44770.49
613.911	44952.41
614.267	44918.51
614.624	44779.98
614.98	44891.16
615.337	45011.61
615.693	44889.13
616.05	44712.86
616.406	44917.83
616.762	44677.16
617.118	44766.87
617.475	44432.65
617.831	44598.06
618.187	44584.28
618.543	44638.52
618.899	45094.32
619.255	44785.18
619.611	44792.86
619.967	45129.12
620.323	45166.41
620.678	45002.12
621.034	45119.41
621.39	45270.36
621.746	45084.38
622.101	45705.83
622.457	45530.47
622.812	45556.46
623.168	45609.11
623.523	45650.01
623.879	45715.55
624.234	45518.49
624.589	45603.24
624.945	45675.78
625.3	45466.52
625.655	45604.59
626.01	45450.02
626.365	45292.51
626.72	45237.14
627.075	45243.7
627.43	45220.65
627.785	45091.16
628.14	45123.93
628.495	45065.4
628.85	44997.38
629.205	44979.07
629.559	45143.59
629.914	44911.95
630.269	44918.73
630.623	44958.96
630.978	44871.05
631.332	45299.29
631.687	45254.77
632.041	45109.92
632.396	45321.44
632.75	45134.1
633.104	45277.82
633.459	45139.52
633.813	45354.88
634.167	45254.77
634.521	45303.58
634.875	45118.5
635.229	45139.52
635.583	44955.57
635.937	44904.05
636.291	44945.85
636.645	44846.87
636.999	44777.27
637.352	44779.75
637.706	44356.26
638.06	44654.33
638.413	44361.01
638.767	44200.56
639.121	43997.85
639.474	43754.02
639.828	43954.24
640.181	43855.03
640.534	43921.02
640.888	43707.01
641.241	43555.61
641.594	43777.07
641.947	43831.08
642.301	43789.95
642.654	43899.78
643.007	43863.17
643.36	43822.49
643.713	43815.94
644.066	44086.21
644.419	43886.44
644.771	43879.67
645.124	43828.14
645.477	43873.34
645.83	43333.47
646.182	43010.99
646.535	42581.17
646.888	42557.21
647.24	42387.5
647.593	42626.14
647.945	42307.96
648.298	42180.73
648.65	42122.65
649.002	42003.56
649.355	42092.59
649.707	42074.52
650.059	42197.9
650.411	42627.72
650.763	42790.65
651.115	43077.65
651.467	42849.64
651.819	42752.01
652.171	42644.44
652.523	42668.17
652.875	42654.16
653.227	42580.49
653.578	42849.64
653.93	42770.32
654.282	42604.9
654.633	42507.5
654.985	42686.02
655.337	42785
655.688	42744.33
656.039	42964.44
656.391	42719.7
656.742	42767.38
657.094	42904.55
657.445	43129.85
657.796	43098.9
658.147	42957.88
658.498	42830.2
658.849	43106.35
659.2	42912.23
659.551	42759.69
659.902	42873.14
660.253	42760.15
660.604	42887.15
660.955	42576.2
661.306	42501.62
661.656	42453.94
662.007	42400.61
662.358	42348.18
662.708	42258.47
663.059	42186.15
663.409	41827.52
663.76	42240.16
664.11	42027.96
664.461	42039.49
664.811	42004.91
665.161	41993.61
665.511	41968.3
665.862	42099.15
666.212	42194.96
666.562	42148.19
666.912	42263.66
667.262	42180.95
667.612	42438.12
667.962	42427.95
668.312	42479.7
668.662	42649.64
669.011	42571.45
669.361	42673.82
669.711	42496.2
670.06	42505.69
670.41	42471.34
670.76	42438.8
671.109	42587.72
671.459	42331.23
671.808	42251.46
672.157	42447.16
672.507	42147.73
672.856	42130.33
673.205	42231.8
673.554	42143.67
673.904	41902.32
674.253	42080.62
674.602	41799.04
674.951	41135.1
675.3	40921.1
675.649	41386.17
675.998	41340.75
676.346	41225.05
676.695	41376.23
677.044	40981.21
677.393	41150.7
677.741	41236.57
678.09	40996.8
678.438	41027.54
678.787	40987.09
679.135	41116.57
679.484	40781.89
679.832	41097.14
680.181	40961.1
680.529	41112.51
680.877	41028.67
681.225	41112.96
681.573	41303.91
681.922	41052.17
682.27	40966.75
682.618	41174.65
682.966	41162
683.314	41059.4
683.661	41041.55
684.009	40875.9
684.357	40832.74
684.705	40733.08
685.053	40694.21
685.4	40563.37
685.748	40308.23
686.095	40194.79
686.443	39986.66
686.79	39872.31
687.138	39895.14
687.485	39789.83
687.832	39559.1
688.18	39446.34
688.527	39324.3
688.874	39192.56
689.221	39017.42
689.568	38998.66
689.915	38714.6
690.262	38745.11
690.609	38562.97
690.956	38483.88
691.303	38553.7
691.65	38377.21
691.997	38282.52
692.344	38113.49
692.69	38181.51
693.037	38150.78
693.383	37986.71
693.73	38221.74
694.077	38099.7
694.423	38117.11
694.769	37890.44
695.116	38000.95
695.462	37879.6
695.808	37762.09
696.155	37832.14
696.501	37628.76
696.847	37624.24
697.193	37456.78
697.539	37445.03
697.885	37257.01
698.231	37203.91
698.577	37134.08
698.923	36995.78
699.269	36705.84
699.614	36403.7
699.96	36276.02
700.306	36229.92
700.651	35951.74
700.997	35835.13
701.342	35786.09
701.688	35559.66
702.033	35436.05
702.379	35378.42
702.724	35165.77
703.069	35341.58
703.415	34786.8
703.76	34810.07
704.105	34709.06
704.45	34812.11
704.795	34674.03
705.14	34448.5
705.485	34345.9
705.83	34296.19
706.175	34546.8
706.52	34394.49
706.865	34286.47
707.209	34272.46
707.554	34342.74
707.899	34380.03
708.243	34167.15
708.588	34179.13
708.932	34112.46
709.277	34210.77
709.621	34077.21
709.966	33944.33
710.31	34198.56
710.654	33818.69
710.998	33875.18
711.342	33955.63
711.687	33857.33
712.031	33665.92
712.375	33430.9
712.719	33479.03
713.063	33301.41
713.407	33410.56
713.75	33018.03
714.094	33050.57
714.438	32771.26
714.782	32898.94
715.125	32670.92
715.469	32673.86
715.812	32381.44
716.156	32132.4
716.499	32211.05
716.843	32158.84
717.186	31869.59
717.53	32150.03
717.873	31809.25
718.216	31938.06
718.559	31709.82
718.902	31506.66
719.246	31616.94
719.589	31665.98
719.932	31709.82
720.275	31550.27
720.617	31752.98
720.96	31675.92
721.303	31826.42
721.646	31929.92
721.989	31776.48
722.331	31876.82
722.674	31733.77
723.016	31930.6
723.359	31829.13
723.701	31691.51
724.044	31559.31
724.386	31482.7
724.729	31686.54
725.071	31636.15
725.413	31678.4
725.755	31760.21
726.097	31562.93
726.439	31424.4
726.782	31410.39
727.124	31406.1
727.465	31225.53
727.807	31124.75
728.149	31084.07
728.491	30857.86
728.833	30969.95
729.175	30892.44
729.516	30693.12
729.858	30713.01
730.199	30904.87
730.541	30727.69
730.882	30557.53
731.224	30727.92
731.565	30411.54
731.906	30319.8
732.248	30560.02
732.589	30446.12
732.93	30311.43
733.271	30315.5
733.612	30418.1
733.953	30416.74
734.294	30458.32
734.635	30276.18
734.976	30411.77
735.317	30259.01
735.658	30367.7
735.999	30590.52
736.339	30445.44
736.68	30514.37
737.021	30501.94
737.361	30305.33
737.702	30671.88
738.042	30600.92
738.383	30650.86
738.723	30732.89
739.063	30523.18
739.404	30679.33
739.744	30586.46
740.084	30626.68
740.424	30673.23
740.764	30710.52
741.104	30673.91
741.444	30560.02
741.784	30476.85
742.124	30622.39
742.464	30532.9
742.804	30565.44
743.143	30503.29
743.483	30501.03
743.823	30327.48
744.162	30192.79
744.502	30342.17
744.841	30109.41
745.181	30239.8
745.52	30111.21
745.86	29947.83
746.199	29858.11
746.538	29955.74
746.877	30122.51
747.216	30205.22
747.556	30147.37
747.895	30003.87
748.234	29945.12
748.573	30015.17
748.911	30036.87
749.25	30076.41
749.589	30060.14
749.928	30130.2
750.267	30124.32
750.605	30116.86
750.944	30112.34
751.283	30101.04
751.621	30287.03
751.96	30173.36
752.298	30504.2
752.636	30520.69
752.975	30493.12
753.313	30350.08
753.651	30539.9
753.989	30482.28
754.327	30487.48
754.666	30421.71
755.004	30617.87
755.342	30629.84
755.679	30740.58
756.017	30604.99
756.355	30724.98
756.693	30437.31
757.031	30557.98
757.368	30402.51
757.706	30518.43
758.044	30487.93
758.381	30453.13
758.719	30402.51
759.056	30515.5
759.394	30515.27
759.731	30117.54
760.068	30310.98
760.405	30160.25
760.743	30059.24
761.08	30141.72
761.417	30020.82
761.754	30063.31
762.091	30022.85
762.428	29889.3
762.765	29724.33
763.102	29930.2
763.438	29730.43
763.775	29619.25
764.112	29758.23
764.449	29640.27
764.785	29567.73
765.122	29597.56
765.458	29451.34
765.795	29535.86
766.131	29607.5
766.467	29565.24
766.804	29457.9
767.14	29428.07
767.476	29415.41
767.812	29442.98
768.148	29444.11
768.485	29251.35
768.821	29361.18
769.157	29271.91
769.492	29194.18
769.828	29281.41
770.164	29005.25
770.5	29054.97
770.836	29030.79
771.171	28918.25
771.507	28866.73
771.842	28824.69
772.178	28771.59
772.513	28721.19
772.849	28647.75
773.184	28450.47
773.519	28392.84
773.855	28307.87
774.19	28207.31
774.525	28066.07
774.86	28061.32
775.195	28017.26
775.53	27965.96
775.865	27764.61
776.2	27740.2
776.535	27480.32
776.87	27411.85
777.205	27219.76
777.539	27028.36
777.874	27109.26
778.209	26943.16
778.543	26878.98
778.878	26640.8
779.212	26759.44
779.547	26549.95
779.881	26600.35
780.215	26340.69
780.55	26526.45
780.884	26307.25
781.218	26337.3
781.552	26175.05
781.886	25979.35
782.22	25780.25
782.554	25811.89
782.888	25549.75
783.222	25544.33
783.556	25469.98
783.889	25434.05
784.223	25175.98
784.557	25218.91
784.89	25273.83
785.224	25031.35
785.557	24999.03
785.891	25106.83
786.224	24952.25
786.558	25047.62
786.891	24776.66
787.224	24777.79
787.557	24680.62
787.891	24797
788.224	24578.93
788.557	24609.21
788.89	24618.25
789.223	24565.37
789.556	24509.33
789.888	24316.34
790.221	24276.11
790.554	24131.71
790.887	24217.36
791.219	24120.41
791.552	23921.09
791.884	23786.18
792.217	23740.99
792.549	23532.4
792.882	23489.69
793.214	23367.21
793.546	23519.3
793.879	23267.78
794.211	23073.88
794.543	23197.95
794.875	23158.18
795.207	23075.47
795.539	22798.41
795.871	22765.87
796.203	22514.8
796.535	22398.42
796.867	22316.16
797.198	22308.48
797.53	22230.74
797.862	22254.47
798.193	22232.1
798.525	21996.4
798.856	22039.56
799.188	21895.84
799.519	21836.86
799.85	21748.95
800.182	21760.7
800.513	21823.07
800.844	21570.42
801.175	21724.09
801.506	21701.49
801.837	21648.16
802.168	21513.7
802.499	21447.26
802.83	21320.48
803.161	21298.79
803.491	21318.9
803.822	21159.13
804.153	21174.05
804.483	21094.73
804.814	21016.76
805.145	20973.15
805.475	21009.53
805.805	20897.22
806.136	20916.2
806.466	20986.03
806.796	20996.43
807.126	20774.51
807.457	20708.07
807.787	20796.43
808.117	20606.83
808.447	20590.11
808.777	20610.9
809.107	20464.46
809.436	20441.64
809.766	20435.76
810.096	20325.71
810.426	20366.16
810.755	20185.6
811.085	20231.25
811.414	20057.69
811.744	19894.53
812.073	20010.69
812.403	19967.53
812.732	19648.44
813.061	19727.08
813.39	19570.02
813.719	19472.4
814.049	19598.72
814.378	19471.27
814.707	19341.33
815.036	19303.59
815.365	19233.76
815.693	19072.41
816.022	19094.78
816.351	18963.48
816.68	18899.98
817.008	19016.14
817.337	18940.43
817.665	18859.08
817.994	18817.73
818.322	18727.11
818.651	18686.2
818.979	18684.62
819.307	18778.63
819.636	18703.83
819.964	18568.24
820.292	18600.33
820.62	18562.82
820.948	18533.89
821.276	18640.33
821.604	18524.4
821.932	18662.48
822.259	18610.5
822.587	18579.99
822.915	18573.44
823.243	18718.97
823.57	18638.97
823.898	18734.56
824.225	18676.49
824.553	18642.14
824.88	18732.3
825.207	18826.54
825.535	18731.17
825.862	18801.91
826.189	18604.4
826.516	18829.25
826.843	18800.32
827.17	18744.96
827.497	18825.41
827.824	18752.42
828.151	18856.37
828.478	18814.56
828.805	18798.07
829.131	18651.4
829.458	18759.65
829.785	18627.67
830.111	18696.37
830.438	18804.39
830.764	18633.78
831.09	18620.67
831.417	18493.89
831.743	18605.53
832.069	18617.73
832.395	18516.94
832.722	18465.42
833.048	18431.52
833.374	18422.26
833.7	18217.29
834.026	18276.27
834.351	18300.9
834.677	18188.14
835.003	18399.43
835.329	18335.03
835.654	18259.32
835.98	18140.91
836.306	18100.46
836.631	17932.78
836.956	18082.6
837.282	18079.67
837.607	17916.28
837.932	17922.38
838.258	17942.72
838.583	17830.86
838.908	17832.89
839.233	17863.63
839.558	17813.23
839.883	17769.84
840.208	17669.96
840.533	17749.73
840.858	17702.95
841.182	17844.64
841.507	17725.78
841.832	17616.4
842.156	17609.17
842.481	17657.53
842.805	17721.26
843.13	17500.47
843.454	17528.95
843.778	17479
844.103	17533.92
844.427	17469.29
844.751	17432
845.075	17516.97
845.399	17455.73
845.723	17426.35
846.047	17377.99
846.371	17208.5
846.695	17287.14
847.019	17069.97
847.343	16967.83
847.666	16860.71
847.99	16816.2
848.313	16799.25
848.637	16738.46
848.96	16726.48
849.284	16612.36
849.607	16423.89
849.931	16469.54
850.254	16219.83
850.577	16284.46
850.9	16037.46
851.223	16111.13
851.546	16026.16
851.869	15868.42
852.192	15940.97
852.515	15824.58
852.838	15674.31
853.161	15595.66
853.483	15630.24
853.806	15496
854.129	15511.6
854.451	15411.71
854.774	15227.76
855.096	15316.35
855.419	15233.86
855.741	15212.4
856.063	15042.91
856.385	14991.84
856.708	14917.94
857.03	14872.52
857.352	14910.48
857.674	14868.9
857.996	14802.24
858.318	14768.57
858.64	14792.97
858.961	14741.22
859.283	14716.14
859.605	14657.16
859.926	14591.85
860.248	14601.11
860.57	14535.13
860.891	14575.13
861.212	14545.07
861.534	14520.44
861.855	14353.66
862.176	14451.51
862.498	14465.75
862.819	14436.6
863.14	14383.27
863.461	14378.97
863.782	14329.26
864.103	14353.89
864.424	14302.82
864.745	14426.88
865.065	14336.94
865.386	14297.39
865.707	14301.46
866.027	14329.03
866.348	14299.65
866.668	14306.66
866.989	14214.91
867.309	14145.31
867.63	14112.54
867.95	14188.47
868.27	14074.12
868.59	14143.95
868.91	14099.88
869.23	14008.13
869.55	13936.72
869.87	14035.48
870.19	13948.02
870.51	13876.61
870.83	13905.31
871.15	13883.84
871.469	13865.09
871.789	13903.73
872.109	13785.99
872.428	13677.75
872.748	13706
873.067	13684.3
873.386	13607.69
873.706	13665.77
874.025	13568.15
874.344	13496.74
874.663	13535.6
874.982	13480.46
875.301	13348.94
875.62	13322.28
875.939	13237.08
876.258	13237.08
876.577	13269.4
876.896	13174.03
877.214	13164.31
877.533	13184.65
877.852	13121.38
878.17	13149.85
878.489	13089.51
878.807	13078.22
879.125	13118.44
879.444	13057.43
879.762	13017.65
880.08	13087.03
880.398	12895.4
880.716	12927.48
881.034	12938.78
881.352	12963.87
881.67	12869.63
881.988	12830.76
882.306	12800.03
882.624	12780.14
882.941	12752.35
883.259	12761.84
883.577	12840.26
883.894	12802.97
884.212	12736.76
884.529	12759.58
884.846	12696.3
885.164	12800.48
885.481	12712.12
885.798	12782.63
886.115	12595.52
886.432	12672.58
886.75	12596.65
887.067	12644.78
887.383	12582.86
887.7	12661.05
888.017	12529.76
888.334	12511.9
888.651	12531.56
888.967	12460.15
889.284	12484.78
889.6	12423.54
889.917	12320.27
890.233	12368.18
890.55	12282.53
890.866	12271.68
891.182	12181.97
891.498	12216.77
891.815	12138.35
892.131	12124.34
892.447	12022.65
892.763	12019.49
893.079	11973.16
893.395	11895.87
893.71	11842.54
894.026	11780.85
894.342	11736.33
894.657	11678.93
894.973	11729.55
895.289	11632.6
895.604	11591.25
895.92	11472.61
896.235	11447.3
896.55	11415.21
896.865	11365.72
897.181	11305.38
897.496	11353.74
897.811	11272.16
898.126	11180.64
898.441	11142.45
898.756	11068.1
899.071	11005.95
899.386	11080.98
899.7	11045.5
900.015	10891.61
900.33	10846.86
900.644	10842.79
900.959	10870.82
901.273	10798.73
901.588	10781.1
901.902	10704.49
902.216	10682.35
902.531	10666.75
902.845	10649.8
903.159	10520.32
903.473	10580.65
903.787	10511.05
904.101	10452.07
904.415	10402.35
904.729	10386.99
905.042	10300.66
905.356	10295.01
905.67	10317.16
905.984	10281
906.297	10301.57
906.611	10215.24
906.924	10297.5
907.237	10248.23
907.551	10214.11
907.864	10120.33
908.177	10083.49
908.491	10116.03
908.804	10100.89
909.117	10009.82
909.43	9852.31
909.743	9935.47
910.056	9916.26
910.368	9858.87
910.681	9817.51
910.994	9772.31
911.307	9774.8
911.619	9729.15
911.932	9782.71
912.244	9684.41
912.557	9697.51
912.869	9603.05
913.181	9603.05
913.494	9488.25
913.806	9404.64
914.118	9474.92
914.43	9384.75
914.742	9334.81
915.054	9233.8
915.366	9300.91
915.678	9214.14
915.99	9166.68
916.302	9092.78
916.613	9066.8
916.925	9073.12
917.236	9050.3
917.548	8968.27
917.859	8907.03
918.171	8881.49
918.482	8820.7
918.794	8837.2
919.105	8747.71
919.416	8633.36
919.727	8670.65
920.038	8635.62
920.349	8576.86
920.66	8515.4
920.971	8418
921.282	8471.1
921.593	8373.25
921.903	8356.53
922.214	8290.54
922.525	8296.65
922.835	8250.32
923.146	8168.51
923.456	8171
923.767	8085.13
924.077	8075.64
924.387	8106.37
924.697	8008.52
925.008	7964.23
925.318	7975.52
925.628	7893.27
925.938	7880.84
926.248	7834.96
926.558	7863.44
926.867	7761.52
927.177	7787.73
927.487	7725.59
927.796	7666.38
928.106	7679.71
928.416	7597.23
928.725	7655.76
929.034	7545.71
929.344	7650.56
929.653	7567.17
929.962	7508.42
930.271	7441.53
930.581	7539.83
930.89	7442.66
931.199	7391.36
931.508	7439.95
931.817	7442.66
932.125	7345.48
932.434	7377.8
932.743	7272.72
933.051	7200.18
933.36	7222.32
933.669	7169.9
933.977	7206.28
934.286	7159.05
934.594	7129.9
934.902	7096.23
935.21	7103.01
935.519	7114.08
935.827	7054.87
936.135	7040.18
936.443	6944.37
936.751	6951.37
937.059	6897.14
937.367	6907.53
937.674	6929.22
937.982	6846.29
938.29	6811.04
938.597	6807.42
938.905	6712.73
939.213	6702.34
939.52	6583.24
939.827	6640.87
940.135	6609.91
940.442	6568.1
940.749	6508.9
941.056	6444.94
941.363	6425.73
941.67	6473.19
941.977	6401.1
942.284	6319.3
942.591	6330.82
942.898	6213.54
943.205	6279.3
943.511	6209.47
943.818	6193.88
944.125	6149.58
944.431	6115.91
944.738	6108
945.044	6017.61
945.35	6030.27
945.657	5970.61
945.963	6050.15
946.269	5958.63
946.575	5974
946.881	5882.47
947.187	5896.03
947.493	5868.24
947.799	5848.8
948.105	5812.64
948.41	5803.15
948.716	5787.33
949.022	5771.74
949.327	5724.51
949.633	5596.15
949.938	5601.8
950.244	5654.23
950.549	5552.09
950.854	5565.87
951.16	5545.98
951.465	5479.55
951.77	5456.49
952.075	5457.17
952.38	5472.31
952.685	5494.46
952.99	5422.37
953.294	5440.45
953.599	5404.52
953.904	5333.33
954.209	5381.92
954.513	5321.13
954.818	5357.74
955.122	5366.1
955.426	5310.51
955.731	5302.6
956.035	5273.9
956.339	5275.26
956.643	5258.99
956.948	5275.03
957.252	5229.38
957.556	5181.47
957.86	5126.33
958.163	5138.54
958.467	5085.88
958.771	5087.92
959.075	5089.95
959.378	5056.05
959.682	5044.3
959.985	5016.05
960.289	4995.94
960.592	4979.22
960.896	4928.83
961.199	4926.57
961.502	4931.31
961.805	4910.97
962.108	4850.18
962.411	4887.92
962.714	4810.18
963.017	4812.9
963.32	4802.73
963.623	4780.13
963.926	4730.41
964.228	4766.12
964.531	4708.04
964.833	4635.73
965.136	4600.25
965.438	4595.95
965.741	4522.51
966.043	4531.77
966.345	4548.72
966.648	4525.22
966.95	4496.52
967.252	4426.92
967.554	4453.58
967.856	4430.31
968.158	4315.73
968.46	4424.43
968.761	4320.71
969.063	4317.09
969.365	4327.94
969.666	4279.8
969.968	4244.1
970.269	4247.71
970.571	4195.74
970.872	4202.74
971.174	4176.75
971.475	4184.89
971.776	4163.87
972.077	4138.56
972.378	4133.82
972.679	4119.81
972.98	4055.63
973.281	4085.23
973.582	4022.86
973.883	4005.46
974.183	4039.36
974.484	3976.53
974.785	3970.43
975.085	3958.46
975.386	3981.96
975.686	3946.93
975.986	3888.4
976.287	3896.54
976.587	3875.75
976.887	3821.06
977.187	3828.06
977.487	3831
977.787	3806.82
978.087	3787.84
978.387	3771.57
978.687	3770.44
978.987	3767.05
979.286	3776.77
979.586	3736.09
979.885	3774.51
980.185	3700.83
980.484	3672.59
980.784	3630.33
981.083	3639.37
981.382	3638.92
981.682	3636.88
981.981	3634.17
982.28	3565.02
982.579	3590.78
982.878	3619.71
983.177	3557.11
983.475	3571.8
983.774	3548.97
984.073	3544.23
984.372	3494.29
984.67	3484.57
984.969	3466.72
985.267	3464.46
985.566	3466.04
985.864	3431.46
986.162	3459.26
986.461	3385.36
986.759	3428.07
987.057	3408.87
987.355	3364.8
987.653	3351.24
987.951	3342.88
988.249	3325.7
988.547	3321.18
988.844	3302.65
989.142	3265.37
989.44	3314.63
989.737	3231.69
990.035	3229.21
990.332	3186.95
990.63	3185.14
990.927	3167.97
991.224	3174.75
991.521	3129.55
991.819	3132.49
992.116	3074.18
992.413	3060.17
992.71	3076.22
993.006	3065.82
993.303	3031.47
993.6	3004.36
993.897	3011.59
994.193	3024.92
994.49	2950.8
994.787	2984.47
995.083	2937.92
995.379	2948.99
995.676	2943.34
995.972	2871.93
996.268	2898.82
996.565	2870.35
996.861	2864.7
997.157	2834.64
997.453	2843.46
997.749	2812.95
998.044	2768.66
998.34	2770.24
998.636	2755.32
998.932	2745.83
999.227	2716
999.523	2732.27
999.818	2709.22
1000.114	2661.54
1000.409	2687.3
1000.704	2632.84
1001	2617.02
1001.295	2614.54
1001.59	2581.32
1001.885	2608.66
1002.18	2571.15
1002.475	2566.18
1002.77	2541.32
1003.065	2512.17
1003.359	2558.49
1003.654	2534.99
1003.949	2530.24
1004.243	2469.23
1004.538	2501.54
1004.832	2472.17
1005.127	2470.13
1005.421	2454.31
1005.715	2393.98
1006.009	2417.93
1006.304	2385.39
1006.598	2354.43
1006.892	2358.5
1007.186	2361.44
1007.48	2330.48
1007.773	2303.58
1008.067	2335.67
1008.361	2291.15
1008.655	2282.79
1008.948	2298.39
1009.242	2305.84
1009.535	2240.08
1009.829	2305.84
1010.122	2291.83
1010.415	2236.24
1010.708	2216.58
1011.001	2214.09
1011.295	2197.6
1011.588	2158.95
1011.881	2180.42
1012.173	2168.9
1012.466	2190.82
1012.759	2154.66
1013.052	2134.77
1013.344	2143.36
1013.637	2133.64
1013.93	2079.41
1014.222	2102.23
1014.514	2059.52
1014.807	2043.25
1015.099	2038.73
1015.391	2035.34
1015.683	2000.09
1015.976	1996.02
1016.268	2014.1
1016.56	1988.56
1016.851	1955.34
1017.143	1986.08
1017.435	1968.23
1017.727	1932.29
1018.018	1939.53
1018.31	1931.84
1018.602	1915.12
1018.893	1888
1019.185	1880.54
1019.476	1891.16
1019.767	1843.48
1020.058	1839.64
1020.35	1834.22
1020.641	1787.44
1020.932	1822.69
1021.223	1759.87
1021.514	1765.52
1021.804	1750.6
1022.095	1726.2
1022.386	1726.2
1022.677	1724.16
1022.967	1671.51
1023.258	1676.71
1023.548	1708.34
1023.839	1672.19
1024.129	1659.53
1024.419	1635.58
1024.709	1646.2
1025	1629.7
1025.29	1648.69
1025.58	1613.21
1025.87	1593.09
1026.16	1601
1026.449	1584.28
1026.739	1562.36
1027.029	1564.17
1027.319	1512.42
1027.608	1583.38
1027.898	1520.55
1028.187	1516.94
1028.477	1519.65
1028.766	1471.97
1029.055	1464.06
1029.344	1462.93
1029.634	1470.84
1029.923	1440.78
1030.212	1446.88
1030.501	1391.07
1030.79	1388.81
1031.078	1409.37
1031.367	1377.96
1031.656	1387.45
1031.945	1387.9
1032.233	1370.73
1032.522	1371.86
1032.81	1352.65
1033.099	1365.76
1033.387	1331.63
1033.675	1289.37
1033.963	1306.32
1034.251	1307.68
1034.54	1325.08
1034.828	1283.95
1035.116	1288.69
1035.403	1283.05
1035.691	1271.07
1035.979	1246.66
1036.267	1229.04
1036.554	1257.96
1036.842	1243.95
1037.129	1224.29
1037.417	1218.41
1037.704	1225.65
1037.992	1215.25
1038.279	1207.79
1038.566	1202.14
1038.853	1202.14
1039.14	1202.14
