Data from blue_chair_FLMS001491_00016.txt Node
Date: Wed Feb 08 10:29:32 GMT 2017
User: dcchb
Spectrometer: FLMS00149
Trigger mode: 0
Integration Time (sec): 2.000000E-2
Scans to average: 10
Electric dark correction enabled: true
Nonlinearity correction enabled: false
Boxcar width: 0
XAxis mode: Wavelengths
Number of Pixels in Spectrum: 2048
>>>>>Begin Spectral Data<<<<<
341.393	-3.79
341.776	-3.79
342.16	-3.79
342.543	-46.95
342.927	-81.3
343.31	-72.03
343.693	-59.6
344.077	-64.12
344.46	-57.12
344.843	-61.18
345.226	-41.98
345.61	-18.93
345.993	-26.84
346.376	6.84
346.759	-7.85
347.142	39.15
347.525	35.76
347.908	77.34
348.291	66.72
348.674	92.71
349.057	91.13
349.44	105.82
349.823	123.67
350.206	157.57
350.588	170.9
350.971	186.04
351.354	175.65
351.737	205.47
352.119	217
352.502	244.12
352.884	250.45
353.267	247.06
353.65	278.02
354.032	283.66
354.414	289.77
354.797	285.7
355.179	298.13
355.562	295.19
355.944	286.6
356.326	312.59
356.709	294.74
357.091	291.57
357.473	312.14
357.855	320.27
358.238	294.06
358.62	295.64
359.002	313.27
359.384	319.14
359.766	315.53
360.148	326.6
360.53	302.65
360.912	313.49
361.294	310.78
361.676	301.74
362.057	285.7
362.439	309.43
362.821	308.52
363.203	306.49
363.584	293.83
363.966	333.16
364.348	303.78
364.729	282.53
365.111	302.42
365.493	304.23
365.874	305.59
366.256	268.3
366.637	281.41
367.019	257.45
367.4	277.79
367.781	282.31
368.163	291.57
368.544	285.92
368.925	281.86
369.306	289.99
369.688	283.89
370.069	292.48
370.45	292.25
370.831	284.79
371.212	287.51
371.593	260.84
371.974	281.41
372.355	275.98
372.736	279.37
373.117	268.52
373.498	261.29
373.879	265.81
374.26	292.48
374.641	280.5
375.021	285.02
375.402	280.05
375.783	287.51
376.163	282.99
376.544	288.18
376.925	291.57
377.305	286.6
377.686	268.3
378.066	281.41
378.447	284.12
378.827	282.53
379.208	295.64
379.588	298.81
379.968	290.44
380.349	292.7
380.729	290.9
381.109	304.68
381.489	308.52
381.87	281.41
382.25	295.19
382.63	285.7
383.01	284.57
383.39	282.31
383.77	319.37
384.15	293.16
384.53	285.92
384.91	307.39
385.29	315.53
385.67	301.52
386.049	304.23
386.429	310.33
386.809	287.73
387.189	282.31
387.568	308.52
387.948	295.42
388.328	313.95
388.707	300.39
389.087	310.33
389.466	318.47
389.846	327.73
390.225	312.36
390.605	295.64
390.984	308.52
391.363	308.3
391.743	309.43
392.122	289.09
392.501	308.3
392.881	348.97
393.26	314.85
393.639	306.72
394.018	327.96
394.397	320.5
394.776	311.23
395.155	346.04
395.534	314.85
395.913	326.83
396.292	315.98
396.671	314.17
397.05	323.66
397.429	318.69
397.808	323.66
398.186	296.77
398.565	321.63
398.944	331.57
399.323	323.44
399.701	320.05
400.08	334.74
400.458	331.35
400.837	345.36
401.215	332.03
401.594	347.17
401.972	321.63
402.351	346.49
402.729	339.26
403.107	356.21
403.486	366.15
403.864	332.93
404.242	344.68
404.62	347.84
404.999	362.76
405.377	369.31
405.755	354.85
406.133	352.14
406.511	364.11
406.889	351.91
407.267	353.27
407.645	383.78
408.023	362.76
408.401	372.93
408.779	357.79
409.156	371.12
409.534	390.55
409.912	361.18
410.29	359.14
410.667	347.62
411.045	395.3
411.422	391.23
411.8	372.25
412.178	391.01
412.555	389.88
412.933	401.18
413.31	400.05
413.687	381.74
414.065	382.19
414.442	409.31
414.819	416.99
415.197	393.94
415.574	423.32
415.951	398.92
416.328	412.25
416.705	400.27
417.082	415.64
417.46	393.04
417.837	415.86
418.214	392.59
418.591	429.65
418.967	438.46
419.344	393.94
419.721	421.74
420.098	410.22
420.475	417.9
420.852	411.8
421.228	434.4
421.605	426.26
421.982	432.14
422.358	456.09
422.735	438.69
423.111	473.72
423.488	457.9
423.864	442.98
424.241	468.29
424.617	459.48
424.994	456.09
425.37	462.42
425.746	460.84
426.123	462.19
426.499	459.71
426.875	461.97
427.251	480.95
427.627	496.77
428.003	501.51
428.379	501.96
428.756	503.09
429.132	477.78
429.507	480.72
429.883	496.99
430.259	493.15
430.635	518.01
431.011	486.6
431.387	534.28
431.763	514.39
432.138	529.53
432.514	516.2
432.89	506.03
433.265	536.54
433.641	546.03
434.016	559.59
434.392	546.71
434.767	554.62
435.143	564.34
435.518	561.62
435.894	569.08
436.269	577.89
436.644	591
437.02	598.91
437.395	594.62
437.77	622.86
438.145	599.59
438.52	612.02
438.895	643.43
439.271	616.09
439.646	627.84
440.021	636.88
440.395	634.16
440.77	670.77
441.145	647.5
441.52	672.81
441.895	672.58
442.27	667.84
442.645	682.3
443.019	682.07
443.394	677.78
443.769	681.17
444.143	688.85
444.518	690.66
444.892	700.15
445.267	706.93
445.641	712.81
446.016	736.53
446.39	685.01
446.764	697.21
447.139	734.27
447.513	740.15
447.887	748.96
448.262	744.22
448.636	733.6
449.01	743.09
449.384	755.52
449.758	750.09
450.132	755.74
450.506	761.62
450.88	776.53
451.254	774.73
451.628	769.75
452.002	798.91
452.376	785.12
452.75	778.57
453.123	802.3
453.497	822.63
453.871	819.02
454.244	832.35
454.618	844.1
454.992	835.97
455.365	825.8
455.739	832.58
456.112	855.4
456.486	844.33
456.859	867.15
457.232	877.77
457.606	891.78
457.979	891.11
458.352	872.35
458.725	910.99
459.099	902.86
459.472	920.26
459.845	927.94
460.218	930.43
460.591	942.86
460.964	942.18
461.337	954.83
461.71	948.73
462.083	960.26
462.456	983.76
462.829	989.63
463.201	980.6
463.574	993.25
463.947	1000.93
464.32	991.22
464.692	1014.72
465.065	1029.86
465.438	1036.19
465.81	1039.13
466.183	1047.26
466.555	1058.56
466.928	1038.9
467.3	1066.7
467.672	1072.12
468.045	1098.11
468.417	1089.29
468.789	1110.99
469.161	1091.33
469.534	1120.93
469.906	1134.49
470.278	1130.42
470.65	1133.59
471.022	1145.56
471.394	1165.22
471.766	1166.13
472.138	1152.12
472.51	1182.17
472.882	1204.32
473.253	1188.73
473.625	1216.07
473.997	1224.43
474.369	1219.69
474.74	1229.63
475.112	1268.5
475.484	1301.27
475.855	1300.81
476.227	1291.32
476.598	1302.62
476.97	1311.66
477.341	1363.64
477.713	1380.81
478.084	1374.94
478.455	1407.25
478.827	1384.88
479.198	1421.26
479.569	1409.28
479.94	1433.24
480.311	1445.22
480.682	1449.74
481.053	1507.59
481.424	1516.85
481.795	1518.66
482.166	1483.18
482.537	1531.54
482.908	1534.93
483.279	1541.03
483.65	1562.73
484.021	1576.74
484.391	1609.28
484.762	1611.77
485.133	1627.13
485.503	1605.44
485.874	1625.32
486.244	1665.55
486.615	1661.26
486.985	1694.02
487.356	1723.63
487.726	1679.33
488.097	1704.42
488.467	1710.29
488.837	1667.13
489.207	1738.54
489.578	1735.83
489.948	1715.49
490.318	1731.08
490.688	1750.29
491.058	1776.73
491.428	1785.32
491.798	1803.4
492.168	1754.81
492.538	1793.91
492.908	1803.17
493.278	1795.49
493.648	1797.3
494.017	1796.62
494.387	1840.01
494.757	1821.25
495.126	1831.87
495.496	1863.28
495.866	1821.93
496.235	1816.05
496.605	1835.71
496.974	1854.47
497.344	1871.87
497.713	1862.38
498.082	1832.78
498.452	1875.04
498.821	1841.36
499.19	1872.32
499.559	1820.12
499.928	1862.83
500.298	1811.76
500.667	1836.84
501.036	1845.21
501.405	1873.91
501.774	1834.81
502.143	1876.84
502.512	1820.35
502.88	1840.46
503.249	1844.98
503.618	1857.41
503.987	1862.83
504.356	1858.09
504.724	1840.46
505.093	1840.01
505.462	1814.47
505.83	1831.87
506.199	1835.04
506.567	1843.17
506.936	1827.13
507.304	1867.35
507.672	1822.61
508.041	1826.68
508.409	1837.3
508.777	1851.76
509.145	1857.18
509.514	1849.73
509.882	1851.53
510.25	1839.1
510.618	1834.81
510.986	1827.13
511.354	1849.73
511.722	1853.57
512.09	1852.44
512.458	1800.24
512.826	1815.83
513.193	1823.96
513.561	1790.97
513.929	1822.38
514.297	1838.65
514.664	1813.12
515.032	1831.19
515.4	1844.75
515.767	1820.35
516.135	1810.63
516.502	1771.99
516.869	1825.32
517.237	1813.12
517.604	1768.82
517.972	1776.96
518.339	1814.25
518.706	1759.11
519.073	1762.72
519.44	1796.39
519.808	1806.79
520.175	1795.72
520.542	1748.49
520.909	1762.95
521.276	1775.38
521.643	1740.35
522.009	1790.07
522.376	1776.51
522.743	1738.32
523.11	1735.83
523.477	1778.31
523.843	1795.26
524.21	1790.52
524.577	1782.16
524.943	1774.47
525.31	1738.99
525.676	1762.72
526.043	1754.59
526.409	1767.47
526.776	1748.03
527.142	1767.02
527.508	1769.73
527.874	1747.13
528.241	1750.52
528.607	1744.64
528.973	1774.02
529.339	1750.52
529.705	1774.02
530.071	1778.09
530.437	1758.43
530.803	1753.91
531.169	1737.41
531.535	1747.36
531.901	1764.98
532.267	1727.02
532.632	1746.23
532.998	1782.61
533.364	1772.21
533.73	1768.6
534.095	1777.64
534.461	1752.78
534.826	1766.11
535.192	1757.98
535.557	1766.79
535.923	1727.02
536.288	1741.71
536.653	1756.17
537.019	1725.89
537.384	1742.38
537.749	1716.17
538.114	1734.25
538.479	1705.55
538.845	1724.53
539.21	1711.65
539.575	1700.58
539.94	1710.97
540.305	1701.71
540.67	1704.64
541.034	1690.41
541.399	1684.53
541.764	1682.05
542.129	1689.05
542.494	1688.15
542.858	1686.11
543.223	1718.66
543.587	1680.92
543.952	1670.75
544.316	1666.45
544.681	1686.57
545.045	1675.72
545.41	1691.09
545.774	1672.1
546.138	1687.47
546.503	1676.62
546.867	1683.85
547.231	1678.66
547.595	1659.22
547.959	1671.88
548.324	1644.76
548.688	1636.17
549.052	1661.71
549.416	1657.87
549.779	1634.36
550.143	1666.45
550.507	1638.43
550.871	1606.79
551.235	1635.49
551.599	1676.4
551.962	1627.58
552.326	1642.73
552.689	1626.91
553.053	1619
553.417	1598.88
553.78	1628.94
554.143	1587.36
554.507	1619
554.87	1609.05
555.234	1614.25
555.597	1617.42
555.96	1599.34
556.323	1596.85
556.686	1597.3
557.05	1626.45
557.413	1581.48
557.776	1620.35
558.139	1592.11
558.502	1615.83
558.865	1596.85
559.228	1600.24
559.59	1589.62
559.953	1597.3
560.316	1651.09
560.679	1597.53
561.041	1644.31
561.404	1614.03
561.767	1603.4
562.129	1617.19
562.492	1628.71
562.854	1623.97
563.217	1600.69
563.579	1607.47
563.941	1605.21
564.304	1607.47
564.666	1605.66
565.028	1613.12
565.39	1608.15
565.753	1609.05
566.115	1628.49
566.477	1626.23
566.839	1637.08
567.201	1657.41
567.563	1666.45
567.925	1624.42
568.287	1635.49
568.648	1629.17
569.01	1655.61
569.372	1642.5
569.734	1663.29
570.095	1675.04
570.457	1668.94
570.819	1686.11
571.18	1672.55
571.542	1668.71
571.903	1666.23
572.265	1666.91
572.626	1706.23
572.987	1684.31
573.349	1686.57
573.71	1682.95
574.071	1700.35
574.432	1694.02
574.794	1717.07
575.155	1713.46
575.516	1714.36
575.877	1701.25
576.238	1726.34
576.599	1719.11
576.96	1688.6
577.32	1713.68
577.681	1732.21
578.042	1739.22
578.403	1729.05
578.763	1751.2
579.124	1733.12
579.485	1755.26
579.845	1733.8
580.206	1773.34
580.566	1704.42
580.927	1720.24
581.287	1762.5
581.648	1750.29
582.008	1776.96
582.368	1771.08
582.728	1755.72
583.089	1753.23
583.449	1732.44
583.809	1766.79
584.169	1752.55
584.529	1796.39
584.889	1783.51
585.249	1758.2
585.609	1738.32
585.969	1750.07
586.329	1775.38
586.688	1776.28
587.048	1783.29
587.408	1804.3
587.768	1798.65
588.127	1786.68
588.487	1771.08
588.846	1807.01
589.206	1739.22
589.565	1784.64
589.925	1772.44
590.284	1797.07
590.643	1760.91
591.003	1788.26
591.362	1759.33
591.721	1753
592.08	1782.38
592.44	1762.5
592.799	1801.14
593.158	1803.62
593.517	1818.54
593.876	1771.31
594.235	1795.26
594.593	1789.39
594.952	1796.85
595.311	1796.17
595.67	1786.9
596.029	1785.09
596.387	1775.15
596.746	1768.37
597.104	1778.09
597.463	1760.01
597.822	1775.15
598.18	1792.1
598.538	1753.91
598.897	1803.4
599.255	1768.82
599.613	1792.33
599.972	1792.1
600.33	1796.17
600.688	1762.95
601.046	1789.84
601.404	1790.74
601.762	1757.3
602.12	1794.59
602.478	1782.38
602.836	1737.19
603.194	1760.46
603.552	1782.83
603.91	1768.6
604.268	1785.09
604.625	1784.87
604.983	1762.04
605.341	1760.69
605.698	1781.25
606.056	1787.58
606.413	1764.76
606.771	1781.48
607.128	1770.63
607.485	1760.91
607.843	1768.6
608.2	1782.38
608.557	1792.1
608.914	1795.72
609.272	1798.88
609.629	1810.86
609.986	1810.86
610.343	1790.07
610.7	1803.17
611.057	1786
611.414	1769.05
611.771	1769.28
612.127	1794.13
612.484	1789.61
612.841	1799.56
613.198	1797.07
613.554	1794.81
613.911	1807.69
614.267	1847.24
614.624	1790.07
614.98	1803.17
615.337	1828.93
615.693	1821.25
616.05	1793
616.406	1803.4
616.762	1818.77
617.118	1804.98
617.475	1819.9
617.831	1806.34
618.187	1820.35
618.543	1793.46
618.899	1802.04
619.255	1831.19
619.611	1828.26
619.967	1817.86
620.323	1788.26
620.678	1813.34
621.034	1814.92
621.39	1825.32
621.746	1806.56
622.101	1803.4
622.457	1804.98
622.812	1802.49
623.168	1791.42
623.523	1829.16
623.879	1865.09
624.234	1804.98
624.589	1789.16
624.945	1818.99
625.3	1842.95
625.655	1817.64
626.01	1815.15
626.365	1825.32
626.72	1840.69
627.075	1850.86
627.43	1849.05
627.785	1839.56
628.14	1834.13
628.495	1843.17
628.85	1842.95
629.205	1843.62
629.559	1806.56
629.914	1869.61
630.269	1813.34
630.623	1813.79
630.978	1851.08
631.332	1814.02
631.687	1817.18
632.041	1832.78
632.396	1817.64
632.75	1835.94
633.104	1817.41
633.459	1804.3
633.813	1790.52
634.167	1823.74
634.521	1842.72
634.875	1836.84
635.229	1823.51
635.583	1824.42
635.937	1822.83
636.291	1820.57
636.645	1828.03
636.999	1844.98
637.352	1799.78
637.706	1803.4
638.06	1818.31
638.413	1813.79
638.767	1803.85
639.121	1827.13
639.474	1813.57
639.828	1815.83
640.181	1852.21
640.534	1832.1
640.888	1829.61
641.241	1810.86
641.594	1825.32
641.947	1822.38
642.301	1828.26
642.654	1815.83
643.007	1820.8
643.36	1826.22
643.713	1787.13
644.066	1811.31
644.419	1835.49
644.771	1778.54
645.124	1783.96
645.477	1779.67
645.83	1784.42
646.182	1760.01
646.535	1779.9
646.888	1782.83
647.24	1775.6
647.593	1769.73
647.945	1794.13
648.298	1808.37
648.65	1789.61
649.002	1798.2
649.355	1811.99
649.707	1812.89
650.059	1797.3
650.411	1817.86
650.763	1806.34
651.115	1853.79
651.467	1833
651.819	1857.63
652.171	1832.1
652.523	1816.51
652.875	1854.7
653.227	1821.7
653.578	1829.16
653.93	1863.06
654.282	1842.04
654.633	1831.65
654.985	1837.07
655.337	1846.56
655.688	1854.47
656.039	1862.83
656.391	1845.43
656.742	1834.13
657.094	1843.62
657.445	1842.49
657.796	1863.51
658.147	1881.59
658.498	1837.07
658.849	1842.27
659.2	1837.97
659.551	1857.41
659.902	1863.96
660.253	1851.53
660.604	1853.34
660.955	1858.09
661.306	1874.81
661.656	1851.08
662.007	1871.65
662.358	1843.4
662.708	1885.43
663.059	1865.77
663.409	1842.95
663.76	1881.14
664.11	1893.57
664.461	1886.56
664.811	1866
665.161	1855.15
665.511	1847.69
665.862	1856.28
666.212	1891.08
666.562	1868.03
666.912	1864.64
667.262	1851.76
667.612	1831.42
667.962	1858.99
668.312	1816.96
668.662	1850.4
669.011	1868.71
669.361	1839.1
669.711	1861.7
670.06	1871.87
670.41	1829.16
670.76	1866.22
671.109	1847.69
671.459	1853.34
671.808	1844.75
672.157	1862.83
672.507	1851.08
672.856	1822.83
673.205	1849.5
673.554	1845.66
673.904	1865.54
674.253	1855.83
674.602	1810.4
674.951	1825.09
675.3	1807.92
675.649	1826.22
675.998	1807.92
676.346	1817.41
676.695	1833
677.044	1840.46
677.393	1829.16
677.741	1845.88
678.09	1830.52
678.438	1851.76
678.787	1807.24
679.135	1821.25
679.484	1815.83
679.832	1807.24
680.181	1807.92
680.529	1797.3
680.877	1773.8
681.225	1793
681.573	1809.5
681.922	1793
682.27	1746
682.618	1756.17
682.966	1765.43
683.314	1755.04
683.661	1770.41
684.009	1743.74
684.357	1762.27
684.705	1759.11
685.053	1747.81
685.4	1754.81
685.748	1737.86
686.095	1724.3
686.443	1748.49
686.79	1754.81
687.138	1752.55
687.485	1725.21
687.832	1703.74
688.18	1715.27
688.527	1709.39
688.874	1756.39
689.221	1725.66
689.568	1742.16
689.915	1705.77
690.262	1710.29
690.609	1682.27
690.956	1690.41
691.303	1709.62
691.65	1705.77
691.997	1722.95
692.344	1701.71
692.69	1662.84
693.037	1664.42
693.383	1640.24
693.73	1677.3
694.077	1665.1
694.423	1647.24
694.769	1680.69
695.116	1670.3
695.462	1665.1
695.808	1639.56
696.155	1621.71
696.501	1644.98
696.847	1645.21
697.193	1617.42
697.539	1642.05
697.885	1606.79
698.231	1602.05
698.577	1629.39
698.923	1610.64
699.269	1619.45
699.614	1591.43
699.96	1597.98
700.306	1601.82
700.651	1588.49
700.997	1574.25
701.342	1600.01
701.688	1566.79
702.033	1593.01
702.379	1577.64
702.724	1565.44
703.069	1578.55
703.415	1564.76
703.76	1537.87
704.105	1578.55
704.45	1569.51
704.795	1548.26
705.14	1554.59
705.485	1571.09
705.83	1549.39
706.175	1571.99
706.52	1579
706.865	1544.2
707.209	1543.52
707.554	1583.29
707.899	1555.27
708.243	1532.45
708.588	1534.71
708.932	1548.94
709.277	1571.09
709.621	1558.21
709.966	1566.34
710.31	1513.69
710.654	1544.42
710.998	1550.98
711.342	1583.74
711.687	1561.6
712.031	1550.98
712.375	1551.65
712.719	1547.59
713.063	1559.11
713.407	1572.67
713.75	1528.83
714.094	1566.79
714.438	1551.43
714.782	1587.81
715.125	1545.55
715.469	1556.4
715.812	1564.99
716.156	1534.71
716.499	1589.17
716.843	1552.78
717.186	1540.81
717.53	1550.52
717.873	1572.44
718.216	1522.05
718.559	1556.63
718.902	1567.02
719.246	1592.78
719.589	1580.58
719.932	1586.46
720.275	1586.91
720.617	1588.26
720.96	1591.65
721.303	1563.63
721.646	1543.52
721.989	1593.23
722.331	1590.3
722.674	1611.77
723.016	1593.23
723.359	1639.56
723.701	1620.8
724.044	1611.99
724.386	1608.6
724.729	1624.19
725.071	1625.55
725.413	1642.27
725.755	1637.75
726.097	1631.88
726.439	1658.77
726.782	1638.66
727.124	1656.06
727.465	1658.32
727.807	1654.25
728.149	1645.66
728.491	1680.69
728.833	1670.3
729.175	1669.62
729.516	1669.39
729.858	1710.75
730.199	1692.67
730.541	1689.5
730.882	1718.43
731.224	1722.05
731.565	1726.79
731.906	1728.6
732.248	1698.77
732.589	1727.92
732.93	1753
733.271	1742.38
733.612	1769.95
733.953	1779.22
734.294	1794.81
734.635	1799.11
734.976	1777.64
735.317	1766.56
735.658	1784.42
735.999	1808.14
736.339	1794.59
736.68	1836.39
737.021	1813.34
737.361	1825.32
737.702	1856.28
738.042	1851.08
738.383	1880.23
738.723	1887.92
739.063	1902.61
739.404	1886.33
739.744	1893.57
740.084	1931.98
740.424	1957.52
740.764	1976.73
741.104	1995.94
741.444	1985.09
741.784	2006.78
742.124	2017.86
742.464	2062.15
742.804	2041.81
743.143	2068.02
743.483	2097.4
743.823	2093.56
744.162	2123.39
744.502	2158.42
744.841	2148.7
745.181	2184.41
745.52	2173.78
745.86	2235.7
746.199	2254.91
746.538	2297.85
746.877	2283.16
747.216	2338.3
747.556	2375.59
747.895	2381.69
748.234	2420.33
748.573	2446.32
748.911	2480.9
749.25	2510.95
749.589	2563.83
749.928	2611.29
750.267	2581.91
750.605	2640.44
750.944	2670.72
751.283	2698.97
751.621	2769.02
751.96	2789.59
752.298	2823.94
752.636	2919.3
752.975	2903.93
753.313	2982.8
753.651	3001.11
753.989	3079.52
754.327	3137.6
754.666	3167.2
755.004	3208.56
755.342	3286.3
755.679	3344.83
756.017	3355.22
756.355	3450.59
756.693	3501.21
757.031	3542.56
757.368	3566.29
757.706	3630.7
758.044	3685.16
758.381	3783.69
758.719	3820.97
759.056	3877.69
759.394	3906.85
759.731	3942.33
760.068	4087.41
760.405	4050.57
760.743	4131.7
761.08	4211.02
761.417	4264.58
761.754	4351.81
762.091	4411.92
762.428	4438.58
762.765	4460.96
763.102	4600.61
763.438	4609.88
763.775	4628.41
764.112	4725.36
764.449	4825.92
764.785	4801.74
765.122	4858.46
765.458	4909.98
765.795	4982.52
766.131	5015.52
766.467	5074.27
766.804	5088.96
767.14	5196.53
767.476	5207.6
767.812	5308.84
768.148	5328.28
768.485	5352.46
768.821	5423.87
769.157	5459.35
769.492	5503.87
769.828	5554.71
770.164	5547.71
770.5	5577.54
770.836	5605.33
771.171	5654.37
771.507	5635.16
771.842	5696.63
772.178	5755.61
772.513	5816.63
772.849	5799.23
773.184	5819.11
773.519	5897.98
773.855	5890.75
774.19	5944.08
774.525	5936.4
774.86	5996.28
775.195	5973.46
775.53	6081.93
775.865	6071.08
776.2	6057.98
776.535	6051.42
776.87	6100.24
777.205	6128.93
777.539	6121.25
777.874	6200.57
778.209	6139.56
778.543	6176.62
778.878	6173.68
779.212	6170.29
779.547	6183.4
779.881	6189.95
780.215	6205.54
780.55	6250.06
780.884	6235.37
781.218	6233.34
781.552	6251.42
781.886	6257.07
782.22	6283.96
782.554	6271.53
782.888	6281.93
783.222	6232.89
783.556	6259.33
783.889	6333.68
784.223	6234.24
784.557	6185.66
784.89	6291.64
785.224	6266.11
785.557	6266.33
785.891	6283.06
786.224	6254.58
786.558	6245.77
786.891	6241.25
787.224	6211.87
787.557	6253.45
787.891	6270.85
788.224	6245.54
788.557	6255.49
788.89	6281.02
789.223	6256.62
789.556	6262.94
789.888	6214.36
790.221	6238.54
790.554	6297.29
790.887	6201.93
791.219	6262.72
791.552	6239.44
791.884	6212.32
792.217	6234.02
792.549	6260.91
792.882	6167.35
793.214	6138.2
793.546	6185.43
793.879	6205.32
794.211	6123.06
794.543	6176.39
794.875	6186.11
795.207	6257.75
795.539	6166.9
795.871	6147.47
796.203	6184.07
796.535	6133.91
796.867	6154.24
797.198	6096.85
797.53	6087.58
797.862	6073.12
798.193	6104.98
798.525	6112.21
798.856	6154.47
799.188	6019.79
799.519	6079.22
799.85	6000.12
800.182	6058.43
800.513	6009.39
800.844	6015.27
801.175	6046.45
801.506	5993.35
801.837	6003.51
802.168	5990.18
802.499	6011.65
802.83	5959.67
803.161	5908.83
803.491	5956.51
803.822	5960.13
804.153	5891.88
804.483	5885.1
804.814	5875.83
805.145	5922.84
805.475	5876.51
805.805	5859.11
806.136	5901.82
806.466	5842.84
806.796	5869.28
807.126	5833.8
807.457	5874.48
807.787	5860.02
808.117	5816.63
808.447	5761.03
808.777	5817.08
809.107	5814.14
809.436	5795.38
809.766	5839.68
810.096	5764.42
810.426	5763.52
810.755	5702.05
811.085	5749.06
811.414	5775.95
811.744	5679
812.073	5726.23
812.403	5704.99
812.732	5697.08
813.061	5713.8
813.39	5679.68
813.719	5659.34
814.049	5718.55
814.378	5652.11
814.707	5632.9
815.036	5607.37
815.365	5596.29
815.693	5627.03
816.022	5647.37
816.351	5592
816.68	5567.37
817.008	5578.67
817.337	5554.71
817.665	5531.89
817.994	5555.84
818.322	5518.1
818.651	5514.26
818.979	5498.67
819.307	5565.33
819.636	5540.7
819.964	5518.1
820.292	5486.69
820.62	5515.39
820.948	5474.04
821.276	5522.4
821.604	5509.52
821.932	5482.62
822.259	5511.32
822.587	5481.72
822.915	5507.71
823.243	5477.65
823.57	5543.19
823.898	5476.07
824.225	5533.02
824.553	5503.41
824.88	5498.89
825.207	5542.28
825.535	5459.8
825.862	5538.44
826.189	5500.25
826.516	5562.17
826.843	5523.75
827.17	5558.78
827.497	5516.3
827.824	5537.99
828.151	5529.18
828.478	5519.91
828.805	5569.18
829.131	5529.85
829.458	5575.28
829.785	5530.53
830.111	5555.39
830.438	5599.68
830.764	5519.91
831.09	5566.46
831.417	5498.44
831.743	5547.48
832.069	5576.18
832.395	5542.74
832.722	5578.89
833.048	5571.66
833.374	5564.66
833.7	5528.72
834.026	5568.95
834.351	5522.85
834.677	5502.06
835.003	5497.54
835.329	5526.92
835.654	5552.45
835.98	5529.4
836.306	5503.41
836.631	5498.44
836.956	5525.11
837.282	5452.34
837.607	5450.76
837.932	5472.68
838.258	5463.19
838.583	5476.07
838.908	5437.2
839.233	5448.27
839.558	5452.57
839.883	5450.99
840.208	5396.52
840.533	5439.24
840.858	5423.19
841.182	5410.54
841.507	5395.85
841.832	5363.98
842.156	5349.97
842.481	5399.69
842.805	5347.03
843.13	5334.83
843.454	5327.83
843.778	5349.29
844.103	5285.12
844.427	5338.67
844.751	5287.38
845.075	5232.46
845.399	5249.64
845.723	5198.11
846.047	5218.22
846.371	5171.9
846.695	5176.87
847.019	5192.01
847.343	5149.07
847.666	5102.52
847.99	5107.94
848.313	5101.39
848.637	5084.22
848.96	5095.97
849.284	5047.61
849.607	5086.7
849.931	5007.16
850.254	4944.79
850.577	4960.83
850.9	4937.78
851.223	4879.48
851.546	4951.34
851.869	4881.74
852.192	4923.54
852.515	4861.85
852.838	4829.53
853.161	4831.79
853.483	4803.55
853.806	4830.21
854.129	4804.9
854.451	4788.86
854.774	4721.51
855.096	4716.32
855.419	4731.91
855.741	4734.17
856.063	4708.86
856.385	4694.17
856.708	4696.2
857.03	4667.28
857.352	4638.8
857.674	4631.12
857.996	4637
858.318	4568.3
858.64	4601.97
858.961	4601.52
859.283	4581.4
859.605	4593.83
859.926	4583.66
860.248	4564.91
860.57	4518.36
860.891	4548.41
861.212	4498.24
861.534	4481.07
861.855	4471.58
862.176	4463.22
862.498	4501.18
862.819	4452.82
863.14	4437.68
863.461	4457.11
863.782	4428.87
864.103	4409.43
864.424	4414.18
864.745	4394.52
865.065	4432.03
865.386	4393.16
865.707	4371.69
866.027	4383.44
866.348	4346.61
866.668	4367.85
866.989	4378.92
867.309	4387.51
867.63	4377.79
867.95	4361.52
868.27	4307.06
868.59	4351.81
868.91	4342.99
869.23	4322.88
869.55	4273.62
869.87	4308.87
870.19	4311.58
870.51	4329.21
870.83	4273.84
871.15	4274.07
871.469	4272.49
871.789	4267.06
872.109	4234.07
872.428	4241.07
872.748	4242.88
873.067	4276.33
873.386	4243.56
873.706	4233.39
874.025	4220.51
874.344	4236.56
874.663	4215.99
874.982	4194.07
875.301	4201.53
875.62	4201.75
875.939	4167.63
876.258	4199.27
876.577	4140.51
876.896	4140.74
877.214	4126.95
877.533	4159.95
877.852	4169.66
878.17	4152.72
878.489	4141.19
878.807	4120.17
879.125	4105.03
879.444	4128.99
879.762	4097.8
880.08	4137.57
880.398	4080.63
880.716	4101.19
881.034	4041.76
881.352	4053.51
881.67	4030.46
881.988	4041.76
882.306	4025.04
882.624	4009.67
882.941	3981.65
883.259	4013.51
883.577	3984.81
883.894	4016.45
884.212	3975.55
884.529	3955.66
884.846	3963.34
885.164	3975.55
885.481	3914.3
885.798	3940.07
886.115	3895.77
886.432	3889.22
886.75	3902.1
887.067	3905.04
887.383	3883.8
887.7	3903.91
888.017	3860.29
888.334	3872.05
888.651	3851.93
888.967	3814.65
889.284	3836.79
889.6	3819.17
889.917	3800.18
890.233	3790.47
890.55	3763.12
890.866	3773.06
891.182	3727.42
891.498	3779.17
891.815	3705.04
892.131	3731.48
892.447	3735.33
892.763	3707.76
893.079	3666.63
893.395	3697.81
893.71	3659.62
894.026	3686.51
894.342	3621.66
894.657	3626.18
894.973	3625.27
895.289	3604.48
895.604	3641.99
895.92	3573.3
896.235	3596.35
896.55	3567.19
896.865	3546.63
897.181	3554.09
897.496	3520.87
897.811	3510.02
898.126	3552.73
898.441	3493.52
898.756	3481.32
899.071	3468.44
899.386	3483.35
899.7	3427.31
900.015	3448.78
900.33	3410.14
900.644	3392.28
900.959	3391.15
901.273	3348.44
901.588	3361.32
901.902	3360.19
902.216	3366.3
902.531	3353.64
902.845	3333.75
903.159	3331.95
903.473	3271.16
903.787	3248.33
904.101	3259.86
904.415	3294.66
904.729	3243.81
905.042	3226.19
905.356	3209.24
905.67	3240.88
905.984	3196.58
906.297	3186.19
906.611	3177.15
906.924	3205.62
907.237	3169.69
907.551	3157.71
907.864	3126.08
908.177	3124.27
908.491	3104.83
908.804	3077.72
909.117	3098.51
909.43	3071.16
909.743	3073.2
910.056	3043.59
910.368	3024.38
910.681	3037.72
910.994	3028.45
911.307	3017.83
911.619	3009.69
911.932	2972.41
912.244	2947.78
912.557	2948.91
912.869	2929.92
913.181	2926.99
913.494	2913.88
913.806	2872.3
914.118	2913.65
914.43	2888.57
914.742	2870.94
915.054	2852.64
915.366	2827.1
915.678	2815.8
915.99	2805.41
916.302	2804.73
916.613	2796.37
916.925	2788.91
917.236	2771.74
917.548	2769.48
917.859	2777.61
918.171	2763.6
918.482	2760.21
918.794	2769.7
919.105	2710.04
919.416	2750.49
919.727	2714.11
920.038	2719.08
920.349	2673.66
920.66	2684.51
920.971	2651.51
921.282	2661.23
921.593	2663.94
921.903	2630.04
922.214	2628.69
922.525	2611.51
922.835	2585.07
923.146	2594.56
923.456	2630.5
923.767	2555.24
924.077	2591.17
924.387	2563.83
924.697	2553.21
925.008	2513.44
925.318	2529.93
925.628	2505.53
925.938	2520.89
926.248	2491.52
926.558	2509.37
926.867	2476.83
927.177	2463.27
927.487	2456.72
927.796	2439.99
928.106	2451.29
928.416	2432.76
928.725	2411.07
929.034	2449.26
929.344	2412.2
929.653	2429.15
929.962	2394.34
930.271	2389.6
930.581	2363.84
930.89	2360.9
931.199	2350.96
931.508	2349.6
931.817	2346.21
932.125	2337.17
932.434	2359.99
932.743	2314.35
933.051	2301.46
933.36	2311.63
933.669	2308.92
933.977	2272.31
934.286	2261.92
934.594	2243.84
934.902	2200
935.21	2232.77
935.519	2230.96
935.827	2240.22
936.135	2242.48
936.443	2199.32
936.751	2180.11
937.059	2196.16
937.367	2181.47
937.674	2191.19
937.982	2184.18
938.29	2167.91
938.597	2155.71
938.905	2149.38
939.213	2145.54
939.52	2144.86
939.827	2111.19
940.135	2122.49
940.442	2120.23
940.749	2106.44
941.056	2077.29
941.363	2080
941.67	2045.65
941.977	2019.21
942.284	2061.25
942.591	2066.89
942.898	2036.84
943.205	2047.01
943.511	2029.38
943.818	2000.68
944.125	2006.11
944.431	2002.94
944.738	1991.19
945.044	2015.37
945.35	1970.4
945.657	1955.71
945.963	1955.49
946.269	1943.96
946.575	1953.68
946.881	1948.03
947.187	1951.87
947.493	1909.84
947.799	1921.81
948.105	1908.25
948.41	1880.91
948.716	1892.21
949.022	1892.66
949.327	1884.75
949.633	1848.6
949.938	1881.81
950.244	1843.62
950.549	1842.27
950.854	1820.8
951.16	1843.85
951.465	1849.5
951.77	1831.65
952.075	1823.74
952.38	1828.48
952.685	1820.35
952.99	1806.34
953.294	1783.29
953.599	1777.41
953.904	1770.63
954.209	1787.13
954.513	1792.1
954.818	1754.36
955.122	1765.43
955.426	1727.24
955.731	1741.25
956.035	1736.73
956.339	1703.74
956.643	1721.14
956.948	1713.91
957.252	1698.99
957.556	1698.54
957.86	1701.93
958.163	1689.5
958.467	1672.33
958.771	1657.19
959.075	1686.57
959.378	1677.75
959.682	1661.26
959.985	1648.83
960.289	1652.89
960.592	1649.28
960.896	1621.93
961.199	1620.13
961.502	1625.32
961.805	1631.65
962.108	1598.88
962.411	1592.78
962.714	1610.64
963.017	1595.95
963.32	1602.5
963.623	1601.6
963.926	1600.24
964.228	1556.63
964.531	1555.04
964.833	1544.87
965.136	1541.71
965.438	1534.93
965.741	1557.76
966.043	1537.64
966.345	1537.64
966.648	1517.53
966.95	1502.84
967.252	1501.71
967.554	1512.56
967.856	1518.43
968.158	1491.09
968.46	1478.66
968.761	1467.14
969.063	1480.7
969.365	1453.8
969.666	1462.84
969.968	1429.85
970.269	1448.61
970.571	1456.06
970.872	1431.66
971.174	1417.87
971.475	1399.12
971.776	1395.73
972.077	1399.57
972.378	1421.26
972.679	1390.75
972.98	1430.08
973.281	1407.48
973.582	1390.3
973.883	1381.94
974.183	1388.49
974.484	1358.89
974.785	1369.74
975.085	1351.43
975.386	1356.18
975.686	1347.37
975.986	1330.19
976.287	1329.06
976.587	1335.39
976.887	1329.51
977.187	1322.96
977.487	1330.64
977.787	1346.01
978.087	1315.73
978.387	1320.93
978.687	1313.69
978.987	1304.43
979.286	1299.46
979.586	1305.56
979.885	1266.24
980.185	1297.65
980.484	1281.6
980.784	1247.93
981.083	1273.02
981.382	1271.89
981.682	1248.84
981.981	1222.17
982.28	1244.54
982.579	1239.8
982.878	1237.09
983.177	1260.81
983.475	1226.92
983.774	1227.37
984.073	1202.96
984.372	1209.74
984.67	1198.67
984.969	1193.92
985.267	1198.44
985.566	1192.34
985.864	1194.83
986.162	1180.14
986.461	1191.21
986.759	1173.36
987.057	1153.02
987.355	1170.87
987.653	1135.62
987.951	1172.68
988.249	1149.4
988.547	1154.6
988.844	1147.82
989.142	1138.11
989.44	1131.33
989.737	1122.74
990.035	1108.95
990.332	1109.41
990.63	1113.25
990.927	1125.9
991.224	1141.04
991.521	1092.91
991.819	1108.28
992.116	1080.71
992.413	1088.39
992.71	1091.78
993.006	1079.12
993.303	1082.74
993.6	1078.45
993.897	1085.23
994.193	1089.97
994.49	1068.28
994.787	1064.21
995.083	1069.86
995.379	1068.05
995.676	1073.47
995.972	1040.71
996.268	1033.48
996.565	1012.69
996.861	1029.86
997.157	1040.93
997.453	1023.53
997.749	1002.06
998.044	1012.91
998.34	1021.5
998.636	1017.66
998.932	985.34
999.227	994.15
999.523	981.5
999.818	971.1
1000.114	947.15
1000.409	989.18
1000.704	961.84
1001	986.47
1001.295	978.34
1001.59	946.25
1001.885	931.33
1002.18	961.61
1002.475	957.55
1002.77	954.38
1003.065	936.3
1003.359	939.69
1003.654	923.65
1003.949	937.88
1004.243	914.16
1004.538	904.44
1004.832	918.68
1005.127	920.03
1005.421	894.04
1005.715	894.27
1006.009	891.78
1006.304	903.31
1006.598	881.84
1006.892	885
1007.186	885.68
1007.48	870.09
1007.773	876.42
1008.067	873.48
1008.361	851.11
1008.655	836.64
1008.948	870.54
1009.242	842.97
1009.535	842.52
1009.829	831
1010.122	835.29
1010.415	823.76
1010.708	834.16
1011.001	824.67
1011.295	817.44
1011.588	809.53
1011.881	821.73
1012.173	829.41
1012.466	816.08
1012.759	821.5
1013.052	791.22
1013.344	800.04
1013.637	794.16
1013.93	770.66
1014.222	803.2
1014.514	767.49
1014.807	786.93
1015.099	787.38
1015.391	754.61
1015.683	766.14
1015.976	768.85
1016.268	760.49
1016.56	765.69
1016.851	768.62
1017.143	743.99
1017.435	732.01
1017.727	748.96
1018.018	772.24
1018.31	743.77
1018.602	741.96
1018.893	722.07
1019.185	730.66
1019.476	732.92
1019.767	724.33
1020.058	705.35
1020.35	722.52
1020.641	709.19
1020.932	716.42
1021.223	728.17
1021.514	715.07
1021.804	700.38
1022.095	700.15
1022.386	692.92
1022.677	697.44
1022.967	677.1
1023.258	671.9
1023.548	664.67
1023.839	693.15
1024.129	688.17
1024.419	661.96
1024.709	635.52
1025	656.08
1025.29	664.45
1025.58	671.68
1025.87	659.02
1026.16	672.13
1026.449	628.74
1026.739	645.92
1027.029	656.99
1027.319	634.39
1027.608	637.55
1027.898	634.16
1028.187	638.01
1028.477	645.92
1028.766	649.98
1029.055	612.7
1029.344	621.51
1029.634	641.17
1029.923	635.75
1030.212	609.53
1030.501	596.65
1030.79	620.15
1031.078	612.7
1031.367	591.68
1031.656	597.33
1031.945	600.72
1032.233	608.63
1032.522	584.45
1032.81	591.23
1033.099	587.61
1033.387	577.89
1033.675	589.65
1033.963	573.83
1034.251	576.09
1034.54	592.58
1034.828	581.51
1035.116	568.18
1035.403	574.96
1035.691	565.92
1035.979	566.14
1036.267	549.19
1036.554	569.31
1036.842	538.57
1037.129	548.52
1037.417	539.7
1037.704	530.21
1037.992	548.06
1038.279	532.7
1038.566	566.6
1038.853	566.6
1039.14	566.6
