Data from blue_chair_FLMS001491_00087.txt Node
Date: Wed Feb 08 10:31:55 GMT 2017
User: dcchb
Spectrometer: FLMS00149
Trigger mode: 0
Integration Time (sec): 2.000000E-2
Scans to average: 10
Electric dark correction enabled: true
Nonlinearity correction enabled: false
Boxcar width: 0
XAxis mode: Wavelengths
Number of Pixels in Spectrum: 2048
>>>>>Begin Spectral Data<<<<<
341.393	-24.62
341.776	-24.62
342.16	-24.62
342.543	-57.39
342.927	-63.26
343.31	-73.2
343.693	-71.62
344.077	-52.64
344.46	-81.34
344.843	-52.41
345.226	-30.49
345.61	-21.91
345.993	-26.2
346.376	-20.78
346.759	4.99
347.142	37.98
347.525	66.45
347.908	56.96
348.291	80.01
348.674	75.49
349.057	108.71
349.44	111.2
349.823	134.02
350.206	141.48
350.588	174.92
350.971	186
351.354	199.56
351.737	216.96
352.119	241.59
352.502	229.84
352.884	243.17
353.267	264.64
353.65	258.54
354.032	247.47
354.414	282.49
354.797	277.29
355.179	284.98
355.562	309.61
355.944	302.83
356.326	304.19
356.709	323.17
357.091	300.57
357.473	312.55
357.855	303.73
358.238	327.46
358.62	337.41
359.002	329.05
359.384	307.8
359.766	331.53
360.148	318.2
360.53	304.19
360.912	307.35
361.294	293.79
361.676	314.58
362.057	306.22
362.439	302.61
362.821	296.73
363.203	322.04
363.584	306.45
363.966	301.48
364.348	295.83
364.729	302.15
365.111	288.37
365.493	293.34
365.874	285.43
366.256	286.56
366.637	290.4
367.019	306.9
367.4	303.73
367.781	287.24
368.163	294.7
368.544	275.26
368.925	304.64
369.306	282.72
369.688	278.88
370.069	273
370.45	275.94
370.831	289.05
371.212	262.83
371.593	271.65
371.974	283.17
372.355	276.84
372.736	293.34
373.117	287.69
373.498	281.59
373.879	285.88
374.26	286.11
374.641	311.42
375.021	280.01
375.402	276.39
375.783	279.78
376.163	292.89
376.544	292.89
376.925	303.73
377.305	290.85
377.686	302.61
378.066	282.94
378.447	297.86
378.827	314.13
379.208	309.84
379.588	289.05
379.968	300.8
380.349	277.97
380.729	279.33
381.109	295.15
381.489	288.82
381.87	296.73
382.25	284.53
382.63	312.1
383.01	309.16
383.39	294.24
383.77	290.85
384.15	316.39
384.53	300.8
384.91	308.93
385.29	300.12
385.67	314.81
386.049	298.99
386.429	299.22
386.809	289.95
387.189	300.35
387.568	305.77
387.948	295.83
388.328	313.45
388.707	286.79
389.087	303.06
389.466	312.55
389.846	304.19
390.225	318.42
390.605	320.68
390.984	309.84
391.363	315.71
391.743	312.1
392.122	325.43
392.501	325.88
392.881	323.4
393.26	327.24
393.639	337.63
394.018	350.74
394.397	348.48
394.776	328.59
395.155	323.17
395.534	324.07
395.913	333.79
396.292	354.36
396.671	329.05
397.05	350.29
397.429	324.07
397.808	344.41
398.186	332.89
398.565	352.55
398.944	343.06
399.323	319.78
399.701	329.5
400.08	354.81
400.458	339.67
400.837	345.09
401.215	349.38
401.594	357.97
401.972	345.32
402.351	374.47
402.729	355.26
403.107	354.81
403.486	357.07
403.864	327.69
404.242	347.35
404.62	348.48
404.999	367.01
405.377	383.96
405.755	382.38
406.133	362.49
406.511	364.07
406.889	370.17
407.267	395.48
407.645	374.24
408.023	397.29
408.401	381.47
408.779	392.32
409.156	394.35
409.534	413.11
409.912	395.26
410.29	436.84
410.667	398.42
411.045	398.65
411.422	412.21
411.8	383.96
412.178	409.04
412.555	414.24
412.933	422.6
413.31	426.67
413.687	397.29
414.065	412.66
414.442	445.2
414.819	415.37
415.197	434.8
415.574	428.03
415.951	442.26
416.328	441.13
416.705	442.04
417.082	442.04
417.46	440.45
417.837	453.34
418.214	450.85
418.591	438.87
418.967	418.31
419.344	447.69
419.721	438.19
420.098	464.18
420.475	438.42
420.852	466.22
421.228	473.45
421.605	485.88
421.982	458.08
422.358	446.1
422.735	474.13
423.111	504.41
423.488	495.37
423.864	470.06
424.241	500.11
424.617	498.98
424.994	496.27
425.37	506.89
425.746	504.18
426.123	502.15
426.499	531.3
426.875	520
427.251	529.94
427.627	530.17
428.003	553.45
428.379	524.52
428.756	542.15
429.132	541.02
429.507	545.76
429.883	559.55
430.259	555.03
430.635	548.93
431.011	569.94
431.387	557.06
431.763	585.31
432.138	579.43
432.514	580.11
432.89	577.17
433.265	606.55
433.641	583.05
434.016	609.04
434.392	617.4
434.767	599.32
435.143	649.04
435.518	627.57
435.894	645.19
436.269	654.01
436.644	651.3
437.02	664.18
437.395	674.12
437.77	686.55
438.145	693.1
438.52	682.03
438.895	689.71
439.271	682.48
439.646	722.03
440.021	720.22
440.395	707.79
440.77	710.96
441.145	721.35
441.52	751.18
441.895	750.95
442.27	737.85
442.645	754.8
443.019	746.21
443.394	767.23
443.769	766.77
444.143	788.02
444.518	794.12
444.892	774.91
445.267	776.94
445.641	802.48
446.016	814.46
446.39	780.11
446.764	814.68
447.139	803.61
447.513	806.09
447.887	811.07
448.262	806.09
448.636	821.69
449.01	848.13
449.384	864.85
449.758	856.94
450.132	840.44
450.506	832.31
450.88	863.27
451.254	852.65
451.628	864.17
452.002	890.61
452.376	891.06
452.75	868.47
453.123	898.97
453.497	873.89
453.871	909.59
454.244	904.17
454.618	940.55
454.992	941.46
455.365	969.93
455.739	966.09
456.112	947.33
456.486	968.8
456.859	944.85
457.232	981.68
457.606	950.5
457.979	998.41
458.352	995.69
458.725	1005.64
459.099	1019.65
459.472	1047.67
459.845	1015.35
460.218	1020.78
460.591	1043.6
460.964	1070.49
461.337	1064.62
461.71	1079.76
462.083	1082.02
462.456	1075.47
462.829	1087.22
463.201	1095.35
463.574	1109.82
463.947	1110.72
464.32	1137.61
464.692	1123.83
465.065	1162.47
465.438	1154.33
465.81	1154.56
466.183	1173.54
466.555	1215.8
466.928	1210.83
467.3	1181.9
467.672	1215.35
468.045	1202.47
468.417	1202.02
468.789	1239.3
469.161	1250.6
469.534	1259.64
469.906	1265.97
470.278	1249.92
470.65	1281.34
471.022	1285.63
471.394	1322.69
471.766	1321.11
472.138	1327.89
472.51	1366.98
472.882	1374.44
473.253	1365.18
473.625	1390.71
473.997	1412.86
474.369	1376.93
474.74	1409.69
475.112	1439.3
475.484	1430.26
475.855	1429.13
476.227	1454.67
476.598	1477.72
476.97	1483.36
477.341	1517.49
477.713	1502.57
478.084	1539.86
478.455	1570.82
478.827	1557.49
479.198	1594.77
479.569	1574.21
479.94	1605.85
480.311	1613.31
480.682	1629.8
481.053	1672.74
481.424	1653.53
481.795	1688.78
482.166	1694.43
482.537	1700.31
482.908	1711.16
483.279	1741.21
483.65	1750.93
484.021	1797.03
484.391	1797.03
484.762	1788.89
485.133	1802
485.503	1826.86
485.874	1863.47
486.244	1830.02
486.615	1853.07
486.985	1885.39
487.356	1859.17
487.726	1857.82
488.097	1898.27
488.467	1886.52
488.837	1904.14
489.207	1919.06
489.578	1912.28
489.948	1960.41
490.318	1936.69
490.688	1970.81
491.058	2003.8
491.428	1983.01
491.798	1980.08
492.168	2037.02
492.538	1993.41
492.908	1993.18
493.278	2011.71
493.648	2019.4
494.017	1984.14
494.387	2001.32
494.757	2033.86
495.126	2056.23
495.496	2035.44
495.866	2056.68
496.235	2063.46
496.605	2044.93
496.974	2015.55
497.344	2029.79
497.713	2030.24
498.082	2045.38
498.452	2037.93
498.821	2056.23
499.19	2044.25
499.559	2053.97
499.928	2047.19
500.298	2023.24
500.667	2068.21
501.036	2046.97
501.405	2059.17
501.774	2023.24
502.143	2046.97
502.512	2023.92
502.88	2019.4
503.249	2028.21
503.618	2048.1
503.987	2053.52
504.356	1989.57
504.724	2022.56
505.093	2048.77
505.462	2016.91
505.83	2032.28
506.199	2027.08
506.567	2027.98
506.936	2029.11
507.304	2021.88
507.672	1998.83
508.041	2034.31
508.409	2027.31
508.777	2034.54
509.145	2033.63
509.514	2011.94
509.882	1988.89
510.25	1982.79
510.618	1993.18
510.986	2013.75
511.354	1997.02
511.722	1985.72
512.09	2001.09
512.458	1969
512.826	1992.5
513.193	1975.33
513.561	1997.48
513.929	1970.36
514.297	1996.8
514.664	1979.85
515.032	1984.59
515.4	1990.24
515.767	1949.57
516.135	1960.87
516.502	1921.77
516.869	1935.78
517.237	1940.08
517.604	1954.76
517.972	1942.11
518.339	1910.25
518.706	1937.36
519.073	1909.57
519.44	1905.27
519.808	1910.25
520.175	1914.99
520.542	1926.74
520.909	1920.87
521.276	1892.85
521.643	1887.87
522.009	1917.25
522.376	1935.56
522.743	1908.66
523.11	1883.13
523.477	1894.88
523.843	1908.66
524.21	1922.45
524.577	1889.46
524.943	1903.47
525.31	1924.94
525.676	1920.42
526.043	1927.2
526.409	1901.43
526.776	1945.5
527.142	1914.99
527.508	1882.9
527.874	1906.4
528.241	1885.61
528.607	1912.51
528.973	1922.45
529.339	1902.79
529.705	1909.12
530.071	1907.31
530.437	1921.09
530.803	1920.87
531.169	1882.68
531.535	1899.17
531.901	1914.99
532.267	1899.17
532.632	1906.86
532.998	1900.3
533.364	1923.81
533.73	1907.08
534.095	1922.9
534.461	1898.72
534.826	1890.36
535.192	1910.92
535.557	1895.11
535.923	1889.91
536.288	1877.48
536.653	1925.16
537.019	1899.4
537.384	1934.88
537.749	1907.53
538.114	1897.14
538.479	1901.21
538.845	1887.42
539.21	1870.93
539.575	1892.17
539.94	1908.21
540.305	1891.72
540.67	1872.51
541.034	1878.61
541.399	1880.87
541.764	1856.91
542.129	1862.11
542.494	1876.35
542.858	1893.3
543.223	1866.41
543.587	1890.59
543.952	1880.64
544.316	1871.6
544.681	1872.28
545.045	1870.25
545.41	1873.41
545.774	1860.3
546.138	1875.67
546.503	1901.66
546.867	1869.12
547.231	1846.75
547.595	1849.91
547.959	1848.1
548.324	1878.83
548.688	1834.32
549.052	1848.78
549.416	1858.04
549.779	1863.69
550.143	1862.34
550.507	1842.68
550.871	1870.47
551.235	1860.08
551.599	1817.59
551.962	1828.67
552.326	1861.89
552.689	1832.96
553.053	1833.19
553.417	1836.8
553.78	1821.21
554.143	1821.89
554.507	1819.4
554.87	1830.7
555.234	1825.5
555.597	1860.53
555.96	1832.06
556.323	1825.05
556.686	1798.16
557.05	1855.56
557.413	1821.89
557.776	1831.38
558.139	1837.71
558.502	1809.23
558.865	1814.66
559.228	1798.84
559.59	1807.65
559.953	1809.91
560.316	1834.99
560.679	1791.15
561.041	1837.25
561.404	1829.34
561.767	1837.25
562.129	1827.31
562.492	1834.32
562.854	1834.09
563.217	1820.08
563.579	1844.94
563.941	1843.58
564.304	1838.61
564.666	1861.21
565.028	1873.86
565.39	1856.24
565.753	1861.43
566.115	1862.34
566.477	1889.68
566.839	1869.8
567.201	1877.48
567.563	1871.38
567.925	1891.26
568.287	1856.69
568.648	1907.99
569.01	1903.47
569.372	1913.41
569.734	1913.64
570.095	1901.43
570.457	1924.48
570.819	1919.96
571.18	1929.45
571.542	1917.93
571.903	1909.57
572.265	1940.3
572.626	1933.07
572.987	1959.74
573.349	1939.4
573.71	1944.6
574.071	1971.26
574.432	1981.88
574.794	1995.22
575.155	1975.33
575.516	1969
575.877	1983.46
576.238	1988.66
576.599	2019.4
576.96	2020.75
577.32	2003.35
577.681	2028.21
578.042	2017.81
578.403	1995.67
578.763	2046.51
579.124	2032.05
579.485	2061.2
579.845	2058.72
580.206	2028.89
580.566	2079.28
580.927	2053.75
581.287	2065.95
581.648	2078.38
582.008	2036.34
582.368	2071.82
582.728	2087.19
583.089	2071.82
583.449	2071.15
583.809	2076.34
584.169	2109.11
584.529	2111.37
584.889	2121.31
585.249	2110.47
585.609	2107.76
585.969	2092.39
586.329	2100.75
586.688	2079.28
587.048	2091.03
587.408	2123.8
587.768	2110.24
588.127	2128.77
588.487	2154.53
588.846	2147.3
589.206	2134.65
589.565	2118.38
589.925	2129
590.284	2093.07
590.643	2128.09
591.003	2143.46
591.362	2119.05
591.721	2059.62
592.08	2116.34
592.44	2143.69
592.799	2105.95
593.158	2147.3
593.517	2142.33
593.876	2134.2
594.235	2110.92
594.593	2118.38
594.952	2121.54
595.311	2085.83
595.67	2137.13
596.029	2151.6
596.387	2165.38
596.746	2166.74
597.104	2126.96
597.463	2121.54
597.822	2156.12
598.18	2126.06
598.538	2154.76
598.897	2146.4
599.255	2086.96
599.613	2147.53
599.972	2151.82
600.33	2133.52
600.688	2105.5
601.046	2130.81
601.404	2136.46
601.762	2149.79
602.12	2132.16
602.478	2143.23
602.836	2141.88
603.194	2108.66
603.552	2145.72
603.91	2147.08
604.268	2140.97
604.625	2129
604.983	2132.61
605.341	2113.86
605.698	2157.02
606.056	2104.82
606.413	2129.45
606.771	2128.09
607.128	2110.92
607.485	2118.83
607.843	2103.01
608.2	2096.68
608.557	2158.6
608.914	2124.03
609.272	2123.57
609.629	2128.32
609.986	2147.3
610.343	2137.36
610.7	2152.95
611.057	2145.95
611.414	2157.47
611.771	2135.33
612.127	2175.55
612.484	2142.78
612.841	2127.87
613.198	2150.92
613.554	2137.81
613.911	2146.62
614.267	2113.18
614.624	2159.05
614.98	2140.75
615.337	2147.08
615.693	2146.62
616.05	2166.06
616.406	2172.16
616.762	2137.59
617.118	2149.79
617.475	2147.75
617.831	2157.47
618.187	2183.23
618.543	2192.72
618.899	2198.83
619.255	2141.65
619.611	2160.41
619.967	2181.43
620.323	2200.86
620.678	2177.36
621.034	2143.46
621.39	2182.56
621.746	2152.95
622.101	2211.26
622.457	2161.77
622.812	2170.8
623.168	2147.75
623.523	2172.39
623.879	2177.13
624.234	2185.95
624.589	2182.1
624.945	2167.64
625.3	2182.56
625.655	2181.2
626.01	2160.86
626.365	2205.38
626.72	2165.15
627.075	2184.82
627.43	2157.02
627.785	2173.74
628.14	2166.28
628.495	2178.26
628.85	2178.94
629.205	2169.22
629.559	2159.05
629.914	2172.16
630.269	2171.71
630.623	2166.51
630.978	2149.34
631.332	2200.86
631.687	2189.34
632.041	2150.24
632.396	2160.18
632.75	2160.41
633.104	2190.92
633.459	2144.14
633.813	2168.09
634.167	2153.4
634.521	2196.34
634.875	2189.79
635.229	2174.42
635.583	2184.82
635.937	2183.46
636.291	2173.97
636.645	2167.87
636.999	2212.16
637.352	2190.01
637.706	2198.83
638.06	2187.3
638.413	2117.25
638.767	2201.76
639.121	2156.12
639.474	2179.62
639.828	2183.91
640.181	2184.36
640.534	2175.78
640.888	2144.59
641.241	2166.96
641.594	2154.99
641.947	2166.74
642.301	2155.21
642.654	2162.67
643.007	2180.07
643.36	2180.07
643.713	2181.65
644.066	2180.75
644.419	2166.96
644.771	2183.23
645.124	2123.12
645.477	2182.78
645.83	2164.03
646.182	2098.49
646.535	2125.38
646.888	2144.14
647.24	2159.05
647.593	2132.61
647.945	2146.62
648.298	2160.18
648.65	2161.77
649.002	2145.27
649.355	2142.33
649.707	2135.55
650.059	2136.46
650.411	2164.03
650.763	2164.7
651.115	2206.06
651.467	2206.06
651.819	2200.86
652.171	2197.92
652.523	2206.28
652.875	2215.78
653.227	2229.11
653.578	2218.49
653.93	2240.18
654.282	2206.51
654.633	2168.54
654.985	2244.47
655.337	2177.13
655.688	2251.03
656.039	2213.97
656.391	2232.05
656.742	2243.57
657.094	2228.88
657.445	2220.97
657.796	2235.66
658.147	2251.71
658.498	2256
658.849	2255.77
659.2	2263.01
659.551	2248.09
659.902	2237.7
660.253	2271.37
660.604	2249.45
660.955	2241.76
661.306	2283.8
661.656	2245.83
662.007	2283.8
662.358	2234.76
662.708	2270.46
663.059	2245.83
663.409	2247.86
663.76	2258.71
664.11	2288.99
664.461	2274.08
664.811	2303.23
665.161	2280.41
665.511	2258.71
665.862	2278.15
666.212	2282.21
666.562	2290.35
666.912	2330.8
667.262	2270.91
667.612	2269.33
667.962	2270.01
668.312	2227.75
668.662	2298.71
669.011	2272.72
669.361	2262.55
669.711	2266.17
670.06	2242.44
670.41	2246.96
670.76	2230.92
671.109	2257.58
671.459	2272.95
671.808	2222.1
672.157	2237.24
672.507	2215.78
672.856	2224.59
673.205	2219.16
673.554	2200.86
673.904	2196.11
674.253	2238.6
674.602	2254.64
674.951	2159.96
675.3	2164.25
675.649	2211.26
675.998	2209.9
676.346	2213.74
676.695	2216
677.044	2209.67
677.393	2205.15
677.741	2227.3
678.09	2194.98
678.438	2183.46
678.787	2178.71
679.135	2169.22
679.484	2187.75
679.832	2158.15
680.181	2145.27
680.529	2164.25
680.877	2169.45
681.225	2135.55
681.573	2157.25
681.922	2151.82
682.27	2121.99
682.618	2166.74
682.966	2116.79
683.314	2139.17
683.661	2124.03
684.009	2143.91
684.357	2122.67
684.705	2078.38
685.053	2095.78
685.4	2105.27
685.748	2081.99
686.095	2077.25
686.443	2059.85
686.79	2055.55
687.138	2089.68
687.485	2098.72
687.832	2097.13
688.18	2073.18
688.527	2053.29
688.874	2057.14
689.221	2053.52
689.568	2070.47
689.915	2045.16
690.262	2053.75
690.609	2033.63
690.956	2002.67
691.303	2049.9
691.65	1993.63
691.997	2019.17
692.344	1974.2
692.69	2002.9
693.037	1982.11
693.383	1990.47
693.73	1994.09
694.077	1941.43
694.423	1981.2
694.769	1964.48
695.116	1956.12
695.462	1982.33
695.808	1933.75
696.155	1951.83
696.501	1941.43
696.847	1925.16
697.193	1901.43
697.539	1924.71
697.885	1888.1
698.231	1885.84
698.577	1894.65
698.923	1922.45
699.269	1874.99
699.614	1893.52
699.96	1870.93
700.306	1866.41
700.651	1873.41
700.997	1883.81
701.342	1891.26
701.688	1856.24
702.033	1866.86
702.379	1842
702.724	1826.63
703.069	1869.12
703.415	1863.92
703.76	1834.77
704.105	1858.27
704.45	1852.17
704.795	1850.13
705.14	1845.84
705.485	1821.44
705.83	1830.7
706.175	1816.69
706.52	1793.87
706.865	1813.3
707.209	1818.05
707.554	1815.11
707.899	1846.75
708.243	1835.22
708.588	1812.17
708.932	1823.69
709.277	1800.19
709.621	1840.19
709.966	1787.99
710.31	1826.63
710.654	1814.66
710.998	1810.36
711.342	1814.66
711.687	1816.46
712.031	1808.78
712.375	1773.53
712.719	1789.12
713.063	1834.09
713.407	1814.2
713.75	1811.72
714.094	1829.57
714.438	1839.74
714.782	1839.06
715.125	1822.79
715.469	1848.1
715.812	1844.49
716.156	1854.65
716.499	1839.97
716.843	1812.62
717.186	1825.05
717.53	1848.1
717.873	1856.46
718.216	1848.33
718.559	1854.2
718.902	1838.38
719.246	1858.04
719.589	1859.63
719.932	1852.62
720.275	1898.5
720.617	1868.44
720.96	1914.09
721.303	1886.52
721.646	1890.59
721.989	1905.27
722.331	1901.21
722.674	1927.65
723.016	1945.05
723.359	1927.65
723.701	1902.56
724.044	1930.36
724.386	1882.68
724.729	1936.01
725.071	1915.9
725.413	1929.91
725.755	1941.43
726.097	1957.7
726.439	1985.05
726.782	1998.83
727.124	2002.67
727.465	1973.52
727.807	1989.34
728.149	1995.67
728.491	2008.55
728.833	2015.1
729.175	2040.19
729.516	2028.66
729.858	2018.72
730.199	2072.28
730.541	2052.39
730.882	2044.03
731.224	2072.5
731.565	2034.54
731.906	2057.59
732.248	2059.17
732.589	2087.19
732.93	2122.22
733.271	2116.12
733.612	2116.34
733.953	2140.97
734.294	2140.97
734.635	2168.32
734.976	2170.13
735.317	2169.45
735.658	2218.03
735.999	2236.57
736.339	2206.06
736.68	2198.15
737.021	2228.43
737.361	2239.5
737.702	2259.84
738.042	2263.68
738.383	2258.49
738.723	2287.64
739.063	2279.05
739.404	2318.6
739.744	2338.71
740.084	2362.21
740.424	2432.49
740.764	2383.68
741.104	2432.27
741.444	2470.23
741.784	2500.29
742.124	2506.16
742.464	2502.32
742.804	2538.7
743.143	2536.9
743.483	2573.05
743.823	2589.32
744.162	2607.86
744.502	2698.7
744.841	2691.47
745.181	2732.37
745.52	2763.33
745.86	2772.82
746.199	2819.15
746.538	2837
746.877	2882.65
747.216	2907.06
747.556	2927.39
747.895	2978.92
748.234	3013.04
748.573	3044.45
748.911	3141.85
749.25	3152.02
749.589	3177.56
749.928	3231.12
750.267	3263.66
750.605	3292.13
750.944	3291
751.283	3415.07
751.621	3483.76
751.96	3493.71
752.298	3570.09
752.636	3598.34
752.975	3592.69
753.313	3710.65
753.651	3768.05
753.989	3789.74
754.327	3849.86
754.666	3891.21
755.004	4010.76
755.342	4050.08
755.679	4086.46
756.017	4121.04
756.355	4208.94
756.693	4241.94
757.031	4337.3
757.368	4376.17
757.706	4420.24
758.044	4491.42
758.381	4590.85
758.719	4604.64
759.056	4684.64
759.394	4717.86
759.731	4799.89
760.068	4821.36
760.405	4935.93
760.743	5017.28
761.08	5037.85
761.417	5099.09
761.754	5079.65
762.091	5186.09
762.428	5192.65
762.765	5281.23
763.102	5371.62
763.438	5382.02
763.775	5399.42
764.112	5528.46
764.449	5539.98
764.785	5598.51
765.122	5687.77
765.458	5686.64
765.795	5713.31
766.131	5755.34
766.467	5761.44
766.804	5818.62
767.14	5910.37
767.476	5924.6
767.812	5992.4
768.148	6035.11
768.485	6021.55
768.821	6085.28
769.157	6078.95
769.492	6162.11
769.828	6203.24
770.164	6167.54
770.5	6221.09
770.836	6241.66
771.171	6237.82
771.507	6277.82
771.842	6325.5
772.178	6388.77
772.513	6356.68
772.849	6383.35
773.184	6385.83
773.519	6509.9
773.855	6438.94
774.19	6501.99
774.525	6475.78
774.86	6486.62
775.195	6544.25
775.53	6559.39
775.865	6545.6
776.2	6591.71
776.535	6619.05
776.87	6600.07
777.205	6611.82
777.539	6693.17
777.874	6691.59
778.209	6672.38
778.543	6642.33
778.878	6710.12
779.212	6706.96
779.547	6698.14
779.881	6720.06
780.215	6690.01
780.55	6768.42
780.884	6743.34
781.218	6774.53
781.552	6764.13
781.886	6754.41
782.22	6744.02
782.554	6777.01
782.888	6706.28
783.222	6752.6
783.556	6728.42
783.889	6743.34
784.223	6691.59
784.557	6726.84
784.89	6818.82
785.224	6750.8
785.557	6751.48
785.891	6781.98
786.224	6838.25
786.558	6772.04
786.891	6779.27
787.224	6812.94
787.557	6736.33
787.891	6789.67
788.224	6802.77
788.557	6808.42
788.89	6777.46
789.223	6851.13
789.556	6811.36
789.888	6755.77
790.221	6817.69
790.554	6727.52
790.887	6748.54
791.219	6808.87
791.552	6733.4
791.884	6743.57
792.217	6741.98
792.549	6794.41
792.882	6738.14
793.214	6693.85
793.546	6720.97
793.879	6701.08
794.211	6690.46
794.543	6781.3
794.875	6767.75
795.207	6708.09
795.539	6705.15
795.871	6689.78
796.203	6640.29
796.535	6717.58
796.867	6752.6
797.198	6690.01
797.53	6710.35
797.862	6662.21
798.193	6655.21
798.525	6630.12
798.856	6650.23
799.188	6671.93
799.519	6664.7
799.85	6572.95
800.182	6629.9
800.513	6597.58
800.844	6593.06
801.175	6615.89
801.506	6631.93
801.837	6608.43
802.168	6615.21
802.499	6645.72
802.83	6612.04
803.161	6565.04
803.491	6533.18
803.822	6511.26
804.153	6513.29
804.483	6511.03
804.814	6558.94
805.145	6473.06
805.475	6541.31
805.805	6494.08
806.136	6520.75
806.466	6533.63
806.796	6490.92
807.126	6452.27
807.457	6403.01
807.787	6425.83
808.117	6456.57
808.447	6434.2
808.777	6431.48
809.107	6421.09
809.436	6438.94
809.766	6446.62
810.096	6451.37
810.426	6444.14
810.755	6439.62
811.085	6400.75
811.414	6404.59
811.744	6338.38
812.073	6378.38
812.403	6411.14
812.732	6346.97
813.061	6359.85
813.39	6338.6
813.719	6309.45
814.049	6360.52
814.378	6358.94
814.707	6280.98
815.036	6341.09
815.365	6317.36
815.693	6253.86
816.022	6269.91
816.351	6278.04
816.68	6217.03
817.008	6286.18
817.337	6244.37
817.665	6254.09
817.994	6210.7
818.322	6192.85
818.651	6197.14
818.979	6177.48
819.307	6258.61
819.636	6223.35
819.964	6136.8
820.292	6227.2
820.62	6220.64
820.948	6139.97
821.276	6241.88
821.604	6240.75
821.932	6257.93
822.259	6163.02
822.587	6231.71
822.915	6225.84
823.243	6266.74
823.57	6262
823.898	6236.46
824.225	6176.12
824.553	6211.15
824.88	6233.07
825.207	6231.71
825.535	6221.77
825.862	6328.89
826.189	6242.34
826.516	6280.3
826.843	6256.12
827.17	6312.62
827.497	6267.19
827.824	6265.61
828.151	6314.42
828.478	6292.96
828.805	6304.71
829.131	6277.82
829.458	6296.57
829.785	6213.64
830.111	6316.23
830.438	6331.83
830.764	6346.97
831.09	6306.06
831.417	6271.26
831.743	6287.53
832.069	6387.87
832.395	6332.5
832.722	6318.27
833.048	6276.91
833.374	6329.57
833.7	6296.57
834.026	6340.64
834.351	6314.2
834.677	6303.13
835.003	6343.8
835.329	6336.57
835.654	6320.75
835.98	6294.31
836.306	6308.1
836.631	6285.95
836.956	6299.74
837.282	6316.68
837.607	6209.57
837.932	6254.31
838.258	6237.82
838.583	6220.87
838.908	6235.1
839.233	6281.43
839.558	6209.34
839.883	6182.45
840.208	6219.74
840.533	6240.08
840.858	6266.52
841.182	6235.78
841.507	6194.2
841.832	6178.16
842.156	6221.77
842.481	6118.5
842.805	6191.04
843.13	6198.5
843.454	6144.49
843.778	6120.53
844.103	6124.6
844.427	6103.36
844.751	6126.41
845.075	6066.52
845.399	6065.17
845.723	6041.89
846.047	6087.76
846.371	6001.89
846.695	6012.74
847.019	5961.21
847.343	5915.56
847.666	5898.62
847.99	5910.82
848.313	5930.03
848.637	5837.83
848.96	5848.22
849.284	5813.65
849.607	5791.73
849.931	5770.94
850.254	5721.22
850.577	5685.06
850.9	5734.55
851.223	5717.15
851.546	5748.11
851.869	5673.99
852.192	5683.25
852.515	5636.7
852.838	5653.2
853.161	5625.18
853.483	5562.81
853.806	5571.17
854.129	5554.67
854.451	5481.9
854.774	5501.11
855.096	5487.55
855.419	5466.09
855.741	5492.98
856.063	5430.15
856.385	5414.79
856.708	5472.41
857.03	5349.48
857.352	5436.48
857.674	5380.66
857.996	5386.31
858.318	5317.84
858.64	5307.67
858.961	5343.6
859.283	5314.22
859.605	5306.32
859.926	5333.21
860.248	5323.94
860.57	5279.65
860.891	5262.93
861.212	5268.12
861.534	5227.45
861.855	5222.02
862.176	5232.19
862.498	5223.38
862.819	5213.89
863.14	5240.55
863.461	5172.53
863.782	5176.15
864.103	5220.89
864.424	5174.57
864.745	5161.01
865.065	5169.82
865.386	5121.46
865.707	5140.9
866.027	5106.55
866.348	5083.72
866.668	5141.12
866.989	5103.61
867.309	5040.11
867.63	5064.74
867.95	5083.5
868.27	5038.75
868.59	5054.57
868.91	5062.71
869.23	5094.34
869.55	4992.88
869.87	5018.64
870.19	4998.07
870.51	4969.15
870.83	4996.72
871.15	4990.84
871.469	5002.59
871.789	4977.28
872.109	4996.04
872.428	4995.81
872.748	4983.16
873.067	4977.96
873.386	4995.36
873.706	4920.34
874.025	4943.84
874.344	4911.3
874.663	4944.06
874.982	4915.82
875.301	4934.57
875.62	4887.34
875.939	4916.04
876.258	4866.33
876.577	4897.29
876.896	4872.43
877.214	4806.22
877.533	4879.66
877.852	4802.83
878.17	4840.56
878.489	4862.71
878.807	4819.32
879.125	4861.58
879.444	4817.97
879.762	4806.22
880.08	4847.8
880.398	4787.23
880.716	4802.15
881.034	4768.48
881.352	4756.05
881.67	4725.54
881.988	4763.28
882.306	4745.88
882.624	4706.56
882.941	4684.41
883.259	4718.99
883.577	4719.44
883.894	4730.51
884.212	4654.81
884.529	4710.4
884.846	4626.79
885.164	4600.12
885.481	4631.53
885.798	4615.26
886.115	4608.03
886.432	4618.2
886.75	4573
887.067	4563.74
887.383	4551.76
887.7	4534.13
888.017	4546.11
888.334	4563.51
888.651	4542.04
888.967	4536.62
889.284	4464.3
889.6	4461.82
889.917	4432.21
890.233	4494.13
890.55	4472.44
890.866	4469.5
891.182	4431.99
891.498	4403.97
891.815	4350.41
892.131	4404.87
892.447	4346.34
892.763	4381.14
893.079	4375.27
893.395	4322.84
893.71	4323.29
894.026	4333.01
894.342	4288.71
894.657	4285.55
894.973	4263.86
895.289	4276.96
895.604	4250.07
895.92	4254.37
896.235	4179.11
896.55	4213.46
896.865	4193.8
897.181	4197.42
897.496	4218.43
897.811	4122.17
898.126	4125.78
898.441	4125.78
898.756	4097.31
899.071	4075.84
899.386	4119.45
899.7	4061.38
900.015	4000.13
900.33	4016.63
900.644	4030.64
900.959	4048.5
901.273	3984.32
901.588	3982.06
901.902	3952
902.216	3966.46
902.531	3905.67
902.845	3919.91
903.159	3917.88
903.473	3887.37
903.787	3844.88
904.101	3827.03
904.415	3817.31
904.729	3824.32
905.042	3834.72
905.356	3813.25
905.67	3820.03
905.984	3757.43
906.297	3749.97
906.611	3721.27
906.924	3749.75
907.237	3737.54
907.551	3699.8
907.864	3697.54
908.177	3652.57
908.491	3689.18
908.804	3661.61
909.117	3639.47
909.43	3607.6
909.743	3610.31
910.056	3589.3
910.368	3575.74
910.681	3558.79
910.994	3530.77
911.307	3554.72
911.619	3531.45
911.932	3516.76
912.244	3457.1
912.557	3490.77
912.869	3448.51
913.181	3455.74
913.494	3430.66
913.806	3426.36
914.118	3414.84
914.43	3370.55
914.742	3389.53
915.054	3360.83
915.366	3332.58
915.678	3333.03
915.99	3345.01
916.302	3305.46
916.613	3315.41
916.925	3263.21
917.236	3253.04
917.548	3283.54
917.859	3267.05
918.171	3246.26
918.482	3241.28
918.794	3204.9
919.105	3199.48
919.416	3178.69
919.727	3192.7
920.038	3185.02
920.349	3194.51
920.66	3174.17
920.971	3186.6
921.282	3119.48
921.593	3123.32
921.903	3112.47
922.214	3096.43
922.525	3107.28
922.835	3069.31
923.146	3057.56
923.456	3049.88
923.767	3039.03
924.077	3011.01
924.387	3007.17
924.697	2986.38
925.008	3009.2
925.318	2995.87
925.628	2974.63
925.938	2972.37
926.248	2953.83
926.558	2919.71
926.867	2898.92
927.177	2930.11
927.487	2939.15
927.796	2890.11
928.106	2899.82
928.416	2867.51
928.725	2865.48
929.034	2845.59
929.344	2808.3
929.653	2866.15
929.962	2816.66
930.271	2781.86
930.581	2792.71
930.89	2770.56
931.199	2772.6
931.508	2771.69
931.817	2744.35
932.125	2771.01
932.434	2751.58
932.743	2741.86
933.051	2725.82
933.36	2741.86
933.669	2688.53
933.977	2663.67
934.286	2654.41
934.594	2661.87
934.902	2659.38
935.21	2649.21
935.519	2644.24
935.827	2612.37
936.135	2618.25
936.443	2578.25
936.751	2621.41
937.059	2600.4
937.367	2564.69
937.674	2614.63
937.982	2554.3
938.29	2550.68
938.597	2556.78
938.905	2497.35
939.213	2516.78
939.52	2500.06
939.827	2539.61
940.135	2490.12
940.442	2482.66
940.749	2468.88
941.056	2442.21
941.363	2411.7
941.67	2462.55
941.977	2427.75
942.284	2424.81
942.591	2419.39
942.898	2434.07
943.205	2396.79
943.511	2375.54
943.818	2404.7
944.125	2374.19
944.431	2364.25
944.738	2360.18
945.044	2358.37
945.35	2314.53
945.657	2316.34
945.963	2318.15
946.269	2288.54
946.575	2313.4
946.881	2295.1
947.187	2282.21
947.493	2254.64
947.799	2213.74
948.105	2265.27
948.41	2239.05
948.716	2225.04
949.022	2238.15
949.327	2216.23
949.633	2208.77
949.938	2187.53
950.244	2212.84
950.549	2164.48
950.854	2192.05
951.16	2164.93
951.465	2166.06
951.77	2094.42
952.075	2149.56
952.38	2138.71
952.685	2112.5
952.99	2119.51
953.294	2108.21
953.599	2077.7
953.904	2109.79
954.209	2081.77
954.513	2055.1
954.818	2022.79
955.122	2049.45
955.426	2027.08
955.731	2014.88
956.035	2025.5
956.339	2025.27
956.643	2025.72
956.948	2026.85
957.252	2028.89
957.556	2000.41
957.86	1965.16
958.163	1950.92
958.467	1973.75
958.771	1965.61
959.075	1964.48
959.378	1922.22
959.682	1944.6
959.985	1933.75
960.289	1943.01
960.592	1910.25
960.896	1922.9
961.199	1912.73
961.502	1924.71
961.805	1936.01
962.108	1867.54
962.411	1853.75
962.714	1867.99
963.017	1866.18
963.32	1849.46
963.623	1825.95
963.926	1851.72
964.228	1824.15
964.531	1821.66
964.833	1827.54
965.136	1830.02
965.438	1783.02
965.741	1813.75
966.043	1779.4
966.345	1766.52
966.648	1802.45
966.95	1782.11
967.252	1783.02
967.554	1758.61
967.856	1771.27
968.158	1739.18
968.46	1756.35
968.761	1725.17
969.063	1734.21
969.365	1722.68
969.666	1718.39
969.968	1681.55
970.269	1726.97
970.571	1670.48
970.872	1672.74
971.174	1663.93
971.475	1691.95
971.776	1664.15
972.077	1643.13
972.378	1642.23
972.679	1637.94
972.98	1623.7
973.281	1649.24
973.582	1623.47
973.883	1618.73
974.183	1604.04
974.484	1613.53
974.785	1585.51
975.085	1609.46
975.386	1588.22
975.686	1566.07
975.986	1555.91
976.287	1552.06
976.587	1552.29
976.887	1527.43
977.187	1551.61
977.487	1540.09
977.787	1535.12
978.087	1537.83
978.387	1517.71
978.687	1536.7
978.987	1529.47
979.286	1489.24
979.586	1500.09
979.885	1485.4
980.185	1481.11
980.484	1481.56
980.784	1463.93
981.083	1505.51
981.382	1469.13
981.682	1467.09
981.981	1458.96
982.28	1473.87
982.579	1454.21
982.878	1439.07
983.177	1434.33
983.475	1436.81
983.774	1429.13
984.073	1373.54
984.372	1406.08
984.67	1425.29
984.969	1406.3
985.267	1395.01
985.566	1362.01
985.864	1364.05
986.162	1387.55
986.461	1354.78
986.759	1351.39
987.057	1357.72
987.355	1370.6
987.653	1343.71
987.951	1330.83
988.249	1331.5
988.547	1326.08
988.844	1309.13
989.142	1306.87
989.44	1318.4
989.737	1299.64
990.035	1318.62
990.332	1283.14
990.63	1264.39
990.927	1271.39
991.224	1281.56
991.521	1263.94
991.819	1267.1
992.116	1277.27
992.413	1257.16
992.71	1233.65
993.006	1273.2
993.303	1283.14
993.6	1248.34
993.897	1256.48
994.193	1231.17
994.49	1198.4
994.787	1220.1
995.083	1192.3
995.379	1228.46
995.676	1193.43
995.972	1197.27
996.268	1192.75
996.565	1180.55
996.861	1198.63
997.157	1189.59
997.453	1181.23
997.749	1156.37
998.044	1177.38
998.34	1154.56
998.636	1146.42
998.932	1142.58
999.227	1120.89
999.523	1146.2
999.818	1125.18
1000.114	1110.27
1000.409	1124.5
1000.704	1131.28
1001	1100.32
1001.295	1095.8
1001.59	1110.49
1001.885	1120.21
1002.18	1088.35
1002.475	1089.7
1002.77	1073.43
1003.065	1067.78
1003.359	1070.27
1003.654	1050.38
1003.949	1064.17
1004.243	1073.66
1004.538	1040.89
1004.832	1061.68
1005.127	1035.47
1005.421	1033.21
1005.715	1045.64
1006.009	1025.3
1006.304	1036.6
1006.598	1009.03
1006.892	1016.03
1007.186	994.56
1007.48	994.34
1007.773	1027.11
1008.067	983.94
1008.361	993.89
1008.655	968.8
1008.948	967.67
1009.242	972.42
1009.535	948.92
1009.829	941.01
1010.122	960.89
1010.415	947.33
1010.708	952.98
1011.001	959.54
1011.295	955.24
1011.588	924.06
1011.881	914.79
1012.173	926.32
1012.466	919.99
1012.759	933.55
1013.052	922.48
1013.344	911.4
1013.637	899.43
1013.93	927.22
1014.222	884.28
1014.514	901.91
1014.807	886.32
1015.099	895.36
1015.391	875.47
1015.683	897.39
1015.976	885.87
1016.268	862.82
1016.56	863.04
1016.851	847.68
1017.143	853.1
1017.435	858.75
1017.727	849.03
1018.018	858.3
1018.31	837.05
1018.602	853.78
1018.893	830.73
1019.185	823.27
1019.476	831.4
1019.767	819.88
1020.058	799.77
1020.35	804.29
1020.641	791.86
1020.932	802.93
1021.223	801.12
1021.514	822.82
1021.804	753.21
1022.095	779.88
1022.386	773.78
1022.677	799.54
1022.967	765.19
1023.258	786.66
1023.548	761.35
1023.839	755.02
1024.129	751.18
1024.419	748.24
1024.709	758.41
1025	765.87
1025.29	728.58
1025.58	723.84
1025.87	749.15
1026.16	720.45
1026.449	739.43
1026.739	733.55
1027.029	719.54
1027.319	710.5
1027.608	737.17
1027.898	697.17
1028.187	739.43
1028.477	703.72
1028.766	690.39
1029.055	696.72
1029.344	701.69
1029.634	688.58
1029.923	675.93
1030.212	691.75
1030.501	658.3
1030.79	688.81
1031.078	681.8
1031.367	663.27
1031.656	664.63
1031.945	662.82
1032.233	631.86
1032.522	658.53
1032.81	643.84
1033.099	667.79
1033.387	637.29
1033.675	646.78
1033.963	636.38
1034.251	653.33
1034.54	645.42
1034.828	632.77
1035.116	632.77
1035.403	638.42
1035.691	631.64
1035.979	605.65
1036.267	598.87
1036.554	631.41
1036.842	603.39
1037.129	616.27
1037.417	610.62
1037.704	616.5
1037.992	605.42
1038.279	594.8
1038.566	588.7
1038.853	588.7
1039.14	588.7
