Data from blue_chair_FLMS001491_00023.txt Node
Date: Wed Feb 08 10:30:03 GMT 2017
User: dcchb
Spectrometer: FLMS00149
Trigger mode: 0
Integration Time (sec): 2.000000E-2
Scans to average: 10
Electric dark correction enabled: true
Nonlinearity correction enabled: false
Boxcar width: 0
XAxis mode: Wavelengths
Number of Pixels in Spectrum: 2048
>>>>>Begin Spectral Data<<<<<
341.393	-11.96
341.776	-11.96
342.16	-11.96
342.543	-53.09
342.927	-62.58
343.31	-36.14
343.693	-68.68
344.077	-74.79
344.46	-69.14
344.843	-44.96
345.226	-30.04
345.61	-38.18
345.993	-15.58
346.376	6.34
346.759	-3.6
347.142	24.65
347.525	35.27
347.908	59.67
348.291	63.52
348.674	88.6
349.057	103.06
349.44	121.14
349.823	106
350.206	132.21
350.588	180.57
350.971	183.51
351.354	180.57
351.737	210.86
352.119	228.48
352.502	224.64
352.884	256.28
353.267	236.17
353.65	257.18
354.032	275.94
354.414	260.8
354.797	289.5
355.179	303.51
355.562	301.02
355.944	300.12
356.326	314.13
356.709	309.61
357.091	284.75
357.473	310.97
357.855	308.03
358.238	309.38
358.62	309.84
359.002	301.7
359.384	304.86
359.766	283.4
360.148	311.42
360.53	299.44
360.912	316.62
361.294	301.25
361.676	315.94
362.057	297.41
362.439	292.21
362.821	314.81
363.203	294.02
363.584	310.06
363.966	307.8
364.348	287.24
364.729	283.17
365.111	281.14
365.493	293.34
365.874	284.75
366.256	301.25
366.637	293.57
367.019	299.89
367.4	292.44
367.781	290.18
368.163	294.47
368.544	281.81
368.925	283.85
369.306	295.37
369.688	283.17
370.069	296.73
370.45	278.2
370.831	284.3
371.212	277.29
371.593	290.4
371.974	271.87
372.355	284.07
372.736	276.62
373.117	294.02
373.498	295.15
373.879	277.29
374.26	265.09
374.641	270.97
375.021	289.05
375.402	287.24
375.783	292.21
376.163	286.33
376.544	271.65
376.925	308.93
377.305	299.67
377.686	283.4
378.066	270.74
378.447	308.03
378.827	296.5
379.208	287.24
379.588	287.46
379.968	284.3
380.349	294.02
380.729	292.89
381.109	285.88
381.489	293.79
381.87	296.28
382.25	299.89
382.63	293.79
383.01	286.33
383.39	279.33
383.77	302.83
384.15	295.6
384.53	315.94
384.91	299.89
385.29	305.54
385.67	296.28
386.049	316.84
386.429	306.67
386.809	313.45
387.189	303.73
387.568	317.97
387.948	305.32
388.328	305.09
388.707	326.33
389.087	322.27
389.466	321.14
389.846	324.75
390.225	336.95
390.605	315.94
390.984	324.07
391.363	332.21
391.743	332.43
392.122	322.27
392.501	341.02
392.881	326.79
393.26	326.56
393.639	336.28
394.018	345.99
394.397	333.34
394.776	324.75
395.155	345.32
395.534	362.94
395.913	335.82
396.292	344.86
396.671	328.59
397.05	343.73
397.429	347.35
397.808	360.46
398.186	353.23
398.565	366.33
398.944	351.87
399.323	372.21
399.701	379.89
400.08	361.81
400.458	354.81
400.837	383.05
401.215	363.62
401.594	366.33
401.972	356.84
402.351	378.08
402.729	357.07
403.107	387.12
403.486	401.13
403.864	374.92
404.242	374.02
404.62	395.48
404.999	405.43
405.377	379.44
405.755	386.22
406.133	400.68
406.511	390.51
406.889	411.75
407.267	425.77
407.645	402.26
408.023	426.67
408.401	425.31
408.779	407.46
409.156	437.97
409.534	439.32
409.912	406.11
410.29	429.38
410.667	452.88
411.045	446.33
411.422	451.08
411.8	457.4
412.178	442.71
412.555	478.19
412.933	452.66
413.31	449.04
413.687	469.61
414.065	462.15
414.442	481.58
414.819	488.36
415.197	464.86
415.574	468.48
415.951	484.52
416.328	488.14
416.705	489.94
417.082	462.15
417.46	466.44
417.837	498.08
418.214	503.96
418.591	494.01
418.967	480.45
419.344	496.27
419.721	527.46
420.098	476.39
420.475	503.5
420.852	522.94
421.228	534.92
421.605	540.56
421.982	525.2
422.358	545.99
422.735	560.45
423.111	551.19
423.488	562.26
423.864	560
424.241	570.62
424.617	554.35
424.994	555.71
425.37	569.72
425.746	586.67
426.123	576.27
426.499	600
426.875	576.72
427.251	609.72
427.627	622.37
428.003	624.63
428.379	606.55
428.756	630.05
429.132	636.38
429.507	635.7
429.883	622.82
430.259	654.46
430.635	645.19
431.011	650.39
431.387	670.5
431.763	667.57
432.138	674.35
432.514	694.69
432.89	690.84
433.265	688.58
433.641	742.14
434.016	705.76
434.392	742.37
434.767	751.18
435.143	738.98
435.518	751.63
435.894	764.06
436.269	797.28
436.644	782.82
437.02	810.39
437.395	808.58
437.77	820.56
438.145	833.44
438.52	834.79
438.895	851.97
439.271	837.96
439.646	855.36
440.021	887
440.395	886.32
440.77	883.83
441.145	874.79
441.52	924.06
441.895	905.3
442.27	927
442.645	929.71
443.019	928.35
443.394	913.21
443.769	961.12
444.143	937.62
444.518	955.02
444.892	953.66
445.267	939.42
445.641	978.52
446.016	997.28
446.39	991.17
446.764	992.53
447.139	991.85
447.513	1005.19
447.887	1008.58
448.262	1012.19
448.636	1047.22
449.01	1046.31
449.384	1043.15
449.758	1051.06
450.132	1064.62
450.506	1068.69
450.88	1079.99
451.254	1035.92
451.628	1092.19
452.002	1080.44
452.376	1103.04
452.75	1129.25
453.123	1120.21
453.497	1124.05
453.871	1140.32
454.244	1185.29
454.618	1137.84
454.992	1166.99
455.365	1186.88
455.739	1206.76
456.112	1214.67
456.486	1205.41
456.859	1221.68
457.232	1249.92
457.606	1247.21
457.979	1269.36
458.352	1279.75
458.725	1315.46
459.099	1300.32
459.472	1308.68
459.845	1330.15
460.218	1350.04
460.591	1362.01
460.964	1366.76
461.337	1384.84
461.71	1385.51
462.083	1410.82
462.456	1395.23
462.829	1413.08
463.201	1424.61
463.574	1417.15
463.947	1415.34
464.32	1450.15
464.692	1467.55
465.065	1507.32
465.438	1502.8
465.81	1521.1
466.183	1519.3
466.555	1533.99
466.928	1566.53
467.3	1572.63
467.672	1571.95
468.045	1597.03
468.417	1616.69
468.789	1608.56
469.161	1621.67
469.534	1648.78
469.906	1675
470.278	1686.98
470.65	1684.94
471.022	1709.35
471.394	1735.79
471.766	1770.14
472.138	1789.8
472.51	1790.02
472.882	1782.34
473.253	1827.54
473.625	1844.26
473.997	1842
474.369	1860.53
474.74	1866.18
475.112	1903.01
475.484	1924.48
475.855	1954.76
476.227	1959.51
476.598	2011.49
476.97	2009.9
477.341	2055.78
477.713	2065.04
478.084	2076.34
478.455	2161.99
478.827	2126.96
479.198	2141.43
479.569	2146.85
479.94	2203.12
480.311	2220.97
480.682	2274.3
481.053	2313.63
481.424	2286.73
481.795	2338.03
482.166	2338.94
482.537	2348.88
482.908	2399.73
483.279	2408.09
483.65	2437.24
484.021	2483.11
484.391	2515.65
484.762	2509.1
485.133	2469.1
485.503	2489.44
485.874	2563.34
486.244	2579.83
486.615	2599.27
486.985	2599.72
487.356	2630.91
487.726	2627.06
488.097	2688.08
488.467	2654.41
488.837	2682.43
489.207	2706.16
489.578	2740.06
489.948	2749.77
490.318	2752.03
490.688	2772.14
491.058	2795.19
491.428	2754.29
491.798	2812.37
492.168	2794.74
492.538	2849.66
492.908	2811.24
493.278	2857.79
493.648	2840.62
494.017	2870
494.387	2879.03
494.757	2889.43
495.126	2881.97
495.496	2891.24
495.866	2864.35
496.235	2904.12
496.605	2917
496.974	2919.49
497.344	2899.82
497.713	2925.81
498.082	2917.45
498.452	2971.01
498.821	2920.16
499.19	2893.72
499.559	2909.32
499.928	2943.21
500.298	2954.06
500.667	2907.51
501.036	2932.59
501.405	2893.27
501.774	2874.97
502.143	2912.48
502.512	2946.83
502.88	2921.97
503.249	2936.66
503.618	2906.6
503.987	2924.91
504.356	2920.62
504.724	2910.67
505.093	2889.43
505.462	2870.22
505.83	2886.04
506.199	2906.38
506.567	2916.77
506.936	2895.08
507.304	2894.63
507.672	2928.52
508.041	2888.07
508.409	2935.3
508.777	2895.31
509.145	2913.16
509.514	2905.47
509.882	2952.7
510.25	2931.69
510.618	2907.28
510.986	2938.69
511.354	2860.73
511.722	2923.33
512.09	2912.71
512.458	2891.46
512.826	2879.03
513.193	2881.07
513.561	2911.35
513.929	2894.63
514.297	2938.02
514.664	2874.97
515.032	2869.09
515.4	2910.67
515.767	2825.7
516.135	2854.4
516.502	2809.88
516.869	2856.66
517.237	2879.71
517.604	2863.67
517.972	2855.53
518.339	2860.96
518.706	2809.88
519.073	2778.7
519.44	2807.17
519.808	2821.86
520.175	2806.49
520.542	2851.92
520.909	2798.58
521.276	2772.37
521.643	2761.98
522.009	2802.43
522.376	2757.46
522.743	2816.44
523.11	2798.81
523.477	2788.42
523.843	2830.22
524.21	2828.19
524.577	2804.91
524.943	2793.84
525.31	2813.5
525.676	2861.41
526.043	2839.04
526.409	2836.32
526.776	2841.97
527.142	2838.81
527.508	2796.78
527.874	2839.94
528.241	2827.74
528.607	2839.71
528.973	2809.21
529.339	2830.9
529.705	2835.65
530.071	2853.05
530.437	2872.25
530.803	2853.95
531.169	2855.53
531.535	2829.09
531.901	2813.27
532.267	2806.27
532.632	2846.72
532.998	2845.82
533.364	2845.82
533.73	2852.82
534.095	2855.98
534.461	2873.84
534.826	2853.27
535.192	2875.64
535.557	2870.22
535.923	2852.14
536.288	2821.41
536.653	2879.49
537.019	2871.8
537.384	2884.01
537.749	2818.92
538.114	2869.09
538.479	2858.92
538.845	2855.31
539.21	2834.97
539.575	2821.86
539.94	2861.41
540.305	2880.39
540.67	2842.43
541.034	2857.79
541.399	2836.32
541.764	2892.37
542.129	2867.96
542.494	2892.14
542.858	2860.5
543.223	2870.22
543.587	2813.05
543.952	2835.42
544.316	2857.79
544.681	2841.3
545.045	2844.01
545.41	2874.29
545.774	2859.6
546.138	2821.63
546.503	2830.9
546.867	2862.99
547.231	2838.58
547.595	2817.57
547.959	2834.97
548.324	2856.21
548.688	2847.17
549.052	2833.39
549.416	2829.09
549.779	2783.44
550.143	2824.57
550.507	2841.75
550.871	2844.01
551.235	2778.7
551.599	2857.34
551.962	2812.82
552.326	2807.85
552.689	2789.77
553.053	2820.73
553.417	2825.93
553.78	2832.26
554.143	2791.13
554.507	2794.06
554.87	2800.62
555.234	2793.39
555.597	2810.11
555.96	2784.57
556.323	2831.13
556.686	2778.02
557.05	2805.14
557.413	2785.93
557.776	2808.98
558.139	2813.73
558.502	2849.66
558.865	2808.53
559.228	2808.75
559.59	2791.13
559.953	2808.08
560.316	2826.38
560.679	2794.74
561.041	2811.92
561.404	2803.56
561.767	2829.32
562.129	2797.45
562.492	2846.27
562.854	2853.27
563.217	2812.14
563.579	2820.5
563.941	2821.86
564.304	2861.18
564.666	2842.88
565.028	2860.73
565.39	2855.08
565.753	2866.15
566.115	2896.66
566.477	2882.2
566.839	2860.96
567.201	2922.42
567.563	2917.68
567.925	2872.25
568.287	2904.34
568.648	2894.85
569.01	2913.16
569.372	2945.25
569.734	2946.15
570.095	2938.69
570.457	2988.64
570.819	2938.69
571.18	2984.12
571.542	2939.15
571.903	2980.05
572.265	2991.8
572.626	3002.2
572.987	2989.31
573.349	2982.31
573.71	2981.4
574.071	3018.01
574.432	2996.55
574.794	3062.31
575.155	3058.92
575.516	3032.93
575.877	3076.54
576.238	3069.31
576.599	3103.44
576.96	3075.41
577.32	3101.63
577.681	3095.75
578.042	3103.44
578.403	3125.81
578.763	3132.81
579.124	3131.01
579.485	3123.77
579.845	3168.07
580.206	3129.42
580.566	3120.16
580.927	3115.64
581.287	3133.94
581.648	3129.42
582.008	3179.82
582.368	3184.34
582.728	3166.03
583.089	3190.21
583.449	3154.06
583.809	3178.91
584.169	3182.76
584.529	3174.62
584.889	3213.71
585.249	3219.59
585.609	3175.07
585.969	3196.31
586.329	3187.05
586.688	3194.96
587.048	3235.18
587.408	3205.13
587.768	3239.25
588.127	3255.75
588.487	3205.35
588.846	3253.71
589.206	3225.24
589.565	3237.22
589.925	3214.84
590.284	3208.29
590.643	3245.13
591.003	3242.87
591.362	3225.24
591.721	3235.41
592.08	3239.48
592.44	3253.04
592.799	3225.69
593.158	3239.93
593.517	3244.22
593.876	3245.8
594.235	3229.76
594.593	3236.54
594.952	3224.79
595.311	3231.12
595.67	3227.95
596.029	3229.53
596.387	3248.06
596.746	3219.36
597.104	3232.7
597.463	3230.44
597.822	3258.23
598.18	3196.99
598.538	3214.17
598.897	3273.15
599.255	3257.1
599.613	3277.89
599.972	3253.94
600.33	3235.86
600.688	3225.92
601.046	3260.49
601.404	3261.62
601.762	3239.48
602.12	3245.8
602.478	3249.19
602.836	3265.24
603.194	3295.75
603.552	3279.02
603.91	3277.44
604.268	3294.16
604.625	3268.18
604.983	3231.12
605.341	3241.06
605.698	3228.4
606.056	3246.93
606.413	3262.3
606.771	3288.06
607.128	3251.45
607.485	3264.11
607.843	3272.92
608.2	3274.96
608.557	3273.6
608.914	3285.13
609.272	3289.42
609.629	3242.41
609.986	3313.6
610.343	3269.76
610.7	3272.7
611.057	3242.64
611.414	3260.04
611.771	3296.2
612.127	3319.47
612.484	3297.55
612.841	3303.66
613.198	3294.62
613.554	3288.06
613.911	3319.25
614.267	3316.09
614.624	3270.44
614.98	3334.16
615.337	3329.19
615.693	3286.03
616.05	3347.72
616.406	3342.75
616.762	3297.55
617.118	3286.26
617.475	3316.99
617.831	3339.59
618.187	3333.94
618.543	3354.05
618.899	3362.64
619.255	3359.7
619.611	3347.27
619.967	3294.39
620.323	3361.73
620.678	3301.85
621.034	3281.74
621.39	3339.59
621.746	3352.47
622.101	3335.29
622.457	3281.28
622.812	3281.74
623.168	3352.24
623.523	3367.38
623.879	3374.84
624.234	3329.19
624.589	3366.48
624.945	3352.24
625.3	3357.21
625.655	3364.9
626.01	3382.75
626.365	3371.68
626.72	3363.09
627.075	3342.3
627.43	3341.4
627.785	3369.42
628.14	3355.18
628.495	3359.7
628.85	3373.03
629.205	3358.12
629.559	3394.28
629.914	3386.82
630.269	3353.6
630.623	3373.71
630.978	3366.03
631.332	3346.14
631.687	3416.42
632.041	3374.39
632.396	3359.02
632.75	3349.98
633.104	3346.37
633.459	3349.76
633.813	3373.26
634.167	3371.68
634.521	3387.5
634.875	3373.71
635.229	3363.99
635.583	3358.57
635.937	3388.63
636.291	3377.33
636.645	3387.5
636.999	3379.13
637.352	3374.16
637.706	3360.6
638.06	3342.3
638.413	3355.63
638.767	3388.85
639.121	3382.3
639.474	3360.15
639.828	3361.06
640.181	3351.11
640.534	3360.38
640.888	3338.68
641.241	3368.29
641.594	3388.63
641.947	3379.81
642.301	3383.65
642.654	3374.39
643.007	3382.07
643.36	3367.61
643.713	3356.31
644.066	3368.74
644.419	3336.88
644.771	3337.33
645.124	3335.52
645.477	3319.93
645.83	3356.99
646.182	3281.28
646.535	3262.98
646.888	3305.01
647.24	3284
647.593	3297.78
647.945	3291.68
648.298	3307.72
648.65	3309.53
649.002	3302.07
649.355	3313.6
649.707	3302.98
650.059	3333.71
650.411	3364.67
650.763	3370.77
651.115	3421.17
651.467	3409.64
651.819	3392.69
652.171	3433.14
652.523	3444.9
652.875	3421.17
653.227	3422.52
653.578	3465.46
653.93	3457.55
654.282	3453.93
654.633	3413.26
654.985	3420.04
655.337	3402.86
655.688	3449.19
656.039	3448.74
656.391	3450.77
656.742	3473.37
657.094	3490.54
657.445	3471.34
657.796	3499.58
658.147	3457.1
658.498	3468.85
658.849	3493.03
659.2	3499.81
659.551	3511.56
659.902	3511.56
660.253	3523.99
660.604	3509.98
660.955	3485.8
661.306	3516.53
661.656	3498
662.007	3476.31
662.358	3530.54
662.708	3495.97
663.059	3497.32
663.409	3505.68
663.76	3511.11
664.11	3542.07
664.461	3529.19
664.811	3528.28
665.161	3519.24
665.511	3535.29
665.862	3499.58
666.212	3521.05
666.562	3516.98
666.912	3506.59
667.262	3488.06
667.612	3494.61
667.962	3521.96
668.312	3532.8
668.662	3537.55
669.011	3543.2
669.361	3536.42
669.711	3599.02
670.06	3519.47
670.41	3534.16
670.76	3482.63
671.109	3565.57
671.459	3508.4
671.808	3508.62
672.157	3485.12
672.507	3457.1
672.856	3469.08
673.205	3453.26
673.554	3479.47
673.904	3448.06
674.253	3499.81
674.602	3459.13
674.951	3424.1
675.3	3418.91
675.649	3456.65
675.998	3441.73
676.346	3440.38
676.695	3422.3
677.044	3410.09
677.393	3405.57
677.741	3414.39
678.09	3407.38
678.438	3395.86
678.787	3428.62
679.135	3419.13
679.484	3370.55
679.832	3349.98
680.181	3340.72
680.529	3390.89
680.877	3364.67
681.225	3341.62
681.573	3383.65
681.922	3330.55
682.27	3287.61
682.618	3317.44
682.966	3337.78
683.314	3324.9
683.661	3286.71
684.009	3314.05
684.357	3285.8
684.705	3277.22
685.053	3287.16
685.4	3256.65
685.748	3262.3
686.095	3258.01
686.443	3208.74
686.79	3227.05
687.138	3208.97
687.485	3196.77
687.832	3188.4
688.18	3206.71
688.527	3163.55
688.874	3188.63
689.221	3145.24
689.568	3206.94
689.915	3095.3
690.262	3109.76
690.609	3128.97
690.956	3129.65
691.303	3120.84
691.65	3091.68
691.997	3076.32
692.344	3102.31
692.69	3027.51
693.037	3076.77
693.383	3050.33
693.73	3016.21
694.077	3016.88
694.423	3007.84
694.769	3041.52
695.116	3001.29
695.462	3011.69
695.808	3006.49
696.155	2996.77
696.501	2983.66
696.847	2956.77
697.193	2931.91
697.539	2975.53
697.885	2948.41
698.231	2928.98
698.577	2892.59
698.923	2935.76
699.269	2929.88
699.614	2898.92
699.96	2882.65
700.306	2865.48
700.651	2883.55
700.997	2848.3
701.342	2857.79
701.688	2875.64
702.033	2870
702.379	2879.94
702.724	2842.2
703.069	2839.94
703.415	2848.98
703.76	2850.11
704.105	2803.56
704.45	2828.41
704.795	2807.85
705.14	2782.31
705.485	2802.88
705.83	2774.86
706.175	2805.14
706.52	2799.04
706.865	2749.77
707.209	2789.55
707.554	2771.69
707.899	2773.95
708.243	2776.44
708.588	2784.57
708.932	2772.82
709.277	2773.95
709.621	2775.08
709.966	2766.04
710.31	2808.98
710.654	2766.72
710.998	2765.82
711.342	2796.1
711.687	2770.34
712.031	2769.88
712.375	2778.47
712.719	2736.67
713.063	2752.71
713.407	2723.56
713.75	2717.46
714.094	2801.52
714.438	2765.37
714.782	2768.53
715.125	2787.51
715.469	2775.76
715.812	2751.58
716.156	2783.44
716.499	2759.94
716.843	2830.9
717.186	2777.34
717.53	2811.24
717.873	2788.42
718.216	2815.08
718.559	2811.01
718.902	2798.81
719.246	2803.1
719.589	2788.64
719.932	2790.45
720.275	2796.1
720.617	2821.18
720.96	2806.95
721.303	2808.75
721.646	2836.55
721.989	2837.23
722.331	2836.1
722.674	2879.49
723.016	2872.25
723.359	2887.4
723.701	2880.39
724.044	2873.61
724.386	2854.85
724.729	2877
725.071	2923.1
725.413	2919.26
725.755	2927.17
726.097	2927.62
726.439	2886.27
726.782	2923.55
727.124	2903.67
727.465	2941.18
727.807	2981.4
728.149	2976.66
728.491	2946.15
728.833	3019.6
729.175	3001.97
729.516	3040.84
729.858	3003.1
730.199	3066.6
730.541	3033.38
730.882	3022.99
731.224	3041.74
731.565	3088.29
731.906	3073.38
732.248	3117.45
732.589	3091.23
732.93	3118.8
733.271	3144.34
733.612	3186.37
733.953	3156.99
734.294	3197.22
734.635	3170.55
734.976	3182.98
735.317	3235.18
735.658	3238.12
735.999	3273.15
736.339	3294.62
736.68	3308.85
737.021	3311.34
737.361	3349.76
737.702	3377.55
738.042	3348.85
738.383	3377.1
738.723	3395.18
739.063	3380.49
739.404	3470.88
739.744	3474.05
740.084	3476.76
740.424	3523.76
740.764	3550.43
741.104	3603.76
741.444	3595.17
741.784	3626.59
742.124	3607.15
742.464	3692.35
742.804	3736.87
743.143	3759.24
743.483	3812.57
743.823	3748.84
744.162	3890.76
744.502	3933.24
744.841	3914.94
745.181	3994.03
745.52	4008.04
745.86	4062.51
746.199	4064.54
746.538	4112.45
746.877	4149.28
747.216	4211.65
747.556	4253.46
747.895	4318.54
748.234	4350.18
748.573	4379.56
748.911	4432.44
749.25	4507.69
749.589	4583.62
749.928	4613.68
750.267	4714.92
750.605	4702.94
750.944	4775.48
751.283	4876.95
751.621	4988.81
751.96	4976.15
752.298	5078.98
752.636	5135.02
752.975	5201.01
753.313	5252.08
753.651	5344.51
753.989	5379.76
754.327	5481.9
754.666	5568.46
755.004	5631.96
755.342	5694.1
755.679	5772.29
756.017	5867.43
756.355	5921.67
756.693	5997.82
757.031	6026.3
757.368	6067.65
757.706	6185.39
758.044	6253.86
758.381	6343.35
758.719	6432.61
759.056	6476.91
759.394	6590.12
759.731	6583.34
760.068	6704.24
760.405	6807.29
760.743	6834.64
761.08	6945.14
761.417	6992.6
761.754	7073.5
762.091	7145.36
762.428	7172.71
762.765	7246.15
763.102	7309.2
763.438	7365.7
763.775	7430.55
764.112	7496.77
764.449	7549.87
764.785	7587.61
765.122	7646.82
765.458	7738.34
765.795	7743.54
766.131	7839.81
766.467	7847.72
766.804	7938.34
767.14	7985.11
767.476	8044.1
767.812	8004.55
768.148	8099.24
768.485	8127.26
768.821	8163.87
769.157	8200.7
769.492	8219.91
769.828	8267.59
770.164	8290.87
770.5	8323.19
770.836	8342.39
771.171	8413.35
771.507	8442.28
771.842	8471.88
772.178	8451.54
772.513	8510.07
772.849	8509.17
773.184	8532.67
773.519	8647.02
773.855	8579.68
774.19	8616.74
774.525	8658.54
774.86	8663.06
775.195	8670.29
775.53	8626.91
775.865	8761.37
776.2	8693.8
776.535	8652.22
776.87	8776.73
777.205	8745.32
777.539	8730.86
777.874	8766.56
778.209	8759.33
778.543	8740.12
778.878	8740.35
779.212	8761.14
779.547	8756.62
779.881	8755.94
780.215	8800.01
780.55	8832.1
780.884	8769.95
781.218	8856.73
781.552	8844.53
781.886	8829.39
782.22	8757.98
782.554	8812.66
782.888	8816.05
783.222	8810.86
783.556	8874.81
783.889	8769.5
784.223	8689.5
784.557	8750.52
784.89	8786.68
785.224	8787.35
785.557	8714.36
785.891	8744.42
786.224	8734.7
786.558	8738.32
786.891	8724.08
787.224	8712.78
787.557	8709.39
787.891	8701.25
788.224	8730.63
788.557	8770.18
788.89	8694.25
789.223	8804.08
789.556	8706
789.888	8666.23
790.221	8701.93
790.554	8628.94
790.887	8665.77
791.219	8655.15
791.552	8651.31
791.884	8601.37
792.217	8642.95
792.549	8649.96
792.882	8549.85
793.214	8607.92
793.546	8606.57
793.879	8586.91
794.211	8594.59
794.543	8577.64
794.875	8559.79
795.207	8567.7
795.539	8559.11
795.871	8539.22
796.203	8493.58
796.535	8453.35
796.867	8490.64
797.198	8482.5
797.53	8517.3
797.862	8437.08
798.193	8498.77
798.525	8450.64
798.856	8472.79
799.188	8372.45
799.519	8327.03
799.85	8303.98
800.182	8322.06
800.513	8395.5
800.844	8382.17
801.175	8344.2
801.506	8358.89
801.837	8321.6
802.168	8241.61
802.499	8260.81
802.83	8277.76
803.161	8251.32
803.491	8225.33
803.822	8314.37
804.153	8238.67
804.483	8179.01
804.814	8176.75
805.145	8200.7
805.475	8186.92
805.805	8189.86
806.136	8191.44
806.466	8140.59
806.796	8196.63
807.126	8034.83
807.457	8061.05
807.787	8060.59
808.117	8016.98
808.447	8003.42
808.777	8088.84
809.107	7995.28
809.436	8015.62
809.766	8030.99
810.096	8026.92
810.426	8014.94
810.755	8016.75
811.085	7972.69
811.414	7999.35
811.744	7901.05
812.073	7892.01
812.403	7976.3
812.732	7906.02
813.061	7908.96
813.39	7867.15
813.719	7850.88
814.049	7889.52
814.378	7848.62
814.707	7894.04
815.036	7883.2
815.365	7831.9
815.693	7680.04
816.022	7760.49
816.351	7735.4
816.68	7732.69
817.008	7752.58
817.337	7678.46
817.665	7662.41
817.994	7733.37
818.322	7639.59
818.651	7679.13
818.979	7647.72
819.307	7707.61
819.636	7641.85
819.964	7689.76
820.292	7628.97
820.62	7683.65
820.948	7628.74
821.276	7696.08
821.604	7623.32
821.932	7715.74
822.259	7700.6
822.587	7653.15
822.915	7638.46
823.243	7684.56
823.57	7730.66
823.898	7630.32
824.225	7713.94
824.553	7674.84
824.88	7632.13
825.207	7631.68
825.535	7680.26
825.862	7710.09
826.189	7656.99
826.516	7700.83
826.843	7757.78
827.17	7765.23
827.497	7776.98
827.824	7749.64
828.151	7720.94
828.478	7791.22
828.805	7779.92
829.131	7755.06
829.458	7754.39
829.785	7717.78
830.111	7722.3
830.438	7750.09
830.764	7736.53
831.09	7728.17
831.417	7662.19
831.743	7759.58
832.069	7747.61
832.395	7710.09
832.722	7689.3
833.048	7721.17
833.374	7662.19
833.7	7645.24
834.026	7680.49
834.351	7723.88
834.677	7644.33
835.003	7760.26
835.329	7735.4
835.654	7702.64
835.98	7697.44
836.306	7742.86
836.631	7651.56
836.956	7685.91
837.282	7702.64
837.607	7669.64
837.932	7656.08
838.258	7653.15
838.583	7657.89
838.908	7654.95
839.233	7678.91
839.558	7669.42
839.883	7575.63
840.208	7602.3
840.533	7592.13
840.858	7579.7
841.182	7618.34
841.507	7586.93
841.832	7532.92
842.156	7510.1
842.481	7494.28
842.805	7485.92
843.13	7434.85
843.454	7429.65
843.778	7376.54
844.103	7373.15
844.427	7414.96
844.751	7448.86
845.075	7363.89
845.399	7298.13
845.723	7318.24
846.047	7377.22
846.371	7277.56
846.695	7280.05
847.019	7292.25
847.343	7185.14
847.666	7172.25
847.99	7165.48
848.313	7111.92
848.637	7128.19
848.96	7076.21
849.284	7028.3
849.607	6967.51
849.931	6994.18
850.254	7008.42
850.577	6915.54
850.9	6902.88
851.223	6851.59
851.546	6902.66
851.869	6807.52
852.192	6869.21
852.515	6801.87
852.838	6762.32
853.161	6730.01
853.483	6693.4
853.806	6723.23
854.129	6675.09
854.451	6674.41
854.774	6620.18
855.096	6676.22
855.419	6593.29
855.741	6606.17
856.063	6535.21
856.385	6597.81
856.708	6482.78
857.03	6526.62
857.352	6540.41
857.674	6514.65
857.996	6464.02
858.318	6515.1
858.64	6438.94
858.961	6437.36
859.283	6381.32
859.605	6351.03
859.926	6373.18
860.248	6351.94
860.57	6342.9
860.891	6372.5
861.212	6283.01
861.534	6338.38
861.855	6251.15
862.176	6247.76
862.498	6247.76
862.819	6253.86
863.14	6221.77
863.461	6177.03
863.782	6239.4
864.103	6237.59
864.424	6204.6
864.745	6212.05
865.065	6194.43
865.386	6207.76
865.707	6170.93
866.027	6156.69
866.348	6155.33
866.668	6109.01
866.989	6096.58
867.309	6084.37
867.63	6109.23
867.95	6079.63
868.27	6085.96
868.59	6075.79
868.91	6090.93
869.23	6095.67
869.55	6012.29
869.87	6059.97
870.19	6027.2
870.51	6013.19
870.83	6045.5
871.15	6031.95
871.469	5991.27
871.789	6049.8
872.109	5979.74
872.428	5950.59
872.748	6022.45
873.067	5997.82
873.386	5956.92
873.706	5944.72
874.025	5951.5
874.344	5920.76
874.663	5938.62
874.982	5965.73
875.301	5955.34
875.62	5890.93
875.939	5875.11
876.258	5878.5
876.577	5886.19
876.896	5861.78
877.214	5814.78
877.533	5842.12
877.852	5810.93
878.17	5840.54
878.489	5800.77
878.807	5824.27
879.125	5845.96
879.444	5771.16
879.762	5772.74
880.08	5810.03
880.398	5758.96
880.716	5744.04
881.034	5752.41
881.352	5696.59
881.67	5714.44
881.988	5748.79
882.306	5713.54
882.624	5746.98
882.941	5735.23
883.259	5666.76
883.577	5679.19
883.894	5605.06
884.212	5593.99
884.529	5638.06
884.846	5595.12
885.164	5588.12
885.481	5588.34
885.798	5566.2
886.115	5488.23
886.432	5535.46
886.75	5513.54
887.067	5506.54
887.383	5442.13
887.7	5471.28
888.017	5422.02
888.334	5464.73
888.651	5479.42
888.967	5383.83
889.284	5394.9
889.6	5428.57
889.917	5401
890.233	5344.73
890.55	5354.45
890.866	5378.86
891.182	5360.33
891.498	5310.61
891.815	5269.48
892.131	5320.1
892.447	5261.8
892.763	5235.13
893.079	5230.61
893.395	5221.57
893.71	5203.72
894.026	5217.28
894.342	5200.1
894.657	5124.63
894.973	5090.95
895.289	5139.31
895.604	5153.78
895.92	5031.52
896.235	5063.16
896.55	5111.52
896.865	5026.77
897.181	5033.1
897.496	5015.48
897.811	5002.82
898.126	4981.35
898.441	4984.74
898.756	4916.95
899.071	4895.25
899.386	4913.33
899.7	4857.74
900.015	4881.24
900.33	4862.26
900.644	4865.2
900.959	4854.8
901.273	4809.61
901.588	4793.56
901.902	4769.83
902.216	4715.14
902.531	4735.48
902.845	4743.62
903.159	4718.76
903.473	4661.36
903.787	4679.89
904.101	4664.52
904.415	4647.8
904.729	4662.04
905.042	4607.12
905.356	4610.97
905.67	4621.36
905.984	4597.63
906.297	4548.14
906.611	4504.75
906.924	4489.39
907.237	4482.61
907.551	4450.29
907.864	4486.45
908.177	4419.11
908.491	4467.92
908.804	4417.07
909.117	4365.55
909.43	4336.4
909.743	4350.18
910.056	4325.78
910.368	4337.08
910.681	4258.43
910.994	4303.63
911.307	4264.76
911.619	4255.04
911.932	4229.06
912.244	4234.71
912.557	4191.54
912.869	4175.72
913.181	4184.76
913.494	4167.14
913.806	4161.94
914.118	4111.09
914.43	4118.55
914.742	4141.6
915.054	4084.65
915.366	4060.47
915.678	4022.73
915.99	4062.96
916.302	4005.33
916.613	3993.58
916.925	3953.36
917.236	3982.96
917.548	3975.95
917.859	3971.89
918.171	3914.04
918.482	3898.89
918.794	3917.2
919.105	3885.34
919.416	3844.66
919.727	3843.98
920.038	3833.81
920.349	3788.84
920.66	3769.18
920.971	3802.85
921.282	3787.26
921.593	3758.11
921.903	3723.08
922.214	3687.83
922.525	3736.41
922.835	3725.57
923.146	3695.74
923.456	3686.02
923.767	3667.04
924.077	3629.52
924.387	3615.29
924.697	3604.44
925.008	3604.21
925.318	3554.5
925.628	3539.36
925.938	3587.49
926.248	3548.85
926.558	3538.9
926.867	3514.5
927.177	3513.37
927.487	3490.77
927.796	3443.77
928.106	3451
928.416	3385.01
928.725	3431.11
929.034	3381.62
929.344	3439.92
929.653	3413.03
929.962	3350.21
930.271	3385.91
930.581	3362.86
930.89	3334.84
931.199	3337.55
931.508	3267.95
931.817	3278.57
932.125	3312.24
932.434	3257.78
932.743	3248.74
933.051	3208.29
933.36	3233.83
933.669	3188.4
933.977	3186.15
934.286	3207.39
934.594	3178.46
934.902	3176.88
935.21	3131.23
935.519	3147.5
935.827	3123.77
936.135	3156.32
936.443	3103.66
936.751	3090.78
937.059	3091.23
937.367	3053.04
937.674	3077
937.982	3048.52
938.29	3034.06
938.597	3090.78
938.905	2997.45
939.213	2993.16
939.52	3012.82
939.827	3013.27
940.135	2943.67
940.442	2935.76
940.749	2970.33
941.056	2936.21
941.363	2897.57
941.67	2901.86
941.977	2887.85
942.284	2847.17
942.591	2874.74
942.898	2858.47
943.205	2848.75
943.511	2852.82
943.818	2810.34
944.125	2797.23
944.431	2775.31
944.738	2802.88
945.044	2800.84
945.35	2765.82
945.657	2728.53
945.963	2749.09
946.269	2707.51
946.575	2731.69
946.881	2741.41
947.187	2713.39
947.493	2638.59
947.799	2682.2
948.105	2683.11
948.41	2657.8
948.716	2655.76
949.022	2604.47
949.327	2657.57
949.633	2602.43
949.938	2608.53
950.244	2580.06
950.549	2576.44
950.854	2593.84
951.16	2568.31
951.465	2565.14
951.77	2529.67
952.075	2538.25
952.38	2557.01
952.685	2524.47
952.99	2488.54
953.294	2517.91
953.599	2444.24
953.904	2466.84
954.209	2467.75
954.513	2431.14
954.818	2471.81
955.122	2411.93
955.426	2400.18
955.731	2400.85
956.035	2405.15
956.339	2408.99
956.643	2367.86
956.948	2380.29
957.252	2373.96
957.556	2360.4
957.86	2358.37
958.163	2326.28
958.467	2326.28
958.771	2312.95
959.075	2363.34
959.378	2284.93
959.682	2269.78
959.985	2259.16
960.289	2278.6
960.592	2291.93
960.896	2257.58
961.199	2214.65
961.502	2242.22
961.805	2234.76
962.108	2184.14
962.411	2224.14
962.714	2193.85
963.017	2183.23
963.32	2175.32
963.623	2161.77
963.926	2147.98
964.228	2152.5
964.531	2124.03
964.833	2145.72
965.136	2155.66
965.438	2091.94
965.741	2134.2
966.043	2141.2
966.345	2104.14
966.648	2065.27
966.95	2065.04
967.252	2084.48
967.554	2048.1
967.856	2055.33
968.158	2057.36
968.46	2027.31
968.761	2019.17
969.063	2013.07
969.365	1977.14
969.666	2009.9
969.968	1991.83
970.269	1972.39
970.571	1981.88
970.872	1965.39
971.174	1975.33
971.475	1961.54
971.776	1949.79
972.077	1940.3
972.378	1931.49
972.679	1924.94
972.98	1916.35
973.281	1925.16
973.582	1910.25
973.883	1920.19
974.183	1905.95
974.484	1896.24
974.785	1874.77
975.085	1845.84
975.386	1858.04
975.686	1849.01
975.986	1855.78
976.287	1835.67
976.587	1836.35
976.887	1823.47
977.187	1816.92
977.487	1814.43
977.787	1799.97
978.087	1780.76
978.387	1802.23
978.687	1777.82
978.987	1778.27
979.286	1743.7
979.586	1743.7
979.885	1766.75
980.185	1759.74
980.484	1719.06
980.784	1752.06
981.083	1723.36
981.382	1730.36
981.682	1681.33
981.981	1682.46
982.28	1693.53
982.579	1700.31
982.878	1704.15
983.177	1683.13
983.475	1694.66
983.774	1651.27
984.073	1649.91
984.372	1672.74
984.67	1621.67
984.969	1638.84
985.267	1616.24
985.566	1606.98
985.864	1646.75
986.162	1624.6
986.461	1613.76
986.759	1598.84
987.057	1594.77
987.355	1586.64
987.653	1568.11
987.951	1557.04
988.249	1551.39
988.547	1569.46
988.844	1544.15
989.142	1547.54
989.44	1505.51
989.737	1523.59
990.035	1536.92
990.332	1513.19
990.63	1517.94
990.927	1522.01
991.224	1493.08
991.521	1493.99
991.819	1472.97
992.116	1463.25
992.413	1498.96
992.71	1497.15
993.006	1463.93
993.303	1447.66
993.6	1443.14
993.897	1443.59
994.193	1458.05
994.49	1418.96
994.787	1442.24
995.083	1424.16
995.379	1395.01
995.676	1406.76
995.972	1371.05
996.268	1392.29
996.565	1366.98
996.861	1371.28
997.157	1378.28
997.453	1341.45
997.749	1355.68
998.044	1339.19
998.34	1357.49
998.636	1340.09
998.932	1343.71
999.227	1321.34
999.523	1303.71
999.818	1315.01
1000.114	1314.1
1000.409	1287.21
1000.704	1286.31
1001	1299.19
1001.295	1273.2
1001.59	1231.62
1001.885	1283.6
1002.18	1261.22
1002.475	1268.46
1002.77	1242.02
1003.065	1255.57
1003.359	1238.63
1003.654	1271.39
1003.949	1203.37
1004.243	1202.47
1004.538	1210.6
1004.832	1216.48
1005.127	1199.3
1005.421	1195.01
1005.715	1202.24
1006.009	1189.36
1006.304	1188.46
1006.598	1191.4
1006.892	1182.13
1007.186	1148.23
1007.48	1166.99
1007.773	1125.41
1008.067	1146.2
1008.361	1140.1
1008.655	1131.51
1008.948	1127.44
1009.242	1121.34
1009.535	1124.28
1009.829	1112.3
1010.122	1099.65
1010.415	1112.98
1010.708	1103.26
1011.001	1092.64
1011.295	1062.59
1011.588	1059.87
1011.881	1073.66
1012.173	1068.69
1012.466	1059.87
1012.759	1057.84
1013.052	1074.79
1013.344	1053.55
1013.637	1020.55
1013.93	1034.56
1014.222	1032.08
1014.514	1023.49
1014.807	1031.63
1015.099	1042.02
1015.391	1002.7
1015.683	1013.09
1015.976	998.41
1016.268	995.47
1016.56	991.17
1016.851	971.74
1017.143	976.26
1017.435	987.78
1017.727	954.79
1018.018	952.76
1018.31	936.94
1018.602	934
1018.893	934.23
1019.185	953.66
1019.476	953.44
1019.767	918.86
1020.058	926.77
1020.35	904.4
1020.641	929.93
1020.932	911.4
1021.223	899.65
1021.514	900.33
1021.804	889.93
1022.095	897.62
1022.386	874.79
1022.677	900.33
1022.967	873.44
1023.258	856.94
1023.548	850.39
1023.839	857.62
1024.129	880.67
1024.419	833.44
1024.709	836.38
1025	833.44
1025.29	865.53
1025.58	823.04
1025.87	820.33
1026.16	831.18
1026.449	832.31
1026.739	802.48
1027.029	802.93
1027.319	792.76
1027.608	792.99
1027.898	779.88
1028.187	787.11
1028.477	797.96
1028.766	802.48
1029.055	781.46
1029.344	777.62
1029.634	783.5
1029.923	791.18
1030.212	764.74
1030.501	754.12
1030.79	755.02
1031.078	743.95
1031.367	761.35
1031.656	763.84
1031.945	729.71
1032.233	740.79
1032.522	719.54
1032.81	717.51
1033.099	748.24
1033.387	727.9
1033.675	731.07
1033.963	716.83
1034.251	715.48
1034.54	714.8
1034.828	696.94
1035.116	692.43
1035.403	703.95
1035.691	706.89
1035.979	685.65
1036.267	694.01
1036.554	681.35
1036.842	710.5
1037.129	665.31
1037.417	657.17
1037.704	644.97
1037.992	652.43
1038.279	645.19
1038.566	651.52
1038.853	651.52
1039.14	651.52
