Data from blue_clamp_base_FLMS001491_00077.txt Node
Date: Wed Feb 08 15:16:30 GMT 2017
User: dcchb
Spectrometer: FLMS00149
Trigger mode: 0
Integration Time (sec): 2.000000E-2
Scans to average: 10
Electric dark correction enabled: true
Nonlinearity correction enabled: false
Boxcar width: 0
XAxis mode: Wavelengths
Number of Pixels in Spectrum: 2048
>>>>>Begin Spectral Data<<<<<
341.393	-28.01
341.776	-28.01
342.16	-28.01
342.543	-63.04
342.927	-77.05
343.31	-57.84
343.693	-66.2
344.077	-70.27
344.46	-56.26
344.843	-51.28
345.226	-48.12
345.61	-46.54
345.993	-22.13
346.376	-1.57
346.759	-5.41
347.142	13.8
347.525	69.84
347.908	64.65
348.291	75.27
348.674	83.4
349.057	118.66
349.44	124.53
349.823	151.42
350.206	156.62
350.588	187.35
350.971	200.01
351.354	240.46
351.737	237.97
352.119	265.77
352.502	268.48
352.884	275.94
353.267	283.4
353.65	307.35
354.032	308.93
354.414	320.23
354.797	307.35
355.179	308.71
355.562	322.49
355.944	331.3
356.326	325.88
356.709	324.98
357.091	331.76
357.473	349.61
357.855	328.14
358.238	343.73
358.62	338.08
359.002	340.8
359.384	332.43
359.766	347.35
360.148	348.03
360.53	340.57
360.912	347.58
361.294	343.96
361.676	330.85
362.057	322.72
362.439	314.58
362.821	326.11
363.203	334.47
363.584	319.33
363.966	322.72
364.348	324.07
364.729	348.93
365.111	315.71
365.493	305.99
365.874	334.69
366.256	341.25
366.637	318.42
367.019	318.42
367.4	332.21
367.781	323.62
368.163	322.04
368.544	332.21
368.925	314.13
369.306	325.66
369.688	317.75
370.069	310.29
370.45	315.94
370.831	324.53
371.212	326.56
371.593	330.4
371.974	329.72
372.355	301.25
372.736	313.68
373.117	317.07
373.498	329.27
373.879	321.81
374.26	323.85
374.641	327.01
375.021	320.68
375.402	331.3
375.783	355.71
376.163	350.06
376.544	353
376.925	361.13
377.305	330.85
377.686	338.99
378.066	345.77
378.447	349.61
378.827	356.84
379.208	342.6
379.588	341.25
379.968	361.59
380.349	332.89
380.729	360.23
381.109	371.08
381.489	378.76
381.87	376.95
382.25	356.16
382.63	359.78
383.01	369.27
383.39	365.88
383.77	349.61
384.15	377.63
384.53	366.11
384.91	357.97
385.29	373.34
385.67	385.31
386.049	398.2
386.429	392.32
386.809	384.86
387.189	381.7
387.568	392.77
387.948	409.27
388.328	383.96
388.707	393.45
389.087	407.24
389.466	438.42
389.846	424.64
390.225	397.74
390.605	402.72
390.984	403.62
391.363	420.34
391.743	420.57
392.122	423.73
392.501	430.06
392.881	445.43
393.26	440.91
393.639	422.83
394.018	449.95
394.397	464.18
394.776	450.17
395.155	477.29
395.534	445.88
395.913	475.48
396.292	457.86
396.671	477.74
397.05	488.36
397.429	489.72
397.808	492.43
398.186	458.31
398.565	525.65
398.944	500.34
399.323	489.27
399.701	513.9
400.08	510.06
400.458	529.04
400.837	519.1
401.215	521.13
401.594	527.91
401.972	536.5
402.351	543.28
402.729	545.31
403.107	549.38
403.486	548.47
403.864	585.99
404.242	551.41
404.62	551.86
404.999	565.2
405.377	604.52
405.755	574.69
406.133	579.21
406.511	607.23
406.889	627.12
407.267	606.78
407.645	609.94
408.023	652.2
408.401	638.42
408.779	637.29
409.156	657.85
409.534	647.91
409.912	684.06
410.29	684.52
410.667	665.76
411.045	690.84
411.422	703.95
411.8	726.55
412.178	725.42
412.555	741.92
412.933	737.85
413.31	748.92
413.687	773.55
414.065	764.06
414.442	774.23
414.819	780.11
415.197	787.79
415.574	811.74
415.951	811.74
416.328	815.13
416.705	806.77
417.082	863.04
417.46	814.23
417.837	834.79
418.214	852.65
418.591	807.22
418.967	840.9
419.344	849.26
419.721	889.93
420.098	889.71
420.475	885.64
420.852	879.09
421.228	891.74
421.605	912.98
421.982	912.53
422.358	928.35
422.735	950.5
423.111	932.64
423.488	940.78
423.864	962.25
424.241	987.56
424.617	1015.35
424.994	1001.12
425.37	1001.34
425.746	1009.25
426.123	1035.92
426.499	1030.04
426.875	1040.66
427.251	1055.58
427.627	1079.53
428.003	1104.62
428.379	1114.56
428.756	1119.76
429.132	1143.94
429.507	1151.85
429.883	1159.98
430.259	1181
430.635	1186.42
431.011	1222.13
431.387	1264.84
431.763	1243.15
432.138	1266.42
432.514	1285.63
432.89	1268.23
433.265	1323.37
433.641	1315.46
434.016	1315.91
434.392	1367.66
434.767	1374.67
435.143	1350.26
435.518	1401.33
435.894	1399.07
436.269	1422.12
436.644	1461.44
437.02	1443.14
437.395	1466.19
437.77	1514.32
438.145	1491.5
438.52	1532.18
438.895	1518.39
439.271	1565.4
439.646	1582.12
440.021	1567.66
440.395	1618.05
440.77	1609.92
441.145	1638.62
441.52	1667.31
441.895	1623.93
442.27	1675.22
442.645	1656.92
443.019	1673.19
443.394	1698.05
443.769	1719.97
444.143	1690.37
444.518	1748.67
444.892	1756.8
445.267	1737.14
445.641	1795.45
446.016	1778.5
446.39	1793.41
446.764	1794.32
447.139	1838.61
447.513	1851.04
447.887	1824.37
448.262	1848.1
448.636	1893.07
449.01	1929.68
449.384	1926.74
449.758	1930.36
450.132	1957.02
450.506	1940.75
450.88	1978.72
451.254	1980.53
451.628	1981.2
452.002	2037.25
452.376	2027.08
452.75	2064.14
453.123	2054.88
453.497	2096
453.871	2127.64
454.244	2144.59
454.618	2108.21
454.992	2209.9
455.365	2212.84
455.739	2221.65
456.112	2281.76
456.486	2272.95
456.859	2287.41
457.232	2357.47
457.606	2345.72
457.979	2372.16
458.352	2434.07
458.725	2412.61
459.099	2445.15
459.472	2514.3
459.845	2552.04
460.218	2571.02
460.591	2573.96
460.964	2583.22
461.337	2615.54
461.71	2678.14
462.083	2702.54
462.456	2750.9
462.829	2708.64
463.201	2744.35
463.574	2794.97
463.947	2768.3
464.32	2818.92
464.692	2880.39
465.065	2890.11
465.438	2947.06
465.81	2968.07
466.183	2990.44
466.555	3060.95
466.928	3053.04
467.3	3057.79
467.672	3102.53
468.045	3156.32
468.417	3168.97
468.789	3185.92
469.161	3222.08
469.534	3298.68
469.906	3323.99
470.278	3350.43
470.65	3396.76
471.022	3499.81
471.394	3497.55
471.766	3597.43
472.138	3531.22
472.51	3625.68
472.882	3690.31
473.253	3733.93
473.625	3743.42
473.997	3846.69
474.369	3837.2
474.74	3873.81
475.112	3945.22
475.484	3986.8
475.855	4024.77
476.227	4076.97
476.598	4135.5
476.97	4196.74
477.341	4289.39
477.713	4314.93
478.084	4318.77
478.455	4457.75
478.827	4463.17
479.198	4582.49
479.569	4598.54
479.94	4679.21
480.311	4692.55
480.682	4805.54
481.053	4885.99
481.424	4951.52
481.795	4979.09
482.166	5039.43
482.537	5078.98
482.908	5196.04
483.279	5249.14
483.65	5302.93
484.021	5416.37
484.391	5417.05
484.762	5430.38
485.133	5487.55
485.503	5537.5
485.874	5671.73
486.244	5635.57
486.615	5769.13
486.985	5778.85
487.356	5792.18
487.726	5873.08
488.097	5954.66
488.467	5954.43
488.837	6025.17
489.207	6105.39
489.578	6196.46
489.948	6254.76
490.318	6281.66
490.688	6253.86
491.058	6352.84
491.428	6431.48
491.798	6474.19
492.168	6529.33
492.538	6539.28
492.908	6579.73
493.278	6687.52
493.648	6682.55
494.017	6725.26
494.387	6764.36
494.757	6816.33
495.126	6802.55
495.496	6806.84
495.866	6887.97
496.235	6904.24
496.605	6928.19
496.974	6990.79
497.344	7045.03
497.713	7100.62
498.082	7075.53
498.452	7153.27
498.821	7129.77
499.19	7152.37
499.559	7195.98
499.928	7175.64
500.298	7212.71
500.667	7269.65
501.036	7233.95
501.405	7369.31
501.774	7325.02
502.143	7370.67
502.512	7370.22
502.88	7454.73
503.249	7428.97
503.618	7363.89
503.987	7444.11
504.356	7543.32
504.724	7520.95
505.093	7487.05
505.462	7507.84
505.83	7538.12
506.199	7663.77
506.567	7633.03
506.936	7694.95
507.304	7738.12
507.672	7727.49
508.041	7758.68
508.409	7837.77
508.777	7814.95
509.145	7883.2
509.514	7896.98
509.882	7877.55
510.25	7900.6
510.618	7932.46
510.986	7993.02
511.354	8042.74
511.722	8007.49
512.09	8109.86
512.458	8082.06
512.826	8127.48
513.193	8200.02
513.561	8194.83
513.929	8218.56
514.297	8257.42
514.664	8284.99
515.032	8310.3
515.4	8352.56
515.767	8342.85
516.135	8382.17
516.502	8307.37
516.869	8437.08
517.237	8433.01
517.604	8415.16
517.972	8488.6
518.339	8540.58
518.706	8508.49
519.073	8513.01
519.44	8601.6
519.808	8646.57
520.175	8613.8
520.542	8663.29
520.909	8780.12
521.276	8726.79
521.643	8861.93
522.009	8908.48
522.376	8873
522.743	8884.98
523.11	8991.42
523.477	9010.62
523.843	9045.65
524.21	9121.58
524.577	9180.34
524.943	9215.37
525.31	9199.09
525.676	9310.28
526.043	9283.84
526.409	9388.24
526.776	9347.34
527.142	9434.34
527.508	9447
527.874	9510.5
528.241	9604.73
528.607	9533.55
528.973	9703.49
529.339	9653.09
529.705	9724.73
530.071	9777.84
530.437	9777.61
530.803	9818.51
531.169	9903.26
531.535	9843.6
531.901	9970.6
532.267	9954.1
532.632	10021.67
532.998	10073.2
533.364	10135.57
533.73	10029.81
534.095	10170.37
534.461	10183.48
534.826	10214.89
535.192	10265.96
535.557	10325.62
535.923	10282.68
536.288	10308.9
536.653	10357.03
537.019	10292.62
537.384	10375.79
537.749	10397.93
538.114	10404.94
538.479	10486.74
538.845	10583.46
539.21	10571.26
539.575	10506.4
539.94	10593.41
540.305	10644.03
540.67	10616.68
541.034	10676.34
541.399	10696
541.764	10757.7
542.129	10736
542.494	10764.93
542.858	10844.25
543.223	10805.83
543.587	10918.37
543.952	10921.31
544.316	10961.99
544.681	10912.5
545.045	10976.45
545.41	11016.67
545.774	11084.24
546.138	11077.46
546.503	11074.75
546.867	11095.09
547.231	11192.49
547.595	11181.87
547.959	11158.14
548.324	11268.42
548.688	11287.85
549.052	11283.11
549.416	11311.81
549.779	11281.98
550.143	11330.79
550.507	11439.49
550.871	11418.7
551.235	11449.88
551.599	11486.94
551.962	11527.62
552.326	11546.6
552.689	11611.01
553.053	11606.94
553.417	11539.6
553.78	11705.47
554.143	11673.61
554.507	11769.42
554.87	11701.4
555.234	11866.14
555.597	11757.45
555.96	11862.08
556.323	11841.06
556.686	11820.49
557.05	11914.96
557.413	11981.62
557.776	12005.12
558.139	12076.31
558.502	11970.55
558.865	12062.75
559.228	12179.35
559.59	12169.19
559.953	12197.66
560.316	12345.9
560.679	12266.58
561.041	12400.82
561.404	12381.38
561.767	12534.83
562.129	12405.79
562.492	12534.6
562.854	12608.04
563.217	12587.25
563.579	12577.54
563.941	12692.34
564.304	12733.01
564.666	12873.12
565.028	12792.9
565.39	12839.45
565.753	12923.74
566.115	12942.95
566.477	12988.83
566.839	13034.02
567.201	13156.73
567.563	13107.24
567.925	13218.42
568.287	13276.73
568.648	13302.94
569.01	13355.82
569.372	13351.75
569.734	13322.38
570.095	13497.51
570.457	13507.46
570.819	13540
571.18	13536.16
571.542	13702.25
571.903	13668.13
572.265	13755.36
572.626	13714
572.987	13785.64
573.349	13803.72
573.71	13867.67
574.071	13940.89
574.432	13970.49
574.794	14078.29
575.155	14027.22
575.516	14075.58
575.877	14170.49
576.238	14110.15
576.599	14188.57
576.96	14218.4
577.32	14123.48
577.681	14318.28
578.042	14356.47
578.403	14318.96
578.763	14383.14
579.124	14450.48
579.485	14412.74
579.845	14475.34
580.206	14424.49
580.566	14468.79
580.927	14459.29
581.287	14582.68
581.648	14532.97
582.008	14623.13
582.368	14634.21
582.728	14663.58
583.089	14591.27
583.449	14595.56
583.809	14592.62
584.169	14576.58
584.529	14586.3
584.889	14752.62
585.249	14731.15
585.609	14655.9
585.969	14723.92
586.329	14677.37
586.688	14781.77
587.048	14781.55
587.408	14702.68
587.768	14727.31
588.127	14790.36
588.487	14830.36
588.846	14943.58
589.206	14781.55
589.565	14790.13
589.925	14889.79
590.284	14805.5
590.643	14943.35
591.003	14925.05
591.362	15044.36
591.721	14935.21
592.08	15005.95
592.44	14882.11
592.799	15012.95
593.158	14873.75
593.517	14995.78
593.876	15031.71
594.235	14969.11
594.593	14955.33
594.952	15006.85
595.311	14945.61
595.67	15023.57
596.029	15193.06
596.387	15156
596.746	15162.78
597.104	15053.86
597.463	15048.66
597.822	15090.69
598.18	15071.71
598.538	15074.42
598.897	15173.85
599.255	15134.31
599.613	15364.58
599.972	15175.66
600.33	15192.38
600.688	15196
601.046	15286.17
601.404	15264.92
601.762	15143.34
602.12	15244.81
602.478	15311.93
602.836	15341.08
603.194	15094.76
603.552	15284.58
603.91	15244.36
604.268	15357.12
604.625	15286.84
604.983	15331.59
605.341	15235.09
605.698	15349.89
606.056	15400.06
606.413	15494.3
606.771	15466.73
607.128	15437.57
607.485	15447.29
607.843	15335.66
608.2	15529.78
608.557	15510.57
608.914	15438.48
609.272	15501.75
609.629	15603.9
609.986	15579.04
610.343	15518.7
610.7	15591.69
611.057	15638.92
611.414	15575.42
611.771	15608.64
612.127	15735.87
612.484	15837.34
612.841	15744.68
613.198	15624.46
613.554	15785.14
613.911	15837.11
614.267	15812.71
614.624	15751.24
614.98	15781.75
615.337	15867.62
615.693	15849.99
616.05	15862.2
616.406	15949.43
616.762	15899.03
617.118	15887.96
617.475	15930.22
617.831	16017.22
618.187	15932.93
618.543	15975.19
618.899	16014.73
619.255	16048.63
619.611	15994.85
619.967	16095.18
620.323	16065.81
620.678	16132.47
621.034	16029.65
621.39	16087.05
621.746	16162.08
622.101	16322.52
622.457	16168.63
622.812	16191.9
623.168	16244.33
623.523	16261.06
623.879	16259.47
624.234	16233.71
624.589	16272.35
624.945	16252.69
625.3	16381.28
625.655	16309.42
626.01	16332.01
626.365	16359.58
626.72	16314.84
627.075	16360.71
627.43	16357.32
627.785	16289.3
628.14	16337.21
628.495	16356.42
628.85	16425.34
629.205	16465.57
629.559	16507.38
629.914	16402.75
630.269	16484.78
630.623	16368.4
630.978	16379.7
631.332	16426.02
631.687	16536.3
632.041	16493.37
632.396	16498.11
632.75	16364.78
633.104	16485.68
633.459	16444.33
633.813	16434.16
634.167	16488.17
634.521	16476.87
634.875	16503.31
635.229	16560.03
635.583	16451.78
635.937	16479.13
636.291	16521.16
636.645	16524.78
636.999	16462.86
637.352	16604.78
637.706	16422.63
638.06	16636.19
638.413	16562.06
638.767	16529.3
639.121	16547.38
639.474	16467.6
639.828	16511.44
640.181	16592.8
640.534	16589.18
640.888	16535.17
641.241	16509.41
641.594	16491.56
641.947	16717.54
642.301	16661.72
642.654	16654.04
643.007	16645
643.36	16631.22
643.713	16689.97
644.066	16777.88
644.419	16546.7
644.771	16551.9
645.124	16339.02
645.477	16309.64
645.83	16383.99
646.182	16275.52
646.535	16235.97
646.888	16367.27
647.24	16301.51
647.593	16467.6
647.945	16513.25
648.298	16309.19
648.65	16330.66
649.002	16415.18
649.355	16368.4
649.707	16332.92
650.059	16416.31
650.411	16584.21
650.763	16574.72
651.115	16900.59
651.467	16896.52
651.819	16886.35
652.171	16867.82
652.523	16793.02
652.875	16937.87
653.227	16841.83
653.578	16896.52
653.93	16932.68
654.282	16880.02
654.633	16915.28
654.985	16847.71
655.337	17026.23
655.688	16993.92
656.039	16946.91
656.391	16883.19
656.742	16976.29
657.094	17035.5
657.445	17030.53
657.796	17059.68
658.147	17029.4
658.498	17040.92
658.849	17094.03
659.2	17120.47
659.551	17037.98
659.902	17087.7
660.253	17045.89
660.604	17178.77
660.955	17056.97
661.306	17207.7
661.656	17089.06
662.007	17138.32
662.358	17100.81
662.708	17179.68
663.059	17189.39
663.409	17074.82
663.76	17225.1
664.11	17132.9
664.461	17134.48
664.811	17063.52
665.161	17137.19
665.511	17066.91
665.862	17120.69
666.212	17091.99
666.562	17095.16
666.912	17022.62
667.262	17068.72
667.612	17128.15
667.962	17156.63
668.312	17070.98
668.662	17158.43
669.011	17036.85
669.361	16970.64
669.711	16889.97
670.06	16926.35
670.41	16990.08
670.76	17002.5
671.109	16996.4
671.459	16906.46
671.808	16939.23
672.157	16970.87
672.507	16757.31
672.856	16771.78
673.205	16761.83
673.554	16812.91
673.904	16668.5
674.253	16793.02
674.602	16742.17
674.951	16517.32
675.3	16362.52
675.649	16666.92
675.998	16605.23
676.346	16499.02
676.695	16574.49
677.044	16509.86
677.393	16459.24
677.741	16582.4
678.09	16480.03
678.438	16425.8
678.787	16476.87
679.135	16463.76
679.484	16381.5
679.832	16332.92
680.181	16353.93
680.529	16378.11
680.877	16249.3
681.225	16234.62
681.573	16307.16
681.922	16177.67
682.27	16122.3
682.618	16125.01
682.966	16086.14
683.314	16089.76
683.661	15948.75
684.009	15926.83
684.357	15954.17
684.705	15881.18
685.053	15966.15
685.4	15942.42
685.748	15770.9
686.095	15846.83
686.443	15769.77
686.79	15802.99
687.138	15809.77
687.485	15766.15
687.832	15692.71
688.18	15702.43
688.527	15676.89
688.874	15551.24
689.221	15553.96
689.568	15503.56
689.915	15521.64
690.262	15525.03
690.609	15425.37
690.956	15412.49
691.303	15433.73
691.65	15466.95
691.997	15383.56
692.344	15311.02
692.69	15289.1
693.037	15328.42
693.383	15140.41
693.73	15194.19
694.077	15130.01
694.423	15112.39
694.769	15115.1
695.116	15064.02
695.462	15118.26
695.808	15134.76
696.155	15099.5
696.501	14971.82
696.847	14967.53
697.193	14891.6
697.539	15036.68
697.885	14867.87
698.231	14881.43
698.577	14926.4
698.923	14836.23
699.269	14825.84
699.614	14679.4
699.96	14713.53
700.306	14731.15
700.651	14664.49
700.997	14639.86
701.342	14672.62
701.688	14609.8
702.033	14692.06
702.379	14559.18
702.724	14643.24
703.069	14698.84
703.415	14469.92
703.76	14516.02
704.105	14431.73
704.45	14464.72
704.795	14523.02
705.14	14403.03
705.485	14402.12
705.83	14389.01
706.175	14412.74
706.52	14401.44
706.865	14375.68
707.209	14266.98
707.554	14314.44
707.899	14322.12
708.243	14144.73
708.588	14208
708.932	14104.28
709.277	14133.88
709.621	14245.29
709.966	14128
710.31	14059.31
710.654	14046.2
710.998	14131.85
711.342	14100.66
711.687	14096.82
712.031	14032.41
712.375	14083.03
712.719	14112.41
713.063	14031.51
713.407	14059.08
713.75	14020.66
714.094	14056.37
714.438	13956.48
714.782	14044.62
715.125	13931.17
715.469	13959.2
715.812	13949.7
716.156	13914
716.499	13900.67
716.843	13925.52
717.186	13818.18
717.53	13952.87
717.873	13932.3
718.216	13908.12
718.559	13853.89
718.902	13808.24
719.246	13841.01
719.589	13853.66
719.932	13690.95
720.275	13778.86
720.617	13759.65
720.96	13813.89
721.303	13769.14
721.646	13751.06
721.989	13779.99
722.331	13831.97
722.674	13746.09
723.016	13705.87
723.359	13671.07
723.701	13717.17
724.044	13663.61
724.386	13670.84
724.729	13766.88
725.071	13697.06
725.413	13652.99
725.755	13730.73
726.097	13644.85
726.439	13622.03
726.782	13637.4
727.124	13751.29
727.465	13595.81
727.807	13622.93
728.149	13533.67
728.491	13566.66
728.833	13689.82
729.175	13621.35
729.516	13578.87
729.858	13610.05
730.199	13726.66
730.541	13679.65
730.882	13595.59
731.224	13660.67
731.565	13527.57
731.906	13611.18
732.248	13637.17
732.589	13530.96
732.93	13568.7
733.271	13574.35
733.612	13597.17
733.953	13720.56
734.294	13628.81
734.635	13624.29
734.976	13658.86
735.317	13579.77
735.658	13593.56
735.999	13668.13
736.339	13629.49
736.68	13596.49
737.021	13687.79
737.361	13608.92
737.702	13691.86
738.042	13745.19
738.383	13747.9
738.723	13739.31
739.063	13788.35
739.404	13811.85
739.744	13881.23
740.084	13689.82
740.424	13887.11
740.764	13867.67
741.104	13880.1
741.444	13889.82
741.784	13810.95
742.124	13949.48
742.464	13995.8
742.804	13951.96
743.143	13877.16
743.483	14005.3
743.823	13967.1
744.162	13992.64
744.502	14004.84
744.841	14044.16
745.181	14067.89
745.52	14136.14
745.86	14101.11
746.199	14197.15
746.538	14144.95
746.877	14139.98
747.216	14216.14
747.556	14194.44
747.895	14286.42
748.234	14278.06
748.573	14280.32
748.911	14371.61
749.25	14406.64
749.589	14256.14
749.928	14452.74
750.267	14265.4
750.605	14438.96
750.944	14373.42
751.283	14405.74
751.621	14517.37
751.96	14396.02
752.298	14496.13
752.636	14538.16
752.975	14545.85
753.313	14536.58
753.651	14598.95
753.989	14481.67
754.327	14560.54
754.666	14598.05
755.004	14713.53
755.342	14705.16
755.679	14646.41
756.017	14487.77
756.355	14743.36
756.693	14707.65
757.031	14717.59
757.368	14651.15
757.706	14797.14
758.044	14716.24
758.381	14778.61
758.719	14767.31
759.056	14809.79
759.394	14823.13
759.731	14779.29
760.068	14850.25
760.405	14878.94
760.743	14830.13
761.08	14917.81
761.417	14902.67
761.754	14896.8
762.091	14958.72
762.428	14871.49
762.765	14829.91
763.102	14970.92
763.438	14941.32
763.775	14874.88
764.112	14997.36
764.449	15000.98
764.785	14968.21
765.122	14932.95
765.458	14934.31
765.795	14865.16
766.131	14965.04
766.467	14963.69
766.804	14922.33
767.14	14845.5
767.476	14872.62
767.812	14916.46
768.148	14979.73
768.485	14898.38
768.821	14923.24
769.157	14889.34
769.492	14864.93
769.828	14999.85
770.164	14766.63
770.5	14769.8
770.836	14968.43
771.171	14801.21
771.507	14851.83
771.842	14709.23
772.178	14797.14
772.513	14792.62
772.849	14792.17
773.184	14826.74
773.519	14846.63
773.855	14746.29
774.19	14789.46
774.525	14697.25
774.86	14838.72
775.195	14790.13
775.53	14776.57
775.865	14729.57
776.2	14636.47
776.535	14570.93
776.87	14722.79
777.205	14550.82
777.539	14595.56
777.874	14661.1
778.209	14532.29
778.543	14573.87
778.878	14540.87
779.212	14479.41
779.547	14436.24
779.881	14571.83
780.215	14520.54
780.55	14572.96
780.884	14464.94
781.218	14554.89
781.552	14420.2
781.886	14373.65
782.22	14416.13
782.554	14359.64
782.888	14285.51
783.222	14248
783.556	14247.78
783.889	14210.71
784.223	14199.41
784.557	14219.08
784.89	14283.71
785.224	14168.91
785.557	14148.34
785.891	14145.63
786.224	14129.36
786.558	14171.84
786.891	13986.77
787.224	14050.94
787.557	14040.32
787.891	14003.94
788.224	13962.81
788.557	14035.35
788.89	14122.13
789.223	13976.14
789.556	13977.95
789.888	13961.23
790.221	13893.89
790.554	13808.01
790.887	13867.45
791.219	13818.18
791.552	13810.5
791.884	13734.57
792.217	13819.54
792.549	13717.85
792.882	13611.18
793.214	13645.98
793.546	13751.29
793.879	13689.6
794.211	13624.29
794.543	13584.52
794.875	13624.97
795.207	13659.32
795.539	13477.17
795.871	13599.66
796.203	13485.99
796.535	13461.58
796.867	13504.74
797.198	13420.68
797.53	13474.46
797.862	13274.24
798.193	13325.99
798.525	13357.18
798.856	13415.93
799.188	13314.01
799.519	13218.65
799.85	13253
800.182	13193.79
800.513	13230.85
800.844	13067.69
801.175	13200.35
801.506	13203.28
801.837	13185.2
802.168	13220.46
802.499	13151.98
802.83	13039.45
803.161	13046.45
803.491	13067.92
803.822	12941.37
804.153	12997.19
804.483	12943.18
804.814	12910.64
805.145	12948.83
805.475	12880.81
805.805	12859.11
806.136	12810.3
806.466	12891.2
806.796	12909.28
807.126	12811.2
807.457	12754.48
807.787	12699.34
808.117	12670.42
808.447	12554.49
808.777	12726.46
809.107	12613.47
809.436	12634.03
809.766	12580.7
810.096	12651.21
810.426	12523.07
810.755	12516.75
811.085	12514.49
811.414	12557.42
811.744	12415.96
812.073	12485.11
812.403	12408.73
812.732	12300.71
813.061	12333.7
813.39	12330.76
813.719	12357.66
814.049	12390.65
814.378	12324.66
814.707	12217.32
815.036	12297.32
815.365	12173.93
815.693	12196.08
816.022	12116.76
816.351	12177.77
816.68	12128.06
817.008	12123.76
817.337	12107.04
817.665	12041.05
817.994	12079.47
818.322	12045.12
818.651	11947.72
818.979	11927.84
819.307	11971.22
819.636	11936.88
819.964	11875.41
820.292	11969.42
820.62	11978.68
820.948	11931.45
821.276	11951.79
821.604	11850.32
821.932	11902.75
822.259	12002.64
822.587	11898.68
822.915	11923.32
823.243	11929.42
823.57	11866.59
823.898	11895.97
824.225	11926.71
824.553	11829.99
824.88	11974.16
825.207	11904.33
825.535	11963.09
825.862	11884.67
826.189	11888.29
826.516	11931.23
826.843	11985.69
827.17	12009.19
827.497	12081.96
827.824	12091.67
828.151	12038.12
828.478	11949.08
828.805	12034.5
829.131	11952.02
829.458	11985.01
829.785	11959.93
830.111	11909.08
830.438	12070.21
830.764	11902.53
831.09	12030.21
831.417	12007.38
831.743	12105.01
832.069	11966.71
832.395	11993.15
832.722	12077.21
833.048	12057.1
833.374	11989.08
833.7	11971.45
834.026	11931.23
834.351	11945.69
834.677	11995.86
835.003	11948.4
835.329	12010.09
835.654	11939.14
835.98	11907.72
836.306	11894.62
836.631	11772.13
836.956	11877.22
837.282	11900.27
837.607	11902.3
837.932	11892.58
838.258	11816.2
838.583	11846.03
838.908	11800.38
839.233	11742.76
839.558	11749.54
839.883	11689.88
840.208	11663.44
840.533	11659.37
840.858	11715.41
841.182	11773.94
841.507	11669.76
841.832	11651.23
842.156	11585.7
842.481	11633.83
842.805	11567.85
843.13	11562.65
843.454	11603.55
843.778	11478.36
844.103	11450.79
844.427	11451.69
844.751	11468.19
845.075	11455.53
845.399	11412.14
845.723	11358.59
846.047	11364.69
846.371	11274.52
846.695	11291.24
847.019	11180.51
847.343	11103.23
847.666	11116.78
847.99	11137.57
848.313	11114.98
848.637	10983.68
848.96	11027.97
849.284	10968.99
849.607	10898.03
849.931	10898.48
850.254	10853.51
850.577	10761.31
850.9	10651.49
851.223	10623.69
851.546	10585.5
851.869	10581.66
852.192	10637.7
852.515	10442.45
852.838	10460.08
853.161	10497.82
853.483	10477.7
853.806	10365.39
854.129	10474.99
854.451	10383.47
854.774	10309.35
855.096	10263.7
855.419	10218.5
855.741	10185.28
856.063	10134.21
856.385	10144.83
856.708	10151.84
857.03	10088.56
857.352	10088.56
857.674	10073.2
857.996	9967.89
858.318	9935.8
858.64	9962.69
858.961	9920.43
859.283	9908
859.605	9849.92
859.926	9902.13
860.248	9830.04
860.57	9817.16
860.891	9827.78
861.212	9779.87
861.534	9773.54
861.855	9689.7
862.176	9781.68
862.498	9738.06
862.819	9706.65
863.14	9688.57
863.461	9589.37
863.782	9630.04
864.103	9679.76
864.424	9604.96
864.745	9623.26
865.065	9561.8
865.386	9517.05
865.707	9487
866.027	9538.29
866.348	9534
866.668	9510.05
866.989	9475.25
867.309	9434.12
867.63	9454.45
867.95	9451.29
868.27	9334.91
868.59	9389.82
868.91	9384.4
869.23	9336.27
869.55	9373.1
869.87	9411.52
870.19	9357.51
870.51	9342.59
870.83	9392.08
871.15	9265.53
871.469	9339.2
871.789	9301.01
872.109	9185.31
872.428	9238.87
872.748	9252.43
873.067	9201.58
873.386	9224.4
873.706	9245.87
874.025	9125.88
874.344	9143.28
874.663	9218.3
874.982	9145.08
875.301	9115.48
875.62	9079.1
875.939	9017.63
876.258	9047.46
876.577	9108.93
876.896	9048.82
877.214	9002.26
877.533	9084.75
877.852	8985.54
878.17	8971.3
878.489	8932.43
878.807	8936.5
879.125	8989.38
879.444	8955.71
879.762	8912.1
880.08	8943.51
880.398	8880.68
880.716	8885.88
881.034	8851.08
881.352	8910.29
881.67	8852.66
881.988	8823.96
882.306	8810.4
882.624	8788.48
882.941	8768.15
883.259	8763.85
883.577	8668.71
883.894	8666
884.212	8673.68
884.529	8691.09
884.846	8639.79
885.164	8588.94
885.481	8599.56
885.798	8655.38
886.115	8524.54
886.432	8578.55
886.75	8493.8
887.067	8587.13
887.383	8466.68
887.7	8511.43
888.017	8452
888.334	8486.34
888.651	8390.98
888.967	8371.32
889.284	8400.25
889.6	8346.91
889.917	8329.51
890.233	8346.46
890.55	8302.62
890.866	8234.37
891.182	8205.22
891.498	8222.4
891.815	8178.33
892.131	8198.44
892.447	8154.6
892.763	8037.09
893.079	8060.14
893.395	8106.24
893.71	8039.8
894.026	8034.38
894.342	7965.68
894.657	7969.52
894.973	7961.39
895.289	7901.5
895.604	7962.06
895.92	7855.4
896.235	7859.92
896.55	7799.36
896.865	7813.82
897.181	7758.91
897.496	7758
897.811	7641.17
898.126	7692.69
898.441	7656.54
898.756	7672.13
899.071	7613.37
899.386	7584.45
899.7	7510.55
900.015	7528.4
900.33	7489.99
900.644	7429.88
900.959	7469.2
901.273	7462.87
901.588	7381.74
901.902	7339.26
902.216	7354.4
902.531	7304.91
902.845	7287.28
903.159	7276.21
903.473	7188.07
903.787	7176.32
904.101	7210.9
904.415	7151.69
904.729	7124.8
905.042	7049.09
905.356	7040.96
905.67	7049.55
905.984	7024.24
906.297	7031.47
906.611	6963.22
906.924	6927.29
907.237	6958.48
907.551	6898.14
907.864	6864.47
908.177	6896.56
908.491	6852.49
908.804	6804.13
909.117	6780.4
909.43	6758.25
909.743	6703.11
910.056	6680.52
910.368	6633.29
910.681	6623.34
910.994	6598.94
911.307	6546.96
911.619	6551.71
911.932	6567.53
912.244	6530.01
912.557	6456.57
912.869	6445.95
913.181	6467.19
913.494	6450.01
913.806	6385.61
914.118	6380.19
914.43	6312.16
914.742	6350.13
915.054	6313.07
915.366	6219.96
915.678	6222.9
915.99	6259.28
916.302	6162.34
916.613	6159.17
916.925	6139.97
917.236	6076.01
917.548	6080.08
917.859	6113.53
918.171	6042.34
918.482	6043.02
918.794	5975.22
919.105	6026.75
919.416	5858.62
919.727	5927.99
920.038	5918.05
920.349	5877.6
920.66	5815.68
920.971	5803.48
921.282	5807.77
921.593	5706.3
921.903	5728
922.214	5684.84
922.525	5702.24
922.835	5657.72
923.146	5617.72
923.456	5614.33
923.767	5583.14
924.077	5530.26
924.387	5598.51
924.697	5563.48
925.008	5539.98
925.318	5494.11
925.628	5509.93
925.938	5443.26
926.248	5390.15
926.558	5408.46
926.867	5377.27
927.177	5349.48
927.487	5297.73
927.796	5226.77
928.106	5281.01
928.416	5251.4
928.725	5230.61
929.034	5227.9
929.344	5196.71
929.653	5197.84
929.962	5172.08
930.271	5135.47
930.581	5097.28
930.89	5069.03
931.199	5052.99
931.508	5060.45
931.817	4994.01
932.125	5003.72
932.434	5025.19
932.743	4956.27
933.051	4949.49
933.36	4961.01
933.669	4900.68
933.977	4854.58
934.286	4768.25
934.594	4851.41
934.902	4783.39
935.21	4810.96
935.519	4731.87
935.827	4817.29
936.135	4749.72
936.443	4678.99
936.751	4709.72
937.059	4665.88
937.367	4693.9
937.674	4628.14
937.982	4605.32
938.29	4560.12
938.597	4612.77
938.905	4585.66
939.213	4519.22
939.52	4523.51
939.827	4532.78
940.135	4506.11
940.442	4481.25
940.749	4446
941.056	4491.42
941.363	4402.61
941.67	4395.15
941.977	4367.13
942.284	4353.12
942.591	4339.79
942.898	4264.99
943.205	4357.41
943.511	4282.84
943.818	4282.61
944.125	4220.47
944.431	4247.81
944.738	4184.31
945.044	4207.36
945.35	4197.87
945.657	4147.93
945.963	4111.77
946.269	4092.79
946.575	4115.61
946.881	4053.24
947.187	4074.71
947.493	4078.1
947.799	4048.04
948.105	4017.54
948.41	3995.16
948.716	3986.35
949.022	3941.38
949.327	3960.36
949.633	3938.89
949.938	3932.79
950.244	3912.23
950.549	3849.4
950.854	3853.92
951.16	3839.24
951.465	3832.46
951.77	3793.36
952.075	3795.85
952.38	3779.12
952.685	3793.59
952.99	3727.15
953.294	3714.49
953.599	3724.44
953.904	3732.8
954.209	3646.92
954.513	3677.88
954.818	3606.92
955.122	3630.88
955.426	3630.43
955.731	3632.24
956.035	3622.97
956.339	3599.02
956.643	3560.15
956.948	3526.48
957.252	3521.28
957.556	3526.48
957.86	3498.91
958.163	3527.38
958.467	3465.23
958.771	3453.03
959.075	3425.91
959.378	3430.21
959.682	3388.85
959.985	3390.66
960.289	3374.84
960.592	3329.42
960.896	3364.22
961.199	3341.85
961.502	3331.68
961.805	3303.66
962.108	3308.4
962.411	3263.66
962.714	3271.11
963.017	3258.46
963.32	3235.86
963.623	3226.82
963.926	3219.36
964.228	3208.74
964.531	3161.96
964.833	3161.29
965.136	3172.13
965.438	3117.45
965.741	3110.67
966.043	3134.17
966.345	3115.86
966.648	3096.43
966.95	3078.13
967.252	3049.65
967.554	3053.72
967.856	3017.34
968.158	3001.52
968.46	3005.58
968.761	2984.79
969.063	2996.32
969.365	3000.16
969.666	2968.3
969.968	2929.43
970.269	2935.08
970.571	2924.46
970.872	2891.24
971.174	2905.47
971.475	2885.14
971.776	2908.86
972.077	2874.74
972.378	2878.13
972.679	2867.74
972.98	2840.39
973.281	2821.86
973.582	2805.36
973.883	2782.54
974.183	2798.36
974.484	2745.48
974.785	2763.11
975.085	2756.33
975.386	2738.47
975.686	2714.29
975.986	2694.63
976.287	2702.99
976.587	2640.4
976.887	2680.17
977.187	2656.67
977.487	2647.85
977.787	2662.77
978.087	2648.98
978.387	2615.54
978.687	2608.76
978.987	2571.92
979.286	2592.49
979.586	2573.05
979.885	2537.12
980.185	2544.13
980.484	2495.77
980.784	2557.24
981.083	2506.39
981.382	2490.34
981.682	2535.54
981.981	2499.16
982.28	2467.29
982.579	2456.22
982.878	2453.96
983.177	2437.24
983.475	2424.36
983.774	2431.81
984.073	2413.74
984.372	2401.08
984.67	2399.05
984.969	2385.71
985.267	2383.91
985.566	2364.47
985.864	2328.09
986.162	2351.14
986.461	2328.54
986.759	2303.23
987.057	2306.39
987.355	2279.5
987.653	2268.66
987.951	2287.86
988.249	2271.14
988.547	2258.03
988.844	2275.21
989.142	2262.33
989.44	2239.5
989.737	2240.63
990.035	2214.42
990.332	2159.96
990.63	2196.11
990.927	2204.02
991.224	2181.88
991.521	2182.56
991.819	2146.85
992.116	2148.43
992.413	2136.23
992.71	2109.11
993.006	2129.9
993.303	2093.97
993.6	2086.29
993.897	2075.21
994.193	2113.63
994.49	2030.24
994.787	2063.91
995.083	2038.15
995.379	2054.2
995.676	2018.27
995.972	1994.09
996.268	2036.8
996.565	2000.87
996.861	1977.82
997.157	1987.53
997.453	1967.87
997.749	1974.88
998.044	1958.83
998.34	1957.25
998.636	1931.26
998.932	1917.03
999.227	1883.58
999.523	1884.26
999.818	1869.57
1000.114	1858.72
1000.409	1865.28
1000.704	1837.48
1001	1854.88
1001.295	1859.4
1001.59	1843.58
1001.885	1844.03
1002.18	1823.24
1002.475	1806.75
1002.77	1806.29
1003.065	1792.74
1003.359	1773.98
1003.654	1763.13
1003.949	1768.56
1004.243	1756.58
1004.538	1740.76
1004.832	1751.61
1005.127	1741.21
1005.421	1716.35
1005.715	1706.18
1006.009	1676.35
1006.304	1686.3
1006.598	1695.79
1006.892	1675.45
1007.186	1661.44
1007.48	1628.22
1007.773	1653.76
1008.067	1615.56
1008.361	1599.97
1008.655	1612.18
1008.948	1599.29
1009.242	1597.49
1009.535	1607.88
1009.829	1581.67
1010.122	1557.26
1010.415	1560.88
1010.708	1574.44
1011.001	1555.91
1011.295	1526.98
1011.588	1539.86
1011.881	1501.44
1012.173	1484.04
1012.466	1496.7
1012.759	1503.03
1013.052	1487.88
1013.344	1458.05
1013.637	1482.91
1013.93	1457.38
1014.222	1450.37
1014.514	1439.75
1014.807	1440.2
1015.099	1406.08
1015.391	1417.38
1015.683	1397.72
1015.976	1398.62
1016.268	1420.54
1016.56	1375.8
1016.851	1380.32
1017.143	1344.16
1017.435	1357.72
1017.727	1345.97
1018.018	1337.15
1018.31	1343.48
1018.602	1317.49
1018.893	1319.08
1019.185	1338.06
1019.476	1338.51
1019.767	1285.63
1020.058	1273.43
1020.35	1268
1020.641	1270.94
1020.932	1263.94
1021.223	1252.41
1021.514	1248.34
1021.804	1243.15
1022.095	1230.72
1022.386	1243.6
1022.677	1240.66
1022.967	1207.44
1023.258	1211.06
1023.548	1204.05
1023.839	1194.11
1024.129	1178.74
1024.419	1169.02
1024.709	1170.38
1025	1163.37
1025.29	1162.92
1025.58	1135.35
1025.87	1117.5
1026.16	1106.43
1026.449	1125.41
1026.739	1111.85
1027.029	1109.36
1027.319	1103.26
1027.608	1064.62
1027.898	1074.79
1028.187	1062.13
1028.477	1080.66
1028.766	1057.39
1029.055	1067.78
1029.344	1046.54
1029.634	1042.7
1029.923	1013.32
1030.212	1037.5
1030.501	1035.69
1030.79	1009.03
1031.078	997.28
1031.367	1001.12
1031.656	995.02
1031.945	995.02
1032.233	970.61
1032.522	989.82
1032.81	974.9
1033.099	962.47
1033.387	950.27
1033.675	955.92
1033.963	944.4
1034.251	959.31
1034.54	917.05
1034.828	913.66
1035.116	903.72
1035.403	908.24
1035.691	914.11
1035.979	892.42
1036.267	926.32
1036.554	923.38
1036.842	916.83
1037.129	866.21
1037.417	887.67
1037.704	869.82
1037.992	871.86
1038.279	875.92
1038.566	869.37
1038.853	869.37
1039.14	869.37
