Data from blue_clamp_base_FLMS001491_00085.txt Node
Date: Wed Feb 08 15:16:38 GMT 2017
User: dcchb
Spectrometer: FLMS00149
Trigger mode: 0
Integration Time (sec): 2.000000E-2
Scans to average: 10
Electric dark correction enabled: true
Nonlinearity correction enabled: false
Boxcar width: 0
XAxis mode: Wavelengths
Number of Pixels in Spectrum: 2048
>>>>>Begin Spectral Data<<<<<
341.393	-1.53
341.776	-1.53
342.16	-1.53
342.543	-56.21
342.927	-76.78
343.31	-77
343.693	-72.94
344.077	-61.41
344.46	-38.59
344.843	-52.15
345.226	-45.14
345.61	-22.54
345.993	4.8
346.376	1.64
346.759	10.45
347.142	17.46
347.525	29.21
347.908	64.91
348.291	52.71
348.674	94.74
349.057	93.84
349.44	124.57
349.823	124.8
350.206	181.75
350.588	202.76
350.971	209.99
351.354	244.8
351.737	233.72
352.119	264.23
352.502	266.49
352.884	300.84
353.267	307.17
353.65	298.13
354.032	293.38
354.414	322.99
354.797	315.98
355.179	339.71
355.562	329.77
355.944	332.48
356.326	345.36
356.709	349.2
357.091	348.75
357.473	360.5
357.855	351.91
358.238	352.14
358.62	363.44
359.002	338.8
359.384	363.89
359.766	371.57
360.148	337.22
360.53	369.54
360.912	357.34
361.294	366.6
361.676	337.9
362.057	344.23
362.439	340.39
362.821	328.41
363.203	326.38
363.584	344.45
363.966	351.46
364.348	346.71
364.729	344.45
365.111	332.93
365.493	324.79
365.874	329.99
366.256	343.78
366.637	348.52
367.019	347.62
367.4	321.18
367.781	360.05
368.163	344.68
368.544	313.27
368.925	340.84
369.306	323.66
369.688	364.57
370.069	359.14
370.45	340.16
370.831	353.72
371.212	350.1
371.593	335.41
371.974	350.1
372.355	339.71
372.736	332.48
373.117	347.39
373.498	357.79
373.879	354.85
374.26	352.36
374.641	333.83
375.021	372.93
375.402	348.75
375.783	355.53
376.163	368.86
376.544	360.72
376.925	367.05
377.305	377.9
377.686	358.92
378.066	358.92
378.447	382.42
378.827	372.48
379.208	362.31
379.588	370.89
379.968	395.07
380.349	389.88
380.729	370.44
381.109	389.65
381.489	397.56
381.87	398.01
382.25	397.33
382.63	411.12
383.01	405.7
383.39	393.94
383.77	391.23
384.15	407.5
384.53	388.07
384.91	409.09
385.29	413.15
385.67	434.62
386.049	395.3
386.429	439.59
386.809	424.23
387.189	433.27
387.568	414.51
387.948	414.51
388.328	453.6
388.707	452.25
389.087	440.95
389.466	475.3
389.846	429.65
390.225	460.38
390.605	465.35
390.984	480.27
391.363	459.03
391.743	481.85
392.122	479.37
392.501	492.92
392.881	497.44
393.26	485.47
393.639	523.43
394.018	503.32
394.397	506.71
394.776	501.74
395.155	527.73
395.534	533.15
395.913	522.53
396.292	521.62
396.671	536.77
397.05	541.51
397.429	545.13
397.808	574.73
398.186	557.1
398.565	565.69
398.944	553.94
399.323	553.49
399.701	564.79
400.08	587.16
400.458	586.93
400.837	590.55
401.215	618.35
401.594	603.43
401.972	616.09
402.351	614.5
402.729	625.8
403.107	643.88
403.486	628.06
403.864	641.85
404.242	656.99
404.62	650.89
404.999	683.2
405.377	682.75
405.755	692.24
406.133	696.76
406.511	706.48
406.889	724.11
407.267	737.44
407.645	730.66
408.023	725.24
408.401	769.75
408.779	757.32
409.156	770.88
409.534	775.86
409.912	776.99
410.29	797.32
410.667	806.81
411.045	831.67
411.422	847.04
411.8	823.31
412.178	842.97
412.555	873.93
412.933	865.12
413.31	891.33
413.687	900.6
414.065	923.87
414.442	901.95
414.819	923.87
415.197	931.11
415.574	929.98
415.951	932.46
416.328	981.27
416.705	937.88
417.082	948.96
417.46	979.24
417.837	984.44
418.214	1020.14
418.591	1018.33
418.967	1014.72
419.344	1035.74
419.721	1048.84
420.098	1054.94
420.475	1072.8
420.852	1073.47
421.228	1077.99
421.605	1069.63
421.982	1102.63
422.358	1132.91
422.735	1122.74
423.111	1161.16
423.488	1184.88
423.864	1169.97
424.241	1171.78
424.617	1205.67
424.994	1190.08
425.37	1224.43
425.746	1227.59
426.123	1221.04
426.499	1231.66
426.875	1239.8
427.251	1298.33
427.627	1328.84
428.003	1328.84
428.379	1353.47
428.756	1357.99
429.132	1402.05
429.507	1386.01
429.883	1417.19
430.259	1432.79
430.635	1447.7
431.011	1480.7
431.387	1547.59
431.763	1508.04
432.138	1512.79
432.514	1553.91
432.89	1568.6
433.265	1627.58
433.641	1614.48
434.016	1625.78
434.392	1651.54
434.767	1692.44
435.143	1682.05
435.518	1728.6
435.894	1743.51
436.269	1757.52
436.644	1773.34
437.02	1819.67
437.395	1805.88
437.77	1824.87
438.145	1862.83
438.52	1897.18
438.895	1868.03
439.271	1910.51
439.646	1931.98
440.021	1979.67
440.395	1974.47
440.77	1941.47
441.145	2002.04
441.52	2019.21
441.895	2025.09
442.27	2025.31
442.645	2041.36
443.019	2075.03
443.394	2086.78
443.769	2123.39
444.143	2095.59
444.518	2153.9
444.892	2133.11
445.267	2175.37
445.641	2199.09
446.016	2199.55
446.39	2248.58
446.764	2244.29
447.139	2240
447.513	2264.4
447.887	2302.14
448.262	2296.72
448.636	2307.79
449.01	2327
449.384	2367
449.758	2384.4
450.132	2433.21
450.506	2413.55
450.88	2458.97
451.254	2452.42
451.628	2489.26
452.002	2520.22
452.376	2522.93
452.75	2578.52
453.123	2549.59
453.497	2613.32
453.871	2668.69
454.244	2680.89
454.618	2711.62
454.992	2722.02
455.365	2737.61
455.739	2825.07
456.112	2837.72
456.486	2865.52
456.859	2875.24
457.232	2918.62
457.606	2943.26
457.979	2973.09
458.352	3053.31
458.725	3069.58
459.099	3081.78
459.472	3166.98
459.845	3166.98
460.218	3240.2
460.591	3231.84
460.964	3228.9
461.337	3337.14
461.71	3374.21
462.083	3406.97
462.456	3387.99
462.829	3449.46
463.201	3490.81
463.574	3487.42
463.947	3533.75
464.32	3597.48
464.692	3649
465.065	3635.44
465.438	3736.68
465.81	3757.47
466.183	3811.03
466.555	3892.61
466.928	3929.9
467.3	3870.24
467.672	3961.08
468.045	4065.49
468.417	4079.5
468.789	4083.11
469.161	4148.87
469.534	4206.05
469.906	4254.18
470.278	4330.56
470.65	4383.22
471.022	4435.65
471.394	4535.08
471.766	4520.39
472.138	4556.32
472.51	4635.64
472.882	4747.5
473.253	4763.1
473.625	4811
473.997	4916.31
474.369	4954.5
474.74	5003.54
475.112	5076.08
475.484	5147.27
475.855	5245.12
476.227	5260.26
476.598	5403.53
476.97	5459.12
477.341	5556.97
477.713	5622.73
478.084	5671.77
478.455	5742.96
478.827	5791.32
479.198	5980.92
479.569	5961.03
479.94	6105.21
480.311	6138.43
480.682	6278.76
481.053	6459.1
481.424	6516.04
481.795	6521.24
482.166	6691.41
482.537	6702.71
482.908	6824.96
483.279	6882.59
483.65	6963.49
484.021	7103.6
484.391	7116.25
484.762	7196.93
485.133	7263.59
485.503	7335.46
485.874	7485.74
486.244	7536.58
486.615	7681.21
486.985	7702.68
487.356	7884.37
487.726	7852.96
488.097	8036.46
488.467	8008.89
488.837	8151.03
489.207	8212.95
489.578	8349.67
489.948	8408.42
490.318	8499.95
490.688	8484.13
491.058	8623.33
491.428	8693.84
491.798	8758.47
492.168	8914.17
492.538	8913.49
492.908	9020.38
493.278	9067.61
493.648	9131.79
494.017	9243.88
494.387	9280.94
494.757	9336.53
495.126	9386.25
495.496	9456.53
495.866	9458.11
496.235	9555.06
496.605	9550.99
496.974	9613.82
497.344	9694.72
497.713	9721.61
498.082	9814.49
498.452	9823.3
498.821	9909.85
499.19	9903.52
499.559	9965.67
499.928	10090.86
500.298	10037.31
500.667	10126.12
501.036	10166.12
501.405	10176.51
501.774	10165.89
502.143	10318.88
502.512	10350.74
502.88	10327.24
503.249	10323.17
503.618	10434.13
503.987	10412.66
504.356	10554.81
504.724	10569.95
505.093	10608.59
505.462	10558.65
505.83	10656.95
506.199	10730.4
506.567	10820.56
506.936	10783.5
507.304	10899.43
507.672	10965.87
508.041	10970.62
508.409	11071.18
508.777	11029.15
509.145	11169.48
509.514	11098.3
509.882	11152.08
510.25	11274.11
510.618	11321.34
510.986	11302.58
511.354	11400.89
511.722	11435.24
512.09	11517.27
512.458	11580.77
512.826	11624.16
513.193	11707.32
513.561	11708.68
513.929	11776.02
514.297	11821.67
514.664	11976.69
515.032	11924.49
515.4	11982.34
515.767	12089.68
516.135	12088.1
516.502	12019.85
516.869	12180.75
517.237	12239.96
517.604	12189.34
517.972	12345.72
518.339	12330.58
518.706	12515.89
519.073	12425.27
519.44	12503.23
519.808	12597.01
520.175	12646.73
520.542	12795.88
520.909	12789.55
521.276	12840.85
521.643	12890.79
522.009	12922.88
522.376	12985.25
522.743	13048.98
523.11	13195.19
523.477	13241.74
523.843	13366.71
524.21	13507.27
524.577	13546.14
524.943	13626.36
525.31	13585.01
525.676	13753.59
526.043	13886.47
526.409	13839.24
526.776	14016.41
527.142	14069.07
527.508	14043.3
527.874	14182.73
528.241	14181.6
528.607	14316.52
528.973	14316.29
529.339	14316.52
529.705	14507.47
530.071	14604.19
530.437	14653.68
530.803	14680.57
531.169	14800.12
531.535	14771.65
531.901	14811.19
532.267	14855.71
532.632	14938.42
532.998	15061.36
533.364	15059.77
533.73	15082.82
534.095	15150.39
534.461	15256.15
534.826	15367.34
535.192	15430.84
535.557	15469.93
535.923	15438.97
536.288	15480.1
536.653	15704.95
537.019	15581.57
537.384	15640.32
537.749	15763.26
538.114	15785.18
538.479	15757.16
538.845	15850.26
539.21	15895.68
539.575	15880.54
539.94	16016.58
540.305	16069.46
540.67	16019.75
541.034	16129.35
541.399	16189.91
541.764	16241.44
542.129	16206.86
542.494	16303.36
542.858	16251.83
543.223	16335.45
543.587	16461.77
543.952	16381.09
544.316	16514.65
544.681	16512.84
545.045	16584.48
545.41	16688.43
545.774	16701.31
546.138	16603.46
546.503	16735.89
546.867	16733.63
547.231	16917.13
547.595	16922.32
547.959	17017.24
548.324	17050
548.688	17015.43
549.052	17093.84
549.416	17189.66
549.779	17078.48
550.143	17105.14
550.507	17301.07
550.871	17317.79
551.235	17290.45
551.599	17456.32
551.962	17525.25
552.326	17479.37
552.689	17685.24
553.053	17513.04
553.417	17591.01
553.78	17806.37
554.143	17612.93
554.507	17865.58
554.87	17842.3
555.234	18057.21
555.597	17943.54
555.96	18006.81
556.323	17999.81
556.686	18007.04
557.05	18128.39
557.413	18125.91
557.776	18208.39
558.139	18315.73
558.502	18340.37
558.865	18387.82
559.228	18397.09
559.59	18547.82
559.953	18553.47
560.316	18706.23
560.679	18720.02
561.041	18798.43
561.404	18909.62
561.767	18974.7
562.129	19019.44
562.492	19176.95
562.854	19117.29
563.217	19165.43
563.579	19213.56
563.941	19281.13
564.304	19457.85
564.666	19561.58
565.028	19618.3
565.39	19506.21
565.753	19749.59
566.115	19694.91
566.477	19841.79
566.839	19819.87
567.201	19957.72
567.563	19949.14
567.925	20145.06
568.287	20123.6
568.648	20200.88
569.01	20210.37
569.372	20389.8
569.734	20270.26
570.095	20582.34
570.457	20598.38
570.819	20625.05
571.18	20634.77
571.542	20830.02
571.903	20676.57
572.265	20858.04
572.626	21038.83
572.987	20952.5
573.349	21007.19
573.71	21061.42
574.071	21204.47
574.432	21173.29
574.794	21389.32
575.155	21224.81
575.516	21233.4
575.877	21362.21
576.238	21408.99
576.599	21544.12
576.96	21488.31
577.32	21483.11
577.681	21768.98
578.042	21665.25
578.403	21662.76
578.763	21691.92
579.124	21855.08
579.485	21900.5
579.845	22031.34
580.206	21828.86
580.566	21904.79
580.927	21843.55
581.287	22053.49
581.648	21934.62
582.008	22149.98
582.368	22090.78
582.728	22103.43
583.089	22115.86
583.449	22059.36
583.809	22153.82
584.169	22160.83
584.529	22121.96
584.889	22384.33
585.249	22133.94
585.609	22189.3
585.969	22254.84
586.329	22196.08
586.688	22148.63
587.048	22235.18
587.408	22241.96
587.768	22208.96
588.127	22187.72
588.487	22193.82
588.846	22330.32
589.206	22292.58
589.565	22267.72
589.925	22384.33
590.284	22285.57
590.643	22319.92
591.003	22373.71
591.362	22433.82
591.721	22494.83
592.08	22442.4
592.44	22479.92
592.799	22462.97
593.158	22398.56
593.517	22440.37
593.876	22517.43
594.235	22410.77
594.593	22484.21
594.952	22543.64
595.311	22494.83
595.67	22512.91
596.029	22557.43
596.387	22631.33
596.746	22708.61
597.104	22617.99
597.463	22595.62
597.822	22635.39
598.18	22617.77
598.538	22617.77
598.897	22783.64
599.255	22504.55
599.613	22882.84
599.972	22663.64
600.33	22787.03
600.688	22764.2
601.046	22751.32
601.404	22854.6
601.762	22794.94
602.12	22846.24
602.478	22975.05
602.836	22991.77
603.194	22657.77
603.552	22804.88
603.91	22709.52
604.268	22879.68
604.625	22791.1
604.983	22950.19
605.341	22763.53
605.698	22927.59
606.056	22974.37
606.413	23011.65
606.771	23135.95
607.128	23133.46
607.485	22996.97
607.843	23121.26
608.2	23058.66
608.557	23211.2
608.914	23116.96
609.272	23105.44
609.629	23302.27
609.986	23276.05
610.343	23159.67
610.7	23530.74
611.057	23332.1
611.414	23278.99
611.771	23263.63
612.127	23471.3
612.484	23321.93
612.841	23473.34
613.198	23294.59
613.554	23315.83
613.911	23517.63
614.267	23601.02
614.624	23477.63
614.98	23576.61
615.337	23591.3
615.693	23646.44
616.05	23536.16
616.406	23714.91
616.762	23608.48
617.118	23623.39
617.475	23649.15
617.831	23764.18
618.187	23731.18
618.543	23700.22
618.899	23840.11
619.255	23718.53
619.611	23643.95
619.967	23890.28
620.323	23908.35
620.678	23827.9
621.034	23798.98
621.39	23750.39
621.746	23807.11
622.101	24091.85
622.457	24008.24
622.812	23897.28
623.168	24006.2
623.523	23998.97
623.879	24046.43
624.234	23890.05
624.589	24021.35
624.945	24034.45
625.3	24090.72
625.655	24089.37
626.01	24063.15
626.365	24120.33
626.72	23896.15
627.075	24109.48
627.43	24131.4
627.785	24021.35
628.14	23974.34
628.495	24082.36
628.85	24031.29
629.205	24078.52
629.559	24190.38
629.914	24026.32
630.269	24182.47
630.623	24038.29
630.978	24126.88
631.332	24188.35
631.687	24215.24
632.041	24116.26
632.396	24088.01
632.75	24121.46
633.104	24134.79
633.459	23996.71
633.813	24046.88
634.167	24141.79
634.521	24029.26
634.875	24072.64
635.229	24081.23
635.583	23928.69
635.937	23983.83
636.291	24021.57
636.645	23954
636.999	23969.14
637.352	24047.11
637.706	23819.77
638.06	24024.51
638.413	23800.11
638.767	23957.39
639.121	23979.76
639.474	23924.85
639.828	23893.67
640.181	23955.36
640.534	23854.34
640.888	23904.29
641.241	23822.48
641.594	23868.13
641.947	23965.53
642.301	23926.88
642.654	23891.18
643.007	23958.52
643.36	23752.65
643.713	23858.41
644.066	23984.74
644.419	23812.54
644.771	23780.67
645.124	23448.48
645.477	23523.28
645.83	23395.15
646.182	23319.22
646.535	23293.46
646.888	23316.73
647.24	23313.12
647.593	23329.84
647.945	23328.48
648.298	23369.61
648.65	23256.85
649.002	23150.86
649.355	23320.12
649.707	23321.48
650.059	23351.98
650.411	23579.32
650.763	23749.49
651.115	23971.4
651.467	23824.06
651.819	23952.2
652.171	23923.5
652.523	24017.28
652.875	23897.73
653.227	23827.9
653.578	24012.31
653.93	23912.42
654.282	23767.12
654.633	23810.05
654.985	23870.62
655.337	23928.47
655.688	23854.57
656.039	23968.47
656.391	23733.67
656.742	23845.53
657.094	23917.17
657.445	23985.19
657.796	23961.69
658.147	23933.44
658.498	23950.39
658.849	23943.38
659.2	23988.13
659.551	23941.12
659.902	24012.31
660.253	24007.11
660.604	24018.41
660.955	23762.6
661.306	23948.58
661.656	23901.8
662.007	23943.83
662.358	24030.61
662.708	23906.77
663.059	23951.74
663.409	23775.7
663.76	23918.98
664.11	23878.98
664.461	23862.25
664.811	23910.84
665.161	23947.9
665.511	23748.81
665.862	23785.87
666.212	23798.53
666.562	23852.99
666.912	23755.59
667.262	23804.18
667.612	23837.62
667.962	23793.56
668.312	23727.57
668.662	23889.15
669.011	23845.76
669.361	23660.68
669.711	23710.85
670.06	23732.31
670.41	23591.98
670.76	23552.88
671.109	23661.13
671.459	23532.77
671.808	23593.33
672.157	23635.59
672.507	23457.74
672.856	23476.95
673.205	23352.89
673.554	23415.94
673.904	23415.94
674.253	23523.96
674.602	23343.85
674.951	23002.84
675.3	22842.17
675.649	23146.79
675.998	23213.46
676.346	23130.52
676.695	23352.66
677.044	23153.12
677.393	23194.47
677.741	23211.88
678.09	22978.21
678.438	22909.28
678.787	22976.18
679.135	22916.29
679.484	22802.62
679.832	22913.35
680.181	22626.58
680.529	22774.15
680.877	22639.46
681.225	22662.51
681.573	22770.31
681.922	22629.07
682.27	22582.97
682.618	22674.94
682.966	22547.26
683.314	22523.98
683.661	22412.8
684.009	22310.66
684.357	22239.47
684.705	22312.69
685.053	22284.22
685.4	22291.45
685.748	22181.39
686.095	22058.46
686.443	22084.9
686.79	21965.81
687.138	22022.3
687.485	22014.62
687.832	21986.6
688.18	21971.23
688.527	21812.59
688.874	21828.18
689.221	21688.07
689.568	21680.62
689.915	21748.41
690.262	21645.36
690.609	21572.6
690.956	21597.68
691.303	21483.11
691.65	21537.12
691.997	21552.48
692.344	21303
692.69	21281.76
693.037	21325.37
693.383	21187.3
693.73	21303.9
694.077	21178.03
694.423	21159.95
694.769	21103.91
695.116	21041.76
695.462	21083.57
695.808	20966.06
696.155	21189.33
696.501	20907.53
696.847	20863.69
697.193	20772.17
697.539	20873.18
697.885	20733.97
698.231	20763.13
698.577	20652.17
698.923	20679.51
699.269	20620.53
699.614	20431.38
699.96	20495.34
700.306	20431.38
700.651	20342.57
700.997	20318.84
701.342	20336.92
701.688	20293.53
702.033	20205.63
702.379	20250.37
702.724	20171.73
703.069	20212.18
703.415	20008.8
703.76	19985.97
704.105	20001.79
704.45	20050.15
704.795	19865.07
705.14	19773.77
705.485	19757.5
705.83	19727.22
706.175	19737.16
706.52	19790.27
706.865	19743.27
707.209	19669.14
707.554	19679.54
707.899	19598.64
708.243	19558.86
708.588	19514.12
708.932	19476.83
709.277	19457.17
709.621	19484.74
709.966	19386.21
710.31	19431.86
710.654	19298.53
710.998	19347.34
711.342	19403.16
711.687	19307.57
712.031	19179.67
712.375	19176.05
712.719	19284.52
713.063	19220.34
713.407	19324.52
713.75	19227.35
714.094	19229.83
714.438	19039.1
714.782	19170.63
715.125	19048.82
715.469	19114.81
715.812	19006.34
716.156	18901.93
716.499	18880.01
716.843	18918.66
717.186	18863.52
717.53	18935.6
717.873	19026.67
718.216	18910.52
718.559	18818.32
718.902	18701.03
719.246	18805.21
719.589	18823.29
719.932	18660.36
720.275	18646.57
720.617	18652.45
720.96	18677.98
721.303	18554.14
721.646	18695.84
721.989	18567.7
722.331	18654.93
722.674	18515.73
723.016	18596.63
723.359	18502.62
723.701	18534.94
724.044	18457.88
724.386	18487.03
724.729	18584.2
725.071	18585.1
725.413	18512.34
725.755	18423.75
726.097	18407.71
726.439	18261.72
726.782	18318.44
727.124	18305.34
727.465	18313.93
727.807	18335.17
728.149	18285.9
728.491	18262.4
728.833	18251.33
729.175	18195.06
729.516	18249.29
729.858	18219.46
730.199	18273.93
730.541	18212.23
730.882	18188.28
731.224	18334.49
731.565	18223.53
731.906	18188.5
732.248	18215.4
732.589	18138.79
732.93	18120.94
733.271	18131.78
733.612	18218.33
733.953	18226.47
734.294	18162.97
734.635	18094.95
734.976	18230.99
735.317	18078
735.658	18102.41
735.999	18173.36
736.339	18065.12
736.68	18139.01
737.021	18129.52
737.361	18045.68
737.702	18182.63
738.042	18180.6
738.383	18180.6
738.723	18180.14
739.063	18172.01
739.404	18202.52
739.744	18182.18
740.084	18163.19
740.424	18182.18
740.764	18236.64
741.104	18224.89
741.444	18211.1
741.784	18134.49
742.124	18245.68
742.464	18224.44
742.804	18214.49
743.143	18279.35
743.483	18348.5
743.823	18272.12
744.162	18273.7
744.502	18364.55
744.841	18379.46
745.181	18481.83
745.52	18342.4
745.86	18512.56
746.199	18442.51
746.538	18426.46
746.877	18624.2
747.216	18562.73
747.556	18563.18
747.895	18572
748.234	18550.53
748.573	18539.68
748.911	18507.37
749.25	18601.83
749.589	18574.26
749.928	18694.25
750.267	18752.33
750.605	18621.49
750.944	18671.2
751.283	18684.31
751.621	18603.41
751.96	18642.28
752.298	18646.8
752.636	18784.2
752.975	18651.09
753.313	18611.54
753.651	18801.6
753.989	18664.2
754.327	18764.08
754.666	18698.1
755.004	18808.6
755.342	18831.65
755.679	18855.38
756.017	18817.87
756.355	18804.31
756.693	18783.74
757.031	18829.39
757.368	18770.64
757.706	18861.71
758.044	18776.06
758.381	18852.67
758.719	18862.39
759.056	18854.93
759.394	18770.86
759.731	18772.22
760.068	18879.79
760.405	18817.19
760.743	18831.43
761.08	18859.67
761.417	18814.7
761.754	18764.31
762.091	18774.48
762.428	18861.03
762.765	18701.03
763.102	18852.67
763.438	18825.32
763.775	18767.92
764.112	18777.42
764.449	18828.49
764.785	18672.11
765.122	18663.07
765.458	18681.37
765.795	18816.28
766.131	18679.34
766.467	18790.52
766.804	18592.34
767.14	18662.62
767.476	18667.81
767.812	18653.13
768.148	18644.31
768.485	18579.45
768.821	18650.87
769.157	18601.15
769.492	18607.02
769.828	18565.9
770.164	18497.88
770.5	18448.61
770.836	18492.9
771.171	18449.51
771.507	18394.15
771.842	18211.33
772.178	18414.71
772.513	18354.15
772.849	18414.49
773.184	18209.52
773.519	18289.07
773.855	18292.46
774.19	18265.34
774.525	18175.62
774.86	18246.36
775.195	18263.98
775.53	18146.47
775.865	18052.01
776.2	17936.53
776.535	17965.69
776.87	17974.05
777.205	17992.13
777.539	17880.72
777.874	17893.37
778.209	17826.48
778.543	17826.25
778.878	17816.54
779.212	17658.12
779.547	17729.53
779.881	17749.19
780.215	17692.7
780.55	17757.1
780.884	17720.04
781.218	17747.61
781.552	17675.52
781.886	17595.75
782.22	17482.31
782.554	17496.77
782.888	17374.06
783.222	17382.42
783.556	17379.03
783.889	17347.17
784.223	17158.02
784.557	17121.64
784.89	17302.88
785.224	17246.61
785.557	17148.08
785.891	17153.05
786.224	17146.95
786.558	17120.51
786.891	17017.24
787.224	16979.72
787.557	17047.29
787.891	17074.64
788.224	16965.94
788.557	16934.75
788.89	16890.01
789.223	16923.68
789.556	16858.6
789.888	16809.11
790.221	16744.02
790.554	16589.22
790.887	16712.84
791.219	16681.2
791.552	16665.38
791.884	16561.88
792.217	16502.45
792.549	16544.48
792.882	16430.81
793.214	16408.21
793.546	16484.14
793.879	16410.7
794.211	16272.62
794.543	16331.15
794.875	16300.87
795.207	16377.25
795.539	16178.61
795.871	16247.99
796.203	16108.56
796.535	16105.85
796.867	16098.62
797.198	16081.22
797.53	16046.64
797.862	15957.83
798.193	16012.97
798.525	15937.04
798.856	15930.49
799.188	15751.28
799.519	15806.19
799.85	15723.03
800.182	15758.96
800.513	15751.51
800.844	15550.83
801.175	15631.74
801.506	15663.6
801.837	15661.11
802.168	15451.63
802.499	15548.57
802.83	15423.38
803.161	15446.66
803.491	15403.04
803.822	15430.84
804.153	15310.84
804.483	15209.15
804.814	15235.14
805.145	15210.5
805.475	15220.22
805.805	15174.35
806.136	15182.93
806.466	15113.11
806.796	15146.32
807.126	15064.29
807.457	15076.04
807.787	15044.86
808.117	15050.28
808.447	14972.77
808.777	14950.17
809.107	14935.93
809.436	14845.77
809.766	14939.32
810.096	14858.2
810.426	14763.74
810.755	14798.54
811.085	14762.61
811.414	14694.36
811.744	14543.18
812.073	14556.74
812.403	14579.79
812.732	14535.27
813.061	14494.14
813.39	14453.69
813.719	14378.66
814.049	14462.28
814.378	14505.89
814.707	14417.53
815.036	14330.08
815.365	14318.55
815.693	14164.66
816.022	14206.69
816.351	14135.5
816.68	14106.13
817.008	14169.85
817.337	14054.15
817.665	14020.93
817.994	14100.93
818.322	14053.92
818.651	14054.83
818.979	13967.37
819.307	13948.62
819.636	13945.45
819.964	13925.57
820.292	13974.38
820.62	13924.44
820.948	13836.08
821.276	13925.57
821.604	13870.88
821.932	13883.31
822.259	13949.52
822.587	13878.11
822.915	13825.23
823.243	13908.17
823.57	13876.08
823.898	13844.21
824.225	13819.35
824.553	13810.99
824.88	13889.86
825.207	13928.73
825.535	13878.11
825.862	13874.27
826.189	13819.81
826.516	13980.93
826.843	14017.54
827.17	13968.5
827.497	13994.94
827.824	13960.82
828.151	13963.76
828.478	13914.04
828.805	14014.6
829.131	14006.92
829.458	13885.12
829.785	13929.41
830.111	13905.23
830.438	13948.62
830.764	13987.49
831.09	13952.01
831.417	13896.64
831.743	13950.2
832.069	13961.05
832.395	13813.25
832.722	13933.25
833.048	13873.14
833.374	13890.99
833.7	13792.69
834.026	13888.28
834.351	13898.22
834.677	13807.83
835.003	13909.3
835.329	13867.71
835.654	13834.95
835.98	13765.34
836.306	13798.11
836.631	13732.8
836.956	13852.8
837.282	13827.26
837.607	13737.1
837.932	13667.49
838.258	13696.87
838.583	13743.2
838.908	13613.71
839.233	13646.93
839.558	13630.43
839.883	13641.73
840.208	13598.34
840.533	13511.79
840.858	13527.16
841.182	13566.71
841.507	13501.85
841.832	13477.22
842.156	13422.98
842.481	13526.03
842.805	13402.87
843.13	13345.24
843.454	13370.33
843.778	13241.06
844.103	13247.62
844.427	13246.26
844.751	13275.19
845.075	13289.42
845.399	13248.52
845.723	13062.31
846.047	13097.34
846.371	12993.16
846.695	12995.42
847.019	12946.83
847.343	12872.49
847.666	12815.09
847.99	12728.76
848.313	12743.45
848.637	12688.76
848.96	12594.08
849.284	12590.23
849.607	12541.65
849.931	12463.01
850.254	12413.06
850.577	12371.26
850.9	12296.46
851.223	12324.48
851.546	12175.1
851.869	12145.73
852.192	12316.57
852.515	12118.38
852.838	12055.11
853.161	12045.16
853.483	11989.12
853.806	11969.69
854.129	11898.27
854.451	11887.88
854.774	11766.75
855.096	11791.38
855.419	11751.16
855.741	11709.58
856.063	11659.18
856.385	11600.88
856.708	11645.85
857.03	11576.02
857.352	11544.39
857.674	11547.1
857.996	11508
858.318	11409.25
858.64	11435.01
858.961	11340.32
859.283	11319.08
859.605	11206.99
859.926	11303.71
860.248	11318.63
860.57	11325.18
860.891	11194.11
861.212	11159.31
861.534	11240.66
861.855	11116.37
862.176	11193.43
862.498	11098.07
862.819	11118.86
863.14	11133.78
863.461	10998.19
863.782	11010.61
864.103	11028.69
864.424	10947.79
864.745	11004.51
865.065	10940.33
865.386	10864.63
865.707	10879.09
866.027	10948.24
866.348	10920
866.668	10889.71
866.989	10810.85
867.309	10729.04
867.63	10746.44
867.95	10764.97
868.27	10719.77
868.59	10724.97
868.91	10721.81
869.23	10696.27
869.55	10612.21
869.87	10711.64
870.19	10661.7
870.51	10688.36
870.83	10660.12
871.15	10573.34
871.469	10615.37
871.789	10589.16
872.109	10567.01
872.428	10535.6
872.748	10522.72
873.067	10516.39
873.386	10478.43
873.706	10457.18
874.025	10454.7
874.344	10401.14
874.663	10408.14
874.982	10421.93
875.301	10407.01
875.62	10302.61
875.939	10358.65
876.258	10412.21
876.577	10345.1
876.896	10262.39
877.214	10317.98
877.533	10311.65
877.852	10306
878.17	10221.26
878.489	10332.44
878.807	10247.7
879.125	10164.99
879.444	10216.29
879.762	10127.02
880.08	10185.33
880.398	10110.53
880.716	10126.12
881.034	10078.89
881.352	10077.76
881.67	10115.04
881.988	10005.67
882.306	10013.58
882.624	9968.61
882.941	9989.17
883.259	9990.3
883.577	9883.41
883.894	9936.29
884.212	9856.97
884.529	9902.85
884.846	9822.62
885.164	9801.61
885.481	9740.59
885.798	9777.2
886.115	9819.46
886.432	9752.34
886.75	9761.38
887.067	9713.47
887.383	9685.45
887.7	9672.34
888.017	9690.65
888.334	9637.32
888.651	9574.95
888.967	9561.16
889.284	9480.71
889.6	9463.54
889.917	9467.83
890.233	9458.34
890.55	9410.43
890.866	9429.19
891.182	9319.36
891.498	9332.47
891.815	9304.67
892.131	9291.56
892.447	9176.54
892.763	9206.14
893.079	9141.51
893.395	9205.92
893.71	9122.75
894.026	9083.21
894.342	9105.58
894.657	9033.27
894.973	9033.04
895.289	9025.81
895.604	9012.25
895.92	8899.71
896.235	8891.57
896.55	8891.57
896.865	8851.8
897.181	8871.24
897.496	8810.67
897.811	8822.42
898.126	8675.53
898.441	8635.76
898.756	8618.59
899.071	8559.38
899.386	8642.32
899.7	8512.15
900.015	8563.67
900.33	8485.48
900.644	8458.14
900.959	8467.86
901.273	8511.7
901.588	8422.21
901.902	8343.57
902.216	8341.08
902.531	8305.83
902.845	8268.99
903.159	8292.95
903.473	8200.74
903.787	8202.1
904.101	8113.97
904.415	8140.63
904.729	8127.07
905.042	8044.36
905.356	8038.94
905.67	8043.46
905.984	8026.29
906.297	7954.65
906.611	7902.67
906.924	7890.02
907.237	7861.77
907.551	7757.14
907.864	7776.8
908.177	7787.65
908.491	7803.69
908.804	7723.92
909.117	7654.54
909.43	7573.19
909.743	7598.73
910.056	7562.34
910.368	7489.13
910.681	7472.18
910.994	7464.49
911.307	7385.85
911.619	7427.43
911.932	7430.6
912.244	7355.12
912.557	7376.81
912.869	7285.06
913.181	7218.85
913.494	7241.9
913.806	7182.24
914.118	7151.05
914.43	7165.29
914.742	7170.94
915.054	7101.11
915.366	7108.8
915.678	7034.67
915.99	6995.13
916.302	6999.42
916.613	6976.37
916.925	6956.94
917.236	6892.3
917.548	6880.1
917.859	6871.29
918.171	6838.75
918.482	6755.36
918.794	6722.82
919.105	6759.88
919.416	6692.99
919.727	6619.77
920.038	6653.44
920.349	6643.05
920.66	6588.36
920.971	6607.11
921.282	6583.39
921.593	6490.51
921.903	6474.01
922.214	6430.85
922.525	6443.73
922.835	6438.76
923.146	6398.76
923.456	6325.09
923.767	6330.74
924.077	6294.81
924.387	6236.5
924.697	6224.98
925.008	6254.81
925.318	6208.48
925.628	6186.56
925.938	6196.5
926.248	6118.54
926.558	6114.47
926.867	6094.81
927.177	6064.53
927.487	6016.17
927.796	5963.74
928.106	6007.81
928.416	5958.77
928.725	5924.87
929.034	5883.29
929.344	5867.92
929.653	5893.91
929.962	5816.17
930.271	5794.71
930.581	5755.61
930.89	5684.65
931.199	5685.56
931.508	5665.22
931.817	5673.58
932.125	5647.59
932.434	5662.96
932.743	5565.79
933.051	5544.54
933.36	5497.31
933.669	5512
933.977	5492.79
934.286	5498.67
934.594	5395.85
934.902	5384.77
935.21	5353.36
935.519	5367.37
935.827	5382.97
936.135	5306.36
936.443	5278.56
936.751	5267.26
937.059	5264.78
937.367	5178
937.674	5226.36
937.982	5180.94
938.29	5161.73
938.597	5166.02
938.905	5122.86
939.213	5099.81
939.52	5122.18
939.827	5125.57
940.135	5049.87
940.442	5002.64
940.749	5007.83
941.056	5046.93
941.363	4909.08
941.67	4978.23
941.977	4919.7
942.284	4834.96
942.591	4848.97
942.898	4826.82
943.205	4867.27
943.511	4792.02
943.818	4815.07
944.125	4789.99
944.431	4740.72
944.738	4767.84
945.044	4754.06
945.35	4703.21
945.657	4652.14
945.963	4682.65
946.269	4594.51
946.575	4602.2
946.881	4610.56
947.187	4560.84
947.493	4502.09
947.799	4548.64
948.105	4542.08
948.41	4472.26
948.716	4464.12
949.022	4449.43
949.327	4443.1
949.633	4454.63
949.938	4398.13
950.244	4395.65
950.549	4364.91
950.854	4388.87
951.16	4362.88
951.465	4314.97
951.77	4283.79
952.075	4255.54
952.38	4308.87
952.685	4230.23
952.99	4199.72
953.294	4208.31
953.599	4159.04
953.904	4141.87
954.209	4136.9
954.513	4119.04
954.818	4099.38
955.122	4090.12
955.426	4081.98
955.731	4072.94
956.035	4049.67
956.339	4022.32
956.643	3999.05
956.948	3940.97
957.252	3956.56
957.556	3936.22
957.86	3925.38
958.163	3914.08
958.467	3905.49
958.771	3875.21
959.075	3849.9
959.378	3815.55
959.682	3829.56
959.985	3826.85
960.289	3762.22
960.592	3731.71
960.896	3772.39
961.199	3764.48
961.502	3663.91
961.805	3647.87
962.108	3692.39
962.411	3703.01
962.714	3653.29
963.017	3656.68
963.32	3617.14
963.623	3599.06
963.926	3617.59
964.228	3575.78
964.531	3560.19
964.833	3564.93
965.136	3576.69
965.438	3540.53
965.741	3521.55
966.043	3473.19
966.345	3516.57
966.648	3462.79
966.95	3483.13
967.252	3439.06
967.554	3402.9
967.856	3422.11
968.158	3417.59
968.46	3330.14
968.761	3313.42
969.063	3316.13
969.365	3345.73
969.666	3310.03
969.968	3315.45
970.269	3266.19
970.571	3295.34
970.872	3255.56
971.174	3240.42
971.475	3193.19
971.776	3168.56
972.077	3185.06
972.378	3160.43
972.679	3176.7
972.98	3141.44
973.281	3131.5
973.582	3113.42
973.883	3116.81
974.183	3068.45
974.484	3086.75
974.785	3059.41
975.085	3055.12
975.386	3046.76
975.686	3025.51
975.986	3006.98
976.287	2995.68
976.587	2948.23
976.887	2977.83
977.187	2978.51
977.487	2957.72
977.787	2940.32
978.087	2921.34
978.387	2885.86
978.687	2903.48
978.987	2893.99
979.286	2866.2
979.586	2839.76
979.885	2872.07
980.185	2839.53
980.484	2822.58
980.784	2785.52
981.083	2803.82
981.382	2789.36
981.682	2782.36
981.981	2752.98
982.28	2755.46
982.579	2729.02
982.878	2708.91
983.177	2709.36
983.475	2713.66
983.774	2677.73
984.073	2706.65
984.372	2614.9
984.67	2641.34
984.969	2678.63
985.267	2667.56
985.566	2614.68
985.864	2643.6
986.162	2616.26
986.461	2561.8
986.759	2577.84
987.057	2555.7
987.355	2552.31
987.653	2522.7
987.951	2522.02
988.249	2492.87
988.547	2492.65
988.844	2475.25
989.142	2482.03
989.44	2475.02
989.737	2474.79
990.035	2456.72
990.332	2457.17
990.63	2388.02
990.927	2425.3
991.224	2414.91
991.521	2381.69
991.819	2370.62
992.116	2404.29
992.413	2394.12
992.71	2367
993.006	2333.33
993.303	2336.72
993.6	2308.92
993.897	2322.93
994.193	2290.84
994.49	2288.36
994.787	2292.88
995.083	2270.28
995.379	2255.82
995.676	2263.73
995.972	2235.7
996.268	2227.57
996.565	2205.42
996.861	2173.11
997.157	2152.54
997.453	2181.24
997.749	2164.52
998.044	2134.46
998.34	2150.73
998.636	2141.47
998.932	2108.48
999.227	2123.16
999.523	2094.69
999.818	2090.62
1000.114	2073.67
1000.409	2069.38
1000.704	2042.04
1001	2049.72
1001.295	2001.81
1001.59	2028.93
1001.885	2006.11
1002.18	1997.74
1002.475	2038.87
1002.77	1980.12
1003.065	1950.97
1003.359	1968.37
1003.654	1963.62
1003.949	1933.11
1004.243	1933.34
1004.538	1915.26
1004.832	1902.83
1005.127	1895.83
1005.421	1884.3
1005.715	1896.28
1006.009	1864.41
1006.304	1864.87
1006.598	1840.91
1006.892	1846.56
1007.186	1859.44
1007.48	1837.97
1007.773	1830.06
1008.067	1819.44
1008.361	1789.84
1008.655	1778.31
1008.948	1776.05
1009.242	1783.06
1009.535	1765.89
1009.829	1728.15
1010.122	1723.85
1010.415	1717.07
1010.708	1713.46
1011.001	1691.99
1011.295	1682.5
1011.588	1718.66
1011.881	1683.63
1012.173	1671.88
1012.466	1658.77
1012.759	1667.58
1013.052	1653.35
1013.344	1648.83
1013.637	1621.03
1013.93	1622.61
1014.222	1607.7
1014.514	1587.81
1014.807	1585.1
1015.099	1588.72
1015.391	1532.45
1015.683	1556.85
1015.976	1544.87
1016.268	1532.9
1016.56	1544.65
1016.851	1521.15
1017.143	1498.77
1017.435	1506.01
1017.727	1513.69
1018.018	1478.44
1018.31	1450.87
1018.602	1451.77
1018.893	1453.58
1019.185	1463.97
1019.476	1433.01
1019.767	1416.74
1020.058	1417.65
1020.35	1395.05
1020.641	1376.97
1020.932	1399.79
1021.223	1379.68
1021.514	1362.96
1021.804	1362.28
1022.095	1353.69
1022.386	1348.04
1022.677	1320.93
1022.967	1299.68
1023.258	1337.42
1023.548	1299.91
1023.839	1307.14
1024.129	1279.57
1024.419	1278.44
1024.709	1293.36
1025	1249.52
1025.29	1245
1025.58	1245
1025.87	1253.81
1026.16	1212.68
1026.449	1201.83
1026.739	1231.44
1027.029	1211.55
1027.319	1186.92
1027.608	1200.25
1027.898	1206.58
1028.187	1185.34
1028.477	1157.99
1028.766	1174.49
1029.055	1159.35
1029.344	1163.42
1029.634	1132.23
1029.923	1122.74
1030.212	1121.38
1030.501	1132.46
1030.79	1122.74
1031.078	1099.69
1031.367	1106.47
1031.656	1110.31
1031.945	1073.7
1032.233	1066.7
1032.522	1062.18
1032.81	1049.97
1033.099	1040.48
1033.387	1039.58
1033.675	1037.54
1033.963	1055.62
1034.251	1021.27
1034.54	1049.97
1034.828	1002.06
1035.116	1004.55
1035.403	1012.46
1035.691	985.57
1035.979	979.47
1036.267	983.31
1036.554	978.79
1036.842	987.6
1037.129	947.6
1037.417	965.23
1037.704	969.97
1037.992	959.13
1038.279	924.78
1038.566	933.59
1038.853	933.59
1039.14	933.59
