Data from blue_shiny_book_FLMS001491_00035.txt Node
Date: Wed Feb 08 15:26:53 GMT 2017
User: dcchb
Spectrometer: FLMS00149
Trigger mode: 0
Integration Time (sec): 2.000000E-2
Scans to average: 10
Electric dark correction enabled: true
Nonlinearity correction enabled: false
Boxcar width: 0
XAxis mode: Wavelengths
Number of Pixels in Spectrum: 2048
>>>>>Begin Spectral Data<<<<<
341.393	-29.93
341.776	-29.93
342.16	-29.93
342.543	-41.23
342.927	-75.35
343.31	-85.52
343.693	-86.42
344.077	-53.66
344.46	-69.93
344.843	-47.56
345.226	-38.29
345.61	-2.13
345.993	-10.72
346.376	-3.71
346.759	35.38
347.142	-0.1
347.525	23.86
347.908	46
348.291	90.97
348.674	97.53
349.057	104.31
349.44	124.42
349.823	154.7
350.206	167.35
350.588	217.52
350.971	224.53
351.354	228.37
351.737	238.09
352.119	239.44
352.502	283.28
352.884	279.44
353.267	284.64
353.65	294.13
354.032	288.26
354.414	309.27
354.797	319.21
355.179	336.16
355.562	346.78
355.944	343.85
356.326	337.29
356.709	336.39
357.091	342.04
357.473	356.5
357.855	370.96
358.238	357.63
358.62	361.7
359.002	351.98
359.384	347.69
359.766	362.83
360.148	338.65
360.53	368.7
360.912	335.94
361.294	335.03
361.676	328.48
362.057	341.59
362.439	345.43
362.821	338.65
363.203	338.65
363.584	324.41
363.966	324.41
364.348	331.42
364.729	321.93
365.111	322.6
365.493	345.65
365.874	325.99
366.256	335.03
366.637	336.39
367.019	351.3
367.4	329.38
367.781	321.7
368.163	330.51
368.544	318.31
368.925	330.06
369.306	344.52
369.688	328.48
370.069	325.32
370.45	314.7
370.831	334.36
371.212	333.68
371.593	339.1
371.974	338.65
372.355	341.81
372.736	339.78
373.117	338.2
373.498	347.91
373.879	348.59
374.26	337.97
374.641	334.58
375.021	344.07
375.402	343.39
375.783	329.16
376.163	341.36
376.544	351.98
376.925	361.25
377.305	353.11
377.686	355.15
378.066	357.18
378.447	341.81
378.827	378.2
379.208	360.57
379.588	371.19
379.968	384.52
380.349	366.67
380.729	370.51
381.109	364.41
381.489	370.96
381.87	381.59
382.25	373.45
382.63	395.6
383.01	394.69
383.39	398.08
383.77	392.66
384.15	379.55
384.53	401.25
384.91	392.66
385.29	422.94
385.67	408.93
386.049	417.07
386.429	408.03
386.809	415.26
387.189	417.52
387.568	423.17
387.948	417.97
388.328	436.95
388.707	420.91
389.087	412.77
389.466	447.12
389.846	437.63
390.225	443.51
390.605	447.35
390.984	457.52
391.363	476.27
391.743	447.12
392.122	462.04
392.501	459.32
392.881	471.3
393.26	482.15
393.639	493.45
394.018	490.74
394.397	472.21
394.776	487.57
395.155	506.55
395.534	499.32
395.913	500.45
396.292	497.52
396.671	521.47
397.05	506.1
397.429	491.41
397.808	522.6
398.186	533.22
398.565	557.17
398.944	542.03
399.323	528.7
399.701	538.42
400.08	535.71
400.458	557.63
400.837	561.02
401.215	568.25
401.594	570.51
401.972	570.51
402.351	598.76
402.729	578.42
403.107	580.22
403.486	571.64
403.864	621.35
404.242	631.07
404.62	595.14
404.999	638.08
405.377	626.1
405.755	627.91
406.133	637.4
406.511	663.39
406.889	684.85
407.267	695.02
407.645	681.47
408.023	678.98
408.401	700.9
408.779	671.07
409.156	717.17
409.534	707.23
409.912	735.48
410.29	743.84
410.667	766.66
411.045	769.82
411.422	795.59
411.8	803.5
412.178	803.95
412.555	799.65
412.933	822.48
413.31	837.85
413.687	828.81
414.065	858.86
414.442	854.79
414.819	873.78
415.197	861.8
415.574	884.62
415.951	904.74
416.328	886.21
416.705	921.46
417.082	923.27
417.46	929.82
417.837	968.01
418.214	940.22
418.591	949.93
418.967	972.76
419.344	1002.81
419.721	1007.11
420.098	992.64
420.475	996.71
420.852	1059.31
421.228	1039.42
421.605	1038.07
421.982	1069.48
422.358	1078.52
422.735	1078.06
423.111	1075.81
423.488	1110.61
423.864	1113.54
424.241	1131.4
424.617	1132.53
424.994	1168.91
425.37	1175.46
425.746	1164.84
426.123	1216.59
426.499	1201.9
426.875	1221.79
427.251	1244.39
427.627	1266.53
428.003	1301.34
428.379	1312.86
428.756	1293.2
429.132	1323.03
429.507	1328.45
429.883	1359.19
430.259	1408.45
430.635	1403.93
431.011	1417.94
431.387	1462.01
431.763	1461.56
432.138	1503.82
432.514	1504.04
432.89	1525.51
433.265	1550.37
433.641	1587.88
434.016	1575.68
434.392	1634.89
434.767	1604.6
435.143	1643.25
435.518	1666.07
435.894	1704.72
436.269	1716.92
436.644	1751.49
437.02	1758.95
437.395	1770.25
437.77	1805.73
438.145	1799.63
438.52	1876.01
438.895	1852.51
439.271	1858.38
439.646	1928.21
440.021	1949.91
440.395	1933.41
440.77	1950.13
441.145	1980.19
441.52	2015.22
441.895	1985.16
442.27	2044.59
442.645	2042.79
443.019	2059.06
443.394	2092.73
443.769	2138.15
444.143	2104.03
444.518	2144.93
444.892	2146.29
445.267	2180.18
445.641	2165.72
446.016	2179.28
446.39	2225.38
446.764	2235.77
447.139	2244.14
447.513	2271.93
447.887	2278.94
448.262	2297.92
448.636	2304.47
449.01	2338.6
449.384	2366.39
449.758	2396.22
450.132	2408.65
450.506	2420.85
450.88	2460.85
451.254	2472.38
451.628	2520.29
452.002	2548.08
452.376	2579.04
452.75	2603.45
453.123	2610.91
453.497	2662.66
453.871	2666.5
454.244	2725.71
454.618	2746.04
454.992	2757.34
455.365	2810.45
455.739	2897
456.112	2922.08
456.486	2916.89
456.859	2952.14
457.232	2995.53
457.606	2993.04
457.979	3043.44
458.352	3131.57
458.725	3178.8
459.099	3184
459.472	3240.49
459.845	3309.19
460.218	3317.78
460.591	3359.36
460.964	3405.46
461.337	3480.94
461.71	3521.62
462.083	3579.69
462.456	3596.19
462.829	3589.19
463.201	3665.34
463.574	3685
463.947	3753.47
464.32	3851.33
464.692	3876.64
465.065	3894.94
465.438	3976.52
465.81	4024.88
466.183	4049.96
466.555	4141.26
466.928	4147.59
467.3	4225.78
467.672	4246.12
468.045	4387.36
468.417	4373.12
468.789	4432.33
469.161	4478.88
469.534	4520.91
469.906	4637.52
470.278	4691.53
470.65	4779.44
471.022	4836.61
471.394	4915.25
471.766	4972.65
472.138	5025.08
472.51	5123.61
472.882	5216.04
473.253	5272.53
473.625	5372.87
473.997	5455.12
474.369	5432.98
474.74	5592.75
475.112	5687.21
475.484	5757.04
475.855	5872.29
476.227	5931.27
476.598	6133.98
476.97	6162
477.341	6319.51
477.713	6420.07
478.084	6454.87
478.455	6617.35
478.827	6615.77
479.198	6846.5
479.569	6867.97
479.94	7051.69
480.311	7083.56
480.682	7254.4
481.053	7365.36
481.424	7592.7
481.795	7629.76
482.166	7742.07
482.537	7981.61
482.908	8092.57
483.279	8151.78
483.65	8347.7
484.021	8483.52
484.391	8553.35
484.762	8598.55
485.133	8746.79
485.503	8837.63
485.874	9078.53
486.244	9127.8
486.615	9352.42
486.985	9450.05
487.356	9605.75
487.726	9712.87
488.097	9921.22
488.467	10001.67
488.837	10263.13
489.207	10426.29
489.578	10538.61
489.948	10676.91
490.318	10825.15
490.688	10771.82
491.058	10909.44
491.428	11151.47
491.798	11338.36
492.168	11467.62
492.538	11508.98
492.908	11589.65
493.278	11800.04
493.648	11859.02
494.017	12036.19
494.387	12172.69
494.757	12294.72
495.126	12489.06
495.496	12530.42
495.866	12707.59
496.235	12853.12
496.605	12970.86
496.974	12951.2
497.344	13092.21
497.713	13099.22
498.082	13294.69
498.452	13388.7
498.821	13415.14
499.19	13470.06
499.559	13698.98
499.928	13717.28
500.298	13859.42
500.667	14023.04
501.036	14050.61
501.405	14301.22
501.774	14328.34
502.143	14484.04
502.512	14672.28
502.88	14781.43
503.249	14781.43
503.618	14819.17
503.987	14848.55
504.356	15041.09
504.724	15036.57
505.093	15099.62
505.462	15157.02
505.83	15300.74
506.199	15383
506.567	15618.93
506.936	15624.35
507.304	15855.76
507.672	15943.66
508.041	16019.14
508.409	16278.57
508.777	16338.91
509.145	16584.1
509.514	16535.74
509.882	16687.15
510.25	16657.99
510.618	16819.35
510.986	16866.12
511.354	17024.54
511.722	17163.29
512.09	17370.52
512.458	17165.33
512.826	17421.82
513.193	17445.09
513.561	17622.71
513.929	17765.99
514.297	17972.76
514.664	18070.84
515.032	18160.78
515.4	18469.92
515.767	18536.59
516.135	18692.97
516.502	18661.78
516.869	19007.08
517.237	18997.37
517.604	19052.51
517.972	19166.63
518.339	19216.8
518.706	19282.78
519.073	19351.71
519.44	19433.97
519.808	19662.66
520.175	19720.06
520.542	20060.62
520.909	20121.86
521.276	20187.84
521.643	20465.35
522.009	20609.75
522.376	20783.76
522.743	20958.22
523.11	21192.34
523.477	21343.52
523.843	21546.23
524.21	21729.73
524.577	21832.77
524.943	21864.64
525.31	21952.54
525.676	22087.23
526.043	22298.52
526.409	22369.71
526.776	22531.96
527.142	22640.89
527.508	22786.42
527.874	22977.15
528.241	23183.47
528.607	23356.8
528.973	23536.91
529.339	23634.08
529.705	23925.83
530.071	24079.49
530.437	24209.66
530.803	24350.67
531.169	24620.27
531.535	24503.44
531.901	24554.74
532.267	24594.06
532.632	24815.75
532.998	24784.11
533.364	24937.55
533.73	25031.56
534.095	25198.79
534.461	25227.26
534.826	25512.9
535.192	25565.56
535.557	25866.34
535.923	25868.15
536.288	25955.15
536.653	26156.95
537.019	26105.66
537.384	26368.02
537.749	26587.22
538.114	26643.95
538.479	26671.52
538.845	26751.29
539.21	26678.75
539.575	26924.84
539.94	26927.33
540.305	27049.59
540.67	26947.89
541.034	26955.8
541.399	27026.08
541.764	27123.48
542.129	27069.25
542.494	27342.46
542.858	27489.8
543.223	27555.56
543.587	27863.58
543.952	27770.92
544.316	27885.27
544.681	28047.53
545.045	28218.14
545.41	28305.37
545.774	28364.81
546.138	28375.2
546.503	28379.95
546.867	28443.45
547.231	28684.34
547.595	28687.28
547.959	28704.01
548.324	28743.33
548.688	28722.31
549.052	28867.39
549.416	28792.82
549.779	28822.42
550.143	28810.44
550.507	29115.07
550.871	29072.81
551.235	29172.92
551.599	29328.85
551.962	29572.91
552.326	29599.35
552.689	29777.2
553.053	29712.34
553.417	29878.21
553.78	30242.72
554.143	30045.89
554.507	30222.84
554.87	30398.2
555.234	30604.29
555.597	30371.08
555.96	30394.81
556.323	30531.75
556.686	30651.52
557.05	30678.19
557.413	30696.27
557.776	30815.14
558.139	30921.12
558.502	31004.28
558.865	31024.17
559.228	31361.79
559.59	31316.59
559.953	31478.62
560.316	31778.73
560.679	31905.95
561.041	32148.89
561.404	32287.87
561.767	32471.82
562.129	32368.77
562.492	32625.71
562.854	32669.78
563.217	32595.43
563.579	32702.32
563.941	32994.97
564.304	33056.89
564.666	33072.25
565.028	33078.35
565.39	33199.03
565.753	33360.38
566.115	33340.72
566.477	33533.26
566.839	33571.67
567.201	33598.57
567.563	33843.53
567.925	34104.09
568.287	34036.75
568.648	34173.01
569.01	34427.47
569.372	34682.61
569.734	34488.03
570.095	34759.44
570.457	35020.22
570.819	35005.99
571.18	35030.17
571.542	35262.02
571.903	35319.88
572.265	35396.03
572.626	35386.77
572.987	35513.32
573.349	35597.84
573.71	35671.96
574.071	35678.74
574.432	35878.05
574.794	36066.52
575.155	35971.16
575.516	35850.48
575.877	35906.75
576.238	36115.34
576.599	36350.58
576.96	36311.94
577.32	36448.21
577.681	36581.99
578.042	36761.19
578.403	36818.37
578.763	36872.15
579.124	36980.17
579.485	37122.54
579.845	37244.8
580.206	37120.06
580.566	37160.05
580.927	37275.76
581.287	37378.58
581.648	37092.26
582.008	37282.54
582.368	37291.12
582.728	37277.57
583.089	37093.62
583.449	37168.64
583.809	37176.55
584.169	37231.46
584.529	37197.34
584.889	37619.93
585.249	37363.66
585.609	37266.27
585.969	37542.42
586.329	37505.36
586.688	37471.91
587.048	37616.31
587.408	37489.08
587.768	37578.35
588.127	37719.81
588.487	37765.24
588.846	38040.26
589.206	37787.83
589.565	37566.82
589.925	37869.19
590.284	37607.73
590.643	37675.75
591.003	37861.96
591.362	37913.93
591.721	37865.8
592.08	37616.54
592.44	37689.98
592.799	37811.34
593.158	37783.09
593.517	37938.56
593.876	37917.77
594.235	37820.15
594.593	37867.83
594.952	37863.09
595.311	37840.71
595.67	38020.82
596.029	37998.45
596.387	38211.78
596.746	38259.23
597.104	38089.52
597.463	38155.28
597.822	38315.05
598.18	38228.73
598.538	38245.68
598.897	38518.66
599.255	38188.05
599.613	38728.6
599.972	38364.54
600.33	38420.36
600.688	38354.82
601.046	38623.74
601.404	38567.93
601.762	38449.74
602.12	38718.43
602.478	38527.48
602.836	38708.49
603.194	38327.25
603.552	38500.36
603.91	38472.79
604.268	38544.88
604.625	38358.89
604.983	38492.67
605.341	38418.33
605.698	38475.05
606.056	38655.61
606.413	38957.52
606.771	38918.43
607.128	38917.3
607.485	38945.09
607.843	39020.8
608.2	39168.59
608.557	39379.2
608.914	39054.92
609.272	39409.71
609.629	39308.7
609.986	39477.96
610.343	39310.28
610.7	39439.54
611.057	39524.96
611.414	39460.56
611.771	39478.41
612.127	39716.14
612.484	39506.66
612.841	39602.93
613.198	39461.91
613.554	39527.45
613.911	39580.1
614.267	39583.49
614.624	39590.27
614.98	39744.39
615.337	39764.51
615.693	39829.14
616.05	39842.47
616.406	40102.12
616.762	39763.15
617.118	40114.78
617.475	39963.6
617.831	40180.99
618.187	40149.81
618.543	40214.21
618.899	40453.07
619.255	40305.96
619.611	40333.3
619.967	40513.64
620.323	40391.61
620.678	40362
621.034	40252.63
621.39	40315.68
621.746	40248.56
622.101	40582.79
622.457	40218.05
622.812	40235
623.168	40447.43
623.523	40261.67
623.879	40462.11
624.234	40248.79
624.589	40405.62
624.945	40479.06
625.3	40501.21
625.655	40329.46
626.01	40367.43
626.365	40491.27
626.72	40317.94
627.075	40319.07
627.43	40429.8
627.785	40504.15
628.14	40413.53
628.495	40384.6
628.85	40455.56
629.205	40359.07
629.559	40582.34
629.914	40378.73
630.269	40424.15
630.623	40352.74
630.978	40352.51
631.332	40442
631.687	40576.24
632.041	40354.32
632.396	40351.16
632.75	40115.68
633.104	40272.97
633.459	40046.53
633.813	39951.39
634.167	39819.87
634.521	39723.38
634.875	39916.59
635.229	39877.72
635.583	39699.65
635.937	39630.5
636.291	39597.96
636.645	39567
636.999	39602.25
637.352	39759.08
637.706	39502.59
638.06	39511.63
638.413	39476.83
638.767	39435.25
639.121	39320.68
639.474	39176.95
639.828	39240.9
640.181	39320.9
640.534	39387.34
640.888	39080.91
641.241	39050.63
641.594	39309.83
641.947	39347.34
642.301	39206.1
642.654	39314.57
643.007	39312.77
643.36	39111.87
643.713	39089.04
644.066	39122.04
644.419	38950.52
644.771	38781.93
645.124	38705.1
645.477	38843.85
645.83	38406.35
646.182	38116.19
646.535	37772.02
646.888	37503.77
647.24	37157.57
647.593	37310.11
647.945	37215.87
648.298	36953.73
648.65	36979.72
649.002	37034.41
649.355	37280.05
649.707	37384.91
650.059	37621.51
650.411	38174.94
650.763	38070.09
651.115	38408.16
651.467	38181.5
651.819	38242.51
652.171	38224.88
652.523	38224.66
652.875	38255.84
653.227	38020.14
653.578	38430.98
653.93	38399.8
654.282	38159.58
654.633	37782.41
654.985	37899.02
655.337	38034.16
655.688	37803.65
656.039	37962.29
656.391	37770.66
656.742	37750.55
657.094	37884.1
657.445	37787.61
657.796	37825.8
658.147	37687.05
658.498	37666.26
658.849	37838.68
659.2	37552.59
659.551	37670.1
659.902	37679.59
660.253	37605.01
660.604	37895.18
660.955	37598.01
661.306	37686.82
661.656	37722.98
662.007	37675.52
662.358	37604.34
662.708	37627.39
663.059	37624.9
663.409	37377.9
663.76	37780.6
664.11	37746.71
664.461	37593.71
664.811	37719.59
665.161	37629.42
665.511	37678.68
665.862	37645.92
666.212	37687.27
666.562	37814.27
666.912	37676.42
667.262	37620.38
667.612	37644.11
667.962	37668.52
668.312	37529.31
668.662	37745.58
669.011	37531.12
669.361	37543.32
669.711	37327.96
670.06	37315.3
670.41	37046.84
670.76	37099.94
671.109	37184.01
671.459	37126.16
671.808	37188.3
672.157	37125.03
672.507	36905.15
672.856	37011.58
673.205	37136.55
673.554	37065.59
673.904	36964.8
674.253	37290.67
674.602	36914.86
674.951	36506.96
675.3	36350.36
675.649	36897.24
675.998	36889.55
676.346	36919.38
676.695	37149.21
677.044	36657.02
677.393	36851.81
677.741	36896.78
678.09	36659.05
678.438	36608.43
678.787	36670.8
679.135	36814.53
679.484	36370.7
679.832	36603.01
680.181	36363.69
680.529	36394.88
680.877	36271.72
681.225	36249.34
681.573	36383.8
681.922	36076.24
682.27	35992.85
682.618	35864.72
682.966	35896.13
683.314	35721.9
683.661	35817.04
684.009	35491.4
684.357	35418.4
684.705	35310.84
685.053	35408.91
685.4	35330.27
685.748	35191.52
686.095	35266.09
686.443	35139.77
686.79	35206.21
687.138	35231.97
687.485	35128.47
687.832	35146.77
688.18	35149.03
688.527	34860
688.874	34912.88
689.221	34838.53
689.568	34591.76
689.915	34625.21
690.262	34605.77
690.609	34547.47
690.956	34406.45
691.303	34367.59
691.65	34203.97
691.997	34200.81
692.344	33883.3
692.69	33922.4
693.037	33833.59
693.383	33457.55
693.73	33582.75
694.077	33361.06
694.423	33421.62
694.769	33143.21
695.116	33050.78
695.462	32918.13
695.808	33001.75
696.155	32880.39
696.501	32654.18
696.847	32665.26
697.193	32397.47
697.539	32468.43
697.885	32360.63
698.231	32254.42
698.577	32294.65
698.923	32112.05
699.269	32147.76
699.614	31963.35
699.96	31802.68
700.306	31878.38
700.651	31727.65
700.997	31473.42
701.342	31493.54
701.688	31470.03
702.033	31363.37
702.379	31314.11
702.724	31398.17
703.069	31451.28
703.415	31066.65
703.76	31085.64
704.105	30904.4
704.45	30897.85
704.795	30721.13
705.14	30548.25
705.485	30582.15
705.83	30464.41
706.175	30314.81
706.52	30274.36
706.865	30138.32
707.209	30132.89
707.554	30151.65
707.899	30031.65
708.243	29874.14
708.588	29816.29
708.932	29512.57
709.277	29676.86
709.621	29629.63
709.966	29389.86
710.31	29449.97
710.654	29264.44
710.998	29239.13
711.342	29228.74
711.687	29173.82
712.031	29069.65
712.375	28845.02
712.719	29004.79
713.063	29056.54
713.407	29143.99
713.75	28987.39
714.094	28881.85
714.438	28767.28
714.782	28811.57
715.125	28779.48
715.469	28899.03
715.812	28579.71
716.156	28463.33
716.499	28475.76
716.843	28536.78
717.186	28340.85
717.53	28433.73
717.873	28327.74
718.216	28300.17
718.559	28317.12
718.902	27900.86
719.246	28257.46
719.589	28244.13
719.932	27886.63
720.275	27945.38
720.617	27770.47
720.96	27812.28
721.303	27754.43
721.646	27758.04
721.989	27543.81
722.331	27765.95
722.674	27673.52
723.016	27732.73
723.359	27710.36
723.701	27550.59
724.044	27419.07
724.386	27249.81
724.729	27547.2
725.071	27421.1
725.413	27308.34
725.755	27280.09
726.097	27280.54
726.439	27114.89
726.782	27118.96
727.124	27259.07
727.465	27067.44
727.807	27078.29
728.149	27051.85
728.491	27035.35
728.833	27017.27
729.175	27113.09
729.516	26952.86
729.858	26994.22
730.199	27111.05
730.541	27048.68
730.882	27114.22
731.224	27166.19
731.565	26881
731.906	27082.58
732.248	26936.82
732.589	26870.38
732.93	26982.47
733.271	26915.8
733.612	26902.7
733.953	26917.61
734.294	26744.28
734.635	26699.09
734.976	26778.41
735.317	26571.86
735.658	26690.5
735.999	26783.83
736.339	26784.73
736.68	26757.84
737.021	26659.77
737.361	26563.72
737.702	26668.8
738.042	26571.41
738.383	26621.8
738.723	26770.27
739.063	26619.31
739.404	26665.87
739.744	26607.34
740.084	26565.76
740.424	26634.46
740.764	26530.95
741.104	26677.84
741.444	26582.48
741.784	26527.79
742.124	26618.18
742.464	26628.81
742.804	26676.04
743.143	26534.34
743.483	26630.61
743.823	26518.98
744.162	26674
744.502	26683.27
744.841	26671.29
745.181	26768.01
745.52	26704.06
745.86	26730.27
746.199	26800.33
746.538	26779.76
746.877	26846.43
747.216	26963.49
747.556	26860.44
747.895	26826.54
748.234	26748.12
748.573	26768.01
748.911	26780.21
749.25	26805.98
749.589	26812.76
749.928	26827.44
750.267	26848.01
750.605	26862.25
750.944	26912.19
751.283	26776.37
751.621	26916.26
751.96	26851.85
752.298	26935.24
752.636	26892.75
752.975	26954.67
753.313	26768.24
753.651	26935.01
753.989	26793.55
754.327	26818.18
754.666	26622.48
755.004	26845.97
755.342	27055.46
755.679	27002.81
756.017	26810.27
756.355	26879.87
756.693	26828.12
757.031	27041
757.368	26907.44
757.706	26925.75
758.044	26914.67
758.381	27034.44
758.719	26861.34
759.056	27024.5
759.394	26878.97
759.731	26908.8
760.068	26928.01
760.405	26851.85
760.743	26852.3
761.08	27004.61
761.417	26758.29
761.754	26781.8
762.091	26885.3
762.428	26850.72
762.765	26845.75
763.102	26986.54
763.438	26734.11
763.775	26735.7
764.112	26766.43
764.449	26746.54
764.785	26601.69
765.122	26492.76
765.458	26487.57
765.795	26505.42
766.131	26437.85
766.467	26525.31
766.804	26490.05
767.14	26320.11
767.476	26375.03
767.812	26261.36
768.148	26383.39
768.485	26221.81
768.821	26002.83
769.157	26029.5
769.492	25953.12
769.828	25938.43
770.164	25809.62
770.5	25816.62
770.836	25693.69
771.171	25511.32
771.507	25585.67
771.842	25427.71
772.178	25494.6
772.513	25361.27
772.849	25204.66
773.184	25219.13
773.519	25239.24
773.855	24926.48
774.19	24961.5
774.525	24836.08
774.86	25035.85
775.195	24942.52
775.53	24936.65
775.865	24760.38
776.2	24674.51
776.535	24623.89
776.87	24620.95
777.205	24490.78
777.539	24335.31
777.874	24385.7
778.209	24143.22
778.543	24296.66
778.878	24057.12
779.212	24046.05
779.547	23922.44
779.881	24139.61
780.215	23875.21
780.55	23868.43
780.884	23777.36
781.218	23712.05
781.552	23602.9
781.886	23447.87
782.22	23343.47
782.554	23385.05
782.888	23018.73
783.222	23020.09
783.556	23103.93
783.889	23004.95
784.223	22845.18
784.557	22771.96
784.89	22744.39
785.224	22583.04
785.557	22413.78
785.891	22424.85
786.224	22417.84
786.558	22294.46
786.891	22076.61
787.224	22015.37
787.557	21958.65
787.891	21968.82
788.224	21949.83
788.557	21919.32
788.89	21841.81
789.223	21829.84
789.556	21766.79
789.888	21563.63
790.221	21686.79
790.554	21456.74
790.887	21417.64
791.219	21371.32
791.552	21157.31
791.884	21125.45
792.217	20982.17
792.549	20965.68
792.882	20906.7
793.214	20953.47
793.546	20915.28
793.879	20788.06
794.211	20799.13
794.543	20776.53
794.875	20658.34
795.207	20694.72
795.539	20526.82
795.871	20480.27
796.203	20347.39
796.535	20235.53
796.867	20184.46
797.198	20205.7
797.53	20278.92
797.862	20162.53
798.193	20205.02
798.525	19965.93
798.856	19856.33
799.188	19803.45
799.519	19802.77
799.85	19707.41
800.182	19680.29
800.513	19703.11
800.844	19359.17
801.175	19574.3
801.506	19504.25
801.837	19403.23
802.168	19281.65
802.499	19186.74
802.83	19257.02
803.161	19127.53
803.491	18970.93
803.822	19004.37
804.153	19008.44
804.483	18729.13
804.814	18712.18
805.145	18787.88
805.475	18714.21
805.805	18757.15
806.136	18603.48
806.466	18668.11
806.796	18573.42
807.126	18496.82
807.457	18314.67
807.787	18374.79
808.117	18246.88
808.447	18170.04
808.777	18266.09
809.107	18066.54
809.436	18034.46
809.766	18070.16
810.096	18009.6
810.426	18015.7
810.755	18003.27
811.085	17895.93
811.414	17913.78
811.744	17724.63
812.073	17743.39
812.403	17742.26
812.732	17704.75
813.061	17615.48
813.39	17533.9
813.719	17464.3
814.049	17535.49
814.378	17536.16
814.707	17439.44
815.036	17422.49
815.365	17425.43
815.693	17202.61
816.022	17218.21
816.351	17171.88
816.68	17105.89
817.008	17062.28
817.337	17071.09
817.665	16899.12
817.994	16947.25
818.322	16894.15
818.651	16886.46
818.979	16788.84
819.307	16948.38
819.636	16721.04
819.964	16641.72
820.292	16754.71
820.62	16734.83
820.948	16727.6
821.276	16747.03
821.604	16585.68
821.932	16666.58
822.259	16644.44
822.587	16542.29
822.915	16534.61
823.243	16597.43
823.57	16607.83
823.898	16521.95
824.225	16457.32
824.553	16549.07
824.88	16560.14
825.207	16607.6
825.535	16610.76
825.862	16622.74
826.189	16450.32
826.516	16567.6
826.843	16629.52
827.17	16658.22
827.497	16570.99
827.824	16528.51
828.151	16580.71
828.478	16610.09
828.805	16598.33
829.131	16512.46
829.458	16435.63
829.785	16465.46
830.111	16454.61
830.438	16572.12
830.764	16464.55
831.09	16559.01
831.417	16411.22
831.743	16584.78
832.069	16590.43
832.395	16546.58
832.722	16618
833.048	16548.39
833.374	16512.46
833.7	16441.73
834.026	16462.29
834.351	16498
834.677	16462.97
835.003	16407.83
835.329	16427.72
835.654	16482.86
835.98	16283.54
836.306	16379.13
836.631	16300.04
836.956	16348.4
837.282	16332.13
837.607	16182.98
837.932	16258
838.258	16225.46
838.583	16140.49
838.908	16056.88
839.233	16080.16
839.558	15983.44
839.883	15939.6
840.208	15942.53
840.533	15998.35
840.858	15957
841.182	15913.83
841.507	15781.63
841.832	15667.74
842.156	15717.68
842.481	15672.03
842.805	15666.38
843.13	15567.85
843.454	15547.74
843.778	15555.42
844.103	15495.76
844.427	15371.25
844.751	15325.15
845.075	15358.14
845.399	15304.36
845.723	15279.05
846.047	15199.05
846.371	15068.66
846.695	15115.66
847.019	14974.2
847.343	14854.88
847.666	14898.94
847.99	14844.03
848.313	14947.53
848.637	14696.24
848.96	14798.16
849.284	14693.3
849.607	14526.3
849.931	14637.71
850.254	14470.71
850.577	14417.6
850.9	14347.77
851.223	14343.7
851.546	14261
851.869	14149.81
852.192	14238.4
852.515	14204.27
852.838	14011.74
853.161	13927.67
853.483	13954.56
853.806	13941.91
854.129	13885.86
854.451	13878.86
854.774	13738.07
855.096	13717.05
855.419	13676.83
855.741	13592.99
856.063	13521.13
856.385	13577.17
856.708	13528.13
857.03	13569.26
857.352	13538.3
857.674	13437.51
857.996	13388.7
858.318	13366.33
858.64	13349.83
858.961	13249.27
859.283	13242.04
859.605	13182.15
859.926	13213.34
860.248	13080.91
860.57	13085.43
860.891	13047.02
861.212	12900.58
861.534	12944.42
861.855	12920.69
862.176	12921.37
862.498	12837.08
862.819	12814.48
863.14	12750.98
863.461	12793.46
863.782	12714.82
864.103	12730.19
864.424	12652.68
864.745	12684.54
865.065	12686.35
865.386	12602.73
865.707	12569.06
866.027	12596.86
866.348	12541.04
866.668	12551.44
866.989	12510.08
867.309	12365.9
867.63	12558.67
867.95	12447.03
868.27	12373.36
868.59	12421.72
868.91	12397.09
869.23	12331.78
869.55	12321.61
869.87	12405.45
870.19	12286.13
870.51	12336.07
870.83	12390.31
871.15	12203.87
871.469	12180.6
871.789	12302.85
872.109	12188.51
872.428	12205.91
872.748	12167.04
873.067	12168.17
873.386	12195.96
873.706	12212.01
874.025	12131.11
874.344	12040.94
874.663	12183.54
874.982	12061.28
875.301	12033.26
875.62	11935.41
875.939	11894.5
876.258	11928.63
876.577	11901.74
876.896	11902.64
877.214	11866.71
877.533	11906.93
877.852	11947.38
878.17	11888.4
878.489	11880.72
878.807	11759.37
879.125	11755.07
879.444	11857.22
879.762	11753.49
880.08	11785.35
880.398	11669.2
880.716	11739.03
881.034	11608.18
881.352	11585.59
881.67	11614.06
881.988	11592.59
882.306	11484.8
882.624	11528.64
882.941	11431.01
883.259	11424.91
883.577	11388.3
883.894	11324.8
884.212	11304.01
884.529	11320.96
884.846	11213.17
885.164	11281.86
885.481	11163.9
885.798	11325.71
886.115	11132.26
886.432	11168.42
886.75	11092.04
887.067	11031.48
887.383	11077.12
887.7	11058.14
888.017	11063.57
888.334	11038.25
888.651	10972.04
888.967	10922.33
889.284	10908.09
889.6	10893.17
889.917	10836
890.233	10841.42
890.55	10742.44
890.866	10811.82
891.182	10812.05
891.498	10757.13
891.815	10711.48
892.131	10659.51
892.447	10689.56
892.763	10612.96
893.079	10626.97
893.395	10518.95
893.71	10569.11
894.026	10543.8
894.342	10484.15
894.657	10482.79
894.973	10457.93
895.289	10439.4
895.604	10531.83
895.92	10307.2
896.235	10340.87
896.55	10376.35
896.865	10248.22
897.181	10267.43
897.496	10284.15
897.811	10143.14
898.126	10151.5
898.441	10148.56
898.756	10063.37
899.071	9979.07
899.386	9966.42
899.7	9873.99
900.015	9918.28
900.33	9802.81
900.644	9830.6
900.959	9781.34
901.273	9756.48
901.588	9699.99
901.902	9704.96
902.216	9689.59
902.531	9539.76
902.845	9589.03
903.159	9545.86
903.473	9537.28
903.787	9483.72
904.101	9411.41
904.415	9450.95
904.729	9361.24
905.042	9273.1
905.356	9302.26
905.67	9208.92
905.984	9220.22
906.297	9206.89
906.611	9078.08
906.924	9096.39
907.237	9066.33
907.551	8986.78
907.864	8987.24
908.177	8803.51
908.491	8805.55
908.804	8814.58
909.117	8773.46
909.43	8761.48
909.743	8680.58
910.056	8718.32
910.368	8628.15
910.681	8577.3
910.994	8639
911.307	8628.37
911.619	8502.28
911.932	8588.6
912.244	8498.66
912.557	8502.28
912.869	8393.35
913.181	8381.15
913.494	8378.66
913.806	8342.28
914.118	8297.54
914.43	8246.01
914.742	8276.52
915.054	8179.35
915.366	8166.47
915.678	8179.12
915.99	8126.47
916.302	8095.28
916.613	8112.91
916.925	8040.82
917.236	7991.1
917.548	7996.3
917.859	7941.61
918.171	7902.29
918.482	7900.26
918.794	7819.13
919.105	7789.53
919.416	7768.28
919.727	7818.9
920.038	7691.45
920.349	7674.5
920.66	7680.6
920.971	7632.24
921.282	7578.68
921.593	7582.75
921.903	7548.4
922.214	7511.12
922.525	7517.22
922.835	7500.72
923.146	7430.44
923.456	7354.51
923.767	7411.46
924.077	7403.32
924.387	7257.11
924.697	7180.5
925.008	7258.69
925.318	7227.96
925.628	7188.86
925.938	7148.41
926.248	7071.35
926.558	7010.56
926.867	7004.91
927.177	6995.65
927.487	6912.71
927.796	6848.99
928.106	6903.22
928.416	6803.56
928.725	6840.63
929.034	6759.72
929.344	6713.85
929.653	6766.5
929.962	6683.34
930.271	6627.52
930.581	6600.18
930.89	6543.01
931.199	6594.76
931.508	6525.38
931.817	6536.23
932.125	6524.25
932.434	6468.66
932.743	6410.13
933.051	6414.87
933.36	6414.42
933.669	6333.07
933.977	6296.91
934.286	6295.1
934.594	6290.81
934.902	6220.53
935.21	6217.82
935.519	6272.5
935.827	6213.3
936.135	6171.72
936.443	6098.27
936.751	6103.24
937.059	6083.81
937.367	6088.33
937.674	6080.42
937.982	6092.17
938.29	6009.01
938.597	6044.49
938.905	5988.44
939.213	5933.98
939.52	5940.54
939.827	5921.1
940.135	5875.45
940.442	5870.71
940.749	5810.82
941.056	5823.48
941.363	5774.44
941.67	5769.24
941.977	5770.14
942.284	5688.57
942.591	5688.79
942.898	5621
943.205	5655.12
943.511	5548.46
943.818	5571.96
944.125	5509.36
944.431	5490.6
944.738	5496.03
945.044	5508.68
945.35	5488.34
945.657	5402.47
945.963	5398.18
946.269	5367.9
946.575	5441.11
946.881	5342.36
947.187	5311.17
947.493	5361.12
947.799	5279.31
948.105	5275.69
948.41	5281.57
948.716	5202.48
949.022	5215.13
949.327	5227.79
949.633	5103.04
949.938	5127
950.244	5076.6
950.549	5032.76
950.854	5016.04
951.16	5003.61
951.465	4968.36
951.77	4945.53
952.075	4953.9
952.38	4910.51
952.685	4945.53
952.99	4868.25
953.294	4840.23
953.599	4798.65
953.904	4827.12
954.209	4791.19
954.513	4788.25
954.818	4768.36
955.122	4760.45
955.426	4735.14
955.731	4721.58
956.035	4621.25
956.339	4682.26
956.643	4651.08
956.948	4642.26
957.252	4571.76
957.556	4586.22
957.86	4565.43
958.163	4513.45
958.467	4512.32
958.771	4501.48
959.075	4518.2
959.378	4447.24
959.682	4447.47
959.985	4407.69
960.289	4390.75
960.592	4378.09
960.896	4375.61
961.199	4371.76
961.502	4329.28
961.805	4384.42
962.108	4310.52
962.411	4338.54
962.714	4297.19
963.017	4220.36
963.32	4198.21
963.623	4249.51
963.926	4226.91
964.228	4228.26
964.531	4228.94
964.833	4183.29
965.136	4131.54
965.438	4136.97
965.741	4156.4
966.043	4066.23
966.345	4087.25
966.648	4059.68
966.95	4059
967.252	4058.33
967.554	4017.87
967.856	4034.6
968.158	3975.39
968.46	4000.47
968.761	3960.7
969.063	3972
969.365	3947.82
969.666	3900.59
969.968	3857.2
970.269	3857.2
970.571	3882.96
970.872	3873.47
971.174	3844.55
971.475	3873.92
971.776	3776.07
972.077	3758.22
972.378	3785.79
972.679	3757.77
972.98	3761.16
973.281	3689.75
973.582	3746.24
973.883	3660.37
974.183	3614.5
974.484	3648.17
974.785	3605
975.085	3597.77
975.386	3598.22
975.686	3560.26
975.986	3540.82
976.287	3487.72
976.587	3516.19
976.887	3510.09
977.187	3493.14
977.487	3447.49
977.787	3450.66
978.087	3435.74
978.387	3401.62
978.687	3417.66
978.987	3366.59
979.286	3339.25
979.586	3339.7
979.885	3354.62
980.185	3309.87
980.484	3329.98
980.784	3280.04
981.083	3298.35
981.382	3251.57
981.682	3282.53
981.981	3205.92
982.28	3214.73
982.579	3203.88
982.878	3225.81
983.177	3234.84
983.475	3167.73
983.774	3140.61
984.073	3145.13
984.372	3129.99
984.67	3161.4
984.969	3101.97
985.267	3087.73
985.566	3036.21
985.864	3064.68
986.162	3066.71
986.461	3020.16
986.759	3031.23
987.057	2971.35
987.355	2979.71
987.653	2987.62
987.951	2969.09
988.249	2964.12
988.547	2974.51
988.844	2929.77
989.142	2929.09
989.44	2890.22
989.737	2876.44
990.035	2889.77
990.332	2894.06
990.63	2865.59
990.927	2841.18
991.224	2832.37
991.521	2852.03
991.819	2822.2
992.116	2822.43
992.413	2791.92
992.71	2759.83
993.006	2756.21
993.303	2756.89
993.6	2756.44
993.897	2730.9
994.193	2697.46
994.49	2673.73
994.787	2670.34
995.083	2664.24
995.379	2673.28
995.676	2669.89
995.972	2635.09
996.268	2617.23
996.565	2575.65
996.861	2597.12
997.157	2591.02
997.453	2553.73
997.749	2556.9
998.044	2529.1
998.34	2515.99
998.636	2491.14
998.932	2519.61
999.227	2502.43
999.523	2475.54
999.818	2452.94
1000.114	2454.75
1000.409	2434.19
1000.704	2437.58
1001	2433.74
1001.295	2372.27
1001.59	2370.23
1001.885	2356
1002.18	2340.18
1002.475	2335.88
1002.77	2336.56
1003.065	2295.21
1003.359	2320.29
1003.654	2307.64
1003.949	2280.29
1004.243	2269.22
1004.538	2244.36
1004.832	2220.18
1005.127	2260.41
1005.421	2181.54
1005.715	2181.54
1006.009	2192.61
1006.304	2171.37
1006.598	2161.43
1006.892	2140.18
1007.186	2099.73
1007.48	2136.57
1007.773	2122.78
1008.067	2079.85
1008.361	2082.11
1008.655	2056.8
1008.948	2077.59
1009.242	2064.48
1009.535	2051.15
1009.829	2024.48
1010.122	2014.76
1010.415	2015.22
1010.708	1993.52
1011.001	1989
1011.295	1973.18
1011.588	1958.95
1011.881	1947.87
1012.173	1930.02
1012.466	1959.17
1012.759	1942.67
1013.052	1886.63
1013.344	1895.44
1013.637	1906.97
1013.93	1884.6
1014.222	1855.9
1014.514	1862.9
1014.807	1852.28
1015.099	1840.76
1015.391	1808.67
1015.683	1796.46
1015.976	1824.26
1016.268	1803.02
1016.56	1798.27
1016.851	1780.42
1017.143	1803.02
1017.435	1762.11
1017.727	1744.49
1018.018	1706.75
1018.31	1745.84
1018.602	1733.41
1018.893	1720.31
1019.185	1718.5
1019.476	1681.66
1019.767	1693.42
1020.058	1665.85
1020.35	1681.44
1020.641	1632.63
1020.932	1638.5
1021.223	1629.91
1021.514	1637.15
1021.804	1617.94
1022.095	1613.64
1022.386	1565.74
1022.677	1595.11
1022.967	1575
1023.258	1578.16
1023.548	1556.47
1023.839	1552.4
1024.129	1526.41
1024.419	1530.71
1024.709	1524.83
1025	1511.05
1025.29	1469.24
1025.58	1476.25
1025.87	1453.65
1026.16	1428.79
1026.449	1479.41
1026.739	1455.46
1027.029	1478.51
1027.319	1435.57
1027.608	1429.92
1027.898	1404.16
1028.187	1416.14
1028.477	1390.6
1028.766	1381.56
1029.055	1376.36
1029.344	1315.35
1029.634	1337.04
1029.923	1329.81
1030.212	1295.23
1030.501	1354.22
1030.79	1291.62
1031.078	1289.81
1031.367	1269.02
1031.656	1285.29
1031.945	1298.62
1032.233	1261.79
1032.522	1258.4
1032.81	1253.2
1033.099	1256.82
1033.387	1217.95
1033.675	1235.12
1033.963	1205.52
1034.251	1221.34
1034.54	1186.31
1034.828	1187.21
1035.116	1182.24
1035.403	1179.53
1035.691	1133.66
1035.979	1180.21
1036.267	1158.29
1036.554	1145.86
1036.842	1137.95
1037.129	1109.25
1037.417	1140.21
1037.704	1128.23
1037.992	1103.6
1038.279	1126.88
1038.566	1090.95
1038.853	1090.95
1039.14	1090.95
