Data from blue_chair_FLMS001491_00033.txt Node
Date: Wed Feb 08 10:30:36 GMT 2017
User: dcchb
Spectrometer: FLMS00149
Trigger mode: 0
Integration Time (sec): 2.000000E-2
Scans to average: 10
Electric dark correction enabled: true
Nonlinearity correction enabled: false
Boxcar width: 0
XAxis mode: Wavelengths
Number of Pixels in Spectrum: 2048
>>>>>Begin Spectral Data<<<<<
341.393	-15.14
341.776	-15.14
342.16	-15.14
342.543	-60.34
342.927	-63.5
343.31	-75.7
343.693	-55.37
344.077	-48.13
344.46	-46.55
344.843	-57.63
345.226	-51.52
345.61	-34.8
345.993	1.36
346.376	-7.68
346.759	-9.27
347.142	33.22
347.525	40.22
347.908	48.13
348.291	73.9
348.674	87.46
349.057	102.37
349.44	115.7
349.823	134.01
350.206	146.44
350.588	157.28
350.971	192.76
351.354	202.25
351.737	192.54
352.119	229.82
352.502	227.11
352.884	238.64
353.267	272.76
353.65	262.14
354.032	287.68
354.414	284.74
354.797	280.9
355.179	286.55
355.562	293.33
355.944	326.55
356.326	314.34
356.709	314.79
357.091	314.12
357.473	312.53
357.855	299.2
358.238	306.21
358.62	320.9
359.002	317.05
359.384	328.8
359.766	318.64
360.148	310.73
360.53	308.01
360.912	314.34
361.294	310.27
361.676	301.69
362.057	295.13
362.439	319.09
362.821	303.27
363.203	309.14
363.584	303.72
363.966	296.72
364.348	327.45
364.729	300.56
365.111	298.3
365.493	278.86
365.874	300.78
366.256	273.89
366.637	278.41
367.019	274.34
367.4	300.11
367.781	273.21
368.163	279.09
368.544	279.09
368.925	298.52
369.306	295.59
369.688	276.83
370.069	283.61
370.45	301.91
370.831	285.19
371.212	290.61
371.593	306.66
371.974	280.9
372.355	301.01
372.736	283.38
373.117	293.55
373.498	278.86
373.879	302.82
374.26	293.78
374.641	300.78
375.021	305.75
375.402	295.59
375.783	277.28
376.163	295.13
376.544	288.35
376.925	300.56
377.305	292.65
377.686	298.75
378.066	304.85
378.447	302.59
378.827	294.46
379.208	295.59
379.588	287.9
379.968	289.26
380.349	317.28
380.729	292.2
381.109	282.93
381.489	302.14
381.87	309.82
382.25	305.3
382.63	294.23
383.01	311.4
383.39	314.57
383.77	294.46
384.15	305.3
384.53	311.86
384.91	312.99
385.29	286.09
385.67	308.24
386.049	319.31
386.429	310.5
386.809	308.01
387.189	294.23
387.568	295.59
387.948	291.97
388.328	288.35
388.707	302.14
389.087	306.88
389.466	332.87
389.846	310.95
390.225	322.48
390.605	298.75
390.984	314.57
391.363	315.92
391.743	320.44
392.122	300.11
392.501	310.05
392.881	323.38
393.26	311.18
393.639	325.87
394.018	312.08
394.397	306.66
394.776	341.46
395.155	310.05
395.534	321.8
395.913	322.48
396.292	321.8
396.671	325.64
397.05	329.03
397.429	317.05
397.808	313.66
398.186	316.83
398.565	312.76
398.944	322.7
399.323	317.96
399.701	330.39
400.08	334.68
400.458	330.61
400.837	330.61
401.215	330.39
401.594	319.09
401.972	337.84
402.351	358.63
402.729	350.05
403.107	335.81
403.486	348.92
403.864	353.89
404.242	369.03
404.62	334.23
404.999	348.01
405.377	347.56
405.755	357.05
406.133	341.23
406.511	333.32
406.889	354.79
407.267	356.83
407.645	340.33
408.023	364.51
408.401	368.8
408.779	376.71
409.156	363.83
409.534	358.41
409.912	368.8
410.29	374.45
410.667	363.38
411.045	370.61
411.422	361.12
411.8	362.48
412.178	365.19
412.555	383.72
412.933	369.71
413.31	373.55
413.687	373.78
414.065	400.89
414.442	368.58
414.819	371.06
415.197	392.08
415.574	385.07
415.951	385.07
416.328	400.89
416.705	381.91
417.082	400.89
417.46	381.46
417.837	404.74
418.214	387.33
418.591	396.83
418.967	397.5
419.344	418.75
419.721	409.03
420.098	413.32
420.475	404.28
420.852	412.87
421.228	416.03
421.605	414
421.982	403.38
422.358	428.24
422.735	413.32
423.111	434.11
423.488	426.2
423.864	422.59
424.241	431.4
424.617	437.5
424.994	420.55
425.37	444.06
425.746	414.23
426.123	443.38
426.499	432.76
426.875	447.67
427.251	437.28
427.627	427.56
428.003	420.1
428.379	465.75
428.756	449.03
429.132	465.52
429.507	457.62
429.883	484.96
430.259	468.91
430.635	472.08
431.011	461.46
431.387	470.27
431.763	474.11
432.138	484.96
432.514	480.21
432.89	517.27
433.265	487.67
433.641	479.76
434.016	511.62
434.392	496.71
434.767	502.81
435.143	526.31
435.518	514.79
435.894	524.28
436.269	525.41
436.644	514.56
437.02	533.32
437.395	541.45
437.77	525.86
438.145	553.21
438.52	557.27
438.895	557.05
439.271	565.63
439.646	548.01
440.021	594.33
440.395	585.97
440.77	591.4
441.145	581.68
441.52	601.34
441.895	581
442.27	580.32
442.645	596.82
443.019	618.06
443.394	608.8
443.769	619.87
444.143	621.45
444.518	615.35
444.892	614.67
445.267	605.86
445.641	629.59
446.016	625.75
446.39	625.29
446.764	635.69
447.139	628.91
447.513	638.63
447.887	635.01
448.262	631.85
448.636	667.33
449.01	653.32
449.384	651.96
449.758	693.09
450.132	654.67
450.506	673.65
450.88	665.97
451.254	645.18
451.628	673.65
452.002	665.97
452.376	678.85
452.75	683.37
453.123	692.86
453.497	713.2
453.871	685.18
454.244	709.13
454.618	716.59
454.992	701.9
455.365	706.65
455.739	731.28
456.112	733.99
456.486	733.09
456.859	736.7
457.232	750.26
457.606	717.27
457.979	738.29
458.352	759.53
458.725	780.77
459.099	772.64
459.472	782.58
459.845	778.96
460.218	767.21
460.591	785.97
460.964	806.31
461.337	815.35
461.71	805.18
462.083	843.59
462.456	845.4
462.829	814.44
463.201	850.83
463.574	828.45
463.947	868.68
464.32	877.04
464.692	857.83
465.065	849.02
465.438	897.38
465.81	880.65
466.183	885.4
466.555	886.3
466.928	905.74
467.3	898.28
467.672	902.35
468.045	930.82
468.417	919.52
468.789	949.13
469.161	921.11
469.534	957.26
469.906	957.71
470.278	969.92
470.65	963.14
471.022	980.31
471.394	993.19
471.766	997.04
472.138	990.48
472.51	1014.89
472.882	1044.27
473.253	1013.31
473.625	1035.68
473.997	1062.57
474.369	1084.72
474.74	1052.63
475.112	1078.39
475.484	1105.06
475.855	1116.35
476.227	1102.8
476.598	1156.81
476.97	1147.99
477.341	1170.59
477.713	1168.78
478.084	1198.84
478.455	1169.46
478.827	1216.01
479.198	1223.24
479.569	1214.88
479.94	1227.76
480.311	1245.62
480.682	1230.93
481.053	1256.01
481.424	1305.28
481.795	1288.33
482.166	1279.97
482.537	1307.76
482.908	1307.99
483.279	1338.04
483.65	1363.81
484.021	1351.6
484.391	1369.23
484.762	1365.39
485.133	1382.34
485.503	1412.17
485.874	1422.79
486.244	1406.97
486.615	1433.63
486.985	1445.39
487.356	1449.23
487.726	1460.75
488.097	1475.89
488.467	1475.67
488.837	1548.43
489.207	1520.86
489.578	1531.03
489.948	1530.58
490.318	1541.43
490.688	1543.01
491.058	1535.78
491.428	1580.52
491.798	1579.85
492.168	1618.94
492.538	1597.47
492.908	1599.96
493.278	1591.14
493.648	1642.67
494.017	1636.34
494.387	1619.39
494.757	1607.19
495.126	1634.08
495.496	1658.26
495.866	1648.54
496.235	1647.87
496.605	1670.01
496.974	1644.93
497.344	1680.86
497.713	1677.7
498.082	1692.16
498.452	1686.74
498.821	1660.07
499.19	1679.05
499.559	1713.85
499.928	1702.55
500.298	1704.14
500.667	1717.47
501.036	1700.29
501.405	1700.29
501.774	1693.74
502.143	1722.89
502.512	1685.38
502.88	1722.44
503.249	1681.99
503.618	1744.81
503.987	1716.11
504.356	1737.36
504.724	1738.03
505.093	1723.57
505.462	1719.05
505.83	1726.73
506.199	1726.96
506.567	1708.2
506.936	1742.55
507.304	1739.84
507.672	1773.74
508.041	1717.24
508.409	1726.51
508.777	1739.84
509.145	1752.5
509.514	1764.02
509.882	1738.71
510.25	1764.7
510.618	1751.14
510.986	1749.11
511.354	1757.24
511.722	1740.07
512.09	1719.95
512.458	1743.23
512.826	1748.43
513.193	1745.94
513.561	1767.19
513.929	1723.12
514.297	1753.17
514.664	1784.59
515.032	1766.51
515.4	1772.61
515.767	1746.17
516.135	1766.06
516.502	1703.01
516.869	1762.89
517.237	1777.35
517.604	1737.58
517.972	1726.96
518.339	1755.66
518.706	1757.69
519.073	1765.15
519.44	1772.16
519.808	1765.83
520.175	1750.01
520.542	1762.89
520.909	1742.78
521.276	1764.02
521.643	1749.78
522.009	1758.82
522.376	1726.73
522.743	1756.79
523.11	1759.73
523.477	1778.71
523.843	1739.84
524.21	1759.73
524.577	1767.41
524.943	1758.37
525.31	1770.57
525.676	1770.8
526.043	1774.87
526.409	1773.74
526.776	1766.73
527.142	1773.06
527.508	1757.69
527.874	1794.98
528.241	1761.31
528.607	1758.6
528.973	1781.87
529.339	1747.98
529.705	1770.12
530.071	1785.26
530.437	1777.13
530.803	1804.25
531.169	1760.18
531.535	1761.54
531.901	1770.35
532.267	1780.07
532.632	1771.48
532.998	1762.89
533.364	1791.82
533.73	1764.02
534.095	1787.52
534.461	1786.85
534.826	1758.82
535.192	1761.08
535.557	1788.43
535.923	1781.2
536.288	1750.24
536.653	1757.92
537.019	1754.76
537.384	1758.15
537.749	1722.44
538.114	1754.08
538.479	1738.71
538.845	1739.62
539.21	1719.73
539.575	1745.49
539.94	1747.52
540.305	1731.71
540.67	1719.05
541.034	1740.52
541.399	1734.87
541.764	1699.84
542.129	1728.77
542.494	1718.15
542.858	1739.16
543.223	1705.72
543.587	1686.28
543.952	1722.44
544.316	1737.13
544.681	1680.86
545.045	1717.02
545.41	1725.6
545.774	1707.53
546.138	1695.32
546.503	1683.8
546.867	1658.04
547.231	1690.58
547.595	1708.2
547.959	1672.72
548.324	1654.65
548.688	1666.4
549.052	1662.78
549.416	1682.44
549.779	1671.82
550.143	1647.19
550.507	1657.13
550.871	1658.94
551.235	1667.53
551.599	1662.33
551.962	1676.11
552.326	1637.47
552.689	1637.7
553.053	1681.09
553.417	1664.59
553.78	1676.11
554.143	1650.8
554.507	1656.45
554.87	1656.91
555.234	1651.03
555.597	1649.9
555.96	1632.95
556.323	1611.71
556.686	1637.92
557.05	1634.53
557.413	1632.5
557.776	1612.39
558.139	1644.25
558.502	1599.73
558.865	1629.79
559.228	1628.21
559.59	1615.78
559.953	1637.7
560.316	1653.74
560.679	1636.12
561.041	1643.57
561.404	1622.33
561.767	1662.56
562.129	1658.94
562.492	1630.01
562.854	1656
563.217	1621.2
563.579	1644.7
563.941	1637.7
564.304	1645.83
564.666	1637.47
565.028	1636.12
565.39	1679.73
565.753	1657.36
566.115	1665.49
566.477	1651.48
566.839	1646.51
567.201	1671.82
567.563	1669.56
567.925	1672.72
568.287	1673.63
568.648	1705.04
569.01	1661.65
569.372	1691.25
569.734	1681.76
570.095	1692.84
570.457	1665.72
570.819	1691.25
571.18	1688.54
571.542	1714.76
571.903	1730.58
572.265	1698.49
572.626	1706.4
572.987	1717.02
573.349	1722.67
573.71	1728.09
574.071	1757.02
574.432	1739.16
574.794	1726.73
575.155	1726.73
575.516	1737.58
575.877	1731.71
576.238	1712.27
576.599	1746.39
576.96	1747.75
577.32	1715.89
577.681	1755.89
578.042	1770.12
578.403	1776.22
578.763	1792.27
579.124	1777.13
579.485	1794.3
579.845	1772.38
580.206	1786.85
580.566	1785.72
580.927	1773.29
581.287	1780.29
581.648	1748.43
582.008	1791.14
582.368	1799.27
582.728	1799.95
583.089	1810.8
583.449	1774.42
583.809	1792.72
584.169	1824.36
584.529	1812.38
584.889	1810.57
585.249	1810.35
585.609	1798.14
585.969	1798.37
586.329	1783
586.688	1813.74
587.048	1767.64
587.408	1779.16
587.768	1819.39
588.127	1761.31
588.487	1763.8
588.846	1808.99
589.206	1783.46
589.565	1795.21
589.925	1813.74
590.284	1802.66
590.643	1814.42
591.003	1805.6
591.362	1800.86
591.721	1795.43
592.08	1771.48
592.44	1816.68
592.799	1790.69
593.158	1822.1
593.517	1798.37
593.876	1786.85
594.235	1793.85
594.593	1778.48
594.952	1824.36
595.311	1806.96
595.67	1809.67
596.029	1816.22
596.387	1815.32
596.746	1797.69
597.104	1816.68
597.463	1806.05
597.822	1784.81
598.18	1804.7
598.538	1808.77
598.897	1797.69
599.255	1752.04
599.613	1805.83
599.972	1830.46
600.33	1826.62
600.688	1830.91
601.046	1807.64
601.404	1817.35
601.762	1805.6
602.12	1814.19
602.478	1821.2
602.836	1806.73
603.194	1793.63
603.552	1818.03
603.91	1786.39
604.268	1821.87
604.625	1798.82
604.983	1790.91
605.341	1846.28
605.698	1811.93
606.056	1823.23
606.413	1816.22
606.771	1790.24
607.128	1823.23
607.485	1773.06
607.843	1821.42
608.2	1811.7
608.557	1799.27
608.914	1795.66
609.272	1834.53
609.629	1795.88
609.986	1838.14
610.343	1794.3
610.7	1807.41
611.057	1797.92
611.414	1806.28
611.771	1841.53
612.127	1808.77
612.484	1809.67
612.841	1826.62
613.198	1848.31
613.554	1810.35
613.911	1852.15
614.267	1822.78
614.624	1819.39
614.98	1827.52
615.337	1816.45
615.693	1853.28
616.05	1825.04
616.406	1828.43
616.762	1841.53
617.118	1870.23
617.475	1863.45
617.831	1870.01
618.187	1862.32
618.543	1847.64
618.899	1833.4
619.255	1843.57
619.611	1852.15
619.967	1845.15
620.323	1875.2
620.678	1837.47
621.034	1846.28
621.39	1882.89
621.746	1865.26
622.101	1873.85
622.457	1875.43
622.812	1850.35
623.168	1837.01
623.523	1867.75
623.879	1884.24
624.234	1865.26
624.589	1856.9
624.945	1890.35
625.3	1888.31
625.655	1887.63
626.01	1845.38
626.365	1913.85
626.72	1864.13
627.075	1872.04
627.43	1869.56
627.785	1875.43
628.14	1862.78
628.495	1884.24
628.85	1904.58
629.205	1872.72
629.559	1865.26
629.914	1854.64
630.269	1879.27
630.623	1868.65
630.978	1858.03
631.332	1843.34
631.687	1876.79
632.041	1859.84
632.396	1857.8
632.75	1848.09
633.104	1843.79
633.459	1866.39
633.813	1845.38
634.167	1853.06
634.521	1868.2
634.875	1841.08
635.229	1882.66
635.583	1875.43
635.937	1820.97
636.291	1871.14
636.645	1837.24
636.999	1865.04
637.352	1861.42
637.706	1847.18
638.06	1852.61
638.413	1833.17
638.767	1856.22
639.121	1844.47
639.474	1837.01
639.828	1841.08
640.181	1834.3
640.534	1836.34
640.888	1822.78
641.241	1840.63
641.594	1820.29
641.947	1830.46
642.301	1862.78
642.654	1839.5
643.007	1841.31
643.36	1876.79
643.713	1816
644.066	1833.17
644.419	1808.31
644.771	1831.82
645.124	1800.63
645.477	1820.29
645.83	1821.42
646.182	1803.34
646.535	1785.04
646.888	1800.86
647.24	1797.47
647.593	1780.74
647.945	1793.4
648.298	1787.07
648.65	1795.21
649.002	1785.49
649.355	1856.22
649.707	1785.94
650.059	1787.75
650.411	1830.91
650.763	1855.54
651.115	1843.34
651.467	1813.06
651.819	1822.55
652.171	1863
652.523	1852.83
652.875	1841.53
653.227	1855.32
653.578	1825.71
653.93	1864.13
654.282	1830.23
654.633	1832.27
654.985	1833.4
655.337	1852.61
655.688	1842.66
656.039	1857.35
656.391	1848.76
656.742	1862.55
657.094	1840.63
657.445	1851.7
657.796	1893.51
658.147	1870.91
658.498	1856.9
658.849	1873.17
659.2	1849.44
659.551	1864.58
659.902	1879.72
660.253	1881.76
660.604	1891.25
660.955	1847.41
661.306	1878.59
661.656	1889.89
662.007	1866.62
662.358	1822.32
662.708	1860.52
663.059	1866.62
663.409	1875.43
663.76	1847.86
664.11	1877.01
664.461	1856.45
664.811	1855.54
665.161	1857.58
665.511	1856.67
665.862	1862.78
666.212	1874.75
666.562	1854.64
666.912	1853.96
667.262	1841.53
667.612	1894.64
667.962	1852.15
668.312	1862.32
668.662	1844.47
669.011	1888.54
669.361	1830.23
669.711	1861.65
670.06	1864.81
670.41	1843.34
670.76	1841.99
671.109	1829.56
671.459	1840.63
671.808	1824.81
672.157	1839.73
672.507	1846.05
672.856	1848.76
673.205	1838.14
673.554	1833.85
673.904	1825.71
674.253	1829.1
674.602	1855.32
674.951	1830.01
675.3	1819.16
675.649	1820.74
675.998	1841.53
676.346	1816.68
676.695	1828.65
677.044	1832.49
677.393	1825.71
677.741	1848.09
678.09	1827.97
678.438	1792.04
678.787	1824.36
679.135	1849.22
679.484	1790.91
679.832	1788.43
680.181	1781.42
680.529	1805.38
680.877	1806.05
681.225	1798.14
681.573	1779.61
681.922	1799.05
682.27	1791.59
682.618	1776.22
682.966	1789.56
683.314	1766.28
683.661	1748.65
684.009	1749.11
684.357	1749.56
684.705	1747.52
685.053	1734.87
685.4	1761.54
685.748	1751.59
686.095	1730.12
686.443	1747.3
686.79	1725.83
687.138	1709.33
687.485	1745.94
687.832	1732.16
688.18	1733.97
688.527	1748.43
688.874	1743.46
689.221	1731.71
689.568	1695.32
689.915	1736
690.262	1706.17
690.609	1700.97
690.956	1677.02
691.303	1693.29
691.65	1691.25
691.997	1690.58
692.344	1659.17
692.69	1680.41
693.037	1681.31
693.383	1655.32
693.73	1646.96
694.077	1661.88
694.423	1638.6
694.769	1654.42
695.116	1643.12
695.462	1642.22
695.808	1621.65
696.155	1650.13
696.501	1612.84
696.847	1611.94
697.193	1598.15
697.539	1606.29
697.885	1595.89
698.231	1573.29
698.577	1606.74
698.923	1580.52
699.269	1588.21
699.614	1600.64
699.96	1576.91
700.306	1618.71
700.651	1582.33
700.997	1562.44
701.342	1591.6
701.688	1555.44
702.033	1558.15
702.379	1560.64
702.724	1577.81
703.069	1563.57
703.415	1533.07
703.76	1571.48
704.105	1568.55
704.45	1554.76
704.795	1566.74
705.14	1547.08
705.485	1560.18
705.83	1555.44
706.175	1565.38
706.52	1547.3
706.865	1576.23
707.209	1532.62
707.554	1541.43
707.899	1542.56
708.243	1543.01
708.588	1537.81
708.932	1546.4
709.277	1529.9
709.621	1530.81
709.966	1543.91
710.31	1547.53
710.654	1566.74
710.998	1511.6
711.342	1545.95
711.687	1564.93
712.031	1531.49
712.375	1518.6
712.719	1550.69
713.063	1517.47
713.407	1558.15
713.75	1543.46
714.094	1560.18
714.438	1541.43
714.782	1557.93
715.125	1552.28
715.469	1553.86
715.812	1526.06
716.156	1561.77
716.499	1551.6
716.843	1544.59
717.186	1552.05
717.53	1573.74
717.873	1554.54
718.216	1559.28
718.559	1570.13
718.902	1554.31
719.246	1580.75
719.589	1564.48
719.932	1545.27
720.275	1550.69
720.617	1588.43
720.96	1578.72
721.303	1571.26
721.646	1606.74
721.989	1596.12
722.331	1559.96
722.674	1583.24
723.016	1588.21
723.359	1594.53
723.701	1595.66
724.044	1619.17
724.386	1592.5
724.729	1602.67
725.071	1612.39
725.413	1595.66
725.755	1600.64
726.097	1653.52
726.439	1603.12
726.782	1632.05
727.124	1648.32
727.465	1639.5
727.807	1662.78
728.149	1642.22
728.491	1635.44
728.833	1637.02
729.175	1692.16
729.516	1661.43
729.858	1645.83
730.199	1705.49
730.541	1651.03
730.882	1668.66
731.224	1708.88
731.565	1685.38
731.906	1660.97
732.248	1695.77
732.589	1707.3
732.93	1694.64
733.271	1726.06
733.612	1734.87
733.953	1721.08
734.294	1739.62
734.635	1747.75
734.976	1745.49
735.317	1750.69
735.658	1731.93
735.999	1776
736.339	1779.16
736.68	1780.74
737.021	1801.99
737.361	1795.66
737.702	1798.82
738.042	1796.34
738.383	1809.67
738.723	1768.54
739.063	1835.21
739.404	1872.27
739.744	1869.1
740.084	1880.63
740.424	1877.92
740.764	1885.83
741.104	1915.66
741.444	1933.51
741.784	1944.13
742.124	1937.58
742.464	1935.54
742.804	1932.6
743.143	1979.38
743.483	1999.04
743.823	2000.63
744.162	2024.13
744.502	2036.1
744.841	2047.86
745.181	2084.69
745.52	2093.05
745.86	2117.23
746.199	2152.03
746.538	2145.71
746.877	2184.8
747.216	2173.95
747.556	2209.66
747.895	2230.45
748.234	2254.63
748.573	2252.14
748.911	2304.35
749.25	2351.8
749.589	2346.6
749.928	2379.6
750.267	2422.99
750.605	2437.9
750.944	2481.29
751.283	2517.9
751.621	2510.44
751.96	2550.67
752.298	2569.42
752.636	2644.68
752.975	2654.62
753.313	2712.25
753.651	2764.45
753.989	2802.64
754.327	2810.32
754.666	2829.3
755.004	2870.88
755.342	2955.18
755.679	2942.75
756.017	3010.32
756.355	3039.47
756.693	3043.31
757.031	3140.48
757.368	3156.53
757.706	3210.31
758.044	3249.41
758.381	3311.33
758.719	3324.88
759.056	3381.61
759.394	3426.8
759.731	3427.03
760.068	3484.43
760.405	3504.77
760.743	3530.98
761.08	3611.88
761.417	3585.44
761.754	3667.93
762.091	3653.69
762.428	3766
762.765	3747.25
763.102	3808.94
763.438	3820.01
763.775	3867.02
764.112	3935.26
764.449	3914.25
764.785	3991.99
765.122	3971.42
765.458	4063.4
765.795	4097.97
766.131	4114.69
766.467	4175.71
766.804	4132.77
767.14	4157.86
767.476	4203.73
767.812	4215.03
768.148	4285.76
768.485	4286.21
768.821	4304.07
769.157	4303.39
769.492	4365.99
769.828	4380.45
770.164	4375.48
770.5	4395.82
770.836	4441.01
771.171	4427.68
771.507	4418.87
771.842	4445.53
772.178	4499.77
772.513	4527.56
772.849	4522.14
773.184	4534.57
773.519	4529.37
773.855	4548.13
774.19	4546.55
774.525	4552.65
774.86	4547.45
775.195	4598.98
775.53	4586.77
775.865	4580.22
776.2	4582.25
776.535	4570.95
776.87	4592.87
777.205	4567.79
777.539	4587.9
777.874	4591.74
778.209	4570.95
778.543	4539.99
778.878	4601.23
779.212	4627.9
779.547	4625.42
779.881	4638.07
780.215	4554.91
780.55	4591.74
780.884	4587.22
781.218	4643.04
781.552	4614.12
781.886	4595.13
782.22	4573.44
782.554	4605.75
782.888	4567.11
783.222	4582.93
783.556	4539.32
783.889	4545.19
784.223	4530.73
784.557	4523.95
784.89	4574.34
785.224	4579.77
785.557	4528.92
785.891	4518.07
786.224	4505.87
786.558	4561.91
786.891	4523.04
787.224	4511.52
787.557	4542.71
787.891	4515.59
788.224	4536.83
788.557	4501.8
788.89	4518.3
789.223	4525.98
789.556	4490.05
789.888	4443.27
790.221	4471.52
790.554	4433.56
790.887	4471.52
791.219	4439.66
791.552	4419.77
791.884	4414.12
792.217	4463.61
792.549	4418.87
792.882	4392.43
793.214	4398.08
793.546	4381.35
793.879	4380.22
794.211	4311.98
794.543	4371.86
794.875	4372.31
795.207	4395.36
795.539	4364.86
795.871	4382.71
796.203	4334.12
796.535	4319.21
796.867	4340.45
797.198	4354.01
797.53	4330.28
797.862	4238.76
798.193	4287.34
798.525	4282.37
798.856	4266.1
799.188	4230.62
799.519	4241.92
799.85	4218.42
800.182	4221.58
800.513	4224.3
800.844	4174.58
801.175	4192.21
801.506	4197.86
801.837	4203.05
802.168	4169.38
802.499	4186.56
802.83	4153.11
803.161	4155.14
803.491	4132.32
803.822	4150.17
804.153	4139.55
804.483	4095.94
804.814	4108.82
805.145	4062.04
805.475	4131.42
805.805	4036.28
806.136	4084.41
806.466	4041.93
806.796	4028.82
807.126	4033.34
807.457	4081.02
807.787	4006.9
808.117	4050.29
808.447	4052.55
808.777	4003.51
809.107	4043.06
809.436	4004.87
809.766	3973
810.096	3990.4
810.426	4007.13
810.755	3971.2
811.085	3956.51
811.414	3922.61
811.744	3890.07
812.073	3942.95
812.403	3934.81
812.732	3917.64
813.061	3957.41
813.39	3903.63
813.719	3918.77
814.049	3944.3
814.378	3958.99
814.707	3889.16
815.036	3924.87
815.365	3882.84
815.693	3834.7
816.022	3884.64
816.351	3880.35
816.68	3840.8
817.008	3844.42
817.337	3825.89
817.665	3819.79
817.994	3827.92
818.322	3878.54
818.651	3781.82
818.979	3788.83
819.307	3850.52
819.636	3782.27
819.964	3757.42
820.292	3751.09
820.62	3746.57
820.948	3814.59
821.276	3807.13
821.604	3797.87
821.932	3793.35
822.259	3771.88
822.587	3755.83
822.915	3751.77
823.243	3761.03
823.57	3772.56
823.898	3791.09
824.225	3789.5
824.553	3739.56
824.88	3778.43
825.207	3801.03
825.535	3761.26
825.862	3762.84
826.189	3774.82
826.516	3796.28
826.843	3772.78
827.17	3793.8
827.497	3806.23
827.824	3759.22
828.151	3812.33
828.478	3776.85
828.805	3826.79
829.131	3805.32
829.458	3737.98
829.785	3748.83
830.111	3803.06
830.438	3784.53
830.764	3799.45
831.09	3801.71
831.417	3787.25
831.743	3778.66
832.069	3789.05
832.395	3740.01
832.722	3798.09
833.048	3767.13
833.374	3774.14
833.7	3771.2
834.026	3785.89
834.351	3751.54
834.677	3777.3
835.003	3771.88
835.329	3731.2
835.654	3724.42
835.98	3744.53
836.306	3761.26
836.631	3726.23
836.956	3721.03
837.282	3765.1
837.607	3737.98
837.932	3701.82
838.258	3730.75
838.583	3785.89
838.908	3707.25
839.233	3724.42
839.558	3695.72
839.883	3686
840.208	3703.86
840.533	3643.75
840.858	3665.44
841.182	3688.49
841.507	3643.07
841.832	3676.74
842.156	3631.77
842.481	3649.4
842.805	3633.12
843.13	3613.01
843.454	3639.68
843.778	3630.41
844.103	3628.61
844.427	3585.44
844.751	3582.96
845.075	3590.87
845.399	3558.1
845.723	3546.35
846.047	3577.99
846.371	3512.45
846.695	3527.59
847.019	3546.35
847.343	3497.76
847.666	3505.22
847.99	3503.64
848.313	3481.72
848.637	3440.81
848.96	3427.93
849.284	3430.42
849.607	3437.42
849.931	3431.77
850.254	3382.96
850.577	3381.15
850.9	3358.33
851.223	3335.96
851.546	3368.27
851.869	3314.94
852.192	3351.78
852.515	3303.42
852.838	3281.04
853.161	3288.05
853.483	3264.32
853.806	3245.11
854.129	3249.41
854.451	3267.71
854.774	3250.54
855.096	3248.73
855.419	3210.76
855.741	3209.86
856.063	3187.26
856.385	3202.63
856.708	3178.67
857.03	3136.19
857.352	3160.37
857.674	3156.08
857.996	3128.96
858.318	3125.57
858.64	3139.35
858.961	3137.77
859.283	3170.31
859.605	3124.89
859.926	3149.07
860.248	3106.58
860.57	3132.12
860.891	3105.91
861.212	3122.18
861.534	3113.59
861.855	3090.77
862.176	3091.9
862.498	3065
862.819	3074.04
863.14	3055.96
863.461	3032.01
863.782	3049.64
864.103	3045.12
864.424	3017.32
864.745	3032.01
865.065	3032.46
865.386	3001.73
865.707	3000.83
866.027	3027.72
866.348	2967.83
866.668	3002.18
866.989	2987.27
867.309	2974.16
867.63	2975.51
867.95	2984.78
868.27	2977.1
868.59	2980.49
868.91	2987.94
869.23	2980.03
869.55	2926.48
869.87	2969.19
870.19	2974.39
870.51	2950.2
870.83	2967.38
871.15	2951.56
871.469	2926.93
871.789	2947.49
872.109	2925.35
872.428	2894.39
872.748	2902.3
873.067	2935.97
873.386	2928.51
873.706	2945.23
874.025	2896.2
874.344	2863.43
874.663	2901.39
874.982	2875.86
875.301	2874.95
875.62	2877.44
875.939	2884.67
876.258	2845.12
876.577	2889.87
876.896	2861.85
877.214	2842.41
877.533	2873.14
877.852	2837.21
878.17	2860.49
878.489	2846.48
878.807	2866.59
879.125	2819.59
879.444	2821.85
879.762	2833.6
880.08	2832.92
880.398	2811.23
880.716	2811.45
881.034	2793.82
881.352	2809.64
881.67	2785.24
881.988	2737.33
882.306	2803.54
882.624	2818.23
882.941	2761.96
883.259	2745.46
883.577	2790.44
883.894	2762.87
884.212	2781.62
884.529	2728.29
884.846	2747.5
885.164	2738.23
885.481	2712.02
885.798	2750.89
886.115	2736.2
886.432	2699.59
886.75	2695.75
887.067	2724.45
887.383	2724
887.7	2726.48
888.017	2676.09
888.334	2666.14
888.651	2677.67
888.967	2654.62
889.284	2632.25
889.6	2670.89
889.917	2662.98
890.233	2652.13
890.55	2637.67
890.866	2660.95
891.182	2619.82
891.498	2605.58
891.815	2598.58
892.131	2582.3
892.447	2623.43
892.763	2577.56
893.079	2583.43
893.395	2562.64
893.71	2533.49
894.026	2541.63
894.342	2534.4
894.657	2512.7
894.973	2514.96
895.289	2499.6
895.604	2501.4
895.92	2497.56
896.235	2506.83
896.55	2528.97
896.865	2500.73
897.181	2480.61
897.496	2485.36
897.811	2470.9
898.126	2452.36
898.441	2431.35
898.756	2446.26
899.071	2406.04
899.386	2387.73
899.7	2405.36
900.015	2394.97
900.33	2363.33
900.644	2385.93
900.959	2380.95
901.273	2364.23
901.588	2367.17
901.902	2378.92
902.216	2342.76
902.531	2334.63
902.845	2344.8
903.159	2346.38
903.473	2334.63
903.787	2308.87
904.101	2302.09
904.415	2292.82
904.729	2299.37
905.042	2272.03
905.356	2269.77
905.67	2283.33
905.984	2262.99
906.297	2238.59
906.611	2223.22
906.924	2229.09
907.237	2245.59
907.551	2209.43
907.864	2210.79
908.177	2232.94
908.491	2217.79
908.804	2190.68
909.117	2193.84
909.43	2170.11
909.743	2175.76
910.056	2137.57
910.368	2133.05
910.681	2158.59
910.994	2160.17
911.307	2124.24
911.619	2142.09
911.932	2109.78
912.244	2103.67
912.557	2105.26
912.869	2124.01
913.181	2081.08
913.494	2071.13
913.806	2063.9
914.118	2056.9
914.43	2023.45
914.742	2060.96
915.054	2072.94
915.366	2048.31
915.678	2032.94
915.99	1979.61
916.302	1979.16
916.613	1986.61
916.925	1998.59
917.236	1993.39
917.548	2001.98
917.859	1963.56
918.171	1982.32
918.482	1978.25
918.794	1964.69
919.105	1971.02
919.416	1944.81
919.727	1920.4
920.038	1912.94
920.349	1885.15
920.66	1892.61
920.971	1867.97
921.282	1906.84
921.593	1894.64
921.903	1869.78
922.214	1873.62
922.525	1866.84
922.835	1823.23
923.146	1833.85
923.456	1852.61
923.767	1857.35
924.077	1839.95
924.387	1837.01
924.697	1849.89
925.008	1821.42
925.318	1812.38
925.628	1802.89
925.938	1820.74
926.248	1788.2
926.558	1776
926.867	1782.55
927.177	1775.09
927.487	1747.3
927.796	1759.95
928.106	1746.62
928.416	1745.04
928.725	1758.82
929.034	1726.51
929.344	1740.52
929.653	1734.87
929.962	1763.34
930.271	1713.4
930.581	1722.89
930.89	1686.28
931.199	1693.97
931.508	1700.75
931.817	1707.3
932.125	1679.96
932.434	1681.54
932.743	1662.33
933.051	1677.7
933.36	1679.96
933.669	1646.51
933.977	1625.95
934.286	1660.07
934.594	1652.61
934.902	1617.36
935.21	1609.68
935.519	1637.47
935.827	1599.05
936.135	1622.78
936.443	1579.85
936.751	1605.38
937.059	1572.61
937.367	1576.91
937.674	1591.37
937.982	1570.81
938.29	1592.05
938.597	1571.94
938.905	1563.12
939.213	1538.04
939.52	1571.48
939.827	1533.29
940.135	1552.05
940.442	1537.81
940.749	1535.33
941.056	1531.03
941.363	1526.29
941.67	1490.36
941.977	1514.08
942.284	1485.16
942.591	1505.05
942.898	1509.34
943.205	1499.62
943.511	1477.25
943.818	1495.78
944.125	1455.33
944.431	1458.27
944.738	1445.16
945.044	1448.55
945.35	1464.59
945.657	1447.87
945.963	1428.21
946.269	1433.41
946.575	1422.56
946.881	1408.55
947.187	1423.24
947.493	1417.36
947.799	1416.91
948.105	1423.69
948.41	1374.43
948.716	1390.25
949.022	1377.82
949.327	1388.89
949.633	1397.93
949.938	1359.29
950.244	1393.41
950.549	1360.19
950.854	1362.9
951.16	1356.57
951.465	1365.61
951.77	1350.7
952.075	1345.28
952.38	1325.84
952.685	1321.32
952.99	1331.72
953.294	1341.66
953.599	1331.04
953.904	1333.3
954.209	1314.32
954.513	1301.66
954.818	1277.93
955.122	1290.59
955.426	1268.89
955.731	1275.9
956.035	1288.33
956.339	1296.92
956.643	1305.95
956.948	1257.59
957.252	1246.07
957.556	1253.98
957.86	1254.2
958.163	1260.76
958.467	1249.91
958.771	1246.75
959.075	1211.49
959.378	1236.35
959.682	1263.02
959.985	1216.92
960.289	1201.32
960.592	1183.7
960.896	1200.87
961.199	1232.74
961.502	1214.43
961.805	1230.7
962.108	1183.7
962.411	1193.64
962.714	1181.21
963.017	1200.65
963.32	1182.34
963.623	1164.94
963.926	1180.08
964.228	1158.61
964.531	1160.2
964.833	1179.63
965.136	1162.23
965.438	1147.09
965.741	1152.74
966.043	1144.15
966.345	1136.02
966.648	1142.79
966.95	1124.49
967.252	1094.21
967.554	1122.23
967.856	1122.68
968.158	1109.8
968.46	1105.28
968.761	1089.24
969.063	1112.51
969.365	1109.58
969.666	1089.24
969.968	1099.41
970.269	1083.59
970.571	1063.93
970.872	1112.74
971.174	1067.54
971.475	1074.55
971.776	1061.44
972.077	1065.06
972.378	1065.73
972.679	1061.44
972.98	1077.03
973.281	1050.59
973.582	1065.28
973.883	1063.47
974.183	1037.26
974.484	1049.69
974.785	1061.22
975.085	1048.56
975.386	1029.35
975.686	1032.97
975.986	1021.89
976.287	1004.95
976.587	1032.06
976.887	985.74
977.187	1004.49
977.487	995.23
977.787	1015.11
978.087	1011.5
978.387	991.16
978.687	980.31
978.987	980.31
979.286	994.1
979.586	1003.82
979.885	990.71
980.185	988.45
980.484	982.35
980.784	978.05
981.083	963.14
981.382	957.94
981.682	979.18
981.981	972.4
982.28	945.96
982.579	961.1
982.878	962.91
983.177	941.67
983.475	952.07
983.774	947.55
984.073	935.12
984.372	933.53
984.67	947.77
984.969	950.26
985.267	922.24
985.566	911.84
985.864	916.59
986.162	910.48
986.461	924.5
986.759	904.83
987.057	905.29
987.355	896.93
987.653	909.58
987.951	912.29
988.249	875.91
988.547	879.52
988.844	874.55
989.142	892.41
989.44	889.69
989.737	888.11
990.035	879.75
990.332	849.92
990.63	870.49
990.927	855.8
991.224	884.5
991.521	871.84
991.819	874.78
992.116	849.7
992.413	848.79
992.71	825.52
993.006	850.37
993.303	871.62
993.6	835.23
993.897	835.01
994.193	830.71
994.49	850.6
994.787	831.16
995.083	808.57
995.379	839.3
995.676	818.96
995.972	813.09
996.268	829.13
996.565	815.57
996.861	803.37
997.157	820.09
997.453	805.63
997.749	789.58
998.044	807.89
998.34	791.62
998.636	799.3
998.932	758.62
999.227	778.06
999.523	781.9
999.818	791.84
1000.114	784.61
1000.409	781.67
1000.704	749.36
1001	765.86
1001.295	775.57
1001.59	768.57
1001.885	784.39
1002.18	761.79
1002.475	761.79
1002.77	773.76
1003.065	750.26
1003.359	749.81
1003.654	725.63
1003.949	730.15
1004.243	739.42
1004.538	741.9
1004.832	749.13
1005.127	714.56
1005.421	716.59
1005.715	706.2
1006.009	705.97
1006.304	732.64
1006.598	696.03
1006.892	717.72
1007.186	706.2
1007.48	688.8
1007.773	686.99
1008.067	691.51
1008.361	719.3
1008.655	710.49
1008.948	693.99
1009.242	691.96
1009.535	696.48
1009.829	693.32
1010.122	695.57
1010.415	675.69
1010.708	702.13
1011.001	672.3
1011.295	685.41
1011.588	672.3
1011.881	663.71
1012.173	673.2
1012.466	679.08
1012.759	642.24
1013.052	665.29
1013.344	646.99
1013.637	668.01
1013.93	653.77
1014.222	637.5
1014.514	664.84
1014.807	642.69
1015.099	636.14
1015.391	653.54
1015.683	625.52
1015.976	640.21
1016.268	622.81
1016.56	632.98
1016.851	631.62
1017.143	649.02
1017.435	607.89
1017.727	630.04
1018.018	614.9
1018.31	613.09
1018.602	590.94
1018.893	592.3
1019.185	621.9
1019.476	617.38
1019.767	601.79
1020.058	578.29
1020.35	617.84
1020.641	585.97
1020.932	602.7
1021.223	602.92
1021.514	588.23
1021.804	592.3
1022.095	591.85
1022.386	584.17
1022.677	573.77
1022.967	588.46
1023.258	589.59
1023.548	568.8
1023.839	552.75
1024.129	569.93
1024.419	577.61
1024.709	565.86
1025	550.04
1025.29	552.08
1025.58	558.18
1025.87	564.05
1026.16	526.31
1026.449	555.92
1026.739	554.34
1027.029	556.14
1027.319	551.17
1027.608	524.96
1027.898	537.61
1028.187	545.3
1028.477	525.64
1028.766	549.36
1029.055	523.15
1029.344	524.73
1029.634	534.45
1029.923	515.01
1030.212	516.37
1030.501	542.81
1030.79	537.39
1031.078	529.03
1031.367	524.96
1031.656	531.96
1031.945	523.6
1032.233	510.5
1032.522	509.59
1032.81	541.68
1033.099	511.17
1033.387	519.08
1033.675	512.98
1033.963	518.63
1034.251	516.37
1034.54	514.11
1034.828	484.51
1035.116	504.17
1035.403	503.72
1035.691	499.2
1035.979	475.69
1036.267	491.96
1036.554	473.66
1036.842	475.02
1037.129	475.02
1037.417	485.18
1037.704	477.28
1037.992	488.35
1038.279	491.51
1038.566	491.51
1038.853	491.51
1039.14	491.51
