Data from blue_clamp_base_FLMS001491_00063.txt Node
Date: Wed Feb 08 15:16:21 GMT 2017
User: dcchb
Spectrometer: FLMS00149
Trigger mode: 0
Integration Time (sec): 2.000000E-2
Scans to average: 10
Electric dark correction enabled: true
Nonlinearity correction enabled: false
Boxcar width: 0
XAxis mode: Wavelengths
Number of Pixels in Spectrum: 2048
>>>>>Begin Spectral Data<<<<<
341.393	-14.66
341.776	-14.66
342.16	-14.66
342.543	-66.86
342.927	-59.41
343.31	-77.03
343.693	-65.05
344.077	-51.72
344.46	-73.42
344.843	-77.94
345.226	-38.61
345.61	-39.97
345.993	-10.82
346.376	-1.1
346.759	10.42
347.142	42.96
347.525	45.22
347.908	56.75
348.291	76.86
348.674	88.16
349.057	115.28
349.44	128.61
349.823	126.13
350.206	165.22
350.588	181.49
350.971	179.01
351.354	226.24
351.737	212.45
352.119	248.38
352.502	241.6
352.884	255.16
353.267	270.76
353.65	292.22
354.032	304.88
354.414	295.61
354.797	309.85
355.179	293.81
355.562	297.65
355.944	296.97
356.326	320.02
356.709	330.19
357.091	332.9
357.473	343.97
357.855	301.49
358.238	339.23
358.62	323.18
359.002	350.53
359.384	300.36
359.766	316.18
360.148	340.81
360.53	335.84
360.912	317.99
361.294	333.58
361.676	315.5
362.057	313.01
362.439	322.51
362.821	322.05
363.203	330.19
363.584	311.88
363.966	307.82
364.348	320.02
364.729	298.55
365.111	313.92
365.493	317.76
365.874	308.95
366.256	307.82
366.637	327.48
367.019	314.37
367.4	320.47
367.781	320.25
368.163	309.17
368.544	291.55
368.925	324.54
369.306	315.73
369.688	317.08
370.069	289.96
370.45	294.94
370.831	320.92
371.212	305.1
371.593	300.81
371.974	309.17
372.355	288.38
372.736	310.98
373.117	302.85
373.498	306.01
373.879	310.75
374.26	317.53
374.641	310.98
375.021	312.34
375.402	306.23
375.783	302.62
376.163	307.59
376.544	287.48
376.925	327.48
377.305	324.09
377.686	327.25
378.066	319.57
378.447	307.82
378.827	313.47
379.208	333.13
379.588	310.53
379.968	323.41
380.349	332
380.729	321.6
381.109	298.78
381.489	341.04
381.87	322.05
382.25	325.9
382.63	327.7
383.01	334.26
383.39	338.55
383.77	346.91
384.15	353.47
384.53	317.31
384.91	347.14
385.29	332.45
385.67	337.19
386.049	343.75
386.429	340.36
386.809	357.31
387.189	352.11
387.568	350.53
387.948	330.64
388.328	354.14
388.707	353.47
389.087	360.7
389.466	365.22
389.846	361.83
390.225	372.22
390.605	360.92
390.984	344.88
391.363	363.18
391.743	379
392.122	355.27
392.501	385.55
392.881	402.05
393.26	364.76
393.639	381.94
394.018	394.37
394.397	388.72
394.776	389.17
395.155	396.85
395.534	397.76
395.913	381.94
396.292	413.35
396.671	407.7
397.05	420.36
397.429	405.44
397.808	411.32
398.186	424.42
398.565	424.88
398.944	424.42
399.323	386.91
399.701	415.61
400.08	430.53
400.458	432.79
400.837	448.38
401.215	442.28
401.594	439.56
401.972	463.52
402.351	440.47
402.729	481.6
403.107	456.74
403.486	456.97
403.864	469.39
404.242	469.39
404.62	489.51
404.999	474.37
405.377	497.87
405.755	464.65
406.133	506.46
406.511	495.16
406.889	482.05
407.267	493.8
407.645	523.63
408.023	514.37
408.401	531.99
408.779	529.73
409.156	513.01
409.534	540.8
409.912	548.94
410.29	546
410.667	578.32
411.045	563.4
411.422	578.32
411.8	576.74
412.178	593.23
412.555	585.55
412.933	598.2
413.31	599.56
413.687	608.15
414.065	623.97
414.442	608.15
414.819	615.83
415.197	626.9
415.574	641.59
415.951	626.68
416.328	652.21
416.705	667.58
417.082	659.45
417.46	649.73
417.837	687.47
418.214	669.84
418.591	693.57
418.967	687.69
419.344	711.65
419.721	689.28
420.098	692.89
420.475	717.52
420.852	730.18
421.228	760.23
421.605	730.63
421.982	743.74
422.358	749.16
422.735	748.26
423.111	755.49
423.488	742.16
423.864	774.02
424.241	772.66
424.617	787.58
424.994	773.34
425.37	775.15
425.746	798.65
426.123	827.8
426.499	816.05
426.875	844.53
427.251	836.62
427.627	853.79
428.003	862.38
428.379	851.08
428.756	891.08
429.132	884.98
429.507	877.52
429.883	906.9
430.259	918.65
430.635	927.01
431.011	951.19
431.387	937.18
431.763	951.87
432.138	985.09
432.514	994.58
432.89	974.47
433.265	1024.63
433.641	1026.89
434.016	1035.48
434.392	1064.41
434.767	1074.35
435.143	1075.25
435.518	1100.11
435.894	1092.43
436.269	1116.84
436.644	1110.73
437.02	1122.71
437.395	1122.03
437.77	1126.78
438.145	1139.66
438.52	1152.54
438.895	1204.06
439.271	1177.17
439.646	1210.17
440.021	1219.66
440.395	1245.87
440.77	1206.55
441.145	1250.84
441.52	1275.02
441.895	1268.7
442.27	1292.88
442.645	1282.48
443.019	1309.15
443.394	1315.47
443.769	1315.47
444.143	1354.34
444.518	1365.19
444.892	1353.21
445.267	1353.89
445.641	1388.92
446.016	1360.9
446.39	1397.05
446.764	1382.14
447.139	1381.91
447.513	1394.57
447.887	1414.23
448.262	1411.97
448.636	1446.54
449.01	1456.49
449.384	1483.61
449.758	1470.27
450.132	1510.5
450.506	1505.75
450.88	1514.56
451.254	1524.06
451.628	1558.63
452.002	1540.55
452.376	1567.67
452.75	1613.77
453.123	1572.87
453.497	1618.74
453.871	1626.65
454.244	1653.09
454.618	1661.91
454.992	1704.62
455.365	1678.63
455.739	1737.38
456.112	1736.71
456.486	1770.38
456.859	1782.35
457.232	1822.35
457.606	1827.32
457.979	1863.48
458.352	1861.22
458.725	1859.19
459.099	1887.21
459.472	1887.66
459.845	1908.9
460.218	1926.31
460.591	1962.01
460.964	1969.92
461.337	2014.89
461.71	2044.04
462.083	2085.4
462.456	2064.15
462.829	2074.55
463.201	2100.31
463.574	2119.75
463.947	2143.02
464.32	2191.84
464.692	2209.91
465.065	2219.18
465.438	2229.12
465.81	2269.57
466.183	2286.52
466.555	2320.19
466.928	2318.61
467.3	2319.06
467.672	2375.56
468.045	2453.07
468.417	2422.56
468.789	2409.46
469.161	2449.91
469.534	2500.98
469.906	2519.28
470.278	2508.44
470.65	2571.03
471.022	2612.39
471.394	2648.32
471.766	2670.01
472.138	2695.55
472.51	2747.98
472.882	2786.85
473.253	2803.12
473.625	2837.02
473.997	2898.26
474.369	2902.32
474.74	2908.43
475.112	3014.19
475.484	3039.27
475.855	3016.45
476.227	3076.11
476.598	3122.88
476.97	3170.79
477.341	3222.77
477.713	3255.99
478.084	3265.71
478.455	3341.86
478.827	3362.88
479.198	3418.47
479.569	3466.6
479.94	3535.53
480.311	3558.58
480.682	3591.35
481.053	3669.08
481.424	3730.33
481.795	3731.68
482.166	3790.66
482.537	3806.48
482.908	3858.23
483.279	3900.94
483.65	3938.68
484.021	3991.11
484.391	4041.73
484.762	4055.29
485.133	4088.06
485.503	4158.56
485.874	4200.6
486.244	4239.69
486.615	4265.68
486.985	4354.26
487.356	4372.57
487.726	4352.68
488.097	4446.24
488.467	4467.93
488.837	4526.69
489.207	4578.89
489.578	4606.69
489.948	4629.96
490.318	4677.65
490.688	4694.59
491.058	4769.85
491.428	4808.72
491.798	4829.73
492.168	4880.13
492.538	4900.69
492.908	4943.85
493.278	5002.83
493.648	4940.46
494.017	4968.94
494.387	5042.61
494.757	5047.35
495.126	5103.4
495.496	5093.45
495.866	5076.96
496.235	5126.67
496.605	5165.32
496.974	5170.29
497.344	5194.92
497.713	5257.97
498.082	5266.78
498.452	5233.34
498.821	5286.22
499.19	5298.42
499.559	5300.91
499.928	5319.89
500.298	5318.08
500.667	5347.23
501.036	5348.59
501.405	5401.02
501.774	5341.58
502.143	5475.14
502.512	5424.74
502.88	5448.47
503.249	5450.73
503.618	5462.94
503.987	5513.56
504.356	5547.9
504.724	5530.96
505.093	5508.58
505.462	5566.21
505.83	5557.17
506.199	5598.53
506.567	5638.07
506.936	5621.58
507.304	5701.35
507.672	5710.16
508.041	5661.35
508.409	5708.35
508.777	5730.95
509.145	5790.61
509.514	5825.41
509.882	5739.54
510.25	5777.73
510.618	5880.1
510.986	5838.07
511.354	5850.95
511.722	5901.34
512.09	5923.26
512.458	5942.7
512.826	5948.35
513.193	5976.59
513.561	5996.25
513.929	6008.23
514.297	6014.11
514.664	6024.5
515.032	6062.69
515.4	6071.73
515.767	6125.52
516.135	6088.68
516.502	6079.87
516.869	6203.93
517.237	6131.62
517.604	6149.25
517.972	6234.67
518.339	6190.15
518.706	6191.28
519.073	6227.44
519.44	6263.59
519.808	6244.16
520.175	6258.85
520.542	6341.33
520.909	6320.54
521.276	6335
521.643	6400.76
522.009	6373.65
522.376	6429.01
522.743	6432.85
523.11	6544.94
523.477	6501.55
523.843	6517.82
524.21	6579.29
524.577	6575
524.943	6599.18
525.31	6650.47
525.676	6717.14
526.043	6682.56
526.409	6713.98
526.776	6827.65
527.142	6819.96
527.508	6823.35
527.874	6871.49
528.241	6869.45
528.607	6911.71
528.973	6971.82
529.339	6911.03
529.705	6973.4
530.071	7085.49
530.437	7031.48
530.803	7110.12
531.169	7092.5
531.535	7088.66
531.901	7125.94
532.267	7148.09
532.632	7133.4
532.998	7190.12
533.364	7192.16
533.73	7221.53
534.095	7287.97
534.461	7249.1
534.826	7381.98
535.192	7289.1
535.557	7391.25
535.923	7309.89
536.288	7374.75
536.653	7424.92
537.019	7364.13
537.384	7414.3
537.749	7431.7
538.114	7421.3
538.479	7448.42
538.845	7466.95
539.21	7475.54
539.575	7519.38
539.94	7489.77
540.305	7572.94
540.67	7539.04
541.034	7535.88
541.399	7569.55
541.764	7609.09
542.129	7638.25
542.494	7678.24
542.858	7667.4
543.223	7686.61
543.587	7741.29
543.952	7629.66
544.316	7694.74
544.681	7675.31
545.045	7755.98
545.41	7811.35
545.774	7803.89
546.138	7777.9
546.503	7846.15
546.867	7827.85
547.231	7905.58
547.595	7901.06
547.959	7847.05
548.324	7896.77
548.688	7945.58
549.052	7929.99
549.416	7928.41
549.779	7836.88
550.143	7970.44
550.507	8020.61
550.871	8028.97
551.235	7968.41
551.599	8029.2
551.962	8092.92
552.326	8016.77
552.689	8102.64
553.053	8044.56
553.417	8075.97
553.78	8135.41
554.143	8071.68
554.507	8143.32
554.87	8141.96
555.234	8232.13
555.597	8176.54
555.96	8167.5
556.323	8192.81
556.686	8216.31
557.05	8308.96
557.413	8261.28
557.776	8241.62
558.139	8326.14
558.502	8289.75
558.865	8323.2
559.228	8410.2
559.59	8351.22
559.953	8387.15
560.316	8423.54
560.679	8421.95
561.041	8503.53
561.404	8508.51
561.767	8580.59
562.129	8459.69
562.492	8626.47
562.854	8553.48
563.217	8582.63
563.579	8589.63
563.941	8642.96
564.304	8661.72
564.666	8685.68
565.028	8732.23
565.39	8751.44
565.753	8806.8
566.115	8782.4
566.477	8809.06
566.839	8841.83
567.201	8946.91
567.563	8859.23
567.925	8975.61
568.287	8947.14
568.648	8937.65
569.01	9006.8
569.372	9038.21
569.734	9016.97
570.095	9021.49
570.457	9067.59
570.819	9133.57
571.18	9081.15
571.542	9132.9
571.903	9147.13
572.265	9267.36
572.626	9242.27
572.987	9285.66
573.349	9260.8
573.71	9239.33
574.071	9280.91
574.432	9375.15
574.794	9421.7
575.155	9420.57
575.516	9395.26
575.877	9502.83
576.238	9465.54
576.599	9510.29
576.96	9499.67
577.32	9564.97
577.681	9496.73
578.042	9520.68
578.403	9624.41
578.763	9642.94
579.124	9655.14
579.485	9615.14
579.845	9665.99
580.206	9679.55
580.566	9689.49
580.927	9681.13
581.287	9689.27
581.648	9680.68
582.008	9763.84
582.368	9783.95
582.728	9762.03
583.089	9725.65
583.449	9686.1
583.809	9734.91
584.169	9804.06
584.529	9737.17
584.889	9861.24
585.249	9800.22
585.609	9812.88
585.969	9802.71
586.329	9817.62
586.688	9800.9
587.048	9814.01
587.408	9780.56
587.768	9854.91
588.127	9863.5
588.487	9832.99
588.846	9901.24
589.206	9831.63
589.565	9846.1
589.925	9879.32
590.284	9843.39
590.643	9862.59
591.003	9872.31
591.362	9964.51
591.721	9893.78
592.08	9917.06
592.44	9984.17
592.799	9885.42
593.158	9989.82
593.517	9947.79
593.876	9910.28
594.235	9993.44
594.593	9950.5
594.952	9989.14
595.311	9898.75
595.67	9945.98
596.029	10021.91
596.387	10050.61
596.746	10099.2
597.104	10022.36
597.463	9970.16
597.822	10093.77
598.18	9955.25
598.538	9978.07
598.897	10058.52
599.255	9959.31
599.613	10196.14
599.972	10111.63
600.33	10074.79
600.688	10054.91
601.046	10107.11
601.404	10114.11
601.762	10128.8
602.12	10067.33
602.478	10095.81
602.836	10134
603.194	10096.94
603.552	10128.35
603.91	10009.26
604.268	10071.85
604.625	10115.24
604.983	10119.31
605.341	10136.03
605.698	10121.57
606.056	10168.35
606.413	10136.71
606.771	10215.58
607.128	10232.3
607.485	10137.16
607.843	10184.17
608.2	10187.78
608.557	10213.09
608.914	10219.19
609.272	10283.37
609.629	10255.58
609.986	10305.07
610.343	10294.45
610.7	10287.67
611.057	10300.32
611.414	10337.61
611.771	10387.78
612.127	10353.65
612.484	10343.03
612.841	10371.73
613.198	10304.16
613.554	10361.11
613.911	10364.05
614.267	10436.36
614.624	10392.75
614.98	10366.31
615.337	10378.74
615.693	10418.74
616.05	10453.54
616.406	10451.96
616.762	10445.86
617.118	10416.48
617.475	10486.31
617.831	10501.67
618.187	10378.06
618.543	10528.79
618.899	10552.97
619.255	10565.63
619.611	10570.6
619.967	10543.71
620.323	10583.03
620.678	10585.06
621.034	10562.46
621.39	10589.81
621.746	10470.49
622.101	10719.75
622.457	10536.02
622.812	10625.51
623.168	10632.97
623.523	10597.72
623.879	10647.66
624.234	10677.04
624.589	10699.18
624.945	10706.41
625.3	10698.28
625.655	10694.89
626.01	10729.01
626.365	10675.23
626.72	10688.56
627.075	10724.49
627.43	10692.18
627.785	10725.17
628.14	10685.85
628.495	10752.06
628.85	10695.34
629.205	10736.7
629.559	10788.9
629.914	10778.73
630.269	10777.37
630.623	10748.9
630.978	10706.41
631.332	10784.83
631.687	10826.18
632.041	10745.06
632.396	10825.96
632.75	10716.36
633.104	10722.23
633.459	10770.37
633.813	10786.41
634.167	10714.55
634.521	10787.32
634.875	10828.9
635.229	10829.12
635.583	10763.36
635.937	10844.94
636.291	10803.81
636.645	10871.83
636.999	10763.14
637.352	10887.43
637.706	10846.75
638.06	10908.89
638.413	10869.35
638.767	10817.6
639.121	10861.21
639.474	10802.68
639.828	10855.79
640.181	10920.19
640.534	10895.33
640.888	10963.36
641.241	10812.63
641.594	10900.31
641.947	10889.01
642.301	10927.2
642.654	10922.45
643.007	10949.8
643.36	10936.92
643.713	10919.52
644.066	10925.16
644.419	11029.12
644.771	10864.6
645.124	10824.83
645.477	10836.35
645.83	10760.42
646.182	10707.32
646.535	10701.67
646.888	10693.98
647.24	10615.79
647.593	10734.21
647.945	10710.26
648.298	10683.82
648.65	10715.9
649.002	10668.9
649.355	10757.49
649.707	10797.94
650.059	10910.02
650.411	10939.63
650.763	11012.62
651.115	11101.66
651.467	11029.79
651.819	11127.42
652.171	11062.56
652.523	11132.84
652.875	11055.33
653.227	11050.13
653.578	11113.86
653.93	11120.41
654.282	11118.15
654.633	11117.25
654.985	11130.13
655.337	11128.55
655.688	11186.4
656.039	11197.02
656.391	11098.04
656.742	11234.08
657.094	11163.35
657.445	11254.87
657.796	11226.4
658.147	11181.88
658.498	11190.47
658.849	11235.21
659.2	11244.48
659.551	11222.56
659.902	11268.43
660.253	11212.61
660.604	11253.97
660.955	11294.65
661.306	11280.86
661.656	11252.84
662.007	11290.13
662.358	11274.76
662.708	11252.61
663.059	11250.13
663.409	11208.1
663.76	11282.22
664.11	11300.97
664.461	11262.11
664.811	11347.07
665.161	11338.26
665.511	11272.73
665.862	11275.44
666.212	11293.74
666.562	11357.47
666.912	11289.22
667.262	11251.94
667.612	11358.83
667.962	11298.26
668.312	11300.97
668.662	11249.68
669.011	11219.85
669.361	11217.36
669.711	11229.79
670.06	11131.04
670.41	11098.49
670.76	11117.48
671.109	11239.51
671.459	11114.76
671.808	11100.75
672.157	11137.81
672.507	10996.8
672.856	11088.55
673.205	11027.99
673.554	11095.78
673.904	11032.05
674.253	11084.03
674.602	11049.23
674.951	10886.97
675.3	10760.65
675.649	10968.55
675.998	10899.18
676.346	10889.69
676.695	11027.53
677.044	10867.31
677.393	10859.18
677.741	10912.28
678.09	10850.59
678.438	10816.47
678.787	10829.8
679.135	10754.77
679.484	10658.51
679.832	10678.39
680.181	10693.31
680.529	10785.51
680.877	10681.56
681.225	10591.16
681.573	10687.43
681.922	10571.28
682.27	10587.09
682.618	10584.38
682.966	10600.43
683.314	10611.27
683.661	10548.68
684.009	10383.94
684.357	10427.32
684.705	10418.74
685.053	10410.15
685.4	10373.77
685.748	10365.63
686.095	10386.65
686.443	10257.84
686.79	10241.79
687.138	10350.49
687.485	10277.5
687.832	10318.18
688.18	10193.43
688.527	10197.05
688.874	10228.69
689.221	10224.17
689.568	10197.95
689.915	10135.58
690.262	10115.69
690.609	10118.63
690.956	10048.58
691.303	10131.51
691.65	10036.15
691.997	10126.54
692.344	10015.13
692.69	9978.75
693.037	9978.52
693.383	9919.32
693.73	9964.74
694.077	9884.51
694.423	9904.17
694.769	9845.87
695.116	9926.09
695.462	9914.12
695.808	9858.75
696.155	9880.67
696.501	9850.84
696.847	9821.01
697.193	9746.44
697.539	9807.45
697.885	9774.91
698.231	9774.69
698.577	9755.7
698.923	9697.17
699.269	9720.45
699.614	9630.51
699.96	9658.08
700.306	9679.1
700.651	9583.96
700.997	9609.95
701.342	9604.07
701.688	9622.15
702.033	9569.04
702.379	9601.36
702.724	9571.08
703.069	9603.17
703.415	9535.6
703.76	9570.4
704.105	9476.16
704.45	9493.56
704.795	9527.69
705.14	9438.2
705.485	9459.44
705.83	9405.88
706.175	9447.92
706.52	9410.18
706.865	9368.6
707.209	9409.72
707.554	9348.48
707.899	9456.05
708.243	9370.4
708.588	9374.25
708.932	9313.46
709.277	9348.03
709.621	9277.07
709.966	9369.95
710.31	9315.26
710.654	9224.64
710.998	9306.9
711.342	9236.85
711.687	9269.16
712.031	9248.37
712.375	9247.24
712.719	9307.13
713.063	9222.38
713.407	9361.14
713.75	9212.44
714.094	9249.73
714.438	9184.87
714.782	9198.43
715.125	9268.49
715.469	9227.81
715.812	9165.66
716.156	9148.04
716.499	9185.32
716.843	9207.92
717.186	9134.48
717.53	9120.01
717.873	9152.33
718.216	9202.72
718.559	9159.56
718.902	9091.77
719.246	9120.69
719.589	9091.77
719.932	9082.05
720.275	9034.14
720.617	9049.28
720.96	9070.75
721.303	9052.45
721.646	9094.48
721.989	9132.22
722.331	9050.86
722.674	9068.26
723.016	9077.53
723.359	9099.45
723.701	9057.87
724.044	9023.75
724.386	8983.29
724.729	9023.75
725.071	9007.7
725.413	9011.54
725.755	9039.56
726.097	9028.94
726.439	8925.67
726.782	9039.34
727.124	9039.11
727.465	9054.25
727.807	9001.83
728.149	9032.79
728.491	8945.56
728.833	8995.05
729.175	9027.36
729.516	9007.02
729.858	8989.17
730.199	8976.74
730.541	8990.75
730.882	8983.75
731.224	9057.64
731.565	9018.32
731.906	9048.6
732.248	9036.17
732.589	9069.17
732.93	9050.19
733.271	9045.89
733.612	9091.09
733.953	9084.76
734.294	9066
734.635	8999.57
734.976	9034.37
735.317	9011.54
735.658	9116.4
735.999	9124.76
736.339	9091.09
736.68	9079.34
737.021	9111.43
737.361	9120.92
737.702	9148.04
738.042	9121.82
738.383	9180.13
738.723	9164.76
739.063	9156.62
739.404	9204.76
739.744	9150.97
740.084	9207.92
740.424	9191.2
740.764	9190.75
741.104	9257.19
741.444	9232.33
741.784	9263.97
742.124	9391.42
742.464	9329.5
742.804	9350.29
743.143	9318.65
743.483	9344.64
743.823	9359.56
744.162	9345.09
744.502	9454.24
744.841	9443.62
745.181	9449.05
745.52	9436.39
745.86	9499.67
746.199	9438.65
746.538	9474.36
746.877	9568.59
747.216	9570.85
747.556	9610.17
747.895	9592.77
748.234	9585.99
748.573	9611.3
748.911	9608.14
749.25	9696.27
749.589	9631.19
749.928	9750.05
750.267	9715.25
750.605	9708.02
750.944	9746.66
751.283	9753.9
751.621	9797.28
751.96	9791.86
752.298	9856.27
752.636	9819.66
752.975	9819.43
753.313	9873.89
753.651	9953.44
753.989	9956.15
754.327	9937.85
754.666	9916.6
755.004	9992.08
755.342	10074.79
755.679	10016.04
756.017	10016.04
756.355	10064.62
756.693	10081.8
757.031	10098.07
757.368	10141.91
757.706	10069.59
758.044	10069.59
758.381	10149.37
758.719	10125.41
759.056	10231.17
759.394	10202.92
759.731	10170.61
760.068	10149.37
760.405	10159.54
760.743	10174.45
761.08	10158.63
761.417	10199.08
761.754	10275.01
762.091	10262.36
762.428	10247.89
762.765	10209.7
763.102	10254
763.438	10326.31
763.775	10256.93
764.112	10328.8
764.449	10335.12
764.785	10325.86
765.122	10285.63
765.458	10302.81
765.795	10317.95
766.131	10359.98
766.467	10368.57
766.804	10335.12
767.14	10309.14
767.476	10352.98
767.812	10314.56
768.148	10416.93
768.485	10373.54
768.821	10297.16
769.157	10359.53
769.492	10322.92
769.828	10326.31
770.164	10311.17
770.5	10319.76
770.836	10365.41
771.171	10366.76
771.507	10391.17
771.842	10254.22
772.178	10378.96
772.513	10294.45
772.849	10327.44
773.184	10305.29
773.519	10337.84
773.855	10289.48
774.19	10383.71
774.525	10294.9
774.86	10342.81
775.195	10352.3
775.53	10369.93
775.865	10325.63
776.2	10224.84
776.535	10244.96
776.87	10263.04
777.205	10271.85
777.539	10226.88
777.874	10256.26
778.209	10218.52
778.543	10190.72
778.878	10236.82
779.212	10263.94
779.547	10248.57
779.881	10293.77
780.215	10137.84
780.55	10257.16
780.884	10130.16
781.218	10269.36
781.552	10235.69
781.886	10191.17
782.22	10155.02
782.554	10064.4
782.888	10168.12
783.222	10160.89
783.556	10118.41
783.889	10111.4
784.223	10045.41
784.557	10037.05
784.89	10114.79
785.224	10021.69
785.557	10057.39
785.891	10032.98
786.224	10025.3
786.558	10020.56
786.891	9958.86
787.224	9946.21
787.557	9962.03
787.891	10014.91
788.224	9961.57
788.557	9965.19
788.89	10018.3
789.223	10012.65
789.556	9878.41
789.888	9905.08
790.221	9931.74
790.554	9832.31
790.887	9825.76
791.219	9875.02
791.552	9799.54
791.884	9786.66
792.217	9803.61
792.549	9795.48
792.882	9748.25
793.214	9690.39
793.546	9803.84
793.879	9753.44
794.211	9779.88
794.543	9724.74
794.875	9718.19
795.207	9747.79
795.539	9640.68
795.871	9666.44
796.203	9615.59
796.535	9625.31
796.867	9625.31
797.198	9609.27
797.53	9672.77
797.862	9614.92
798.193	9577.63
798.525	9547.35
798.856	9583.51
799.188	9521.59
799.519	9518.2
799.85	9437.75
800.182	9510.06
800.513	9498.08
800.844	9445.66
801.175	9461.47
801.506	9456.28
801.837	9432.32
802.168	9401.59
802.499	9449.05
802.83	9382.61
803.161	9345.32
803.491	9342.61
803.822	9311.65
804.153	9340.12
804.483	9316.62
804.814	9311.2
805.145	9322.95
805.475	9347.81
805.805	9266.23
806.136	9260.8
806.466	9216.28
806.796	9204.76
807.126	9147.36
807.457	9211.99
807.787	9172.67
808.117	9211.99
808.447	9124.76
808.777	9177.64
809.107	9179.45
809.436	9120.24
809.766	9126.79
810.096	9082.5
810.426	9078.66
810.755	9056.06
811.085	9090.64
811.414	9045.67
811.744	8955.72
812.073	8972.67
812.403	8950.53
812.732	8905.33
813.061	8965.22
813.39	8964.31
813.719	8884.09
814.049	8891.77
814.378	8969.51
814.707	8819.68
815.036	8909.4
815.365	8888.61
815.693	8818.55
816.022	8862.85
816.351	8796.86
816.68	8756.18
817.008	8783.98
817.337	8693.13
817.665	8760.7
817.994	8730.19
818.322	8712.79
818.651	8692.91
818.979	8620.59
819.307	8717.31
819.636	8674.15
819.964	8597.77
820.292	8712.57
820.62	8689.52
820.948	8684.32
821.276	8665.56
821.604	8656.07
821.932	8619.46
822.259	8682.51
822.587	8679.8
822.915	8643.87
823.243	8674.38
823.57	8663.53
823.898	8670.76
824.225	8679.57
824.553	8684.09
824.88	8675.28
825.207	8734.49
825.535	8709.86
825.862	8690.2
826.189	8711.66
826.516	8730.87
826.843	8746.92
827.17	8748.72
827.497	8711.21
827.824	8739.91
828.151	8755.5
828.478	8776.97
828.805	8803.19
829.131	8791.66
829.458	8734.71
829.785	8648.84
830.111	8711.44
830.438	8793.7
830.764	8751.21
831.09	8759.57
831.417	8776.29
831.743	8740.59
832.069	8768.39
832.395	8651.55
832.722	8726.8
833.048	8717.31
833.374	8779.91
833.7	8695.39
834.026	8667.82
834.351	8777.88
834.677	8717.09
835.003	8736.52
835.329	8719.57
835.654	8696.75
835.98	8682.96
836.306	8734.94
836.631	8728.84
836.956	8696.75
837.282	8659.24
837.607	8676.86
837.932	8662.85
838.258	8689.07
838.583	8642.96
838.908	8642.51
839.233	8673.7
839.558	8665.79
839.883	8585.57
840.208	8591.21
840.533	8547.37
840.858	8521.84
841.182	8548.05
841.507	8521.39
841.832	8495.4
842.156	8467.38
842.481	8520.26
842.805	8508.51
843.13	8485.68
843.454	8473.25
843.778	8405.91
844.103	8398.9
844.427	8406.13
844.751	8358
845.075	8344.44
845.399	8328.17
845.723	8304.22
846.047	8351.67
846.371	8293.37
846.695	8267.38
847.019	8197.55
847.343	8179.7
847.666	8145.12
847.99	8165.01
848.313	8103.77
848.637	8059.48
848.96	8054.05
849.284	8008.41
849.607	8006.6
849.931	7999.14
850.254	7899.48
850.577	7922.76
850.9	7869.88
851.223	7857.67
851.546	7774.29
851.869	7756.89
852.192	7781.52
852.515	7750.78
852.838	7637.12
853.161	7683.22
853.483	7612.71
853.806	7642.31
854.129	7534.07
854.451	7513.95
854.774	7539.27
855.096	7591.92
855.419	7514.18
855.741	7449.78
856.063	7440.28
856.385	7473.5
856.708	7392.15
857.03	7417.23
857.352	7383.56
857.674	7370.68
857.996	7433.73
858.318	7307.86
858.64	7269.44
858.961	7313.51
859.283	7203.91
859.605	7252.94
859.926	7271.02
860.248	7246.84
860.57	7200.74
860.891	7205.26
861.212	7147.18
861.534	7106.28
861.855	7170.24
862.176	7120.52
862.498	7130.69
862.819	7173.85
863.14	7107.19
863.461	7121.87
863.782	7120.74
864.103	7148.09
864.424	7040.97
864.745	7077.36
865.065	6949.45
865.386	6999.17
865.707	7034.65
866.027	6967.75
866.348	6955.1
866.668	6912.84
866.989	6978.15
867.309	6885.04
867.63	6928.21
867.95	6931.82
868.27	6872.16
868.59	6908.55
868.91	6881.66
869.23	6930.69
869.55	6879.62
869.87	6882.33
870.19	6887.08
870.51	6853.18
870.83	6826.97
871.15	6769.12
871.469	6904.93
871.789	6840.3
872.109	6790.36
872.428	6751.94
872.748	6830.13
873.067	6694.54
873.386	6848.66
873.706	6767.31
874.025	6738.16
874.344	6740.42
874.663	6750.36
874.982	6718.04
875.301	6749.68
875.62	6760.08
875.939	6738.16
876.258	6676.91
876.577	6660.87
876.896	6611.38
877.214	6676.46
877.533	6622.23
877.852	6629.01
878.17	6655.9
878.489	6603.7
878.807	6657.93
879.125	6618.84
879.444	6577.93
879.762	6591.95
880.08	6605.73
880.398	6507.65
880.716	6524.38
881.034	6545.39
881.352	6459.97
881.67	6539.52
881.988	6514.21
882.306	6509.69
882.624	6480.31
882.941	6420.2
883.259	6434.44
883.577	6408
883.894	6423.81
884.212	6382.46
884.529	6413.42
884.846	6410.48
885.164	6408
885.481	6319.18
885.798	6302.46
886.115	6342.69
886.432	6276.7
886.75	6303.82
887.067	6300.65
887.383	6223.59
887.7	6243.03
888.017	6217.72
888.334	6206.87
888.651	6191.05
888.967	6223.37
889.284	6175.91
889.6	6113.54
889.917	6121.68
890.233	6107.44
890.55	6139.75
890.866	6115.35
891.182	6073.77
891.498	6050.26
891.815	6004.84
892.131	6024.73
892.447	6008.91
892.763	6001.45
893.079	5942.47
893.395	5975.69
893.71	5990.15
894.026	5991.51
894.342	5983.6
894.657	5891.4
894.973	5885.07
895.289	5916.48
895.604	5865.41
895.92	5846.2
896.235	5799.2
896.55	5815.02
896.865	5786.77
897.181	5768.92
897.496	5751.97
897.811	5720.33
898.126	5660.9
898.441	5717.62
898.756	5707.45
899.071	5638.3
899.386	5650.95
899.7	5599.43
900.015	5544.97
900.33	5540.67
900.644	5512.43
900.959	5556.49
901.273	5492.77
901.588	5489.6
901.902	5469.26
902.216	5465.2
902.531	5390.62
902.845	5415.25
903.159	5404.63
903.473	5392.88
903.787	5293.9
904.101	5315.37
904.415	5330.96
904.729	5292.32
905.042	5206.45
905.356	5254.35
905.67	5213.9
905.984	5219.1
906.297	5183.62
906.611	5183.39
906.924	5191.3
907.237	5159.89
907.551	5139.33
907.864	5108.14
908.177	5078.09
908.491	5116.28
908.804	5043.74
909.117	5064.53
909.43	4994.47
909.743	4947.24
910.056	4968.26
910.368	4925.77
910.681	4916.96
910.994	4922.38
911.307	4874.25
911.619	4863.63
911.932	4855.27
912.244	4854.59
912.557	4836.96
912.869	4817.75
913.181	4803.97
913.494	4809.39
913.806	4786.8
914.118	4693.69
914.43	4733.46
914.742	4680.81
915.054	4680.81
915.366	4649.17
915.678	4648.04
915.99	4633.8
916.302	4565.78
916.613	4582.96
916.925	4589.96
917.236	4556.52
917.548	4519.01
917.859	4530.08
918.171	4447.14
918.482	4481.94
918.794	4444.66
919.105	4460.02
919.416	4438.56
919.727	4406.47
920.038	4385.68
920.349	4314.27
920.66	4344.32
920.971	4350.42
921.282	4401.49
921.593	4350.65
921.903	4314.94
922.214	4318.11
922.525	4208.28
922.835	4289.41
923.146	4180.71
923.456	4187.71
923.767	4170.54
924.077	4168.05
924.387	4203.76
924.697	4155.85
925.008	4134.38
925.318	4130.32
925.628	4128.06
925.938	4072.69
926.248	4028.62
926.558	4050.54
926.867	4022.07
927.177	3994.73
927.487	3978.23
927.796	3997.44
928.106	3995.18
928.416	3929.64
928.725	3948.85
929.034	3910.89
929.344	3906.14
929.653	3894.62
929.962	3830.66
930.271	3845.35
930.581	3825.24
930.89	3824.79
931.199	3785.69
931.508	3755.41
931.817	3766.71
932.125	3749.08
932.434	3782.98
932.743	3706.15
933.051	3682.87
933.36	3705.24
933.669	3617.79
933.977	3619.14
934.286	3667.05
934.594	3643.77
934.902	3615.53
935.21	3613.49
935.519	3575.53
935.827	3599.03
936.135	3567.17
936.443	3547.28
936.751	3535.75
937.059	3528.52
937.367	3467.96
937.674	3532.82
937.982	3492.14
938.29	3531.69
938.597	3453.95
938.905	3416.21
939.213	3404.91
939.52	3403.55
939.827	3363.56
940.135	3378.7
940.442	3318.36
940.749	3348.87
941.056	3382.09
941.363	3368.98
941.67	3310.9
941.977	3276.33
942.284	3276.1
942.591	3310.68
942.898	3251.92
943.205	3260.51
943.511	3223.22
943.818	3254.18
944.125	3179.61
944.431	3162.88
944.738	3169.66
945.044	3183
945.35	3167.4
945.657	3156.33
945.963	3146.16
946.269	3126.27
946.575	3148.87
946.881	3081.3
947.187	3077.91
947.493	3044.47
947.799	3042.66
948.105	3005.37
948.41	3003.57
948.716	2997.69
949.022	3008.31
949.327	3004.7
949.633	2963.79
949.938	2962.21
950.244	2942.32
950.549	2896.9
950.854	2909.56
951.16	2899.39
951.465	2893.29
951.77	2905.71
952.075	2870.24
952.38	2905.26
952.685	2842.44
952.99	2834.53
953.294	2821.2
953.599	2817.13
953.904	2818.26
954.209	2783.46
954.513	2784.59
954.818	2762.89
955.122	2761.09
955.426	2755.21
955.731	2724.02
956.035	2724.48
956.339	2738.26
956.643	2718.37
956.948	2676.34
957.252	2672.73
957.556	2687.87
957.86	2672.27
958.163	2651.48
958.467	2639.51
958.771	2623.24
959.075	2612.84
959.378	2636.57
959.682	2576.01
959.985	2594.54
960.289	2636.12
960.592	2567.42
960.896	2560.86
961.199	2555.67
961.502	2547.76
961.805	2525.61
962.108	2506.4
962.411	2522.22
962.714	2496.91
963.017	2482.67
963.32	2485.84
963.623	2488.1
963.926	2464.82
964.228	2406.29
964.531	2415.56
964.833	2397.03
965.136	2402.45
965.438	2380.98
965.741	2375.11
966.043	2358.84
966.345	2385.05
966.648	2367.88
966.95	2355.9
967.252	2350.93
967.554	2349.8
967.856	2322
968.158	2335.33
968.46	2259.63
968.761	2313.41
969.063	2285.17
969.365	2282
969.666	2267.99
969.968	2230.03
970.269	2272.06
970.571	2257.6
970.872	2240.65
971.174	2218.28
971.475	2200.87
971.776	2227.31
972.077	2186.19
972.378	2173.98
972.679	2129.24
972.98	2174.66
973.281	2162.46
973.582	2142.34
973.883	2133.31
974.183	2133.98
974.484	2128.56
974.785	2146.86
975.085	2141.89
975.386	2111.39
975.686	2116.81
975.986	2103.02
976.287	2104.83
976.587	2046.3
976.887	2069.8
977.187	2062.57
977.487	2032.52
977.787	2035.91
978.087	2029.35
978.387	2028.9
978.687	2023.25
978.987	2026.64
979.286	1988.45
979.586	2009.92
979.885	2017.15
980.185	1968.56
980.484	1934.44
980.784	1967.21
981.083	1948
981.382	1946.42
981.682	1944.38
981.981	1940.09
982.28	1948
982.579	1928.34
982.878	1910.49
983.177	1886.31
983.475	1902.8
983.774	1872.97
984.073	1848.12
984.372	1861.45
984.67	1863.03
984.969	1828.45
985.267	1849.7
985.566	1851.96
985.864	1794.33
986.162	1834.1
986.461	1790.94
986.759	1797.72
987.057	1792.75
987.355	1788.91
987.653	1795.24
987.951	1775.35
988.249	1769.93
988.547	1736.48
988.844	1725.18
989.142	1749.59
989.44	1762.69
989.737	1725.18
990.035	1737.84
990.332	1702.36
990.63	1705.29
990.927	1690.38
991.224	1697.84
991.521	1698.06
991.819	1685.63
992.116	1703.03
992.413	1652.41
992.71	1661.45
993.006	1680.21
993.303	1671.85
993.6	1623.94
993.897	1622.13
994.193	1618.97
994.49	1594.56
994.787	1580.78
995.083	1606.54
995.379	1579.42
995.676	1551.85
995.972	1581.23
996.268	1545.07
996.565	1563.6
996.861	1536.71
997.157	1541.46
997.453	1551.4
997.749	1515.69
998.044	1494.45
998.34	1499.2
998.636	1515.47
998.932	1491.74
999.227	1499.65
999.523	1472.08
999.818	1500.33
1000.114	1487.22
1000.409	1494.23
1000.704	1443.38
1001	1430.27
1001.295	1436.37
1001.59	1448.58
1001.885	1411.97
1002.18	1403.61
1002.475	1433.89
1002.77	1427.11
1003.065	1404.06
1003.359	1398.86
1003.654	1403.61
1003.949	1398.64
1004.243	1397.96
1004.538	1352.08
1004.832	1359.99
1005.127	1346.89
1005.421	1389.14
1005.715	1380.56
1006.009	1339.88
1006.304	1347.11
1006.598	1343.27
1006.892	1349.37
1007.186	1311.86
1007.48	1305.53
1007.773	1286.55
1008.067	1284.97
1008.361	1283.61
1008.655	1258.3
1008.948	1251.52
1009.242	1269.15
1009.535	1258.07
1009.829	1239.32
1010.122	1244.52
1010.415	1234.57
1010.708	1234.12
1011.001	1261.24
1011.295	1201.35
1011.588	1197.96
1011.881	1210.17
1012.173	1208.58
1012.466	1204.06
1012.759	1215.14
1013.052	1160.68
1013.344	1174.01
1013.637	1197.06
1013.93	1175.14
1014.222	1155.03
1014.514	1145.76
1014.807	1146.21
1015.099	1164.74
1015.391	1146.44
1015.683	1157.29
1015.976	1092.43
1016.268	1110.73
1016.56	1111.86
1016.851	1114.35
1017.143	1101.47
1017.435	1088.14
1017.727	1102.37
1018.018	1098.98
1018.31	1076.84
1018.602	1082.26
1018.893	1053.11
1019.185	1039.32
1019.476	1026.67
1019.767	1023.28
1020.058	1027.12
1020.35	1025.31
1020.641	995.93
1020.932	1015.59
1021.223	1007.69
1021.514	997.97
1021.804	993
1022.095	976.73
1022.386	969.72
1022.677	971.98
1022.967	974.01
1023.258	969.04
1023.548	965.88
1023.839	990.28
1024.129	973.56
1024.419	958.65
1024.709	948.03
1025	950.06
1025.29	905.77
1025.58	906.45
1025.87	915.03
1026.16	915.94
1026.449	929.95
1026.739	934.92
1027.029	890.85
1027.319	900.8
1027.608	902.38
1027.898	877.75
1028.187	882.49
1028.477	905.32
1028.766	881.36
1029.055	868.71
1029.344	880.23
1029.634	872.77
1029.923	833.9
1030.212	854.47
1030.501	856.73
1030.79	826.9
1031.078	824.41
1031.367	874.36
1031.656	822.38
1031.945	826.45
1032.233	816.28
1032.522	784.19
1032.81	793.91
1033.099	800.69
1033.387	804.07
1033.675	795.04
1033.963	802.49
1034.251	776.28
1034.54	784.19
1034.828	782.83
1035.116	772.21
1035.403	774.25
1035.691	775.15
1035.979	771.76
1036.267	734.25
1036.554	762.27
1036.842	757.07
1037.129	762.04
1037.417	750.74
1037.704	753.23
1037.992	743.74
1038.279	730.4
1038.566	721.82
1038.853	721.82
1039.14	721.82
