Data from blue_clamp_base_FLMS001491_00005.txt Node
Date: Wed Feb 08 15:15:28 GMT 2017
User: dcchb
Spectrometer: FLMS00149
Trigger mode: 0
Integration Time (sec): 2.000000E-2
Scans to average: 10
Electric dark correction enabled: true
Nonlinearity correction enabled: false
Boxcar width: 0
XAxis mode: Wavelengths
Number of Pixels in Spectrum: 2048
>>>>>Begin Spectral Data<<<<<
341.393	2.01
341.776	2.01
342.16	2.01
342.543	-53.81
342.927	-65.79
343.31	-68.73
343.693	-72.57
344.077	-61.5
344.46	-66.92
344.843	-55.85
345.226	-57.43
345.61	-31.67
345.993	6.07
346.376	-18.33
346.759	11.27
347.142	25.51
347.525	55.56
347.908	60.99
348.291	74.77
348.674	93.75
349.057	105.05
349.44	144.37
349.823	141.66
350.206	177.14
350.588	194.32
350.971	219.4
351.354	212.62
351.737	242.45
352.119	237.93
352.502	260.98
352.884	251.26
353.267	290.59
353.65	287.42
354.032	283.35
354.414	304.14
354.797	295.78
355.179	324.03
355.562	308.21
355.944	327.42
356.326	326.29
356.709	334.43
357.091	354.09
357.473	333.75
357.855	329.91
358.238	331.26
358.62	340.08
359.002	332.39
359.384	344.37
359.766	331.04
360.148	319.29
360.53	342.11
360.912	327.19
361.294	346.86
361.676	326.06
362.057	318.83
362.439	342.11
362.821	335.78
363.203	322.9
363.584	323.58
363.966	341.21
364.348	314.54
364.729	348.44
365.111	329
365.493	310.02
365.874	317.93
366.256	311.38
366.637	311.15
367.019	312.73
367.4	313.86
367.781	316.35
368.163	318.61
368.544	314.09
368.925	313.64
369.306	318.38
369.688	303.24
370.069	307.53
370.45	303.01
370.831	321.55
371.212	317.93
371.593	314.54
371.974	298.72
372.355	300.08
372.736	327.42
373.117	301.88
373.498	308.66
373.879	325.39
374.26	319.74
374.641	314.54
375.021	311.6
375.402	328.32
375.783	340.98
376.163	330.58
376.544	324.48
376.925	318.38
377.305	308.66
377.686	337.82
378.066	344.82
378.447	327.42
378.827	318.16
379.208	328.78
379.588	355.22
379.968	345.05
380.349	351.37
380.729	353.18
381.109	330.13
381.489	336.23
381.87	337.59
382.25	345.95
382.63	340.53
383.01	331.71
383.39	319.29
383.77	332.17
384.15	371.26
384.53	346.63
384.91	335.56
385.29	343.92
385.67	349.57
386.049	352.73
386.429	357.25
386.809	347.31
387.189	363.13
387.568	360.41
387.948	388.89
388.328	372.62
388.707	370.13
389.087	366.29
389.466	367.42
389.846	363.13
390.225	385.72
390.605	357.93
390.984	372.17
391.363	388.66
391.743	383.69
392.122	388.89
392.501	384.37
392.881	385.27
393.26	397.93
393.639	405.16
394.018	393.86
394.397	413.97
394.776	400.64
395.155	427.98
395.534	410.36
395.913	427.08
396.292	420.75
396.671	426.63
397.05	438.6
397.429	441.54
397.808	438.15
398.186	454.88
398.565	450.58
398.944	449.68
399.323	439.73
399.701	470.24
400.08	467.76
400.458	473.18
400.837	477.02
401.215	463.01
401.594	470.47
401.972	462.78
402.351	491.26
402.729	487.87
403.107	509.34
403.486	516.34
403.864	493.97
404.242	504.59
404.62	495.78
404.999	512.95
405.377	530.81
405.755	511.6
406.133	540.75
406.511	531.94
406.889	528.77
407.267	546.17
407.645	556.57
408.023	567.87
408.401	565.83
408.779	583.01
409.156	582.56
409.534	586.85
409.912	583.01
410.29	600.41
410.667	590.46
411.045	602.67
411.422	609.67
411.8	610.8
412.178	618.94
412.555	614.87
412.933	653.29
413.31	663.91
413.687	663.91
414.065	663.46
414.442	659.16
414.819	668.2
415.197	684.7
415.574	683.8
415.951	703.46
416.328	708.43
416.705	710.24
417.082	699.39
417.46	704.36
417.837	749.56
418.214	729.44
418.591	740.07
418.967	719.5
419.344	736
419.721	754.53
420.098	757.47
420.475	786.84
420.852	781.65
421.228	799.5
421.605	776.67
421.982	794.75
422.358	811.48
422.735	792.04
423.111	831.36
423.488	819.84
423.864	833.17
424.241	845.6
424.617	847.18
424.994	855.32
425.37	862.77
425.746	875.88
426.123	898.48
426.499	872.04
426.875	909.78
427.251	909.1
427.627	916.33
428.003	933.73
428.379	950
428.756	956.1
429.132	940.96
429.507	978.03
429.883	999.04
430.259	1012.83
430.635	1024.8
431.011	1035.42
431.387	1030.45
431.763	1050.57
432.138	1054.41
432.514	1094.41
432.89	1061.86
433.265	1123.11
433.641	1138.47
434.016	1139.6
434.392	1150.45
434.767	1150.45
435.143	1181.86
435.518	1188.42
435.894	1194.06
436.269	1231.58
436.644	1214.63
437.02	1238.36
437.395	1252.37
437.77	1262.76
438.145	1268.19
438.52	1276.32
438.895	1295.98
439.271	1334.85
439.646	1333.27
440.021	1371.24
440.395	1326.94
440.77	1351.57
441.145	1368.07
441.52	1418.24
441.895	1385.47
442.27	1407.84
442.645	1429.31
443.019	1433.83
443.394	1439.71
443.769	1461.63
444.143	1466.37
444.518	1481.51
444.892	1499.14
445.267	1491.91
445.641	1532.13
446.016	1499.37
446.39	1550.67
446.764	1562.87
447.139	1541.85
447.513	1561.74
447.887	1565.58
448.262	1576.2
448.636	1606.03
449.01	1622.75
449.384	1647.39
449.758	1640.15
450.132	1653.26
450.506	1671.34
450.88	1674.73
451.254	1637.44
451.628	1690.1
452.002	1736.65
452.376	1737.33
452.75	1739.81
453.123	1774.84
453.497	1771.9
453.871	1811
454.244	1828.4
454.618	1848.06
454.992	1873.82
455.365	1855.29
455.739	1936.42
456.112	1917.21
456.486	1954.72
456.859	1942.97
457.232	1969.86
457.606	1987.49
457.979	2021.39
458.352	2025
458.725	2070.43
459.099	2111.33
459.472	2130.54
459.845	2145.68
460.218	2158.11
460.591	2174.83
460.964	2196.07
461.337	2241.04
461.71	2263.64
462.083	2273.13
462.456	2263.19
462.829	2271.78
463.201	2316.3
463.574	2362.17
463.947	2389.29
464.32	2442.85
464.692	2417.99
465.065	2453.01
465.438	2462.96
465.81	2491.88
466.183	2536.18
466.555	2601.94
466.928	2592.22
467.3	2569.4
467.672	2618.89
468.045	2689.39
468.417	2656.4
468.789	2697.3
469.161	2723.29
469.534	2773.91
469.906	2819.11
470.278	2836.28
470.65	2852.78
471.022	2896.62
471.394	2948.82
471.766	2982.49
472.138	3027.69
472.51	3067.01
472.882	3087.57
473.253	3123.51
473.625	3166.22
473.997	3177.52
474.369	3232.88
474.74	3254.35
475.112	3302.94
475.484	3375.02
475.855	3383.16
476.227	3445.76
476.598	3497.05
476.97	3506.55
477.341	3585.87
477.713	3641.91
478.084	3662.47
478.455	3697.95
478.827	3754.22
479.198	3823.83
479.569	3818.18
479.94	3904.5
480.311	3918.96
480.682	4024.05
481.053	4085.51
481.424	4135.91
481.795	4180.88
482.166	4258.39
482.537	4238.96
482.908	4325.73
483.279	4335
483.65	4367.09
484.021	4475.33
484.391	4483.02
484.762	4533.64
485.133	4579.74
485.503	4661.09
485.874	4656.8
486.244	4713.52
486.615	4785.83
486.985	4790.13
487.356	4823.35
487.726	4881.65
488.097	4951.48
488.467	4990.35
488.837	5072.61
489.207	5096.11
489.578	5113.51
489.948	5191.7
490.318	5208.65
490.688	5222.43
491.058	5240.74
491.428	5313.96
491.798	5377.23
492.168	5415.42
492.538	5471.24
492.908	5462.65
493.278	5496.78
493.648	5565.93
494.017	5563.44
494.387	5597.56
494.757	5633.27
495.126	5603.89
495.496	5640.95
495.866	5645.02
496.235	5699.26
496.605	5764.11
496.974	5729.31
497.344	5801.85
497.713	5845.02
498.082	5780.38
498.452	5837.11
498.821	5855.19
499.19	5842.76
499.559	5913.49
499.928	5891.12
500.298	5944.9
500.667	5958.69
501.036	5916.2
501.405	5970.44
501.774	5996.42
502.143	6038.23
502.512	6028.29
502.88	5999.81
503.249	6057.89
503.618	6040.04
503.987	6103.31
504.356	6073.03
504.724	6174.05
505.093	6118
505.462	6176.98
505.83	6205.01
506.199	6199.13
506.567	6305.79
506.936	6259.47
507.304	6238
507.672	6340.14
508.041	6311.9
508.409	6312.57
508.777	6376.3
509.145	6415.85
509.514	6376.53
509.882	6399.13
510.25	6352.8
510.618	6465.34
510.986	6477.32
511.354	6486.81
511.722	6546.24
512.09	6563.87
512.458	6565.9
512.826	6560.03
513.193	6563.64
513.561	6566.58
513.929	6609.29
514.297	6612
514.664	6612.68
515.032	6651.32
515.4	6684.99
515.767	6699.46
516.135	6696.29
516.502	6682.28
516.869	6745.11
517.237	6752.79
517.604	6708.27
517.972	6854.71
518.339	6846.57
518.706	6889.06
519.073	6827.81
519.44	6825.33
519.808	6884.76
520.175	6878.66
520.542	6960.69
520.909	6935.16
521.276	7008.83
521.643	7023.29
522.009	7039.79
522.376	7036.17
522.743	7068.26
523.11	7084.08
523.477	7117.75
523.843	7149.16
524.21	7197.3
524.577	7268.93
524.943	7275.71
525.31	7301.02
525.676	7323.85
526.043	7321.14
526.409	7361.81
526.776	7454.69
527.142	7412.43
527.508	7468.7
527.874	7469.38
528.241	7517.29
528.607	7472.54
528.973	7576.5
529.339	7550.06
529.705	7609.49
530.071	7679.09
530.437	7651.07
530.803	7716.61
531.169	7746.66
531.535	7690.84
531.901	7834.79
532.267	7755.47
532.632	7806.55
532.998	7844.74
533.364	7841.8
533.73	7889.71
534.095	7910.05
534.461	7940.78
534.826	7973.77
535.192	8035.01
535.557	8022.59
535.923	8052.42
536.288	8081.57
536.653	8119.31
537.019	8035.47
537.384	8093.54
537.749	8112.3
538.114	8087.89
538.479	8088.57
538.845	8158.85
539.21	8103.94
539.575	8216.25
539.94	8164.5
540.305	8248.12
540.67	8256.48
541.034	8255.57
541.399	8332.41
541.764	8319.75
542.129	8303.71
542.494	8275.46
542.858	8405.17
543.223	8348
543.587	8471.61
543.952	8422.35
544.316	8402.46
544.681	8378.06
545.045	8442.46
545.41	8525.62
545.774	8481.33
546.138	8418.73
546.503	8482.01
546.867	8540.76
547.231	8589.8
547.595	8593.87
547.959	8550.03
548.324	8616.24
548.688	8626.64
549.052	8678.39
549.416	8592.97
549.779	8631.61
550.143	8676.58
550.507	8746.86
550.871	8764.49
551.235	8747.76
551.599	8755.45
551.962	8760.87
552.326	8743.92
552.689	8816.92
553.053	8748.89
553.417	8790.48
553.78	8878.16
554.143	8798.16
554.507	8866.86
554.87	8944.14
555.234	8917.03
555.597	8897.59
555.96	8905.27
556.323	8919.74
556.686	8950.47
557.05	9001.77
557.413	8964.93
557.776	8964.26
558.139	9017.14
558.502	9025.05
558.865	8986.4
559.228	9130.35
559.59	9094.87
559.953	9092.16
560.316	9143.01
560.679	9178.49
561.041	9213.97
561.404	9300.07
561.767	9315.66
562.129	9231.82
562.492	9347.52
562.854	9284.25
563.217	9282.44
563.579	9338.94
563.941	9361.99
564.304	9412.61
564.666	9482.21
565.028	9575.54
565.39	9476.78
565.753	9485.6
566.115	9534.64
566.477	9612.83
566.839	9584.35
567.201	9614.86
567.563	9593.62
567.925	9739.83
568.287	9730.79
568.648	9714.52
569.01	9790.67
569.372	9820.96
569.734	9744.12
570.095	9858.47
570.457	9925.13
570.819	9923.55
571.18	9915.64
571.542	9993.83
571.903	9966.72
572.265	10033.61
572.626	10012.36
572.987	10087.62
573.349	10117.67
573.71	10180.27
574.071	10113.83
574.432	10224.34
574.794	10265.69
575.155	10261.62
575.516	10222.75
575.877	10270.44
576.238	10239.93
576.599	10262.98
576.96	10286.93
577.32	10338.91
577.681	10298.68
578.042	10391.56
578.403	10311.34
578.763	10388.85
579.124	10403.99
579.485	10517.21
579.845	10526.93
580.206	10464.33
580.566	10457.55
580.927	10492.58
581.287	10538
581.648	10486.25
582.008	10590.88
582.368	10566.02
582.728	10609.86
583.089	10573.71
583.449	10578
583.809	10611.9
584.169	10598.56
584.529	10568.73
584.889	10655.28
585.249	10598.11
585.609	10664.1
585.969	10686.02
586.329	10622.97
586.688	10708.16
587.048	10648.96
587.408	10619.58
587.768	10695.96
588.127	10725.34
588.487	10650.99
588.846	10734.15
589.206	10650.54
589.565	10750.65
589.925	10756.98
590.284	10694.83
590.643	10752.46
591.003	10779.35
591.362	10797.65
591.721	10740.71
592.08	10753.59
592.44	10837.43
592.799	10793.36
593.158	10786.13
593.517	10806.92
593.876	10852.57
594.235	10792
594.593	10766.92
594.952	10805.11
595.311	10812.57
595.67	10843.08
596.029	10833.13
596.387	10861.83
596.746	10901.15
597.104	10842.85
597.463	10789.97
597.822	10939.12
598.18	10830.42
598.538	10863.87
598.897	10898.89
599.255	10753.36
599.613	10906.35
599.972	10959.68
600.33	10909.52
600.688	10972.56
601.046	11015.73
601.404	10972.56
601.762	10960.59
602.12	11043.3
602.478	11054.37
602.836	11013.47
603.194	10948.16
603.552	10989.74
603.91	10934.37
604.268	11041.94
604.625	11052.56
604.983	10989.29
605.341	10952.9
605.698	11034.71
606.056	11067.48
606.413	11054.37
606.771	11030.19
607.128	11024.54
607.485	10996.29
607.843	11041.26
608.2	11138.44
608.557	11114.93
608.914	11112.9
609.272	11145.67
609.629	11168.27
609.986	11146.35
610.343	11194.71
610.7	11187.02
611.057	11157.87
611.414	11180.24
611.771	11266.12
612.127	11246.91
612.484	11195.61
612.841	11246
613.198	11244.42
613.554	11250.98
613.911	11355.15
614.267	11302.5
614.624	11360.58
614.98	11358.32
615.337	11409.16
615.693	11356.28
616.05	11342.05
616.406	11428.15
616.762	11391.08
617.118	11364.19
617.475	11395.38
617.831	11328.49
618.187	11423.63
618.543	11474.7
618.899	11499.1
619.255	11434.7
619.611	11466.34
619.967	11437.86
620.323	11500.69
620.678	11487.35
621.034	11485.55
621.39	11583.17
621.746	11481.48
622.101	11644.64
622.457	11521.7
622.812	11533.68
623.168	11648.93
623.523	11528.48
623.879	11663.85
624.234	11485.32
624.589	11542.72
624.945	11553.11
625.3	11645.54
625.655	11627.46
626.01	11658.2
626.365	11660.46
626.72	11649.16
627.075	11680.34
627.43	11679.44
627.785	11583.62
628.14	11677.86
628.495	11689.83
628.85	11721.47
629.205	11588.59
629.559	11706.33
629.914	11785.88
630.269	11773.67
630.623	11788.81
630.978	11776.61
631.332	11892.99
631.687	11787.68
632.041	11783.16
632.396	11824.97
632.75	11800.34
633.104	11815.93
633.459	11833.56
633.813	11773.9
634.167	11779.1
634.521	11886.66
634.875	11846.89
635.229	11841.92
635.583	11845.99
635.937	11828.59
636.291	11838.76
636.645	11826.1
636.999	11843.05
637.352	11912.65
637.706	11899.09
638.06	11915.36
638.413	11852.99
638.767	11965.53
639.121	11855.03
639.474	11959.66
639.828	11984.97
640.181	11919.88
640.534	12023.61
640.888	11965.08
641.241	11881.69
641.594	11990.39
641.947	11975.02
642.301	11933.9
642.654	11940.67
643.007	12055.7
643.36	12019.99
643.713	11992.2
644.066	12043.95
644.419	12039.43
644.771	12024.06
645.124	11874.24
645.477	11925.76
645.83	11886.66
646.182	11889.83
646.535	11785.42
646.888	11769.38
647.24	11745.65
647.593	11890.73
647.945	11830.4
648.298	11720.12
648.65	11770.06
649.002	11769.83
649.355	11862.94
649.707	11881.24
650.059	11891.41
650.411	12143.38
650.763	12149.48
651.115	12300.44
651.467	12255.47
651.819	12237.84
652.171	12283.49
652.523	12241.23
652.875	12260.67
653.227	12205.07
653.578	12338.18
653.93	12354.22
654.282	12294.56
654.633	12302.25
654.985	12332.3
655.337	12320.1
655.688	12323.26
656.039	12415.24
656.391	12419.53
656.742	12471.06
657.094	12377.5
657.445	12390.15
657.796	12498.63
658.147	12354.22
658.498	12383.6
658.849	12490.04
659.2	12444.39
659.551	12436.03
659.902	12521
660.253	12467.21
660.604	12492.52
660.955	12436.93
661.306	12427.89
661.656	12359.87
662.007	12433.09
662.358	12539.53
662.708	12521.9
663.059	12529.13
663.409	12345.64
663.76	12470.83
664.11	12582.69
664.461	12565.52
664.811	12536.82
665.161	12542.01
665.511	12554.22
665.862	12540.43
666.212	12511.96
666.562	12547.44
666.912	12515.57
667.262	12589.02
667.612	12494.33
667.962	12525.52
668.312	12474.22
668.662	12532.07
669.011	12495.46
669.361	12504.28
669.711	12440.55
670.06	12484.62
670.41	12404.84
670.76	12384.05
671.109	12422.7
671.459	12418.18
671.808	12346.99
672.157	12397.16
672.507	12245.07
672.856	12296.6
673.205	12307.44
673.554	12390.15
673.904	12219.99
674.253	12283.49
674.602	12228.8
674.951	12052.31
675.3	12014.8
675.649	12215.7
675.998	12158.3
676.346	12148.58
676.695	12188.8
677.044	12021.58
677.393	12148.58
677.741	12085.08
678.09	12017.73
678.438	12018.19
678.787	11976.15
679.135	12013.89
679.484	11914.23
679.832	11934.8
680.181	11836.5
680.529	11887.79
680.877	11820
681.225	11777.29
681.573	11797.4
681.922	11775.48
682.27	11785.88
682.618	11776.84
682.966	11667.69
683.314	11676.95
683.661	11739.55
684.009	11522.83
684.357	11520.35
684.705	11587.69
685.053	11570.74
685.4	11550.18
685.748	11517.18
686.095	11500.91
686.443	11561.7
686.79	11454.36
687.138	11398.54
687.485	11448.48
687.832	11401.03
688.18	11444.42
688.527	11370.97
688.874	11368.26
689.221	11328.49
689.568	11326
689.915	11335.72
690.262	11286.68
690.609	11279.45
690.956	11269.73
691.303	11253.24
691.65	11217.98
691.997	11217.08
692.344	11183.86
692.69	11176.18
693.037	11115.16
693.383	10985.45
693.73	11141.6
694.077	11021.38
694.423	11125.55
694.769	11000.59
695.116	11062.96
695.462	11055.95
695.808	10921.49
696.155	10986.12
696.501	10958.1
696.847	10967.59
697.193	10779.58
697.539	10903.19
697.885	10794.94
698.231	10791.1
698.577	10837.65
698.923	10821.83
699.269	10796.52
699.614	10779.12
699.96	10785.45
700.306	10783.19
700.651	10696.41
700.997	10660.03
701.342	10745.68
701.688	10707.26
702.033	10656.41
702.379	10658.22
702.724	10614.83
703.069	10636.98
703.415	10541.16
703.76	10613.03
704.105	10677.88
704.45	10613.48
704.795	10555.17
705.14	10503.42
705.485	10570.54
705.83	10505.23
706.175	10461.17
706.52	10517.89
706.865	10516.31
707.209	10488.06
707.554	10417.1
707.899	10512.46
708.243	10473.37
708.588	10390.88
708.932	10402.86
709.277	10422.3
709.621	10436.76
709.966	10357.89
710.31	10391.34
710.654	10350.43
710.998	10321.51
711.342	10377.55
711.687	10320.83
712.031	10368.96
712.375	10369.42
712.719	10287.16
713.063	10301.62
713.407	10406.25
713.75	10303.2
714.094	10334.84
714.438	10258.01
714.782	10356.99
715.125	10286.25
715.469	10313.6
715.812	10295.07
716.156	10194.51
716.499	10262.98
716.843	10241.96
717.186	10234.96
717.53	10279.7
717.873	10326.71
718.216	10238.35
718.559	10272.47
718.902	10128.74
719.246	10199.7
719.589	10127.16
719.932	10124.9
720.275	10163.55
720.617	10136.2
720.96	10172.59
721.303	10164
721.646	10130.1
721.989	10135.3
722.331	10164.68
722.674	10194.73
723.016	10148.41
723.359	10205.81
723.701	10200.38
724.044	10176.43
724.386	10023.44
724.729	10141.85
725.071	10117.22
725.413	10077.22
725.755	10165.81
726.097	10156.54
726.439	10098.24
726.782	10085.81
727.124	10187.5
727.465	10056.43
727.807	10105.02
728.149	10042.19
728.491	10074.96
728.833	10095.98
729.175	10107.05
729.516	10060.95
729.858	10101.63
730.199	10125.81
730.541	10141.63
730.882	10118.58
731.224	10201.06
731.565	10126.26
731.906	10224.56
732.248	10161.29
732.589	10104.11
732.93	10122.19
733.271	10200.83
733.612	10189.99
733.953	10222.75
734.294	10137.56
734.635	10227.27
734.976	10215.52
735.317	10222.75
735.658	10267.05
735.999	10221.62
736.339	10232.47
736.68	10265.69
737.021	10258.69
737.361	10192.02
737.702	10326.25
738.042	10336.65
738.383	10320.83
738.723	10392.24
739.063	10253.26
739.404	10425.69
739.744	10385.24
740.084	10396.08
740.424	10388.63
740.764	10427.49
741.104	10413.71
741.444	10488.06
741.784	10479.24
742.124	10552.24
742.464	10558.34
742.804	10535.06
743.143	10573.25
743.483	10616.87
743.823	10632.69
744.162	10622.52
744.502	10708.84
744.841	10608.28
745.181	10666.36
745.52	10718.56
745.86	10722.85
746.199	10761.72
746.538	10768.73
746.877	10812.79
747.216	10896.18
747.556	10865.22
747.895	10906.35
748.234	10913.36
748.573	10914.04
748.911	10915.39
749.25	11026.35
749.589	10919.23
749.928	11010.53
750.267	11101.83
750.605	11153.35
750.944	11153.35
751.283	11149.06
751.621	11182.05
751.96	11057.99
752.298	11210.07
752.636	11213.24
752.975	11235.61
753.313	11258.66
753.651	11329.39
753.989	11288.26
754.327	11379.56
754.666	11347.24
755.004	11433.12
755.342	11488.48
755.679	11517.41
756.017	11475.38
756.355	11508.82
756.693	11517.86
757.031	11526.67
757.368	11437.64
757.706	11509.73
758.044	11571.19
758.381	11583.85
758.719	11577.75
759.056	11559.22
759.394	11649.38
759.731	11622.72
760.068	11652.55
760.405	11691.42
760.743	11683.96
761.08	11756.5
761.417	11708.82
761.754	11700.23
762.091	11815.93
762.428	11749.04
762.765	11676.5
763.102	11800.57
763.438	11709.27
763.775	11844.18
764.112	11856.38
764.449	11826.78
764.785	11850.73
765.122	11765.99
765.458	11816.38
765.795	11905.42
766.131	11821.36
766.467	11876.04
766.804	11783.16
767.14	11881.02
767.476	11857.06
767.812	11877.63
768.148	11937.96
768.485	11925.99
768.821	11948.36
769.157	11899.77
769.492	11885.08
769.828	11987.91
770.164	11893.22
770.5	11862.26
770.836	11899.77
771.171	11869.49
771.507	11960.56
771.842	11847.8
772.178	11847.57
772.513	11822.94
772.849	11854.12
773.184	11842.82
773.519	11909.04
773.855	11855.93
774.19	11829.49
774.525	11892.99
774.86	11838.76
775.195	11913.78
775.53	11848.25
775.865	11785.2
776.2	11840.34
776.535	11726.44
776.87	11746.78
777.205	11776.16
777.539	11805.09
777.874	11820
778.209	11732.54
778.543	11735.03
778.878	11751.3
779.212	11721.25
779.547	11733.22
779.881	11800.57
780.215	11764.18
780.55	11781.13
780.884	11827.68
781.218	11794.92
781.552	11760.34
781.886	11712.43
782.22	11760.11
782.554	11738.19
782.888	11585.66
783.222	11648.71
783.556	11708.82
783.889	11659.1
784.223	11561.7
784.557	11537.3
784.89	11709.49
785.224	11620.91
785.557	11557.41
785.891	11586.11
786.224	11573
786.558	11481.25
786.891	11559.44
787.224	11484.42
787.557	11556.28
787.891	11563.06
788.224	11469.05
788.557	11492.1
788.89	11443.29
789.223	11465.88
789.556	11369.62
789.888	11424.76
790.221	11462.5
790.554	11415.94
790.887	11400.8
791.219	11255.5
791.552	11416.39
791.884	11281.26
792.217	11363.51
792.549	11309.05
792.882	11233.8
793.214	11271.09
793.546	11210.52
793.879	11204.87
794.211	11165.78
794.543	11228.15
794.875	11189.28
795.207	11200.58
795.539	11210.98
795.871	11236.29
796.203	11122.84
796.535	11073.13
796.867	11083.52
797.198	11080.36
797.53	11195.84
797.862	11085.1
798.193	11121.04
798.525	11091.66
798.856	11078.1
799.188	10937.31
799.519	10979.57
799.85	10906.13
800.182	11047.82
800.513	10991.55
800.844	10855.73
801.175	10968.27
801.506	10967.37
801.837	10969.17
802.168	10892.57
802.499	10907.71
802.83	10801.95
803.161	10841.72
803.491	10799.69
803.822	10773.93
804.153	10805.56
804.483	10741.38
804.814	10730.31
805.145	10708.62
805.475	10699.35
805.805	10765.56
806.136	10710.88
806.466	10686.47
806.796	10791.1
807.126	10715.85
807.457	10634.04
807.787	10656.19
808.117	10618.22
808.447	10513.59
808.777	10676.53
809.107	10596.3
809.436	10534.61
809.766	10589.98
810.096	10576.87
810.426	10581.61
810.755	10508.62
811.085	10474.27
811.414	10514.05
811.744	10394.27
812.073	10454.61
812.403	10424.78
812.732	10402.86
813.061	10373.48
813.39	10373.48
813.719	10305.92
814.049	10379.59
814.378	10410.55
814.707	10295.75
815.036	10250.78
815.365	10234.73
815.693	10181.62
816.022	10270.89
816.351	10205.13
816.68	10220.95
817.008	10248.52
817.337	10111.8
817.665	10079.71
817.994	10151.12
818.322	10141.63
818.651	10131
818.979	10066.15
819.307	10147.28
819.636	10029.76
819.964	10019.14
820.292	10108.41
820.62	10078.58
820.948	9968.75
821.276	10090.33
821.604	10091.91
821.932	10093.04
822.259	10065.24
822.587	10062.53
822.915	10052.81
823.243	10085.36
823.57	10026.6
823.898	10087.39
824.225	10043.32
824.553	10032.93
824.88	10045.58
825.207	10109.31
825.535	10058.46
825.862	10155.86
826.189	10104.56
826.516	10166.26
826.843	10174.17
827.17	10145.24
827.497	10191.79
827.824	10114.51
828.151	10164.45
828.478	10098.69
828.805	10187.95
829.131	10161.96
829.458	10132.81
829.785	10082.42
830.111	10181.4
830.438	10211.45
830.764	10204.68
831.09	10224.56
831.417	10108.18
831.743	10186.82
832.069	10155.41
832.395	10149.31
832.722	10142.76
833.048	10145.24
833.374	10149.99
833.7	10082.19
834.026	10156.77
834.351	10123.1
834.677	10119.25
835.003	10114.06
835.329	10166.71
835.654	10134.39
835.98	10102.53
836.306	10091.68
836.631	10136.88
836.956	10141.85
837.282	10158.35
837.607	10114.96
837.932	10028.86
838.258	10138.24
838.583	10081.29
838.908	9946.6
839.233	10018.69
839.558	9947.73
839.883	10018.01
840.208	9909.09
840.533	9970.56
840.858	9977.56
841.182	9961.07
841.507	9931.24
841.832	9845.14
842.156	9914.06
842.481	9919.94
842.805	9857.57
843.13	9888.3
843.454	9794.97
843.778	9784.8
844.103	9733.95
844.427	9777.57
844.751	9709.77
845.075	9747.96
845.399	9710.68
845.723	9653.28
846.047	9732.15
846.371	9671.81
846.695	9660.51
847.019	9525.15
847.343	9514.07
847.666	9483.79
847.99	9457.58
848.313	9465.03
848.637	9408.54
848.96	9337.13
849.284	9360.63
849.607	9229.11
849.931	9234.76
850.254	9224.14
850.577	9088.32
850.9	9102.11
851.223	9093.74
851.546	9045.84
851.869	8963.35
852.192	8991.37
852.515	9030.24
852.838	8934.43
853.161	8981.43
853.483	8894.65
853.806	8852.62
854.129	8849.91
854.451	8831.83
854.774	8797.03
855.096	8741.66
855.419	8746.18
855.741	8755.67
856.063	8674.77
856.385	8656.02
856.708	8601.33
857.03	8601.1
857.352	8528.11
857.674	8578.5
857.996	8559.52
858.318	8520.2
858.64	8444.95
858.961	8476.13
859.283	8478.62
859.605	8503.48
859.926	8430.03
860.248	8453.53
860.57	8412.41
860.891	8405.63
861.212	8352.75
861.534	8337.38
861.855	8353.65
862.176	8322.69
862.498	8332.63
862.819	8314.1
863.14	8307.1
863.461	8225.97
863.782	8253.54
864.103	8233.43
864.424	8204.05
864.745	8227.33
865.065	8176.48
865.386	8141.9
865.707	8167.21
866.027	8158.18
866.348	8119.98
866.668	8096.26
866.989	8135.35
867.309	7998.63
867.63	8117.95
867.95	8081.12
868.27	7986.2
868.59	8007.9
868.91	8014.22
869.23	7991.4
869.55	8019.42
869.87	8031.17
870.19	8029.82
870.51	7925.64
870.83	8010.61
871.15	7948.69
871.469	7943.04
871.789	7934.23
872.109	7997.5
872.428	7862.59
872.748	7914.79
873.067	7855.36
873.386	7904.62
873.706	7930.61
874.025	7869.37
874.344	7843.16
874.663	7774.68
874.982	7822.59
875.301	7788.02
875.62	7739.2
875.939	7792.76
876.258	7782.14
876.577	7765.87
876.896	7811.52
877.214	7747.56
877.533	7750.95
877.852	7740.56
878.17	7658.3
878.489	7719.32
878.807	7719.54
879.125	7628.7
879.444	7704.18
879.762	7634.12
880.08	7650.62
880.398	7578.53
880.716	7661.24
881.034	7563.61
881.352	7594.8
881.67	7580.34
881.988	7579.66
882.306	7542.37
882.624	7503.28
882.941	7525.65
883.259	7425.31
883.577	7463.73
883.894	7491.98
884.212	7388.48
884.529	7423.05
884.846	7424.86
885.164	7378.99
885.481	7361.13
885.798	7414.24
886.115	7345.99
886.432	7335.15
886.75	7259.89
887.067	7378.08
887.383	7273.45
887.7	7288.82
888.017	7231.65
888.334	7234.13
888.651	7191.65
888.967	7135.83
889.284	7147.81
889.6	7175.15
889.917	7089.73
890.233	7139.67
890.55	7057.64
890.866	7104.64
891.182	7077.98
891.498	7021.26
891.815	7124.53
892.131	7060.13
892.447	7000.01
892.763	6914.37
893.079	6912.78
893.395	6889.06
893.71	6938.77
894.026	6918.66
894.342	6824.43
894.657	6832.33
894.973	6848.15
895.289	6744.2
895.604	6790.3
895.92	6732.45
896.235	6714.82
896.55	6751.66
896.865	6674.15
897.181	6678.21
897.496	6618.55
897.811	6641.61
898.126	6647.71
898.441	6617.42
898.756	6543.08
899.071	6575.84
899.386	6541.72
899.7	6433.7
900.015	6504.21
900.33	6443.42
900.644	6430.09
900.959	6441.38
901.273	6365.45
901.588	6389.18
901.902	6313.03
902.216	6303.76
902.531	6307.15
902.845	6224.89
903.159	6230.32
903.473	6210.66
903.787	6209.53
904.101	6195.06
904.415	6162.3
904.729	6163.88
905.042	6095.4
905.356	6071.9
905.67	6081.62
905.984	6111.9
906.297	6108.96
906.611	6018.34
906.924	6042.98
907.237	5951.68
907.551	5931.57
907.864	5936.99
908.177	5937.22
908.491	5917.78
908.804	5882.75
909.117	5837.78
909.43	5861.29
909.743	5746.26
910.056	5777.67
910.368	5803.89
910.681	5778.35
910.994	5704.68
911.307	5706.94
911.619	5676.21
911.932	5678.24
912.244	5648.64
912.557	5629.2
912.869	5549.88
913.181	5550.11
913.494	5604.8
913.806	5540.39
914.118	5526.15
914.43	5450.22
914.742	5476.66
915.054	5443.9
915.366	5438.25
915.678	5416.78
915.99	5353.96
916.302	5327.29
916.613	5336.33
916.925	5329.1
917.236	5300.17
917.548	5228.76
917.859	5254.3
918.171	5238.03
918.482	5213.39
918.794	5139.95
919.105	5185.37
919.416	5156.9
919.727	5132.04
920.038	5111.25
920.349	5112.15
920.66	5036.68
920.971	5065.6
921.282	5035.77
921.593	5033.06
921.903	4983.8
922.214	4981.31
922.525	4950.12
922.835	4946.28
923.146	4877.81
923.456	4842.78
923.767	4814.31
924.077	4871.71
924.387	4821.54
924.697	4792.39
925.008	4751.71
925.318	4711.26
925.628	4753.29
925.938	4706.97
926.248	4719.85
926.558	4692.05
926.867	4624.03
927.177	4641.21
927.487	4583.35
927.796	4567.08
928.106	4572.96
928.416	4519.63
928.725	4570.25
929.034	4547.87
929.344	4524.82
929.653	4513.75
929.962	4464.49
930.271	4461.1
930.581	4412.51
930.89	4427.2
931.199	4407.09
931.508	4377.94
931.817	4373.42
932.125	4355.56
932.434	4348.56
932.743	4318.05
933.051	4281.89
933.36	4272.18
933.669	4240.09
933.977	4278.28
934.286	4217.04
934.594	4244.38
934.902	4206.87
935.21	4161.67
935.519	4163.93
935.827	4160.54
936.135	4128.45
936.443	4095.23
936.751	4044.84
937.059	4107.89
937.367	4090.71
937.674	4036.25
937.982	4059.75
938.29	3982.92
938.597	4015.23
938.905	3962.81
939.213	3958.29
939.52	3928.68
939.827	3936.59
940.135	3891.85
940.442	3904.73
940.749	3879.19
941.056	3890.04
941.363	3836.48
941.67	3830.83
941.977	3817.5
942.284	3789.7
942.591	3804.39
942.898	3760.55
943.205	3790.15
943.511	3737.73
943.818	3749.25
944.125	3692.53
944.431	3706.09
944.738	3709.03
945.044	3652.08
945.35	3677.39
945.657	3648.01
945.963	3644.85
946.269	3587.9
946.575	3602.59
946.881	3561.91
947.187	3593.55
947.493	3575.92
947.799	3538.41
948.105	3547
948.41	3527.56
948.716	3488.02
949.022	3481.69
949.327	3470.39
949.633	3446.21
949.938	3413.22
950.244	3426.1
950.549	3398.75
950.854	3364.86
951.16	3391.97
951.465	3355.36
951.77	3331.18
952.075	3365.53
952.38	3321.47
952.685	3325.08
952.99	3320.56
953.294	3267
953.599	3287.34
953.904	3234.91
954.209	3226.55
954.513	3231.53
954.818	3226.1
955.122	3225.65
955.426	3185.65
955.731	3160.79
956.035	3130.96
956.339	3187.91
956.643	3158.53
956.948	3078.31
957.252	3087.8
957.556	3110.85
957.86	3075.37
958.163	3102.26
958.467	3060
958.771	3036.95
959.075	3014.58
959.378	3018.88
959.682	3012.55
959.985	2990.85
960.289	2950.63
960.592	2937.52
960.896	2954.7
961.199	2918.99
961.502	2966.45
961.805	2926.9
962.108	2900.01
962.411	2881.03
962.714	2871.53
963.017	2878.54
963.32	2891.65
963.623	2856.62
963.926	2825.89
964.228	2853.46
964.531	2818.65
964.833	2781.82
965.136	2788.82
965.438	2756.96
965.741	2761.48
966.043	2747.92
966.345	2715.38
966.648	2730.07
966.95	2713.12
967.252	2695.04
967.554	2705.44
967.856	2704.99
968.158	2654.82
968.46	2650.98
968.761	2610.07
969.063	2659.34
969.365	2665.44
969.666	2596.74
969.968	2588.15
970.269	2580.24
970.571	2561.03
970.872	2576.4
971.174	2528.72
971.475	2561.94
971.776	2558.1
972.077	2532.11
972.378	2515.16
972.679	2514.48
972.98	2472.22
973.281	2477.42
973.582	2490.75
973.883	2488.49
974.183	2469.29
974.484	2446.46
974.785	2441.49
975.085	2428.61
975.386	2458.66
975.686	2431.09
975.986	2406.69
976.287	2408.72
976.587	2368.05
976.887	2383.86
977.187	2371.43
977.487	2349.74
977.787	2348.38
978.087	2318.55
978.387	2312.91
978.687	2316.52
978.987	2307.48
979.286	2265.9
979.586	2276.75
979.885	2289.4
980.185	2256.86
980.484	2240.36
980.784	2241.27
981.083	2215.05
981.382	2231.33
981.682	2235.39
981.981	2240.82
982.28	2162.63
982.579	2199.01
982.878	2194.49
983.177	2180.03
983.475	2170.08
983.774	2149.29
984.073	2127.6
984.372	2139.35
984.67	2115.62
984.969	2128.96
985.267	2126.24
985.566	2111.78
985.864	2088.05
986.162	2107.49
986.461	2087.15
986.759	2053.7
987.057	2062.97
987.355	2089.18
987.653	2051.22
987.951	2020.26
988.249	2029.75
988.547	1976.87
988.844	2015.74
989.142	1994.72
989.44	1987.49
989.737	1976.19
990.035	1999.47
990.332	1982.74
990.63	1944.33
990.927	1928.06
991.224	1949.53
991.521	1922.63
991.819	1924.44
992.116	1927.38
992.413	1895.29
992.71	1907.94
993.006	1881.73
993.303	1882.41
993.6	1872.69
993.897	1890.32
994.193	1876.31
994.49	1827.04
994.787	1812.13
995.083	1798.57
995.379	1806.93
995.676	1789.98
995.972	1801.73
996.268	1765.58
996.565	1781.39
996.861	1773.71
997.157	1780.04
997.453	1758.12
997.749	1760.15
998.044	1736.42
998.34	1755.41
998.636	1730.1
998.932	1727.16
999.227	1714.05
999.523	1722.41
999.818	1721.73
1000.114	1721.96
1000.409	1643.77
1000.704	1636.31
1001	1642.87
1001.295	1650.1
1001.59	1637.89
1001.885	1644.9
1002.18	1634.73
1002.475	1608.97
1002.77	1622.75
1003.065	1610.78
1003.359	1584.56
1003.654	1610.32
1003.949	1562.64
1004.243	1593.15
1004.538	1589.76
1004.832	1559.25
1005.127	1541.85
1005.421	1551.8
1005.715	1545.92
1006.009	1521.29
1006.304	1519.93
1006.598	1503.44
1006.892	1515.86
1007.186	1489.65
1007.48	1485.58
1007.773	1453.94
1008.067	1467.28
1008.361	1464.11
1008.655	1442.65
1008.948	1466.15
1009.242	1438.13
1009.535	1429.99
1009.829	1428.63
1010.122	1419.82
1010.415	1384.57
1010.708	1407.39
1011.001	1380.5
1011.295	1342.99
1011.588	1361.52
1011.881	1358.13
1012.173	1361.52
1012.466	1337.11
1012.759	1360.61
1013.052	1364
1013.344	1335.53
1013.637	1338.24
1013.93	1323.55
1014.222	1284.01
1014.514	1326.72
1014.807	1296.43
1015.099	1280.84
1015.391	1301.41
1015.683	1292.37
1015.976	1268.19
1016.268	1267.74
1016.56	1281.52
1016.851	1215.53
1017.143	1258.7
1017.435	1191.35
1017.727	1251.46
1018.018	1213.27
1018.31	1226.83
1018.602	1231.13
1018.893	1210.79
1019.185	1203.78
1019.476	1161.75
1019.767	1183.44
1020.058	1172.6
1020.35	1164.01
1020.641	1159.72
1020.932	1135.08
1021.223	1103.22
1021.514	1122.65
1021.804	1138.92
1022.095	1121.75
1022.386	1114.97
1022.677	1119.72
1022.967	1119.94
1023.258	1086.27
1023.548	1105.48
1023.839	1075.42
1024.129	1080.85
1024.419	1046.95
1024.709	1073.62
1025	1035.42
1025.29	1048.76
1025.58	1060.28
1025.87	1028.87
1026.16	1021.19
1026.449	1011.47
1026.739	1022.32
1027.029	1013.5
1027.319	1021.41
1027.608	1007.63
1027.898	998.82
1028.187	968.76
1028.477	985.71
1028.766	974.86
1029.055	950.68
1029.344	979.83
1029.634	962.88
1029.923	948.42
1030.212	953.39
1030.501	935.54
1030.79	958.82
1031.078	943.68
1031.367	926.73
1031.656	910.68
1031.945	910.91
1032.233	929.44
1032.522	898.93
1032.81	928.31
1033.099	904.13
1033.387	897.58
1033.675	884.02
1033.963	874.75
1034.251	872.49
1034.54	874.75
1034.828	883.79
1035.116	863.23
1035.403	857.35
1035.691	850.12
1035.979	864.36
1036.267	835.2
1036.554	816.9
1036.842	842.21
1037.129	798.14
1037.417	816.45
1037.704	810.57
1037.992	811.02
1038.279	792.95
1038.566	814.87
1038.853	814.87
1039.14	814.87
