Data from blue_clamp_base_FLMS001491_00094.txt Node
Date: Wed Feb 08 15:16:48 GMT 2017
User: dcchb
Spectrometer: FLMS00149
Trigger mode: 0
Integration Time (sec): 2.000000E-2
Scans to average: 10
Electric dark correction enabled: true
Nonlinearity correction enabled: false
Boxcar width: 0
XAxis mode: Wavelengths
Number of Pixels in Spectrum: 2048
>>>>>Begin Spectral Data<<<<<
341.393	-16.16
341.776	-16.16
342.16	-16.16
342.543	-52.77
342.927	-73.11
343.31	-80.79
343.693	-70.39
344.077	-58.19
344.46	-66.78
344.843	-71.3
345.226	-50.96
345.61	-28.13
345.993	-18.19
346.376	-1.02
346.759	30.39
347.142	19.1
347.525	53.22
347.908	55.93
348.291	76.27
348.674	104.97
349.057	105.87
349.44	117.62
349.823	129.6
350.206	170.28
350.588	197.62
350.971	228.81
351.354	224.74
351.737	243.95
352.119	264.96
352.502	284.4
352.884	287.11
353.267	276.72
353.65	301.57
354.032	302.7
354.414	331.63
354.797	323.49
355.179	318.52
355.562	328.47
355.944	336.38
356.326	344.28
356.709	354.23
357.091	335.7
357.473	352.42
357.855	342.93
358.238	346.54
358.62	350.16
359.002	353.1
359.384	343.38
359.766	337.96
360.148	353.78
360.53	346.77
360.912	349.93
361.294	344.28
361.676	323.72
362.057	342.25
362.439	348.35
362.821	319.88
363.203	356.04
363.584	325.08
363.966	318.75
364.348	331.18
364.729	344.51
365.111	332.76
365.493	329.37
365.874	325.98
366.256	335.02
366.637	316.49
367.019	311.52
367.4	342.93
367.781	330.95
368.163	335.47
368.544	328.47
368.925	332.53
369.306	333.44
369.688	315.13
370.069	328.24
370.45	338.64
370.831	344.96
371.212	333.89
371.593	325.75
371.974	339.77
372.355	328.01
372.736	343.15
373.117	327.34
373.498	348.58
373.879	332.76
374.26	335.47
374.641	336.38
375.021	331.18
375.402	333.21
375.783	342.02
376.163	330.95
376.544	340.89
376.925	322.36
377.305	351.97
377.686	343.38
378.066	357.84
378.447	364.62
378.827	361.01
379.208	329.6
379.588	353.32
379.968	359.2
380.349	364.62
380.729	368.01
381.109	375.02
381.489	388.13
381.87	356.94
382.25	362.59
382.63	357.17
383.01	373.89
383.39	379.99
383.77	366.21
384.15	365.98
384.53	356.94
384.91	369.37
385.29	380.89
385.67	395.36
386.049	403.94
386.429	392.19
386.809	401.91
387.189	413.21
387.568	395.36
387.948	366.21
388.328	410.05
388.707	413.89
389.087	389.93
389.466	406.88
389.846	420.89
390.225	434.23
390.605	417.96
390.984	441.91
391.363	430.16
391.743	442.36
392.122	415.02
392.501	441.01
392.881	433.1
393.26	436.71
393.639	470.61
394.018	451.63
394.397	447.33
394.776	463.83
395.155	444.17
395.534	483.49
395.913	458.41
396.292	508.57
396.671	476.94
397.05	488.69
397.429	507.9
397.808	508.57
398.186	497.95
398.565	483.72
398.944	492.08
399.323	525.52
399.701	504.51
400.08	528.91
400.458	526.43
400.837	522.59
401.215	562.13
401.594	534.34
401.972	573.43
402.351	561.45
402.729	547.22
403.107	547.9
403.486	564.84
403.864	589.48
404.242	568.23
404.62	589.25
404.999	616.37
405.377	593.09
405.755	596.03
406.133	640.55
406.511	609.59
406.889	626.31
407.267	645.29
407.645	659.53
408.023	657.72
408.401	659.76
408.779	659.98
409.156	659.53
409.534	660.21
409.912	669.25
410.29	697.27
410.667	718.06
411.045	705.86
411.422	744.27
411.8	737.04
412.178	759.19
412.555	743.6
412.933	750.83
413.31	795.35
413.687	768.91
414.065	777.04
414.442	798.51
414.819	792.18
415.197	818.62
415.574	823.82
415.951	836.93
416.328	828.34
416.705	821.79
417.082	838.06
417.46	849.81
417.837	865.63
418.214	885.29
418.591	902.46
418.967	878.28
419.344	877.83
419.721	875.12
420.098	912.18
420.475	911.28
420.852	919.64
421.228	933.65
421.605	946.08
421.982	953.76
422.358	959.64
422.735	979.52
423.111	950.82
423.488	1003.48
423.864	994.44
424.241	1011.61
424.617	1025.4
424.994	1012.74
425.37	1003.25
425.746	1049.35
426.123	1050.48
426.499	1035.79
426.875	1079.63
427.251	1073.98
427.627	1112.17
428.003	1117.6
428.379	1154.43
428.756	1180.65
429.132	1179.97
429.507	1173.64
429.883	1184.71
430.259	1213.41
430.635	1215.22
431.011	1236.69
431.387	1272.62
431.763	1276.01
432.138	1273.75
432.514	1289.34
432.89	1297.03
433.265	1352.17
433.641	1361.66
434.016	1366.4
434.392	1386.97
434.767	1408.44
435.143	1426.06
435.518	1435.56
435.894	1435.56
436.269	1476.23
436.644	1498.83
437.02	1505.38
437.395	1515.1
437.77	1546.51
438.145	1564.82
438.52	1564.37
438.895	1590.58
439.271	1575.21
439.646	1616.79
440.021	1644.14
440.395	1640.75
440.77	1616.79
441.145	1673.06
441.52	1664.02
441.895	1671.03
442.27	1703.8
442.645	1718.03
443.019	1722.33
443.394	1709.45
443.769	1744.47
444.143	1752.84
444.518	1778.6
444.892	1808.88
445.267	1806.85
445.641	1821.53
446.016	1799.61
446.39	1835.77
446.764	1854.98
447.139	1872.38
447.513	1871.25
447.887	1879.84
448.262	1908.54
448.636	1898.37
449.01	1928.65
449.384	1952.6
449.758	1984.92
450.132	2005.03
450.506	2034.86
450.88	2026.5
451.254	2022.43
451.628	2058.14
452.002	2078.02
452.376	2094.75
452.75	2147.4
453.123	2086.61
453.497	2163.45
453.871	2178.13
454.244	2200.06
454.618	2235.53
454.992	2261.75
455.365	2263.56
455.739	2289.09
456.112	2325.48
456.486	2352.14
456.859	2394.17
457.232	2432.14
457.606	2379.94
457.979	2460.84
458.352	2489.99
458.725	2513.95
459.099	2551.46
459.472	2557.56
459.845	2593.27
460.218	2618.8
460.591	2667.16
460.964	2633.04
461.337	2734.5
461.71	2734.05
462.083	2786.03
462.456	2767.95
462.829	2776.31
463.201	2813.6
463.574	2883.43
463.947	2893.37
464.32	2940.6
464.692	2959.13
465.065	2975.63
465.438	2962.75
465.81	3067.38
466.183	3033.03
466.555	3134.04
466.928	3173.59
467.3	3132.91
467.672	3197.54
468.045	3286.13
468.417	3221.27
468.789	3293.36
469.161	3339.23
469.534	3377.2
469.906	3405.22
470.278	3475.5
470.65	3472.11
471.022	3558.66
471.394	3604.54
471.766	3645.89
472.138	3670.07
472.51	3728.83
472.882	3767.92
473.253	3811.09
473.625	3843.18
473.997	3920.24
474.369	3946.22
474.74	4011.31
475.112	4016.28
475.484	4083.62
475.855	4157.97
476.227	4168.59
476.598	4307.57
476.97	4276.16
477.341	4402.94
477.713	4444.29
478.084	4353.22
478.455	4536.26
478.827	4594.79
479.198	4638.41
479.569	4685.41
479.94	4783.94
480.311	4796.6
480.682	4902.13
481.053	4973.54
481.424	5068.91
481.795	5065.29
482.166	5162.01
482.537	5209.02
482.908	5278.62
483.279	5351.16
483.65	5390.71
484.021	5489.46
484.391	5546.63
484.762	5540.08
485.133	5544.15
485.503	5642.68
485.874	5757.93
486.244	5779.17
486.615	5838.6
486.985	5935.78
487.356	5982.78
487.726	6028.43
488.097	6045.83
488.467	6101.2
488.837	6228.42
489.207	6205.83
489.578	6303
489.948	6374.63
490.318	6395.43
490.688	6380.96
491.058	6478.13
491.428	6531.24
491.798	6540.05
492.168	6694.4
492.538	6712.93
492.908	6745.47
493.278	6798.58
493.648	6799.26
494.017	6881.29
494.387	6915.64
494.757	6911.8
495.126	6987.73
495.496	6976.43
495.866	7008.29
496.235	7051.9
496.605	7118.12
496.974	7107.5
497.344	7172.35
497.713	7157.21
498.082	7175.74
498.452	7229.08
498.821	7279.24
499.19	7255.97
499.559	7308.17
499.928	7287.6
500.298	7337.55
500.667	7368.05
501.036	7368.28
501.405	7460.03
501.774	7415.06
502.143	7437.43
502.512	7468.84
502.88	7570.54
503.249	7435.17
503.618	7565.34
503.987	7579.8
504.356	7606.24
504.724	7599.24
505.093	7638.56
505.462	7679.23
505.83	7662.51
506.199	7697.99
506.567	7737.54
506.936	7781.15
507.304	7815.27
507.672	7820.02
508.041	7879.45
508.409	7911.54
508.777	7902.96
509.145	7919.68
509.514	7977.3
509.882	7991.32
510.25	7963.29
510.618	8029.51
510.986	8046.91
511.354	8088.49
511.722	8134.81
512.09	8161.48
512.458	8166.45
512.826	8240.35
513.193	8192.89
513.561	8228.37
513.929	8270.18
514.297	8389.27
514.664	8355.15
515.032	8360.8
515.4	8457.97
515.767	8413.23
516.135	8421.36
516.502	8406.22
516.869	8495.93
517.237	8594.69
517.604	8526.67
517.972	8602.15
518.339	8578.64
518.706	8616.61
519.073	8652.54
519.44	8714.01
519.808	8755.59
520.175	8706.1
520.542	8815.93
520.909	8833.55
521.276	8794.23
521.643	8865.87
522.009	8902.48
522.376	8919.43
522.743	9000.33
523.11	8985.87
523.477	9098.18
523.843	9134.11
524.21	9153.32
524.577	9205.52
524.943	9252.75
525.31	9321.68
525.676	9295.01
526.043	9337.27
526.409	9496.59
526.776	9402.8
527.142	9486.19
527.508	9532.29
527.874	9560.31
528.241	9596.02
528.607	9655.23
528.973	9680.54
529.339	9724.15
529.705	9764.15
530.071	9883.47
530.437	9901.77
530.803	9892.06
531.169	9894.32
531.535	9941.77
531.901	9890.02
532.267	10017.25
532.632	10101.32
532.998	10108.1
533.364	10105.84
533.73	10129.11
534.095	10256.11
534.461	10261.99
534.826	10297.92
535.192	10207.98
535.557	10388.54
535.923	10315.55
536.288	10355.55
536.653	10379.95
537.019	10357.81
537.384	10382.89
537.749	10448.65
538.114	10514.64
538.479	10509.22
538.845	10566.61
539.21	10572.49
539.575	10601.64
539.94	10693.39
540.305	10670.57
540.67	10625.37
541.034	10593.96
541.399	10739.27
541.764	10777.46
542.129	10739.04
542.494	10818.13
542.858	10840.28
543.223	10920.28
543.587	10958.02
543.952	10902.88
544.316	10924.35
544.681	10981.07
545.045	11022.87
545.41	11057.68
545.774	11037.11
546.138	11113.04
546.503	11163.89
546.867	11206.15
547.231	11160.5
547.595	11268.29
547.959	11280.04
548.324	11245.02
548.688	11308.97
549.052	11272.13
549.416	11269.42
549.779	11336.09
550.143	11358.91
550.507	11398.91
550.871	11445.69
551.235	11515.74
551.599	11411.11
551.962	11521.84
552.326	11532.47
552.689	11541.5
553.053	11506.93
553.417	11542.86
553.78	11619.24
554.143	11601.39
554.507	11757.09
554.87	11719.58
555.234	11898.11
555.597	11765.23
555.96	11827.82
556.323	11806.36
556.686	11830.76
557.05	11908.27
557.413	11991.21
557.776	11906.24
558.139	12073.47
558.502	12027.59
558.865	12068.72
559.228	12160.25
559.59	12123.18
559.953	12113.92
560.316	12285.89
560.679	12252.22
561.041	12331.99
561.404	12353.23
561.767	12420.13
562.129	12409.28
562.492	12457.64
562.854	12445.44
563.217	12443.85
563.579	12506
563.941	12578.54
564.304	12639.78
564.666	12720.68
565.028	12737.86
565.39	12780.79
565.753	12886.55
566.115	12875.03
566.477	12987.57
566.839	12930.62
567.201	13037.96
567.563	13009.26
567.925	13113.89
568.287	13117.06
568.648	13182.37
569.01	13255.13
569.372	13298.29
569.734	13327.9
570.095	13378.74
570.457	13438.86
570.819	13437.5
571.18	13474.33
571.542	13592.52
571.903	13595.91
572.265	13701.67
572.626	13598.4
572.987	13657.83
573.349	13748
573.71	13839.3
574.071	13788.9
574.432	13839.52
574.794	13966.07
575.155	14010.82
575.516	13954.55
575.877	13956.58
576.238	13922.46
576.599	14079.29
576.96	14061.44
577.32	14164.71
577.681	14130.36
578.042	14203.36
578.403	14158.84
578.763	14225.5
579.124	14220.08
579.485	14311.15
579.845	14394.54
580.206	14331.04
580.566	14278.61
580.927	14493.74
581.287	14465.04
581.648	14321.54
582.008	14422.78
582.368	14378.27
582.728	14539.17
583.089	14513.63
583.449	14563.12
583.809	14480.18
584.169	14507.98
584.529	14550.24
584.889	14597.24
585.249	14590.92
585.609	14528.09
585.969	14667.75
586.329	14611.25
586.688	14681.53
587.048	14598.6
587.408	14602.21
587.768	14671.82
588.127	14585.27
588.487	14651.48
588.846	14735.32
589.206	14627.75
589.565	14649.22
589.925	14755.43
590.284	14690.8
590.643	14725.38
591.003	14716.11
591.362	14872.49
591.721	14733.06
592.08	14757.01
592.44	14838.82
592.799	14827.75
593.158	14770.57
593.517	14870.23
593.876	14909.1
594.235	14830.46
594.593	14827.52
594.952	14790.68
595.311	14829.1
595.67	14880.4
596.029	14938.25
596.387	14948.42
596.746	14987.52
597.104	14910.91
597.463	14891.47
597.822	15006.05
598.18	14954.07
598.538	14944.13
598.897	15038.36
599.255	15018.48
599.613	15168.53
599.972	14982.54
600.33	15001.07
600.688	14964.47
601.046	15088.53
601.404	15121.75
601.762	15051.47
602.12	15148.87
602.478	15129.88
602.836	15147.74
603.194	15028.87
603.552	15155.87
603.91	15073.39
604.268	15151.35
604.625	15180.28
604.983	15138.02
605.341	15030.68
605.698	15156.78
606.056	15236.55
606.413	15220.73
606.771	15292.14
607.128	15230.22
607.485	15236.55
607.843	15161.07
608.2	15221.63
608.557	15306.6
608.914	15269.09
609.272	15355.64
609.629	15435.41
609.986	15472.93
610.343	15346.15
610.7	15427.96
611.057	15406.94
611.414	15470.67
611.771	15483.32
612.127	15491.68
612.484	15521.51
612.841	15531.91
613.198	15474.96
613.554	15499.37
613.911	15599.7
614.267	15637.89
614.624	15601.74
614.98	15617.78
615.337	15709.53
615.693	15628.63
616.05	15559.03
616.406	15696.42
616.762	15714.05
617.118	15741.39
617.475	15626.37
617.831	15747.95
618.187	15803.99
618.543	15758.12
618.899	15884.89
619.255	15776.65
619.611	15829.08
619.967	15937.1
620.323	15849.41
620.678	15915.85
621.034	15792.69
621.39	15803.09
621.746	15891.67
622.101	16077.66
622.457	15915.85
622.812	16072.01
623.168	16014.38
623.523	16046.92
623.879	16053.93
624.234	16008.28
624.589	16058.9
624.945	16030.65
625.3	16163.76
625.655	16089.18
626.01	16020.26
626.365	16108.39
626.72	16134.38
627.075	16091.22
627.43	16127.6
627.785	16074.49
628.14	16198.11
628.495	16062.97
628.85	16114.27
629.205	16166.69
629.559	16246.69
629.914	16145.9
630.269	16236.3
630.623	16165.56
630.978	16223.87
631.332	16182.29
631.687	16215.73
632.041	16230.42
632.396	16308.61
632.75	16241.27
633.104	16230.19
633.459	16244.66
633.813	16298.89
634.167	16267.93
634.521	16231.1
634.875	16249.63
635.229	16234.94
635.583	16172.12
635.937	16289.63
636.291	16323.3
636.645	16254.6
636.999	16280.14
637.352	16327.59
637.706	16294.83
638.06	16356.29
638.413	16356.97
638.767	16325.79
639.121	16352.45
639.474	16283.53
639.828	16331.21
640.181	16331.66
640.534	16344.77
640.888	16326.24
641.241	16279.68
641.594	16282.85
641.947	16412.11
642.301	16281.27
642.654	16303.87
643.007	16321.94
643.36	16351.55
643.713	16331.21
644.066	16460.47
644.419	16407.59
644.771	16404.2
645.124	16182.51
645.477	16158.33
645.83	16058.22
646.182	15964.44
646.535	16033.82
646.888	16144.1
647.24	16082.18
647.593	16237.88
647.945	16199.01
648.298	16064.1
648.65	16084.66
649.002	15994.72
649.355	16079.24
649.707	16143.87
650.059	16202.4
650.411	16390.87
650.763	16374.15
651.115	16541.82
651.467	16561.26
651.819	16645.33
652.171	16617.53
652.523	16584.31
652.875	16554.25
653.227	16575.72
653.578	16713.57
653.93	16611.88
654.282	16670.18
654.633	16613.91
654.985	16667.47
655.337	16767.36
655.688	16761.03
656.039	16823.17
656.391	16615.27
656.742	16707.47
657.094	16673.8
657.445	16829.5
657.796	16700.46
658.147	16745.21
658.498	16725.77
658.849	16746.79
659.2	16733.68
659.551	16750.41
659.902	16741.59
660.253	16780.69
660.604	16794.93
660.955	16787.69
661.306	16846.22
661.656	16769.62
662.007	16903.17
662.358	16907.01
662.708	16851.65
663.059	16777.52
663.409	16678.77
663.76	16836.05
664.11	16954.47
664.461	16951.76
664.811	16892.55
665.161	16882.83
665.511	16811.2
665.862	16935.26
666.212	16867.24
666.562	16883.06
666.912	16861.82
667.262	16839.67
667.612	16827.02
667.962	16833.12
668.312	16839.22
668.662	16771.2
669.011	16899.1
669.361	16810.07
669.711	16774.59
670.06	16717.64
670.41	16738.43
670.76	16646
671.109	16740.46
671.459	16535.5
671.808	16616.4
672.157	16663.63
672.507	16529.85
672.856	16480.36
673.205	16549.73
673.554	16487.14
673.904	16492.11
674.253	16556.06
674.602	16388.61
674.951	16231.55
675.3	16108.16
675.649	16367.37
675.998	16297.09
676.346	16255.28
676.695	16482.39
677.044	16269.74
677.393	16272.91
677.741	16257.54
678.09	16287.82
678.438	16145
678.787	16192.46
679.135	16112.68
679.484	15983.65
679.832	16068.84
680.181	15960.15
680.529	16071.1
680.877	15969.86
681.225	16006.7
681.573	15940.94
681.922	15945
682.27	15808.96
682.618	15908.17
682.966	15795.86
683.314	15887.6
683.661	15865.46
684.009	15707.5
684.357	15673.15
684.705	15655.07
685.053	15695.07
685.4	15642.87
685.748	15502.98
686.095	15602.87
686.443	15408.97
686.79	15507.73
687.138	15457.33
687.485	15466.15
687.832	15429.09
688.18	15420.5
688.527	15291.91
688.874	15346.6
689.221	15339.82
689.568	15362.87
689.915	15331.91
690.262	15261.86
690.609	15238.13
690.956	15173.5
691.303	15199.04
691.65	15118.59
691.997	15190.9
692.344	15150.22
692.69	15086.5
693.037	15082.2
693.383	14874.52
693.73	15028.42
694.077	14940.51
694.423	14978.93
694.769	14896.9
695.116	14871.81
695.462	14881.08
695.808	14773.74
696.155	14872.72
696.501	14792.27
696.847	14783.68
697.193	14640.18
697.539	14753.85
697.885	14685.6
698.231	14622.55
698.577	14625.94
698.923	14677.24
699.269	14611.03
699.614	14598.83
699.96	14450.35
700.306	14500.97
700.651	14465.04
700.997	14481.54
701.342	14446.06
701.688	14491.71
702.033	14415.55
702.379	14415.1
702.724	14388.44
703.069	14481.31
703.415	14241.77
703.76	14308.44
704.105	14309.57
704.45	14336.91
704.795	14194.32
705.14	14254.65
705.485	14224.82
705.83	14162.9
706.175	14239.74
706.52	14242.22
706.865	14093.98
707.209	14118.16
707.554	14020.99
707.899	14150.02
708.243	14070.25
708.588	14064.38
708.932	13992.29
709.277	13963.14
709.621	14041.78
709.966	13924.49
710.31	13966.53
710.654	13803.37
710.998	13896.92
711.342	13958.62
711.687	13977.6
712.031	13980.99
712.375	13830.94
712.719	13927.66
713.063	13893.08
713.407	13914.1
713.75	13850.14
714.094	13786.19
714.438	13770.82
714.782	13936.92
715.125	13823.7
715.469	13851.5
715.812	13737.15
716.156	13776.47
716.499	13785.51
716.843	13747.55
717.186	13651.28
717.53	13745.74
717.873	13764.5
718.216	13773.99
718.559	13724.05
718.902	13623.94
719.246	13690.37
719.589	13569.93
719.932	13638.4
720.275	13537.16
720.617	13547.1
720.96	13586.65
721.303	13567.44
721.646	13616.7
721.989	13550.49
722.331	13602.92
722.674	13570.83
723.016	13619.87
723.359	13486.31
723.701	13593.2
724.044	13484.5
724.386	13518.4
724.729	13603.82
725.071	13447.44
725.413	13525.86
725.755	13446.77
726.097	13422.58
726.439	13411.29
726.782	13421.68
727.124	13508.46
727.465	13429.82
727.807	13434.34
728.149	13373.55
728.491	13423.71
728.833	13462.36
729.175	13409.48
729.516	13383.72
729.858	13437.27
730.199	13476.59
730.541	13451.28
730.882	13451.51
731.224	13435.47
731.565	13391.17
731.906	13439.31
732.248	13425.97
732.589	13356.15
732.93	13409.25
733.271	13477.05
733.612	13424.39
733.953	13483.37
734.294	13390.72
734.635	13476.37
734.976	13489.93
735.317	13422.13
735.658	13430.95
735.999	13529.93
736.339	13540.55
736.68	13535.8
737.021	13465.75
737.361	13529.93
737.702	13583.26
738.042	13512.75
738.383	13623.03
738.723	13668.45
739.063	13679.3
739.404	13677.95
739.744	13742.58
740.084	13623.94
740.424	13610.38
740.764	13706.87
741.104	13747.1
741.444	13905.28
741.784	13663.48
742.124	13790.48
742.464	13866.19
742.804	13811.95
743.143	13864.83
743.483	13907.32
743.823	13906.64
744.162	13874.55
744.502	13904.83
744.841	13955.23
745.181	14030.48
745.52	14056.69
745.86	14030.48
746.199	14054.21
746.538	14141.89
746.877	14152.74
747.216	14173.3
747.556	14218.72
747.895	14300.98
748.234	14196.8
748.573	14165.39
748.911	14293.3
749.25	14197.71
749.589	14265.95
749.928	14429.34
750.267	14404.48
750.605	14428.89
750.944	14430.02
751.283	14370.13
751.621	14500.75
751.96	14478.15
752.298	14488.55
752.636	14531.71
752.975	14482.44
753.313	14446.96
753.651	14605.15
753.989	14583.46
754.327	14594.76
754.666	14652.61
755.004	14744.58
755.342	14730.57
755.679	14796.56
756.017	14659.16
756.355	14702.1
756.693	14769.44
757.031	14747.52
757.368	14800.18
757.706	14756.11
758.044	14808.09
758.381	14790.91
758.719	14801.98
759.056	14945.26
759.394	14884.02
759.731	14858.48
760.068	14888.54
760.405	14916.56
760.743	14808.31
761.08	14982.09
761.417	14937.35
761.754	15025.71
762.091	14942.09
762.428	14958.14
762.765	15016.89
763.102	15028.64
763.438	14988.19
763.775	15002.66
764.112	15035.65
764.449	15014.63
764.785	15016.22
765.122	14956.33
765.458	15084.91
765.795	15025.03
766.131	14961.3
766.467	15008.31
766.804	14935.31
767.14	14989.55
767.476	15083.33
767.812	15077.23
768.148	15113.84
768.485	15009.89
768.821	15005.37
769.157	14959.27
769.492	15018.7
769.828	15081.3
770.164	14882.66
770.5	14997.01
770.836	14959.49
771.171	15013.28
771.507	14981.19
771.842	14905.26
772.178	14914.07
772.513	14854.64
772.849	14983
773.184	14902.55
773.519	14952.04
773.855	14911.59
774.19	14810.8
774.525	14881.3
774.86	14970.11
775.195	14938.03
775.53	14969.21
775.865	14809.89
776.2	14772.15
776.535	14798.82
776.87	14799.95
777.205	14793.4
777.539	14851.93
777.874	14820.06
778.209	14731.25
778.543	14809.22
778.878	14729.22
779.212	14779.39
779.547	14695.09
779.881	14817.35
780.215	14654.64
780.55	14700.52
780.884	14713.62
781.218	14622.55
781.552	14606.28
781.886	14589.33
782.22	14602.89
782.554	14541.43
782.888	14499.84
783.222	14551.37
783.556	14501.43
783.889	14425.04
784.223	14364.48
784.557	14389.79
784.89	14541.43
785.224	14431.15
785.557	14404.48
785.891	14406.29
786.224	14386.18
786.558	14272.05
786.891	14291.94
787.224	14253.75
787.557	14248.33
787.891	14249.68
788.224	14299.62
788.557	14349.57
788.89	14218.72
789.223	14307.53
789.556	14202.9
789.888	14174.88
790.221	14153.87
790.554	14030.03
790.887	14152.28
791.219	14024.38
791.552	14040.65
791.884	14044.04
792.217	13995.9
792.549	14027.09
792.882	13962.46
793.214	13933.76
793.546	13891.95
793.879	13886.75
794.211	13753.42
794.543	13895.34
794.875	13798.39
795.207	13910.03
795.539	13766.76
795.871	13737.15
796.203	13727.44
796.535	13762.24
796.867	13697.61
797.198	13671.62
797.53	13767.43
797.862	13639.75
798.193	13677.49
798.525	13574.67
798.856	13643.82
799.188	13483.83
799.519	13457.84
799.85	13459.19
800.182	13455.8
800.513	13542.58
800.844	13399.99
801.175	13456.71
801.506	13446.54
801.837	13307.56
802.168	13397.5
802.499	13276.37
802.83	13320.21
803.161	13345.07
803.491	13256.26
803.822	13219.65
804.153	13221.69
804.483	13172.42
804.814	13213.1
805.145	13117.06
805.475	13139.65
805.805	13103.72
806.136	13114.8
806.466	13110.5
806.796	13028.7
807.126	13007.91
807.457	12950.73
807.787	12996.16
808.117	12948.93
808.447	12911.86
808.777	13039.54
809.107	12912.54
809.436	12848.59
809.766	12897.18
810.096	12879.32
810.426	12817.86
810.755	12867.35
811.085	12754.35
811.414	12754.58
811.744	12684.75
812.073	12673.45
812.403	12720.91
812.732	12677.07
813.061	12619.44
813.39	12582.38
813.719	12497.64
814.049	12623.96
814.378	12661.7
814.707	12557.75
815.036	12528.6
815.365	12515.72
815.693	12369.51
816.022	12449.05
816.351	12366.12
816.68	12314.37
817.008	12375.38
817.337	12287.93
817.665	12308.49
817.994	12378.54
818.322	12348.94
818.651	12219.9
818.979	12138.1
819.307	12279.11
819.636	12240.47
819.964	12081.6
820.292	12240.02
820.62	12263.52
820.948	12200.47
821.276	12204.09
821.604	12128.83
821.932	12200.92
822.259	12181.94
822.587	12189.62
822.915	12143.3
823.243	12215.39
823.57	12149.85
823.898	12223.97
824.225	12150.3
824.553	12110.53
824.88	12237.98
825.207	12209.06
825.535	12162.05
825.862	12208.15
826.189	12220.36
826.516	12222.39
826.843	12320.92
827.17	12260.13
827.497	12378.77
827.824	12282.28
828.151	12285.44
828.478	12269.85
828.805	12369.96
829.131	12299.9
829.458	12252.9
829.785	12203.86
830.111	12252.22
830.438	12299
830.764	12223.52
831.09	12313.69
831.417	12287.25
831.743	12355.04
832.069	12305.78
832.395	12275.95
832.722	12325.21
833.048	12273.69
833.374	12309.39
833.7	12203.41
834.026	12269.85
834.351	12235.72
834.677	12274.59
835.003	12275.27
835.329	12233.01
835.654	12236.63
835.98	12206.35
836.306	12154.82
836.631	12195.72
836.956	12174.93
837.282	12211.54
837.607	12154.37
837.932	12124.31
838.258	12122.73
838.583	12106.46
838.908	11996.18
839.233	12088.61
839.558	12033.69
839.883	12005.22
840.208	11950.53
840.533	11989.4
840.858	11984.66
841.182	11941.72
841.507	11979.46
841.832	11928.16
842.156	11921.61
842.481	11911.66
842.805	11852.46
843.13	11892.91
843.454	11895.85
843.778	11823.3
844.103	11750.09
844.427	11786.7
844.751	11699.92
845.075	11713.25
845.399	11725.23
845.723	11626.93
846.047	11732.91
846.371	11585.12
846.695	11640.03
847.019	11495.4
847.343	11504.22
847.666	11438
847.99	11311.68
848.313	11407.04
848.637	11268.97
848.96	11261.74
849.284	11275.97
849.607	11236.88
849.931	11162.53
850.254	11068.97
850.577	10996.43
850.9	10960.5
851.223	10968.86
851.546	10937
851.869	10835.99
852.192	10882.31
852.515	10785.37
852.838	10716.44
853.161	10777
853.483	10739.27
853.806	10644.35
854.129	10631.47
854.451	10565.71
854.774	10556.67
855.096	10474.64
855.419	10518.25
855.741	10497.01
856.063	10399.16
856.385	10381.31
856.708	10380.41
857.03	10371.14
857.352	10358.71
857.674	10384.92
857.996	10256.57
858.318	10209.34
858.64	10229.22
858.961	10234.19
859.283	10179.05
859.605	10124.82
859.926	10151.94
860.248	10132.28
860.57	10036.91
860.891	10102.67
861.212	9953.75
861.534	10009.34
861.855	9956.01
862.176	9972.28
862.498	10009.34
862.819	9968.21
863.14	9888.21
863.461	9905.39
863.782	9888.67
864.103	9944.26
864.424	9906.29
864.745	9888.21
865.065	9806.63
865.386	9762.79
865.707	9783.58
866.027	9840.98
866.348	9778.84
866.668	9784.26
866.989	9748.56
867.309	9684.6
867.63	9742.91
867.95	9664.04
868.27	9655.9
868.59	9633.76
868.91	9642.57
869.23	9601.22
869.55	9535.68
869.87	9608
870.19	9635.11
870.51	9572.74
870.83	9536.13
871.15	9466.98
871.469	9552.4
871.789	9552.86
872.109	9487.1
872.428	9470.37
872.748	9478.51
873.067	9415.46
873.386	9496.59
873.706	9508.79
874.025	9384.95
874.344	9408.91
874.663	9390.37
874.982	9349.47
875.301	9292.3
875.62	9294.11
875.939	9337.49
876.258	9285.29
876.577	9297.95
876.896	9308.12
877.214	9247.78
877.533	9309.25
877.852	9157.84
878.17	9224.28
878.489	9265.86
878.807	9214.79
879.125	9161.23
879.444	9183.37
879.762	9228.57
880.08	9208.68
880.398	9144.73
880.716	9069.71
881.034	9106.99
881.352	9119.87
881.67	9024.51
881.988	9088.01
882.306	9051.17
882.624	9016.37
882.941	8885.53
883.259	8923.49
883.577	8967.79
883.894	8941.8
884.212	8910.61
884.529	8907.45
884.846	8796.94
885.164	8864.51
885.481	8845.98
885.798	8836.94
886.115	8747.23
886.432	8815.93
886.75	8763.95
887.067	8774.12
887.383	8712.43
887.7	8690.73
888.017	8648.93
888.334	8667.91
888.651	8656.16
888.967	8617.74
889.284	8572.09
889.6	8636.72
889.917	8478.53
890.233	8530.28
890.55	8462.04
890.866	8519.89
891.182	8465.2
891.498	8414.13
891.815	8400.12
892.131	8410.74
892.447	8384.53
892.763	8332.32
893.079	8347.69
893.395	8326
893.71	8281.25
894.026	8238.31
894.342	8203.74
894.657	8214.59
894.973	8136.4
895.289	8148.83
895.604	8104.98
895.92	7993.58
896.235	8042.84
896.55	8079.45
896.865	7973.69
897.181	7968.94
897.496	7977.08
897.811	7891.2
898.126	7923.07
898.441	7871.54
898.756	7900.47
899.071	7802.17
899.386	7814.82
899.7	7685.33
900.015	7682.85
900.33	7634.04
900.644	7662.28
900.959	7696.63
901.273	7579.35
901.588	7583.42
901.902	7549.97
902.216	7541.38
902.531	7524.66
902.845	7525.79
903.159	7518.33
903.473	7424.78
903.787	7410.99
904.101	7380.94
904.415	7394.49
904.729	7301.84
905.042	7253.93
905.356	7294.16
905.67	7314.95
905.984	7230.43
906.297	7223.2
906.611	7206.25
906.924	7166.48
907.237	7111.79
907.551	7071.11
907.864	7078.12
908.177	7070.21
908.491	7027.5
908.804	6989.99
909.117	6992.92
909.43	6958.57
909.743	6920.83
910.056	6854.17
910.368	6926.94
910.681	6870.44
910.994	6762.87
911.307	6725.36
911.619	6707.96
911.932	6766.04
912.244	6678.81
912.557	6706.38
912.869	6627.28
913.181	6590.67
913.494	6598.13
913.806	6571.92
914.118	6566.04
914.43	6464.58
914.742	6501.86
915.054	6401.3
915.366	6473.39
915.678	6441.07
915.99	6353.84
916.302	6335.99
916.613	6345.26
916.925	6287.41
917.236	6305.48
917.548	6270
917.859	6245.82
918.171	6259.38
918.482	6146.62
918.794	6158.14
919.105	6179.84
919.416	6135.32
919.727	6090.8
920.038	6068.2
920.349	6053.97
920.66	6019.16
920.971	6022.78
921.282	5991.14
921.593	5940.75
921.903	5896.68
922.214	5863.69
922.525	5841.09
922.835	5879.28
923.146	5789.34
923.456	5799.73
923.767	5727.42
924.077	5749.79
924.387	5736.69
924.697	5714.31
925.008	5650.59
925.318	5622.56
925.628	5613.98
925.938	5623.47
926.248	5560.19
926.558	5552.06
926.867	5519.52
927.177	5431.38
927.487	5460.99
927.796	5429.8
928.106	5452.62
928.416	5425.28
928.725	5425.06
929.034	5363.14
929.344	5331.72
929.653	5341.22
929.962	5282.01
930.271	5295.57
930.581	5182.8
930.89	5197.49
931.199	5207.89
931.508	5129.47
931.817	5183.48
932.125	5159.07
932.434	5116.81
932.743	5097.83
933.051	5062.58
933.36	5044.95
933.669	4988.46
933.977	5006.54
934.286	4995.01
934.594	4947.1
934.902	4912.07
935.21	4889.48
935.519	4918.18
935.827	4909.36
936.135	4886.76
936.443	4812.42
936.751	4796.15
937.059	4815.81
937.367	4751.85
937.674	4776.03
937.982	4720.89
938.29	4731.29
938.597	4715.92
938.905	4647.67
939.213	4655.36
939.52	4647
939.827	4629.82
940.135	4577.62
940.442	4560.45
940.749	4550.5
941.056	4579.65
941.363	4539.43
941.67	4522.93
941.977	4501.92
942.284	4471.41
942.591	4479.09
942.898	4448.36
943.205	4406.78
943.511	4400.22
943.818	4376.04
944.125	4356.16
944.431	4352.31
944.738	4334.91
945.044	4331.07
945.35	4307.8
945.657	4270.28
945.963	4280.68
946.269	4219.89
946.575	4237.52
946.881	4179.44
947.187	4188.25
947.493	4195.48
947.799	4182.38
948.105	4123.17
948.41	4111.19
948.716	4140.12
949.022	4076.16
949.327	4053.79
949.633	4041.81
949.938	4053.34
950.244	4033.23
950.549	3968.82
950.854	3947.13
951.16	3960.23
951.465	3947.58
951.77	3936.05
952.075	3925.66
952.38	3888.82
952.685	3867.81
952.99	3817.19
953.294	3836.17
953.599	3827.81
953.904	3772.22
954.209	3833.23
954.513	3792.33
954.818	3770.86
955.122	3719.11
955.426	3739.45
955.731	3704.87
956.035	3698.09
956.339	3684.31
956.643	3664.42
956.948	3666.23
957.252	3644.99
957.556	3619
957.86	3626.01
958.163	3606.8
958.467	3561.38
958.771	3567.25
959.075	3571.54
959.378	3531.32
959.682	3513.24
959.985	3501.72
960.289	3481.38
960.592	3481.38
960.896	3423.98
961.199	3438.89
961.502	3410.64
961.805	3395.05
962.108	3379.46
962.411	3380.36
962.714	3390.08
963.017	3336.07
963.32	3320.93
963.623	3337.65
963.926	3294.04
964.228	3326.35
964.531	3295.39
964.833	3273.93
965.136	3240.03
965.438	3256.52
965.741	3249.29
966.043	3204.32
966.345	3183.98
966.648	3162.29
966.95	3163.65
967.252	3202.97
967.554	3129.97
967.856	3116.87
968.158	3084.55
968.46	3099.24
968.761	3083.65
969.063	3108.73
969.365	3077.09
969.666	3040.49
969.968	3033.93
970.269	3028.28
970.571	2994.84
970.872	3027.83
971.174	2982.41
971.475	2990.54
971.776	2982.63
972.077	2901.73
972.378	2968.4
972.679	2911.22
972.98	2911.9
973.281	2911.45
973.582	2894.5
973.883	2888.17
974.183	2884.78
974.484	2843.65
974.785	2817.21
975.085	2810.43
975.386	2821.06
975.686	2807.5
975.986	2766.59
976.287	2762.75
976.587	2761.85
976.887	2766.14
977.187	2722.3
977.487	2757.33
977.787	2732.47
978.087	2701.28
978.387	2641.85
978.687	2664.22
978.987	2687.95
979.286	2641.85
979.586	2646.6
979.885	2640.04
980.185	2591.23
980.484	2632.13
980.784	2584.45
981.083	2586.49
981.382	2562.76
981.682	2558.01
981.981	2563.66
982.28	2563.44
982.579	2532.02
982.878	2546.49
983.177	2532.02
983.475	2520.27
983.774	2508.3
984.073	2497.22
984.372	2459.94
984.67	2457.22
984.969	2474.85
985.267	2436.21
985.566	2452.7
985.864	2417.68
986.162	2447.96
986.461	2428.07
986.759	2396.43
987.057	2356.21
987.355	2355.76
987.653	2342.88
987.951	2360.05
988.249	2340.62
988.547	2322.99
988.844	2286.38
989.142	2323.44
989.44	2321.41
989.737	2264.69
990.035	2268.53
990.332	2247.96
990.63	2249.09
990.927	2269.66
991.224	2260.39
991.521	2214.07
991.819	2206.38
992.116	2174.07
992.413	2186.95
992.71	2165.93
993.006	2190.56
993.303	2170.45
993.6	2124.8
993.897	2131.58
994.193	2123.22
994.49	2113.28
994.787	2089.32
995.083	2085.48
995.379	2088.65
995.676	2122.54
995.972	2070.79
996.268	2067.4
996.565	2050.91
996.861	2019.27
997.157	2021.08
997.453	2012.04
997.749	2012.94
998.044	1976.33
998.34	1964.36
998.636	1968.87
998.932	1957.58
999.227	1977.24
999.523	1978.14
999.818	1932.94
1000.114	1941.76
1000.409	1962.32
1000.704	1926.16
1001	1881.42
1001.295	1904.47
1001.59	1896.33
1001.885	1843.45
1002.18	1881.42
1002.475	1856.56
1002.77	1858.6
1003.065	1830.35
1003.359	1830.12
1003.654	1806.85
1003.949	1821.08
1004.243	1782.21
1004.538	1763.68
1004.832	1751.71
1005.127	1732.72
1005.421	1795.09
1005.715	1767.07
1006.009	1744.93
1006.304	1730.46
1006.598	1741.76
1006.892	1709.9
1007.186	1718.49
1007.48	1688.88
1007.773	1691.37
1008.067	1669.22
1008.361	1671.93
1008.655	1619.51
1008.948	1655.66
1009.242	1635.55
1009.535	1621.31
1009.829	1622.9
1010.122	1588.09
1010.415	1587.64
1010.708	1608.21
1011.001	1599.39
1011.295	1579.05
1011.588	1567.76
1011.881	1559.62
1012.173	1547.19
1012.466	1518.27
1012.759	1527.3
1013.052	1564.37
1013.344	1529.79
1013.637	1505.84
1013.93	1483.01
1014.222	1486.18
1014.514	1478.49
1014.807	1471.94
1015.099	1469.45
1015.391	1458.61
1015.683	1454.31
1015.976	1444.59
1016.268	1402.79
1016.56	1425.16
1016.851	1431.26
1017.143	1405.95
1017.435	1412.51
1017.727	1407.08
1018.018	1364.37
1018.31	1389.45
1018.602	1372.96
1018.893	1349.46
1019.185	1369.79
1019.476	1337.03
1019.767	1321.43
1020.058	1326.41
1020.35	1307.2
1020.641	1289.34
1020.932	1305.62
1021.223	1292.96
1021.514	1293.19
1021.804	1276.01
1022.095	1268.33
1022.386	1263.81
1022.677	1244.15
1022.967	1223.81
1023.258	1215.22
1023.548	1226.75
1023.839	1210.93
1024.129	1230.59
1024.419	1201.89
1024.709	1205.96
1025	1194.88
1025.29	1191.95
1025.58	1184.94
1025.87	1151.5
1026.16	1177.94
1026.449	1156.69
1026.739	1158.5
1027.029	1110.59
1027.319	1143.13
1027.608	1133.42
1027.898	1101.33
1028.187	1100.88
1028.477	1101.78
1028.766	1095.68
1029.055	1102.23
1029.344	1097.26
1029.634	1068.33
1029.923	1082.34
1030.212	1066.53
1030.501	1061.33
1030.79	1017.49
1031.078	1040.54
1031.367	1020.2
1031.656	1057.71
1031.945	1018.17
1032.233	1020.2
1032.522	994.89
1032.81	1010.48
1033.099	982.91
1033.387	975
1033.675	993.99
1033.963	977.04
1034.251	967.55
1034.54	946.3
1034.828	945.62
1035.116	924.61
1035.403	951.95
1035.691	929.81
1035.979	946.75
1036.267	915.34
1036.554	931.61
1036.842	919.64
1037.129	919.18
1037.417	904.72
1037.704	912.18
1037.992	909.02
1038.279	896.59
1038.566	842.12
1038.853	842.12
1039.14	842.12
