Data from blue_chair_FLMS001491_00070.txt Node
Date: Wed Feb 08 10:31:34 GMT 2017
User: dcchb
Spectrometer: FLMS00149
Trigger mode: 0
Integration Time (sec): 2.000000E-2
Scans to average: 10
Electric dark correction enabled: true
Nonlinearity correction enabled: false
Boxcar width: 0
XAxis mode: Wavelengths
Number of Pixels in Spectrum: 2048
>>>>>Begin Spectral Data<<<<<
341.393	-3.12
341.776	-3.12
342.16	-3.12
342.543	-55.78
342.927	-71.59
343.31	-64.14
343.693	-62.1
344.077	-68.88
344.46	-43.8
344.843	-41.99
345.226	-46.96
345.61	-38.83
345.993	-23.69
346.376	-22.33
346.759	24
347.142	22.19
347.525	30.55
347.908	71.9
348.291	66.03
348.674	90.21
349.057	107.84
349.44	118.23
349.823	145.58
350.206	141.28
350.588	176.08
350.971	185.35
351.354	202.52
351.737	223.54
352.119	236.19
352.502	247.04
352.884	262.86
353.267	245.46
353.65	279.81
354.032	266.93
354.414	280.26
354.797	306.47
355.179	294.95
355.562	277.55
355.944	299.47
356.326	316.64
356.709	289.98
357.091	318
357.473	317.32
357.855	319.58
358.238	314.61
358.62	313.48
359.002	313.93
359.384	320.26
359.766	315.51
360.148	313.48
360.53	301.96
360.912	309.64
361.294	290.43
361.676	315.51
362.057	313.25
362.439	292.24
362.821	275.97
363.203	301.28
363.584	301.28
363.966	292.69
364.348	273.03
364.729	308.06
365.111	292.92
365.493	279.58
365.874	268.51
366.256	275.74
366.637	287.49
367.019	279.81
367.4	317.77
367.781	278.45
368.163	280.26
368.544	271
368.925	281.16
369.306	308.96
369.688	267.38
370.069	253.37
370.45	288.17
370.831	289.07
371.212	274.84
371.593	292.46
371.974	266.48
372.355	267.38
372.736	282.97
373.117	283.2
373.498	267.61
373.879	277.1
374.26	288.85
374.641	294.5
375.021	277.1
375.402	279.13
375.783	288.17
376.163	284.55
376.544	275.52
376.925	287.49
377.305	314.84
377.686	293.82
378.066	271.9
378.447	303.76
378.827	290.88
379.208	294.05
379.588	295.63
379.968	278.45
380.349	308.06
380.729	292.01
381.109	294.05
381.489	302.18
381.87	298.79
382.25	295.85
382.63	298.79
383.01	321.84
383.39	303.09
383.77	289.75
384.15	302.63
384.53	302.86
384.91	284.55
385.29	307.38
385.67	310.77
386.049	320.49
386.429	291.11
386.809	313.25
387.189	319.58
387.568	320.71
387.948	319.81
388.328	302.41
388.707	303.54
389.087	303.99
389.466	310.09
389.846	303.99
390.225	315.74
390.605	320.26
390.984	324.1
391.363	316.19
391.743	341.05
392.122	307.15
392.501	312.8
392.881	323.2
393.26	334.04
393.639	311.9
394.018	328.17
394.397	305.57
394.776	329.75
395.155	315.51
395.534	314.38
395.913	333.14
396.292	346.25
396.671	328.4
397.05	335.17
397.429	329.75
397.808	319.81
398.186	335.63
398.565	347.83
398.944	334.95
399.323	345.8
399.701	339.24
400.08	347.38
400.458	349.86
400.837	363.87
401.215	341.73
401.594	359.81
401.972	349.64
402.351	367.72
402.729	362.74
403.107	354.38
403.486	383.08
403.864	344.89
404.242	344.44
404.62	348.28
404.999	367.26
405.377	352.12
405.755	372.01
406.133	367.72
406.511	378.56
406.889	355.06
407.267	369.75
407.645	388.73
408.023	388.51
408.401	381.05
408.779	381.28
409.156	375.17
409.534	360.71
409.912	383.54
410.29	390.99
410.667	407.26
411.045	395.96
411.422	399.13
411.8	397.09
412.178	413.59
412.555	410.65
412.933	410.65
413.31	398.68
413.687	415.62
414.065	427.6
414.442	411.11
414.819	420.82
415.197	421.73
415.574	422.63
415.951	434.83
416.328	425.57
416.705	413.82
417.082	423.99
417.46	446.13
417.837	437.77
418.214	421.05
418.591	435.51
418.967	433.7
419.344	436.64
419.721	437.32
420.098	454.72
420.475	460.37
420.852	439.8
421.228	446.81
421.605	432.8
421.982	453.59
422.358	488.62
422.735	475.51
423.111	467.37
423.488	490.65
423.864	448.84
424.241	459.01
424.617	477.32
424.994	480.03
425.37	487.94
425.746	491.33
426.123	481.16
426.499	502.18
426.875	505.79
427.251	509.63
427.627	533.36
428.003	524.55
428.379	517.99
428.756	535.62
429.132	538.33
429.507	530.2
429.883	531.33
430.259	539.69
430.635	540.14
431.011	542.85
431.387	550.54
431.763	555.96
432.138	545.34
432.514	581.27
432.89	561.38
433.265	596.86
433.641	573.81
434.016	595.96
434.392	584.43
434.767	598.44
435.143	613.59
435.518	609.97
435.894	632.57
436.269	609.29
436.644	619.69
437.02	645.68
437.395	648.61
437.77	655.17
438.145	650.42
438.52	654.71
438.895	661.95
439.271	691.1
439.646	703.98
440.021	706.69
440.395	707.37
440.77	675.05
441.145	705.33
441.52	757.76
441.895	704.66
442.27	729.97
442.645	717.76
443.019	733.58
443.394	736.97
443.769	747.59
444.143	756.18
444.518	787.82
444.892	768.38
445.267	753.24
445.641	780.36
446.016	780.13
446.39	762.96
446.764	781.49
447.139	774.94
447.513	808.38
447.887	797.99
448.262	816.52
448.636	817.87
449.01	807.48
449.384	808.83
449.758	801.38
450.132	826.24
450.506	837.53
450.88	839.79
451.254	836.4
451.628	850.19
452.002	864.88
452.376	853.13
452.75	873.24
453.123	877.99
453.497	879.57
453.871	884.09
454.244	896.06
454.618	912.56
454.992	924.31
455.365	891.32
455.739	922.5
456.112	937.42
456.486	941.26
456.859	929.96
457.232	971.54
457.606	947.14
457.979	979
458.352	974.48
458.725	982.62
459.099	981.94
459.472	1022.84
459.845	999.11
460.218	1013.35
460.591	1022.16
460.964	1029.39
461.337	1054.25
461.71	1038.66
462.083	1045.66
462.456	1042.05
462.829	1074.14
463.201	1069.17
463.574	1072.56
463.947	1067.81
464.32	1094.48
464.692	1107.81
465.065	1102.39
465.438	1120.01
465.81	1122.95
466.183	1144.87
466.555	1155.72
466.928	1155.27
467.3	1177.41
467.672	1170.86
468.045	1177.41
468.417	1195.04
468.789	1193.23
469.161	1192.55
469.534	1219.9
469.906	1202.72
470.278	1267.58
470.65	1231.87
471.022	1256.05
471.394	1243.17
471.766	1296.73
472.138	1266.68
472.51	1328.6
472.882	1340.8
473.253	1333.34
473.625	1333.34
473.997	1354.13
474.369	1351.19
474.74	1393.23
475.112	1387.12
475.484	1426.67
475.855	1415.15
476.227	1422.15
476.598	1432.55
476.97	1441.81
477.341	1464.86
477.713	1483.62
478.084	1493.11
478.455	1506.67
478.827	1492.43
479.198	1558.65
479.569	1536.95
479.94	1578.76
480.311	1561.13
480.682	1582.15
481.053	1619.89
481.424	1629.38
481.795	1671.41
482.166	1631.19
482.537	1675.03
482.908	1683.16
483.279	1671.18
483.65	1704.63
484.021	1723.84
484.391	1743.27
484.762	1728.58
485.133	1753.89
485.503	1774.46
485.874	1779.2
486.244	1802.03
486.615	1787.57
486.985	1811.52
487.356	1851.52
487.726	1819.88
488.097	1821.69
488.467	1834.12
488.837	1882.7
489.207	1878.64
489.578	1895.36
489.948	1855.36
490.318	1881.35
490.688	1873.67
491.058	1922.93
491.428	1893.33
491.798	1930.39
492.168	1940.1
492.538	1954.34
492.908	1933.78
493.278	1952.53
493.648	1941.46
494.017	1968.13
494.387	1953.89
494.757	1965.41
495.126	1954.34
495.496	1952.99
495.866	1962.02
496.235	1973.78
496.605	1953.44
496.974	1955.02
497.344	1984.85
497.713	1963.83
498.082	1943.04
498.452	1964.51
498.821	1988.92
499.19	1931.29
499.559	1935.36
499.928	1962.02
500.298	1947.34
500.667	1975.36
501.036	1951.63
501.405	1973.78
501.774	1914.57
502.143	1958.63
502.512	1940.1
502.88	1988.01
503.249	1934.45
503.618	1937.84
503.987	1946.66
504.356	1932.87
504.724	1922.03
505.093	1927.22
505.462	1952.08
505.83	1936.04
506.199	1942.59
506.567	1951.4
506.936	1942.14
507.304	1943.27
507.672	1937.62
508.041	1912.76
508.409	1943.49
508.777	1955.7
509.145	1921.57
509.514	1915.92
509.882	1931.74
510.25	1919.54
510.618	1914.12
510.986	1910.95
511.354	1906.43
511.722	1898.07
512.09	1918.64
512.458	1875.25
512.826	1875.47
513.193	1898.98
513.561	1903.27
513.929	1886.77
514.297	1926.09
514.664	1882.48
515.032	1896.49
515.4	1848.58
515.767	1901.46
516.135	1826.66
516.502	1847.68
516.869	1803.16
517.237	1850.39
517.604	1839.32
517.972	1848.81
518.339	1826.44
518.706	1844.29
519.073	1837.06
519.44	1780.11
519.808	1825.98
520.175	1803.61
520.542	1816.72
520.909	1819.43
521.276	1790.73
521.643	1815.81
522.009	1767
522.376	1821.69
522.743	1794.57
523.11	1783.05
523.477	1798.41
523.843	1780.56
524.21	1812.42
524.577	1800.9
524.943	1811.97
525.31	1802.03
525.676	1818.75
526.043	1776.49
526.409	1776.04
526.776	1777.85
527.142	1803.61
527.508	1808.81
527.874	1797.96
528.241	1812.65
528.607	1804.06
528.973	1783.5
529.339	1807
529.705	1774.23
530.071	1792.31
530.437	1776.27
530.803	1820.33
531.169	1792.09
531.535	1798.41
531.901	1777.85
532.267	1767.45
532.632	1785.76
532.998	1797.06
533.364	1786.89
533.73	1755.02
534.095	1807
534.461	1774.91
534.826	1782.14
535.192	1785.98
535.557	1785.31
535.923	1779.88
536.288	1791.41
536.653	1774.01
537.019	1756.61
537.384	1788.92
537.749	1784.63
538.114	1797.51
538.479	1749.37
538.845	1777.4
539.21	1760.45
539.575	1753.44
539.94	1759.77
540.305	1764.52
540.67	1743.95
541.034	1739.21
541.399	1767.91
541.764	1766.55
542.129	1765.19
542.494	1760.45
542.858	1777.4
543.223	1774.91
543.587	1762.03
543.952	1748.02
544.316	1752.99
544.681	1740.79
545.045	1766.32
545.41	1750.05
545.774	1761.35
546.138	1731.97
546.503	1731.97
546.867	1738.98
547.231	1729.04
547.595	1724.06
547.959	1729.94
548.324	1708.25
548.688	1720.9
549.052	1729.26
549.416	1706.66
549.779	1716.38
550.143	1715.7
550.507	1725.19
550.871	1742.6
551.235	1725.19
551.599	1712.09
551.962	1717.29
552.326	1736.04
552.689	1710.96
553.053	1697.62
553.417	1698.53
553.78	1709.83
554.143	1720
554.507	1698.3
554.87	1684.07
555.234	1687.23
555.597	1675.48
555.96	1675.7
556.323	1696.49
556.686	1693.78
557.05	1702.14
557.413	1705.76
557.776	1680.22
558.139	1677.06
558.502	1715.93
558.865	1696.04
559.228	1708.25
559.59	1711.86
559.953	1711.86
560.316	1723.61
560.679	1701.69
561.041	1713.9
561.404	1722.71
561.767	1732.88
562.129	1729.71
562.492	1722.03
562.854	1739.43
563.217	1717.06
563.579	1715.25
563.941	1701.24
564.304	1714.35
564.666	1746.89
565.028	1703.95
565.39	1703.05
565.753	1729.49
566.115	1737.85
566.477	1754.12
566.839	1713.67
567.201	1762.03
567.563	1746.21
567.925	1733.1
568.287	1757.96
568.648	1767.23
569.01	1761.35
569.372	1788.24
569.734	1774.68
570.095	1803.16
570.457	1798.87
570.819	1771.75
571.18	1800.9
571.542	1816.27
571.903	1766.32
572.265	1805.87
572.626	1792.76
572.987	1795.02
573.349	1809.49
573.71	1796.61
574.071	1803.61
574.432	1828.47
574.794	1839.77
575.155	1835.02
575.516	1810.16
575.877	1863.27
576.238	1845.19
576.599	1866.21
576.96	1834.12
577.32	1842.48
577.681	1863.04
578.042	1858.52
578.403	1857.17
578.763	1856.72
579.124	1890.39
579.485	1892.42
579.845	1884.06
580.206	1886.77
580.566	1882.25
580.927	1878.41
581.287	1884.06
581.648	1924.06
582.008	1877.73
582.368	1903.5
582.728	1921.8
583.089	1908.69
583.449	1916.38
583.809	1919.31
584.169	1891.97
584.529	1961.8
584.889	1901.01
585.249	1912.53
585.609	1916.15
585.969	1895.81
586.329	1934.91
586.688	1920.67
587.048	1935.36
587.408	1912.08
587.768	1937.62
588.127	1934.23
588.487	1939.43
588.846	1937.62
589.206	1902.59
589.565	1916.83
589.925	1929.48
590.284	1947.79
590.643	1965.87
591.003	1970.16
591.362	1949.37
591.721	1930.84
592.08	1936.04
592.44	1933.1
592.799	1941.23
593.158	1945.75
593.517	1945.08
593.876	1932.19
594.235	1963.38
594.593	1948.69
594.952	1946.21
595.311	1938.52
595.67	1934.91
596.029	1978.75
596.387	1968.8
596.746	1950.95
597.104	1929.26
597.463	1931.97
597.822	1974
598.18	1947.79
598.538	1955.25
598.897	1960.89
599.255	1931.29
599.613	1938.97
599.972	1995.02
600.33	1961.8
600.688	1930.61
601.046	1952.08
601.404	1925.87
601.762	1967.67
602.12	1942.82
602.478	1943.72
602.836	1960.44
603.194	1937.39
603.552	1932.65
603.91	1953.21
604.268	1959.09
604.625	1945.3
604.983	1947.56
605.341	1946.21
605.698	1922.48
606.056	1972.65
606.413	1967.45
606.771	1936.49
607.128	1951.18
607.485	1953.66
607.843	1937.62
608.2	1970.16
608.557	1961.12
608.914	1948.69
609.272	1931.74
609.629	1958.18
609.986	1960.22
610.343	1976.04
610.7	1983.04
611.057	1978.97
611.414	1962.93
611.771	1979.43
612.127	2016.94
612.484	1967.67
612.841	1960.67
613.198	1982.36
613.554	1948.01
613.911	1972.87
614.267	1984.85
614.624	1983.95
614.98	1979.65
615.337	1983.27
615.693	1948.92
616.05	1982.14
616.406	1986.88
616.762	1988.69
617.118	2025.07
617.475	1981.91
617.831	1999.54
618.187	1985.3
618.543	1986.66
618.899	2021.68
619.255	1980.33
619.611	1990.72
619.967	1985.75
620.323	2024.85
620.678	2008.13
621.034	1995.92
621.39	1990.05
621.746	1980.78
622.101	2008.58
622.457	2019.88
622.812	2022.81
623.168	1986.88
623.523	2009.93
623.879	2011.29
624.234	1982.59
624.589	2005.19
624.945	2006.54
625.3	2018.75
625.655	1987.11
626.01	1999.31
626.365	2007.67
626.72	2007
627.075	2032.76
627.43	2002.93
627.785	2022.14
628.14	2032.08
628.495	1995.92
628.85	2012.19
629.205	1998.86
629.559	2051.97
629.914	2010.61
630.269	2011.97
630.623	1981.23
630.978	2021.91
631.332	2022.36
631.687	2041.57
632.041	2033.44
632.396	2033.89
632.75	2024.85
633.104	2007.45
633.459	2017.84
633.813	2026.88
634.167	1994.57
634.521	2001.57
634.875	2004.74
635.229	2024.4
635.583	2008.58
635.937	1981.01
636.291	1991.85
636.645	1989.82
636.999	2023.04
637.352	2049.93
637.706	1983.72
638.06	1999.31
638.413	2008.13
638.767	2015.58
639.121	1977.17
639.474	2016.71
639.828	1987.33
640.181	2021.68
640.534	1997.96
640.888	2015.81
641.241	2027.56
641.594	2036.15
641.947	2005.41
642.301	2020.1
642.654	2029.14
643.007	2017.84
643.36	2021.68
643.713	2018.07
644.066	2023.27
644.419	2028.46
644.771	2021.91
645.124	2009.03
645.477	2012.64
645.83	1988.24
646.182	2006.77
646.535	1967.9
646.888	2010.61
647.24	1997.5
647.593	1997.73
647.945	1973.32
648.298	1988.69
648.65	1970.84
649.002	1990.27
649.355	1999.09
649.707	1997.05
650.059	2024.85
650.411	2001.8
650.763	2044.73
651.115	2072.3
651.467	2077.73
651.819	2050.38
652.171	2067.11
652.523	2044.73
652.875	2077.73
653.227	2042.7
653.578	2061.46
653.93	2067.11
654.282	2088.8
654.633	2057.84
654.985	2065.98
655.337	2104.17
655.688	2050.16
656.039	2103.94
656.391	2083.6
656.742	2074.11
657.094	2112.3
657.445	2126.77
657.796	2076.82
658.147	2112.76
658.498	2103.49
658.849	2085.19
659.2	2087.45
659.551	2097.61
659.902	2074.56
660.253	2108.69
660.604	2089.93
660.955	2082.93
661.306	2100.1
661.656	2129.7
662.007	2122.25
662.358	2093.77
662.708	2132.87
663.059	2110.04
663.409	2096.94
663.76	2143.94
664.11	2121.57
664.461	2138.52
664.811	2127.44
665.161	2131.06
665.511	2126.77
665.862	2157.95
666.212	2106.2
666.562	2115.24
666.912	2116.82
667.262	2136.71
667.612	2115.24
667.962	2145.3
668.312	2131.74
668.662	2126.09
669.011	2139.87
669.361	2122.25
669.711	2107.33
670.06	2105.07
670.41	2071.17
670.76	2113.21
671.109	2117.27
671.459	2123.38
671.808	2115.69
672.157	2087.9
672.507	2105.75
672.856	2086.09
673.205	2104.62
673.554	2121.57
673.904	2121.79
674.253	2121.57
674.602	2072.98
674.951	2082.25
675.3	2039.08
675.649	2080.67
675.998	2084.28
676.346	2077.5
676.695	2092.42
677.044	2055.36
677.393	2065.98
677.741	2059.88
678.09	2054.45
678.438	2035.92
678.787	2059.42
679.135	2044.28
679.484	2041.12
679.832	2029.59
680.181	2070.27
680.529	2023.94
680.877	2025.53
681.225	2024.62
681.573	2028.69
681.922	2047.9
682.27	2038.86
682.618	2042.93
682.966	2009.93
683.314	2017.84
683.661	2009.48
684.009	2015.13
684.357	2007
684.705	1999.31
685.053	2007.67
685.4	1975.36
685.748	1964.51
686.095	1953.89
686.443	1982.59
686.79	1956.6
687.138	1951.18
687.485	1975.36
687.832	1936.71
688.18	1945.98
688.527	1919.31
688.874	1947.79
689.221	1943.95
689.568	1911.86
689.915	1900.11
690.262	1929.48
690.609	1912.53
690.956	1898.75
691.303	1905.75
691.65	1872.99
691.997	1894
692.344	1878.41
692.69	1893.33
693.037	1870.5
693.383	1906.66
693.73	1883.61
694.077	1859.2
694.423	1854.91
694.769	1870.5
695.116	1861.46
695.462	1846.55
695.808	1840.9
696.155	1828.02
696.501	1819.2
696.847	1839.09
697.193	1785.76
697.539	1830.95
697.885	1823.05
698.231	1796.15
698.577	1795.48
698.923	1809.26
699.269	1764.52
699.614	1809.71
699.96	1806.1
700.306	1760.22
700.651	1761.58
700.997	1752.76
701.342	1761.8
701.688	1755.7
702.033	1722.93
702.379	1752.54
702.724	1750.73
703.069	1752.76
703.415	1757.74
703.76	1757.96
704.105	1775.36
704.45	1760.22
704.795	1737.4
705.14	1738.98
705.485	1742.82
705.83	1740.34
706.175	1736.95
706.52	1736.04
706.865	1759.32
707.209	1732.88
707.554	1704.18
707.899	1723.84
708.243	1730.62
708.588	1730.39
708.932	1708.92
709.277	1729.04
709.621	1714.57
709.966	1721.58
710.31	1720
710.654	1706.44
710.998	1706.21
711.342	1749.37
711.687	1688.81
712.031	1708.02
712.375	1687.68
712.719	1718.87
713.063	1680.45
713.407	1727.45
713.75	1744.18
714.094	1758.41
714.438	1737.62
714.782	1721.35
715.125	1731.52
715.469	1722.48
715.812	1739.88
716.156	1726.32
716.499	1727.68
716.843	1738.3
717.186	1716.38
717.53	1746.66
717.873	1770.17
718.216	1757.96
718.559	1751.63
718.902	1764.74
719.246	1781.92
719.589	1735.36
719.932	1764.52
720.275	1748.24
720.617	1771.97
720.96	1776.49
721.303	1795.93
721.646	1793.89
721.989	1783.95
722.331	1774.46
722.674	1820.11
723.016	1821.92
723.359	1805.87
723.701	1810.62
724.044	1808.81
724.386	1798.87
724.729	1829.37
725.071	1841.12
725.413	1839.09
725.755	1834.34
726.097	1858.3
726.439	1834.8
726.782	1855.13
727.124	1886.77
727.465	1822.37
727.807	1846.32
728.149	1842.48
728.491	1861.69
728.833	1909.14
729.175	1895.13
729.516	1911.86
729.858	1898.3
730.199	1927.9
730.541	1919.77
730.882	1939.88
731.224	1969.48
731.565	1955.47
731.906	1946.21
732.248	1980.1
732.589	1965.64
732.93	1992.08
733.271	1992.08
733.612	1992.98
733.953	1994.11
734.294	2035.47
734.635	2007
734.976	2043.38
735.317	2044.73
735.658	2053.1
735.999	2069.82
736.339	2083.83
736.68	2115.24
737.021	2090.61
737.361	2134
737.702	2117.05
738.042	2169.02
738.383	2187.78
738.723	2152.98
739.063	2193.21
739.404	2200.89
739.744	2220.55
740.084	2254.9
740.424	2267.55
740.764	2283.37
741.104	2319.08
741.444	2294.22
741.784	2331.05
742.124	2336.48
742.464	2377.16
742.804	2356.14
743.143	2389.36
743.483	2442.46
743.823	2430.71
744.162	2443.37
744.502	2503.25
744.841	2527.66
745.181	2561.1
745.52	2560.88
745.86	2632.97
746.199	2625.06
746.538	2634.55
746.877	2661.89
747.216	2732.17
747.556	2756.58
747.895	2803.13
748.234	2809.69
748.573	2849.91
748.911	2870.25
749.25	2891.27
749.589	2943.24
749.928	3005.61
750.267	3059.4
750.605	3071.83
750.944	3105.5
751.283	3175.33
751.621	3239.28
751.96	3270.92
752.298	3304.36
752.636	3354.98
752.975	3371.71
753.313	3450.12
753.651	3482.89
753.989	3516.11
754.327	3596.56
754.666	3634.52
755.004	3712.26
755.342	3768.53
755.679	3808.3
756.017	3869.77
756.355	3933.5
756.693	3955.19
757.031	4029.77
757.368	4029.77
757.706	4167.84
758.044	4178.46
758.381	4267.27
758.719	4293.26
759.056	4323.54
759.394	4403.32
759.731	4398.12
760.068	4500.94
760.405	4555.18
760.743	4615.51
761.08	4718.79
761.417	4699.58
761.754	4778.9
762.091	4896.64
762.428	4905
762.765	4938.22
763.102	5011.44
763.438	5035.39
763.775	5107.48
764.112	5099.8
764.449	5211.43
764.785	5251.2
765.122	5262.28
765.458	5300.47
765.795	5337.76
766.131	5357.64
766.467	5464.53
766.804	5480.8
767.14	5530.97
767.476	5566.9
767.812	5608.26
768.148	5643.06
768.485	5709.5
768.821	5742.72
769.157	5761.7
769.492	5840.79
769.828	5871.53
770.164	5839.44
770.5	5885.31
770.836	5871.53
771.171	5956.5
771.507	5975.48
771.842	5989.94
772.178	5949.49
772.513	5986.33
772.849	6024.06
773.184	6106.55
773.519	6098.19
773.855	6120.79
774.19	6156.72
774.525	6139.99
774.86	6224.06
775.195	6246.88
775.53	6213.44
775.865	6231.29
776.2	6302.7
776.535	6286.88
776.87	6301.35
777.205	6298.41
777.539	6301.57
777.874	6347.45
778.209	6324.62
778.543	6318.75
778.878	6342.47
779.212	6357.16
779.547	6402.59
779.881	6437.16
780.215	6361.46
780.55	6397.61
780.884	6394.45
781.218	6440.33
781.552	6427.67
781.886	6426.99
782.22	6428.35
782.554	6461.79
782.888	6409.37
783.222	6398.74
783.556	6422.02
783.889	6419.76
784.223	6368.91
784.557	6439.65
784.89	6398.07
785.224	6413.66
785.557	6483.26
785.891	6459.31
786.224	6398.74
786.558	6454.79
786.891	6355.58
787.224	6421.12
787.557	6444.62
787.891	6401.91
788.224	6437.84
788.557	6465.86
788.89	6504.28
789.223	6472.87
789.556	6473.09
789.888	6413.43
790.221	6446.65
790.554	6371.4
790.887	6419.53
791.219	6424.05
791.552	6428.57
791.884	6400.1
792.217	6361.68
792.549	6440.33
792.882	6385.86
793.214	6398.52
793.546	6377.95
793.879	6393.32
794.211	6380.44
794.543	6435.58
794.875	6385.41
795.207	6364.62
795.539	6330.5
795.871	6376.15
796.203	6274.23
796.535	6314
796.867	6351.74
797.198	6360.33
797.53	6297.96
797.862	6307.9
798.193	6318.52
798.525	6248.69
798.856	6273.78
799.188	6264.96
799.519	6266.32
799.85	6182.7
800.182	6277.39
800.513	6230.39
800.844	6200.78
801.175	6248.92
801.506	6259.54
801.837	6213.66
802.168	6214.12
802.499	6179.99
802.83	6118.75
803.161	6119.2
803.491	6158.75
803.822	6124.18
804.153	6152.42
804.483	6074.01
804.814	6106.1
805.145	6123.05
805.475	6076.27
805.805	6072.88
806.136	6107
806.466	6062.26
806.796	6061.13
807.126	6025.65
807.457	6067.68
807.787	6059.09
808.117	6024.97
808.447	5970.73
808.777	6034.69
809.107	6041.92
809.436	6014.57
809.766	6014.12
810.096	5954.46
810.426	5954.01
810.755	5943.16
811.085	5996.04
811.414	6025.19
811.744	5943.84
812.073	5991.07
812.403	5921.92
812.732	5909.72
813.061	5905.88
813.39	5883.28
813.719	5927.34
814.049	5890.28
814.378	5884.86
814.707	5889.83
815.036	5850.28
815.365	5887.35
815.693	5833.11
816.022	5878.08
816.351	5821.36
816.68	5808.93
817.008	5847.12
817.337	5826.33
817.665	5742.04
817.994	5794.01
818.322	5818.87
818.651	5698.42
818.979	5731.87
819.307	5831.53
819.636	5751.76
819.964	5749.95
820.292	5755.37
820.62	5763.96
820.948	5729.38
821.276	5721.47
821.604	5754.02
821.932	5725.32
822.259	5756.73
822.587	5764.41
822.915	5676.73
823.243	5759.89
823.57	5740.23
823.898	5751.3
824.225	5779.78
824.553	5760.12
824.88	5735.26
825.207	5779.33
825.535	5787.01
825.862	5771.64
826.189	5746.78
826.516	5786.78
826.843	5777.29
827.17	5777.29
827.497	5816.84
827.824	5836.5
828.151	5798.31
828.478	5801.7
828.805	5835.14
829.131	5828.82
829.458	5803.96
829.785	5772.32
830.111	5768.48
830.438	5799.44
830.764	5810.96
831.09	5834.24
831.417	5815.71
831.743	5795.82
832.069	5773.9
832.395	5754.69
832.722	5807.35
833.048	5806.44
833.374	5850.06
833.7	5765.31
834.026	5774.35
834.351	5782.49
834.677	5773.9
835.003	5789.95
835.329	5795.14
835.654	5724.64
835.98	5728.48
836.306	5730.06
836.631	5768.7
836.956	5738.42
837.282	5771.19
837.607	5755.15
837.932	5671.31
838.258	5733.22
838.583	5718.54
838.908	5688.03
839.233	5691.19
839.558	5683.28
839.883	5686.22
840.208	5677.86
840.533	5681.93
840.858	5643.06
841.182	5661.59
841.507	5653.68
841.832	5615.04
842.156	5684.86
842.481	5635.83
842.805	5631.31
843.13	5633.11
843.454	5574.81
843.778	5538.43
844.103	5593.34
844.427	5549.5
844.751	5586.11
845.075	5584.98
845.399	5549.05
845.723	5447.36
846.047	5496.62
846.371	5457.75
846.695	5502.5
847.019	5394.48
847.343	5352.67
847.666	5403.97
847.99	5373.46
848.313	5398.54
848.637	5325.55
848.96	5356.51
849.284	5326.46
849.607	5268.15
849.931	5284.2
850.254	5214.82
850.577	5244.42
850.9	5185.89
851.223	5151.77
851.546	5166.69
851.869	5157.42
852.192	5137.99
852.515	5112.45
852.838	5092.11
853.161	5086.46
853.483	5080.81
853.806	5052.34
854.129	5002.62
854.451	5017.76
854.774	4985.9
855.096	4968.95
855.419	4969.4
855.741	4999.23
856.063	4908.39
856.385	4921.49
856.708	4931.66
857.03	4877.43
857.352	4870.65
857.674	4883.08
857.996	4854.15
858.318	4829.75
858.64	4864.77
858.961	4829.07
859.283	4828.84
859.605	4775.74
859.926	4801.27
860.248	4817.32
860.57	4780.71
860.891	4782.52
861.212	4761.5
861.534	4742.97
861.855	4722.4
862.176	4733.48
862.498	4735.96
862.819	4734.83
863.14	4744.1
863.461	4696.19
863.782	4679.24
864.103	4646.7
864.424	4696.42
864.745	4729.86
865.065	4667.04
865.386	4622.29
865.707	4688.73
866.027	4634.04
866.348	4587.72
866.668	4608.96
866.989	4570.77
867.309	4577.55
867.63	4587.72
867.95	4639.02
868.27	4563.09
868.59	4567.61
868.91	4542.07
869.23	4529.41
869.55	4520.6
869.87	4538.23
870.19	4520.6
870.51	4570.54
870.83	4545.69
871.15	4512.92
871.469	4553.59
871.789	4527.15
872.109	4461.17
872.428	4445.8
872.748	4425.01
873.067	4466.14
873.386	4471.34
873.706	4498
874.025	4521.28
874.344	4436.08
874.663	4497.33
874.982	4442.64
875.301	4451.22
875.62	4444.67
875.939	4411.23
876.258	4423.43
876.577	4393.83
876.896	4411.68
877.214	4395.86
877.533	4363.32
877.852	4336.2
878.17	4354.5
878.489	4320.38
878.807	4340.04
879.125	4349.31
879.444	4328.52
879.762	4319.25
880.08	4331.45
880.398	4289.2
880.716	4306.82
881.034	4288.97
881.352	4312.92
881.67	4242.19
881.988	4273.15
882.306	4309.08
882.624	4247.16
882.941	4254.39
883.259	4225.47
883.577	4169.88
883.894	4168.75
884.212	4213.04
884.529	4196.54
884.846	4195.86
885.164	4190.21
885.481	4173.72
885.798	4150.89
886.115	4138.24
886.432	4147.05
886.75	4121.29
887.067	4173.04
887.383	4127.17
887.7	4078.58
888.017	4071.12
888.334	4108.86
888.651	4074.74
888.967	4053.95
889.284	4049.2
889.6	4011.91
889.917	4016.66
890.233	4013.72
890.55	3994.74
890.866	4011.24
891.182	3990.45
891.498	3977.56
891.815	3952.71
892.131	3954.29
892.447	3986.38
892.763	3896.89
893.079	3930.11
893.395	3929.66
893.71	3846.72
894.026	3873.61
894.342	3846.04
894.657	3816.44
894.973	3858.47
895.289	3851.69
895.604	3828.19
895.92	3793.16
896.235	3797.23
896.55	3794.97
896.865	3759.94
897.181	3792.49
897.496	3767.4
897.811	3765.14
898.126	3755.88
898.441	3703.67
898.756	3706.61
899.071	3718.59
899.386	3685.37
899.7	3642.43
900.015	3660.96
900.33	3631.59
900.644	3611.92
900.959	3630
901.273	3594.3
901.588	3565.82
901.902	3592.72
902.216	3542.55
902.531	3529.22
902.845	3489.22
903.159	3504.13
903.473	3514.07
903.787	3494.19
904.101	3450.8
904.415	3468.65
904.729	3469.78
905.042	3455.09
905.356	3461.87
905.67	3445.38
905.984	3417.35
906.297	3386.62
906.611	3376
906.924	3400.63
907.237	3375.09
907.551	3358.6
907.864	3319.73
908.177	3334.64
908.491	3337.13
908.804	3332.84
909.117	3274.53
909.43	3246.74
909.743	3265.72
910.056	3264.82
910.368	3215.33
910.681	3204.7
910.994	3179.85
911.307	3244.7
911.619	3215.1
911.932	3147.08
912.244	3137.81
912.557	3143.24
912.869	3128.1
913.181	3080.64
913.494	3119.06
913.806	3088.1
914.118	3088.77
914.43	3071.15
914.742	3047.42
915.054	3072.96
915.366	3052.62
915.678	3053.75
915.99	3041.09
916.302	2991.83
916.613	3003.35
916.925	3013.75
917.236	2978.5
917.548	2951.15
917.859	2949.34
918.171	2925.84
918.482	2959.29
918.794	2913.86
919.105	2907.99
919.416	2885.16
919.727	2863.92
920.038	2885.39
920.349	2864.6
920.66	2858.72
920.971	2853.53
921.282	2862.11
921.593	2831.38
921.903	2803.36
922.214	2780.76
922.525	2802.45
922.835	2780.99
923.146	2745.73
923.456	2795
923.767	2720.42
924.077	2690.59
924.387	2709.58
924.697	2704.6
925.008	2713.19
925.318	2695.79
925.628	2661.67
925.938	2671.61
926.248	2670.93
926.558	2654.44
926.867	2620.31
927.177	2629.58
927.487	2590.71
927.796	2602.46
928.106	2588
928.416	2596.13
928.725	2576.02
929.034	2567.43
929.344	2547.55
929.653	2532.86
929.962	2543.7
930.271	2479.07
930.581	2500.99
930.89	2483.37
931.199	2496.93
931.508	2474.33
931.817	2486.08
932.125	2481.33
932.434	2466.64
932.743	2426.42
933.051	2440.88
933.36	2450.37
933.669	2430.26
933.977	2416.25
934.286	2401.56
934.594	2417.61
934.902	2376.7
935.21	2398.4
935.519	2373.77
935.827	2373.31
936.135	2380.54
936.443	2338.51
936.751	2289.7
937.059	2347.1
937.367	2315.46
937.674	2282.47
937.982	2333.09
938.29	2313.43
938.597	2308.91
938.905	2272.07
939.213	2252.86
939.52	2244.28
939.827	2272.52
940.135	2214.9
940.442	2231.85
940.749	2223.71
941.056	2195.01
941.363	2201.79
941.67	2214.22
941.977	2174.67
942.284	2182.36
942.591	2153.66
942.898	2141.91
943.205	2177.39
943.511	2161.57
943.818	2135.35
944.125	2107.78
944.431	2114.56
944.738	2115.92
945.044	2091.29
945.35	2114.34
945.657	2094.68
945.963	2075.69
946.269	2036.82
946.575	2064.39
946.881	2044.06
947.187	2047.9
947.493	2017.39
947.799	2035.02
948.105	2034.79
948.41	2007.9
948.716	2002.93
949.022	2005.19
949.327	2008.35
949.633	1971.52
949.938	1977.62
950.244	1968.35
950.549	1945.3
950.854	1953.21
951.16	1959.99
951.465	1945.98
951.77	1913.21
952.075	1904.17
952.38	1903.04
952.685	1896.49
952.99	1916.38
953.294	1870.95
953.599	1907.11
953.904	1856.26
954.209	1892.2
954.513	1872.31
954.818	1865.53
955.122	1870.5
955.426	1863.27
955.731	1862.59
956.035	1839.32
956.339	1844.06
956.643	1821.69
956.948	1817.4
957.252	1809.49
957.556	1793.22
957.86	1782.14
958.163	1766.32
958.467	1788.92
958.771	1771.75
959.075	1781.92
959.378	1787.79
959.682	1756.61
959.985	1764.29
960.289	1724.29
960.592	1728.13
960.896	1699.21
961.199	1711.86
961.502	1703.05
961.805	1694.24
962.108	1700.11
962.411	1670.51
962.714	1690.17
963.017	1693.11
963.32	1681.81
963.623	1649.26
963.926	1696.27
964.228	1647.68
964.531	1644.52
964.833	1653.78
965.136	1642.94
965.438	1608.81
965.741	1620.79
966.043	1635.25
966.345	1628.47
966.648	1590.74
966.95	1600
967.252	1578.08
967.554	1619.66
967.856	1588.7
968.158	1546.67
968.46	1563.62
968.761	1555.93
969.063	1548.7
969.365	1535.14
969.666	1543.96
969.968	1555.48
970.269	1521.36
970.571	1542.37
970.872	1516.39
971.174	1515.48
971.475	1526.56
971.776	1488.82
972.077	1487.69
972.378	1484.07
972.679	1492.21
972.98	1461.7
973.281	1484.3
973.582	1479.55
973.883	1488.82
974.183	1459.21
974.484	1444.75
974.785	1453.11
975.085	1450.63
975.386	1438.2
975.686	1398.88
975.986	1432.55
976.287	1422.83
976.587	1439.78
976.887	1394.81
977.187	1398.88
977.487	1380.35
977.787	1406.79
978.087	1396.39
978.387	1383.73
978.687	1392.55
978.987	1370.18
979.286	1372.21
979.586	1358.65
979.885	1360.01
980.185	1356.62
980.484	1362.04
980.784	1324.3
981.083	1338.09
981.382	1323.17
981.682	1321.82
981.981	1319.78
982.28	1308.71
982.579	1328.14
982.878	1320.46
983.177	1279.1
983.475	1298.54
983.774	1307.35
984.073	1291.76
984.372	1247.47
984.67	1289.5
984.969	1271.42
985.267	1270.97
985.566	1277.52
985.864	1251.08
986.162	1238.2
986.461	1237.07
986.759	1241.14
987.057	1218.09
987.355	1202.04
987.653	1241.82
987.951	1215.6
988.249	1229.39
988.547	1211.31
988.844	1215.15
989.142	1223.29
989.44	1186.45
989.737	1181.93
990.035	1174.25
990.332	1191.2
990.63	1175.83
990.927	1192.55
991.224	1173.34
991.521	1173.57
991.819	1174.47
992.116	1179.22
992.413	1131.99
992.71	1158.43
993.006	1153.46
993.303	1153.23
993.6	1128.15
993.897	1118.21
994.193	1117.3
994.49	1112.78
994.787	1092.44
995.083	1120.46
995.379	1108.49
995.676	1120.92
995.972	1091.31
996.268	1082.05
996.565	1085.21
996.861	1073.46
997.157	1084.31
997.453	1068.94
997.749	1060.81
998.044	1076.85
998.34	1084.53
998.636	1057.42
998.932	1056.06
999.227	1055.83
999.523	1027.59
999.818	1049.28
1000.114	1025.78
1000.409	1032.56
1000.704	1005.67
1001	1028.49
1001.295	1042.95
1001.59	1012.22
1001.885	1002.5
1002.18	1003.63
1002.475	990.75
1002.77	988.94
1003.065	984.65
1003.359	977.64
1003.654	1002.28
1003.949	1013.58
1004.243	960.7
1004.538	971.32
1004.832	984.88
1005.127	961.82
1005.421	946.23
1005.715	932.45
1006.009	964.76
1006.304	942.16
1006.598	944.65
1006.892	951.66
1007.186	931.54
1007.48	929.96
1007.773	892
1008.067	912.56
1008.361	910.75
1008.655	919.57
1008.948	901.71
1009.242	901.04
1009.535	902.39
1009.829	897.87
1010.122	893.13
1010.415	877.08
1010.708	900.36
1011.001	864.65
1011.295	893.13
1011.588	854.71
1011.881	854.26
1012.173	844.99
1012.466	858.78
1012.759	844.54
1013.052	840.47
1013.344	850.42
1013.637	837.08
1013.93	841.15
1014.222	844.09
1014.514	808.83
1014.807	817.2
1015.099	834.6
1015.391	827.37
1015.683	814.94
1015.976	792.56
1016.268	796.86
1016.56	776.07
1016.851	802.96
1017.143	809.06
1017.435	782.62
1017.727	801.83
1018.018	771.77
1018.31	790.76
1018.602	780.13
1018.893	776.75
1019.185	764.77
1019.476	740.59
1019.767	755.73
1020.058	782.39
1020.35	753.02
1020.641	728.38
1020.932	724.54
1021.223	738.78
1021.514	717.09
1021.804	737.88
1022.095	717.54
1022.386	730.19
1022.677	726.35
1022.967	725.67
1023.258	718.89
1023.548	716.63
1023.839	715.96
1024.129	720.48
1024.419	686.13
1024.709	678.22
1025	689.06
1025.29	689.52
1025.58	690.65
1025.87	672.57
1026.16	681.61
1026.449	692.23
1026.739	663.98
1027.029	671.66
1027.319	674.15
1027.608	660.36
1027.898	671.44
1028.187	659.46
1028.477	656.52
1028.766	674.6
1029.055	666.69
1029.344	642.06
1029.634	652.45
1029.923	650.87
1030.212	635.51
1030.501	621.95
1030.79	629.63
1031.078	630.99
1031.367	627.82
1031.656	652.68
1031.945	614.72
1032.233	623.75
1032.522	623.3
1032.81	617.88
1033.099	613.13
1033.387	624.43
1033.675	596.86
1033.963	597.31
1034.251	609.29
1034.54	602.51
1034.828	594.83
1035.116	602.29
1035.403	593.7
1035.691	571.55
1035.979	582.4
1036.267	599.57
1036.554	574.94
1036.842	594.83
1037.129	590.54
1037.417	577.88
1037.704	570.65
1037.992	575.17
1038.279	563.42
1038.566	542.63
1038.853	542.63
1039.14	542.63
