Data from blue_clamp_base_FLMS001491_00074.txt Node
Date: Wed Feb 08 15:16:29 GMT 2017
User: dcchb
Spectrometer: FLMS00149
Trigger mode: 0
Integration Time (sec): 2.000000E-2
Scans to average: 10
Electric dark correction enabled: true
Nonlinearity correction enabled: false
Boxcar width: 0
XAxis mode: Wavelengths
Number of Pixels in Spectrum: 2048
>>>>>Begin Spectral Data<<<<<
341.393	0.04
341.776	0.04
342.16	0.04
342.543	-51.48
342.927	-59.62
343.31	-61.65
343.693	-51.93
344.077	-61.88
344.46	-65.04
344.843	-57.58
345.226	-47.64
345.61	-21.2
345.993	-9.22
346.376	-13.74
346.759	11.79
347.142	1.4
347.525	22.64
347.908	56.54
348.291	86.14
348.674	109.19
349.057	102.19
349.44	124.33
349.823	148.97
350.206	159.13
350.588	208.85
350.971	211.11
351.354	228.96
351.737	237.78
352.119	241.39
352.502	254.5
352.884	257.44
353.267	298.11
353.65	305.8
354.032	284.33
354.414	320.03
354.797	325.46
355.179	328.62
355.562	330.66
355.944	308.06
356.326	333.59
356.709	318.9
357.091	342.41
357.473	337.21
357.855	339.24
358.238	331.33
358.62	341.73
359.002	343.99
359.384	343.31
359.766	351.45
360.148	335.4
360.53	341.73
360.912	337.89
361.294	323.88
361.676	332.01
362.057	331.56
362.439	346.93
362.821	322.97
363.203	311.22
363.584	341.28
363.966	326.14
364.348	333.82
364.729	328.62
365.111	339.02
365.493	341.28
365.874	327.72
366.256	317.32
366.637	336.53
367.019	313.71
367.4	312.58
367.781	323.88
368.163	340.6
368.544	322.75
368.925	323.88
369.306	332.69
369.688	326.59
370.069	327.49
370.45	310.99
370.831	330.88
371.212	315.97
371.593	317.77
371.974	328.85
372.355	312.8
372.736	327.72
373.117	313.25
373.498	337.43
373.879	334.27
374.26	328.17
374.641	332.24
375.021	357.32
375.402	325.01
375.783	354.61
376.163	350.32
376.544	350.99
376.925	360.94
377.305	331.33
377.686	353.71
378.066	355.97
378.447	337.66
378.827	349.41
379.208	341.95
379.588	337.89
379.968	325.46
380.349	350.09
380.729	372.91
381.109	369.3
381.489	343.76
381.87	374.95
382.25	347.38
382.63	371.56
383.01	348.73
383.39	357.1
383.77	375.63
384.15	376.76
384.53	364.1
384.91	375.4
385.29	379.69
385.67	377.43
386.049	389.18
386.429	385.57
386.809	398.22
387.189	393.03
387.568	403.2
387.948	398.45
388.328	380.6
388.707	403.65
389.087	391.67
389.466	398.68
389.846	419.92
390.225	426.47
390.605	432.35
390.984	425.12
391.363	425.34
391.743	428.28
392.122	432.57
392.501	424.44
392.881	443.19
393.26	447.26
393.639	450.43
394.018	473.02
394.397	450.88
394.776	452.01
395.155	453.36
395.534	468.05
395.913	456.08
396.292	463.08
396.671	484.78
397.05	484.55
397.429	475.06
397.808	486.81
398.186	480.93
398.565	484.1
398.944	492.01
399.323	507.83
399.701	498.33
400.08	503.98
400.458	521.84
400.837	526.13
401.215	514.83
401.594	533.14
401.972	548.95
402.351	512.12
402.729	522.97
403.107	548.95
403.486	561.16
403.864	532.91
404.242	581.27
404.62	575.62
404.999	577.2
405.377	595.28
405.755	598.22
406.133	606.35
406.511	594.38
406.889	618.33
407.267	627.6
407.645	622.17
408.023	652
408.401	665.56
408.779	665.34
409.156	670.99
409.534	666.69
409.912	657.2
410.29	657.43
410.667	693.36
411.045	700.81
411.422	706.92
411.8	705.33
412.178	743.07
412.555	735.16
412.933	745.79
413.31	741.72
413.687	753.92
414.065	750.76
414.442	750.53
414.819	752.56
415.197	784.88
415.574	784.2
415.951	811.55
416.328	813.35
416.705	798.21
417.082	831.88
417.46	805.44
417.837	836.86
418.214	859.68
418.591	858.78
418.967	856.52
419.344	850.87
419.721	880.25
420.098	884.31
420.475	892.45
420.852	907.82
421.228	918.66
421.605	929.74
421.982	925.89
422.358	935.61
422.735	938.55
423.111	944.2
423.488	952.11
423.864	971.09
424.241	965.21
424.617	982.16
424.994	996.17
425.37	1011.54
425.746	1028.49
426.123	1013.12
426.499	1037.08
426.875	1036.85
427.251	1062.39
427.627	1084.53
428.003	1087.25
428.379	1081.82
428.756	1143.06
429.132	1143.06
429.507	1150.75
429.883	1182.16
430.259	1176.51
430.635	1158.66
431.011	1221.93
431.387	1234.13
431.763	1243.17
432.138	1233.46
432.514	1267.13
432.89	1277.97
433.265	1343.96
433.641	1317.75
434.016	1318.2
434.392	1334.02
434.767	1399.1
435.143	1364.3
435.518	1395.71
435.894	1428.71
436.269	1400.46
436.644	1443.17
437.02	1441.13
437.395	1470.51
437.77	1511.19
438.145	1517.52
438.52	1511.42
438.895	1522.04
439.271	1566.1
439.646	1551.87
440.021	1598.19
440.395	1604.75
440.77	1600.45
441.145	1598.64
441.52	1640
441.895	1636.16
442.27	1664.18
442.645	1673.22
443.019	1690.85
443.394	1684.52
443.769	1710.51
444.143	1689.26
444.518	1748.24
444.892	1734.69
445.267	1792.76
445.641	1783.05
446.016	1793.67
446.39	1803.38
446.764	1819.43
447.139	1801.58
447.513	1853.78
447.887	1830.28
448.262	1851.97
448.636	1860.56
449.01	1900.78
449.384	1916.83
449.758	1912.76
450.132	1944.85
450.506	1961.12
450.88	1985.75
451.254	1969.71
451.628	2006.32
452.002	2029.14
452.376	2036.82
452.75	2089.93
453.123	2073.43
453.497	2096.26
453.871	2110.27
454.244	2143.49
454.618	2170.15
454.992	2197.72
455.365	2207.67
455.739	2253.32
456.112	2297.38
456.486	2237.95
456.859	2327.21
457.232	2332.64
457.606	2336.03
457.979	2392.07
458.352	2436.81
458.725	2431.16
459.099	2439.98
459.472	2493.54
459.845	2536.02
460.218	2572.63
460.591	2565.62
460.964	2577.6
461.337	2634.55
461.71	2694.43
462.083	2689.69
462.456	2676.58
462.829	2710.25
463.201	2755
463.574	2755.68
463.947	2828.44
464.32	2872.51
464.692	2900.76
465.065	2887.88
465.438	2959.51
465.81	3006.97
466.183	3009
466.555	3065.5
466.928	3024.37
467.3	3051.71
467.672	3111.6
468.045	3175.55
468.417	3173.52
468.789	3211.94
469.161	3264.14
469.534	3293.52
469.906	3306.17
470.278	3379.84
470.65	3408.31
471.022	3469.78
471.394	3522.89
471.766	3537.12
472.138	3592.94
472.51	3647.4
472.882	3648.76
473.253	3727.18
473.625	3745.71
473.997	3842.65
474.369	3826.38
474.74	3888.98
475.112	3949.54
475.484	3992.93
475.855	4055.98
476.227	4086.94
476.598	4175.98
476.97	4231.8
477.341	4267.05
477.713	4317.89
478.084	4384.33
478.455	4441.06
478.827	4484.44
479.198	4575.29
479.569	4561.5
479.94	4656.64
480.311	4741.84
480.682	4811.89
481.053	4834.72
481.424	4966.24
481.795	4986.8
482.166	5044.88
482.537	5115.16
482.908	5174.14
483.279	5229.51
483.65	5274.71
484.021	5320.35
484.391	5367.13
484.762	5458.88
485.133	5453.46
485.503	5561.7
485.874	5622.49
486.244	5651.19
486.615	5710.17
486.985	5774.58
487.356	5843.28
487.726	5896.61
488.097	5995.82
488.467	6015.48
488.837	6041.92
489.207	6143.61
489.578	6251.4
489.948	6186.55
490.318	6295.47
490.688	6299.31
491.058	6373.43
491.428	6438.52
491.798	6499.31
492.168	6550.15
492.538	6578.63
492.908	6654.1
493.278	6702.01
493.648	6681.67
494.017	6704.5
494.387	6769.36
494.757	6840.77
495.126	6840.31
495.496	6844.61
495.866	6892.29
496.235	6951.5
496.605	7022.68
496.974	7011.16
497.344	7039.86
497.713	7057.94
498.082	7043.47
498.452	7084.15
498.821	7175.9
499.19	7139.06
499.559	7154.43
499.928	7179.74
500.298	7229.68
500.667	7237.82
501.036	7262.9
501.405	7297.93
501.774	7285.73
502.143	7373.18
502.512	7384.71
502.88	7403.69
503.249	7428.77
503.618	7442.78
503.987	7426.29
504.356	7468.32
504.724	7504.03
505.093	7532.5
505.462	7516
505.83	7599.39
506.199	7567.08
506.567	7678.94
506.936	7603.01
507.304	7676.9
507.672	7731.59
508.041	7738.37
508.409	7756
508.777	7770.91
509.145	7833.51
509.514	7888.2
509.882	7895.88
510.25	7903.11
510.618	7865.6
510.986	7936.1
511.354	8001.64
511.722	8124.8
512.09	8154.4
512.458	8063.79
512.826	8169.09
513.193	8194.18
513.561	8118.47
513.929	8198.24
514.297	8270.33
514.664	8262.65
515.032	8336.09
515.4	8282.76
515.767	8329.99
516.135	8414.51
516.502	8349.65
516.869	8445.47
517.237	8403.66
517.604	8445.7
517.972	8493.6
518.339	8525.02
518.706	8537.67
519.073	8519.59
519.44	8574.28
519.808	8696.99
520.175	8593.26
520.542	8705.12
520.909	8713.94
521.276	8730.66
521.643	8847.72
522.009	8853.37
522.376	8922.52
522.743	8843.2
523.11	8922.75
523.477	9003.42
523.843	9035.29
524.21	9145.79
524.577	9234.15
524.943	9194.6
525.31	9228.73
525.676	9311.66
526.043	9304.88
526.409	9346.46
526.776	9410.19
527.142	9460.36
527.508	9528.38
527.874	9562.95
528.241	9579
528.607	9589.17
528.973	9643.86
529.339	9604.76
529.705	9785.32
530.071	9821.03
530.437	9826.45
530.803	9807.69
531.169	9824.19
531.535	9900.35
531.901	9903.06
532.267	9946.67
532.632	9977.86
532.998	9964.3
533.364	10047.91
533.73	10067.8
534.095	10170.17
534.461	10209.27
534.826	10250.62
535.192	10253.33
535.557	10315.93
535.923	10312.99
536.288	10299.21
536.653	10410.39
537.019	10378.53
537.384	10425.53
537.749	10446.77
538.114	10501.01
538.479	10525.64
538.845	10588.92
539.21	10514.57
539.575	10555.92
539.94	10542.59
540.305	10635.69
540.67	10634.11
541.034	10675.69
541.399	10709.82
541.764	10717.05
542.129	10722.7
542.494	10730.61
542.858	10818.97
543.223	10802.92
543.587	10866.2
543.952	10916.82
544.316	10945.52
544.681	10889.25
545.045	10994.1
545.41	11060.32
545.774	11021.45
546.138	11076.36
546.503	11085.17
546.867	11089.24
547.231	11178.05
547.595	11178.51
547.959	11238.39
548.324	11193.42
548.688	11260.31
549.052	11237.04
549.416	11239.07
549.779	11325.62
550.143	11335.79
550.507	11398.16
550.871	11420.08
551.235	11477.48
551.599	11520.19
551.962	11582.79
552.326	11512.73
552.689	11595.67
553.053	11526.97
553.417	11587.53
553.78	11723.35
554.143	11673.41
554.507	11715.44
554.87	11788.21
555.234	11921.08
555.597	11779.39
555.96	11828.88
556.323	11863.23
556.686	11782.33
557.05	11930.58
557.413	11963.12
557.776	12011.7
558.139	12030.69
558.502	12026.84
558.865	12177.35
559.228	12187.97
559.59	12169.21
559.953	12185.03
560.316	12383.45
560.679	12274.52
561.041	12360.17
561.404	12453.27
561.767	12490.34
562.129	12439.94
562.492	12588.19
562.854	12493.95
563.217	12589.99
563.579	12690.56
563.941	12708.41
564.304	12748.18
564.666	12798.12
565.028	12863.43
565.39	12879.25
565.753	13013.71
566.115	12930.1
566.477	13056.42
566.839	13078.34
567.201	13142.75
567.563	13084.44
567.925	13244.44
568.287	13240.15
568.648	13286.02
569.01	13320.6
569.372	13428.62
569.734	13384.32
570.095	13566.92
570.457	13517.65
570.819	13527.82
571.18	13582.06
571.542	13638.78
571.903	13626.12
572.265	13658.44
572.626	13749.29
572.987	13813.92
573.349	13856.4
573.71	13870.86
574.071	13916.29
574.432	14021.37
574.794	14120.35
575.155	14089.84
575.516	14003.29
575.877	14157.18
576.238	14180.23
576.599	14201.25
576.96	14251.65
577.32	14289.84
577.681	14355.6
578.042	14281.7
578.403	14358.53
578.763	14319.89
579.124	14290.97
579.485	14455.26
579.845	14530.96
580.206	14478.76
580.566	14463.16
580.927	14597.4
581.287	14564.18
581.648	14572.31
582.008	14647.11
582.368	14510.4
582.728	14678.98
583.089	14665.87
583.449	14648.24
583.809	14680.56
584.169	14619.77
584.529	14651.41
584.889	14778.86
585.249	14709.49
585.609	14706.77
585.969	14727.11
586.329	14747.68
586.688	14727.34
587.048	14775.93
587.408	14775.25
587.768	14753.55
588.127	14693.67
588.487	14724.4
588.846	14963.26
589.206	14840.33
589.565	14825.19
589.925	14881.91
590.284	14903.15
590.643	14835.36
591.003	15049.82
591.362	14995.81
591.721	14955.36
592.08	14941.12
592.44	14962.81
592.799	15000.55
593.158	14932.31
593.517	14986.99
593.876	15067.89
594.235	15041.68
594.593	15002.36
594.952	14952.87
595.311	14959.65
595.67	15112.87
596.029	15172.98
596.387	15196.25
596.746	15164.84
597.104	15077.39
597.463	15083.94
597.822	15137.72
598.18	15113.32
598.538	14997.39
598.897	15128.46
599.255	14988.57
599.613	15215.69
599.972	15119.42
600.33	15237.61
600.688	15191.51
601.046	15230.15
601.404	15272.18
601.762	15176.59
602.12	15263.82
602.478	15297.27
602.836	15308.34
603.194	15294.78
603.552	15242.35
603.91	15276.02
604.268	15357.15
604.625	15254.33
604.983	15365.74
605.341	15304.72
605.698	15393.99
606.056	15353.09
606.413	15400.54
606.771	15457.49
607.128	15449.13
607.485	15459.07
607.843	15345.63
608.2	15406.64
608.557	15517.6
608.914	15507.43
609.272	15547.43
609.629	15499.3
609.986	15670.36
610.343	15547.43
610.7	15668.56
611.057	15482.8
611.414	15663.13
611.771	15635.11
612.127	15623.13
612.484	15709.69
612.841	15708.78
613.198	15766.41
613.554	15795.33
613.911	15831.04
614.267	15781.77
614.624	15810.93
614.98	15737.71
615.337	15899.06
615.693	15823.13
616.05	15861.32
616.406	15911.26
616.762	15889.79
617.118	15893.64
617.475	15938.38
617.831	15996.68
618.187	16008.21
618.543	16012.5
618.899	16097.7
619.255	16114.42
619.611	16103.12
619.967	16139.05
620.323	16319.61
620.678	16051.6
621.034	16149.67
621.39	16077.13
621.746	16017.93
622.101	16280.29
622.457	16172.95
622.812	16084.82
623.168	16247.07
623.523	16165.04
623.879	16289.11
624.234	16195.32
624.589	16236.68
624.945	16255.66
625.3	16321.42
625.655	16310.35
626.01	16349.22
626.365	16421.31
626.72	16334.75
627.075	16476.45
627.43	16380.4
627.785	16349.67
628.14	16283
628.495	16433.06
628.85	16336.56
629.205	16384.02
629.559	16397.13
629.914	16411.81
630.269	16406.39
630.623	16380.63
630.978	16370.46
631.332	16422.89
631.687	16587.18
632.041	16525.94
632.396	16509.66
632.75	16483.68
633.104	16532.94
633.459	16432.6
633.813	16454.75
634.167	16477.8
634.521	16511.25
634.875	16514.64
635.229	16471.7
635.583	16452.49
635.937	16504.47
636.291	16603.67
636.645	16590.79
636.999	16440.51
637.352	16489.78
637.706	16506.5
638.06	16597.8
638.413	16586.95
638.767	16520.51
639.121	16620.4
639.474	16483.22
639.828	16602.09
640.181	16605.26
640.534	16630.11
640.888	16572.04
641.241	16454.07
641.594	16609.78
641.947	16665.37
642.301	16570
642.654	16675.08
643.007	16641.64
643.36	16695.65
643.713	16660.62
644.066	16802.31
644.419	16686.61
644.771	16652.49
645.124	16408.2
645.477	16343.34
645.83	16303.79
646.182	16289.78
646.535	16279.84
646.888	16445.71
647.24	16379.05
647.593	16456.33
647.945	16380.85
648.298	16381.53
648.65	16296.34
649.002	16346.96
649.355	16339.05
649.707	16377.24
650.059	16473.06
650.411	16646.61
650.763	16661.98
651.115	16908.98
651.467	16883.21
651.819	16825.14
652.171	16868.3
652.523	16874.17
652.875	16919.37
653.227	16789.43
653.578	17021.29
653.93	16978.13
654.282	16859.94
654.633	16902.65
654.985	16945.36
655.337	16966.6
655.688	17042.08
656.039	17042.08
656.391	16925.7
656.742	16924.8
657.094	16984
657.445	17120.04
657.796	17081.18
658.147	17114.39
658.498	16994.85
658.849	17072.81
659.2	17038.92
659.551	16980.39
659.902	17086.6
660.253	17100.16
660.604	17028.97
660.955	17009.09
661.306	17084.11
661.656	17055.87
662.007	17060.38
662.358	17156.88
662.708	17116.65
663.059	17186.94
663.409	17037.11
663.76	17167.5
664.11	17102.19
664.461	17170.89
664.811	17115.75
665.161	17101.97
665.511	17102.42
665.862	17129.76
666.212	17217.67
666.562	17124.34
666.912	17075.3
667.262	17038.69
667.612	17109.42
667.962	17174.51
668.312	17099.93
668.662	17128.41
669.011	17088.18
669.361	17010.44
669.711	16993.27
670.06	16971.35
670.41	16915.08
670.76	16941.97
671.109	16932.93
671.459	16998.24
671.808	16862.65
672.157	16991.23
672.507	16761.41
672.856	16794.4
673.205	16855.87
673.554	16931.57
673.904	16670.34
674.253	16884.8
674.602	16713.5
674.951	16501.3
675.3	16298.82
675.649	16594.63
675.998	16628.98
676.346	16566.39
676.695	16637.8
677.044	16507.63
677.393	16517.12
677.741	16605.03
678.09	16550.57
678.438	16486.61
678.787	16415.43
679.135	16417.24
679.484	16337.47
679.832	16473.73
680.181	16370.23
680.529	16272.16
680.877	16276
681.225	16160.3
681.573	16313.51
681.922	16182.67
682.27	16080.75
682.618	16167.75
682.966	16191.93
683.314	16122.56
683.661	15946.06
684.009	16005.95
684.357	15909
684.705	15906.29
685.053	15908.78
685.4	15907.65
685.748	15797.14
686.095	15885.95
686.443	15744.04
686.79	15775.9
687.138	15780.87
687.485	15788.55
687.832	15722.57
688.18	15704.71
688.527	15609.35
688.874	15617.94
689.221	15455.68
689.568	15537.94
689.915	15563.47
690.262	15518.5
690.609	15477.38
690.956	15399.64
691.303	15429.92
691.65	15448.9
691.997	15420.88
692.344	15343.37
692.69	15343.37
693.037	15326.19
693.383	15242.35
693.73	15296.59
694.077	15195.12
694.423	15201
694.769	15153.32
695.116	15187.67
695.462	15182.92
695.808	15108.57
696.155	15099.53
696.501	15065.18
696.847	14933.89
697.193	14943.38
697.539	15014.11
697.885	14901.8
698.231	14860.67
698.577	14926.88
698.923	14812.31
699.269	14782.93
699.614	14745.87
699.96	14772.76
700.306	14754.68
700.651	14802.14
700.997	14701.35
701.342	14691.86
701.688	14654.12
702.033	14645.31
702.379	14628.81
702.724	14635.36
703.069	14686.66
703.415	14550.62
703.76	14599.43
704.105	14558.98
704.45	14544.52
704.795	14540
705.14	14466.1
705.485	14429.49
705.83	14402.38
706.175	14419.55
706.52	14343.62
706.865	14333.68
707.209	14337.07
707.554	14239.44
707.899	14322.15
708.243	14277.86
708.588	14265.43
708.932	14153.34
709.277	14176.17
709.621	14250.52
709.966	14127.81
710.31	14241.25
710.654	14100.24
710.998	14154.25
711.342	14105.66
711.687	14095.26
712.031	14060.92
712.375	14045.1
712.719	14105.21
713.063	14054.14
713.407	14114.7
713.75	14063.4
714.094	14093.68
714.438	14055.72
714.782	14107.02
715.125	13989.51
715.469	13990.41
715.812	13965.32
716.156	13891.43
716.499	13975.49
716.843	13944.08
717.186	13914.25
717.53	13966
717.873	13938.21
718.216	13951.09
718.559	13898.21
718.902	13751.09
719.246	13877.19
719.589	13852.11
719.932	13730.75
720.275	13814.37
720.617	13844.65
720.96	13792.67
721.303	13832.22
721.646	13809.62
721.989	13721.49
722.331	13773.01
722.674	13716.07
723.016	13692.56
723.359	13743.64
723.701	13702.73
724.044	13717.65
724.386	13666.12
724.729	13713.81
725.071	13640.81
725.413	13679.23
725.755	13731.43
726.097	13658.89
726.439	13590.65
726.782	13613.92
727.124	13673.81
727.465	13566.24
727.807	13639.01
728.149	13566.92
728.491	13635.84
728.833	13668.61
729.175	13622.96
729.516	13635.62
729.858	13619.57
730.199	13673.36
730.541	13626.8
730.882	13585.67
731.224	13663.64
731.565	13586.35
731.906	13624.32
732.248	13574.15
732.589	13665.22
732.93	13547.26
733.271	13656.18
733.612	13636.75
733.953	13662.96
734.294	13577.54
734.635	13625.45
734.976	13616.86
735.317	13596.3
735.658	13619.35
735.999	13677.42
736.339	13637.42
736.68	13630.87
737.021	13676.74
737.361	13632.9
737.702	13659.12
738.042	13745.9
738.383	13771.43
738.723	13818.66
739.063	13746.35
739.404	13784.31
739.744	13757.42
740.084	13774.37
740.424	13736.86
740.764	13830.87
741.104	13885.78
741.444	13848.27
741.784	13847.81
742.124	13922.39
742.464	13883.97
742.804	13887.81
743.143	13900.02
743.483	13996.06
743.823	13927.36
744.162	13999.9
744.502	14064.08
744.841	14052.1
745.181	14057.75
745.52	14116.73
745.86	14144.53
746.199	14226.56
746.538	14144.76
746.877	14165.77
747.216	14237.63
747.556	14221.59
747.895	14248.26
748.234	14264.3
748.573	14224.53
748.911	14339.78
749.25	14317.63
749.589	14351.76
749.928	14363.96
750.267	14464.07
750.605	14337.52
750.944	14513.56
751.283	14431.53
751.621	14452.54
751.96	14473.11
752.298	14616.16
752.636	14537.97
752.975	14451.41
753.313	14443.73
753.651	14676.49
753.989	14637.85
754.327	14582.26
754.666	14603.27
755.004	14577.29
755.342	14633.1
755.679	14623.84
756.017	14652.99
756.355	14711.75
756.693	14724.17
757.031	14778.64
757.368	14722.59
757.706	14736.38
758.044	14752.42
758.381	14782.03
758.719	14783.38
759.056	14822.48
759.394	14834.68
759.731	14787.68
760.068	14840.33
760.405	14834
760.743	14884.4
761.08	14947.22
761.417	14901.57
761.754	14874.91
762.091	14979.08
762.428	14949.25
762.765	14816.6
763.102	15017.73
763.438	14919.2
763.775	14844.4
764.112	14972.76
764.449	15003.04
764.785	14950.61
765.122	14981.8
765.458	14935.69
765.795	14901.12
766.131	14980.44
766.467	14924.4
766.804	14903.83
767.14	14867.67
767.476	14964.39
767.812	14972.98
768.148	14923.94
768.485	14947.67
768.821	14942.25
769.157	14858.41
769.492	14911.06
769.828	14922.81
770.164	14829.48
770.5	14813.89
770.836	14881.68
771.171	14878.07
771.507	14761.01
771.842	14729.37
772.178	14791.52
772.513	14825.87
772.849	14800.56
773.184	14812.08
773.519	14812.76
773.855	14829.48
774.19	14765.3
774.525	14718.53
774.86	14834.23
775.195	14852.53
775.53	14721.24
775.865	14641.01
776.2	14758.07
776.535	14603.5
776.87	14667.23
777.205	14625.65
777.539	14544.29
777.874	14611.64
778.209	14566.44
778.543	14575.7
778.878	14556.5
779.212	14576.38
779.547	14445.54
779.881	14564.41
780.215	14489.83
780.55	14544.07
780.884	14500.45
781.218	14449.83
781.552	14474.92
781.886	14418.42
782.22	14423.39
782.554	14390.17
782.888	14315.6
783.222	14314.47
783.556	14332.32
783.889	14345.65
784.223	14202.61
784.557	14238.76
784.89	14246
785.224	14147.47
785.557	14148.37
785.891	14153.12
786.224	14114.47
786.558	14100.91
786.891	14062.95
787.224	14045.55
787.557	14005.78
787.891	14048.49
788.224	14007.58
788.557	14013.01
788.89	14051.65
789.223	13981.37
789.556	13981.82
789.888	13961.94
790.221	13917.19
790.554	13866.8
790.887	13897.53
791.219	13847.14
791.552	13777.99
791.884	13850.07
792.217	13737.76
792.549	13679.68
792.882	13660.7
793.214	13657.76
793.546	13801.71
793.879	13689.63
794.211	13596.75
794.543	13617.54
794.875	13502.74
795.207	13696.41
795.539	13585.22
795.871	13631.77
796.203	13426.13
796.535	13464.1
796.867	13410.76
797.198	13418.22
797.53	13488.5
797.862	13415.96
798.193	13488.28
798.525	13373.25
798.856	13446.69
799.188	13257.55
799.519	13287.38
799.85	13194.95
800.182	13216.42
800.513	13204.67
800.844	13173.93
801.175	13239.47
801.506	13216.87
801.837	13135.29
802.168	13091.45
802.499	13109.53
802.83	12960.83
803.161	13018.68
803.491	13003.99
803.822	13013.94
804.153	13028.85
804.483	12900.27
804.814	12865.69
805.145	12861.85
805.475	12855.75
805.805	12846.71
806.136	12906.37
806.466	12827.05
806.796	12848.52
807.126	12659.6
807.457	12724.68
807.787	12709.31
808.117	12691.91
808.447	12644.68
808.777	12704.79
809.107	12676.09
809.436	12633.16
809.766	12685.58
810.096	12581.86
810.426	12526.72
810.755	12540.96
811.085	12562.2
811.414	12611.91
811.744	12432.03
812.073	12490.56
812.403	12433.84
812.732	12341.64
813.061	12428.19
813.39	12362.43
813.719	12352.94
814.049	12349.55
814.378	12344.58
814.707	12267.52
815.036	12319.72
815.365	12264.35
815.693	12155.65
816.022	12133.51
816.351	12100.52
816.68	12097.58
817.008	12155.43
817.337	12017.13
817.665	12041.08
817.994	12064.81
818.322	12065.49
818.651	11954.3
818.979	11983
819.307	11990.46
819.636	11980.74
819.964	11831.14
820.292	11935.1
820.62	11932.38
820.948	11898.49
821.276	11972.61
821.604	11950.24
821.932	11976.68
822.259	11970.8
822.587	11966.06
822.915	11862.1
823.243	11980.29
823.57	11934.87
823.898	11966.51
824.225	11946.62
824.553	11924.93
824.88	11849.22
825.207	11941.2
825.535	11952.72
825.862	11925.15
826.189	11888.09
826.516	11987.52
826.843	12040.18
827.17	12042.66
827.497	11963.34
827.824	12048.09
828.151	11980.74
828.478	12025.49
828.805	12009.9
829.131	11947.3
829.458	11970.8
829.785	11954.08
830.111	11926.73
830.438	12052.15
830.764	12029.56
831.09	12010.12
831.417	11977.81
831.743	12110.46
832.069	11971.48
832.395	11992.5
832.722	11974.19
833.048	11919.28
833.374	12008.99
833.7	11938.71
834.026	11935.77
834.351	11977.58
834.677	11976
835.003	12024.36
835.329	11996.11
835.654	11940.75
835.98	11882.44
836.306	11979.84
836.631	11932.84
836.956	11884.25
837.282	11892.39
837.607	11823.46
837.932	11826.17
838.258	11837.7
838.583	11835.89
838.908	11794.99
839.233	11764.03
839.558	11740.98
839.883	11712.95
840.208	11689.45
840.533	11734.65
840.858	11670.02
841.182	11698.49
841.507	11707.53
841.832	11705.27
842.156	11631.37
842.481	11645.39
842.805	11553.18
843.13	11567.65
843.454	11522.45
843.778	11500.53
844.103	11514.77
844.427	11496.92
844.751	11492.17
845.075	11461.21
845.399	11394.09
845.723	11368.56
846.047	11400.87
846.371	11301.44
846.695	11314.55
847.019	11162.46
847.343	11190.71
847.666	11113.42
847.99	11102.58
848.313	11058.73
848.637	11114.78
848.96	11006.76
849.284	11000.66
849.607	10860.1
849.931	10847.44
850.254	10798.4
850.577	10748.69
850.9	10677.05
851.223	10683.6
851.546	10673.43
851.869	10644.06
852.192	10569.93
852.515	10498.98
852.838	10521.12
853.161	10478.64
853.483	10400.22
853.806	10346.21
854.129	10303.27
854.451	10377.62
854.774	10314.35
855.096	10233.67
855.419	10230.28
855.741	10212.66
856.063	10112.32
856.385	10130.62
856.708	10116.16
857.03	10046.56
857.352	10064.18
857.674	10055.15
857.996	9997.07
858.318	9952.78
858.64	9962.04
858.961	9922.95
859.283	9860.35
859.605	9826.22
859.926	9896.73
860.248	9864.64
860.57	9824.19
860.891	9825.77
861.212	9765.21
861.534	9717.75
861.855	9685.44
862.176	9762.5
862.498	9678.88
862.819	9640.01
863.14	9684.08
863.461	9646.12
863.782	9619
864.103	9663.29
864.424	9581.26
864.745	9630.98
865.065	9580.58
865.386	9558.89
865.707	9537.87
866.027	9546.91
866.348	9579.68
866.668	9584.2
866.989	9497.19
867.309	9452.22
867.63	9474.37
867.95	9496.29
868.27	9324.54
868.59	9439.57
868.91	9399.8
869.23	9353.02
869.55	9339.46
869.87	9359.12
870.19	9324.77
870.51	9317.09
870.83	9363.64
871.15	9231.89
871.469	9284.09
871.789	9282.28
872.109	9246.35
872.428	9151.67
872.748	9165.45
873.067	9185.56
873.386	9195.28
873.706	9202.74
874.025	9181.72
874.344	9158.67
874.663	9231.44
874.982	9156.86
875.301	9109.18
875.62	9103.08
875.939	9083.87
876.258	9080.93
876.577	9099.69
876.896	9019.92
877.214	9020.6
877.533	9031.44
877.852	8989.18
878.17	9010.65
878.489	9018.11
878.807	8960.26
879.125	8995.96
879.444	8924.1
879.762	8882.29
880.08	8938.34
880.398	8863.76
880.716	8901.28
881.034	8859.24
881.352	8863.99
881.67	8812.24
881.988	8847.27
882.306	8840.71
882.624	8799.36
882.941	8762.98
883.259	8723.65
883.577	8705.58
883.894	8725.46
884.212	8698.34
884.529	8678.68
884.846	8661.06
885.164	8626.71
885.481	8635.07
885.798	8608.63
886.115	8488.18
886.432	8608.63
886.75	8497.22
887.067	8513.04
887.383	8461.51
887.7	8474.85
888.017	8469.42
888.334	8451.57
888.651	8398.47
888.967	8461.97
889.284	8365.7
889.6	8318.24
889.917	8277.56
890.233	8287.28
890.55	8288.86
890.866	8216.78
891.182	8293.61
891.498	8212.48
891.815	8221.97
892.131	8127.06
892.447	8156.44
892.763	8131.35
893.079	8074.63
893.395	8052.03
893.71	8039.83
894.026	8044.12
894.342	8001.87
894.657	7949.89
894.973	8050.23
895.289	7927.97
895.604	7916.67
895.92	7858.59
896.235	7830.8
896.55	7848.65
896.865	7775.21
897.181	7767.75
897.496	7816.79
897.811	7698.6
898.126	7691.59
898.441	7641.42
898.756	7665.6
899.071	7621.76
899.386	7621.99
899.7	7621.76
900.015	7527.98
900.33	7453.41
900.644	7429.23
900.959	7431.03
901.273	7454.31
901.588	7353.52
901.902	7380.87
902.216	7345.16
902.531	7293.64
902.845	7281.21
903.159	7244.6
903.473	7214.54
903.787	7183.36
904.101	7224.94
904.415	7130.93
904.729	7102.45
905.042	7105.17
905.356	7076.92
905.67	7052.96
905.984	7067.2
906.297	7017.26
906.611	6969.8
906.924	6994.43
907.237	6978.84
907.551	6983.81
907.864	6901.78
908.177	6873.99
908.491	6852.52
908.804	6788.56
909.117	6791.05
909.43	6683.03
909.743	6717.83
910.056	6736.81
910.368	6672.86
910.681	6696.14
910.994	6640.09
911.307	6579.76
911.619	6561.23
911.932	6570.72
912.244	6461.57
912.557	6512.19
912.869	6470.83
913.181	6482.58
913.494	6404.39
913.806	6378.63
914.118	6331.18
914.43	6322.14
914.742	6302.25
915.054	6272.87
915.366	6277.62
915.678	6200.33
915.99	6189.48
916.302	6198.3
916.613	6161.91
916.925	6137.73
917.236	6125.76
917.548	6100.67
917.859	6123.72
918.171	6016.61
918.482	6024.52
918.794	6014.12
919.105	5947.23
919.416	5942.71
919.727	5917.17
920.038	5871.75
920.349	5891.19
920.66	5856.61
920.971	5809.61
921.282	5795.14
921.593	5763.96
921.903	5758.54
922.214	5769.61
922.525	5703.62
922.835	5710.85
923.146	5653.91
923.456	5590.86
923.767	5615.49
924.077	5596.05
924.387	5549.5
924.697	5553.34
925.008	5518.77
925.318	5456.4
925.628	5482.61
925.938	5446
926.248	5407.36
926.558	5391.77
926.867	5360.35
927.177	5339.56
927.487	5319.68
927.796	5304.99
928.106	5300.02
928.416	5244.65
928.725	5201.26
929.034	5193.8
929.344	5239
929.653	5180.25
929.962	5196.29
930.271	5081.72
930.581	5114.03
930.89	5075.62
931.199	5032.9
931.508	5060.02
931.817	5043.98
932.125	5022.74
932.434	5000.81
932.743	4953.13
933.051	4923.53
933.36	4944.55
933.669	4884.21
933.977	4872.23
934.286	4883.76
934.594	4870.2
934.902	4811.89
935.21	4754.27
935.519	4792.01
935.827	4763.31
936.135	4748.17
936.443	4665.91
936.751	4674.5
937.059	4677.43
937.367	4692.57
937.674	4628.17
937.982	4619.13
938.29	4604.89
938.597	4582.07
938.905	4537.55
939.213	4528.74
939.52	4501.62
939.827	4536.19
940.135	4511.79
940.442	4481.05
940.749	4485.12
941.056	4439.47
941.363	4412.58
941.67	4400.15
941.977	4368.97
942.284	4352.92
942.591	4336.43
942.898	4302.08
943.205	4314.96
943.511	4278.12
943.818	4290.33
944.125	4264.79
944.431	4233.38
944.738	4229.99
945.044	4206.94
945.35	4151.8
945.657	4180.95
945.963	4115.87
946.269	4153.61
946.575	4086.71
946.881	4087.84
947.187	4061.18
947.493	4059.14
947.799	4070.44
948.105	3996.55
948.41	3990.45
948.716	4008.98
949.022	3982.76
949.327	3956.55
949.633	3927.17
949.938	3932.59
950.244	3929.88
950.549	3859.83
950.854	3878.36
951.16	3834.07
951.465	3815.76
951.77	3880.17
952.075	3828.42
952.38	3799.04
952.685	3813.5
952.99	3740.51
953.294	3764.69
953.599	3735.54
953.904	3702.32
954.209	3682.21
954.513	3730.34
954.818	3667.29
955.122	3646.05
955.426	3620.74
955.731	3596.56
956.035	3604.47
956.339	3616.22
956.643	3592.26
956.948	3569.67
957.252	3575.54
957.556	3532.6
957.86	3510.91
958.163	3530.12
958.467	3457.13
958.771	3481.31
959.075	3427.3
959.378	3448.31
959.682	3429.78
959.985	3407.41
960.289	3378.26
960.592	3346.17
960.896	3363.8
961.199	3347.07
961.502	3329.45
961.805	3302.55
962.108	3300.52
962.411	3320.41
962.714	3261.88
963.017	3218.49
963.32	3253.52
963.623	3231.6
963.926	3225.72
964.228	3154.76
964.531	3208.55
964.833	3175.33
965.136	3170.13
965.438	3158.6
965.741	3134.65
966.043	3148.66
966.345	3132.16
966.648	3077.02
966.95	3096.91
967.252	3073.41
967.554	3053.75
967.856	3067.53
968.158	2974.88
968.46	3004.48
968.761	3003.81
969.063	3001.55
969.365	2969
969.666	2976.91
969.968	2944.6
970.269	2973.98
970.571	2912.06
970.872	2910.93
971.174	2883.13
971.475	2881.55
971.776	2867.31
972.077	2863.92
972.378	2830.7
972.679	2830.93
972.98	2849.46
973.281	2814.66
973.582	2808.78
973.883	2817.14
974.183	2778.05
974.484	2739.86
974.785	2734.89
975.085	2746.64
975.386	2775.56
975.686	2739.86
975.986	2722.46
976.287	2744.6
976.587	2660.76
976.887	2659.86
977.187	2670.48
977.487	2653.31
977.787	2639.07
978.087	2599.52
978.387	2624.83
978.687	2628.9
978.987	2604.04
979.286	2576.02
979.586	2594.32
979.885	2531.28
980.185	2571.27
980.484	2527.21
980.784	2551.84
981.083	2521.33
981.382	2508
981.682	2493.31
981.981	2485.4
982.28	2466.42
982.579	2454.44
982.878	2458.96
983.177	2458.28
983.475	2459.41
983.774	2428
984.073	2401.11
984.372	2399.53
984.67	2392.75
984.969	2411.73
985.267	2391.17
985.566	2358.85
985.864	2359.3
986.162	2318.4
986.461	2351.17
986.759	2308.46
987.057	2302.58
987.355	2309.36
987.653	2290.83
987.951	2281.34
988.249	2261
988.547	2266.88
988.844	2234.11
989.142	2221
989.44	2206.76
989.737	2257.16
990.035	2199.31
990.332	2203.6
990.63	2162.92
990.927	2189.14
991.224	2185.3
991.521	2157.05
991.819	2164.28
992.116	2150.04
992.413	2131.51
992.71	2104.39
993.006	2114.34
993.303	2126.77
993.6	2090.83
993.897	2105.07
994.193	2028.92
994.49	2083.15
994.787	2084.06
995.083	1997.73
995.379	2020.55
995.676	2009.26
995.972	2014.9
996.268	2014.9
996.565	1975.58
996.861	1996.37
997.157	1970.39
997.453	1958.18
997.749	1945.98
998.044	1935.81
998.34	1963.38
998.636	1945.75
998.932	1917.51
999.227	1914.34
999.523	1889.26
999.818	1903.5
1000.114	1890.61
1000.409	1824.4
1000.704	1861.01
1001	1854
1001.295	1828.47
1001.59	1856.72
1001.885	1829.37
1002.18	1845.19
1002.475	1788.02
1002.77	1823.95
1003.065	1798.64
1003.359	1778.07
1003.654	1805.42
1003.949	1730.39
1004.243	1743.95
1004.538	1755.25
1004.832	1724.52
1005.127	1710.05
1005.421	1720
1005.715	1720.45
1006.009	1685.87
1006.304	1667.34
1006.598	1672.54
1006.892	1697.4
1007.186	1664.18
1007.48	1658.76
1007.773	1663.73
1008.067	1651.3
1008.361	1628.7
1008.655	1609.49
1008.948	1583.28
1009.242	1582.37
1009.535	1573.33
1009.829	1595.03
1010.122	1534.01
1010.415	1549.83
1010.708	1582.15
1011.001	1548.02
1011.295	1539.44
1011.588	1496.05
1011.881	1514.13
1012.173	1537.63
1012.466	1531.98
1012.759	1488.14
1013.052	1459.44
1013.344	1499.89
1013.637	1458.54
1013.93	1455.6
1014.222	1467.35
1014.514	1466.44
1014.807	1427.12
1015.099	1435.48
1015.391	1424.41
1015.683	1405.43
1015.976	1415.15
1016.268	1393.9
1016.56	1405.2
1016.851	1387.12
1017.143	1368.82
1017.435	1369.5
1017.727	1345.54
1018.018	1373.34
1018.31	1349.61
1018.602	1311.65
1018.893	1322.72
1019.185	1315.49
1019.476	1301.25
1019.767	1305.32
1020.058	1276.62
1020.35	1280.69
1020.641	1275.94
1020.932	1282.04
1021.223	1255.15
1021.514	1242.27
1021.804	1251.99
1022.095	1232.55
1022.386	1204.08
1022.677	1213.8
1022.967	1211.54
1023.258	1202.27
1023.548	1212.89
1023.839	1187.81
1024.129	1186.9
1024.419	1180.12
1024.709	1163.4
1025	1138.09
1025.29	1169.73
1025.58	1132.89
1025.87	1130.86
1026.16	1153.23
1026.449	1130.41
1026.739	1096.28
1027.029	1103.74
1027.319	1077.08
1027.608	1111.65
1027.898	1094.93
1028.187	1074.59
1028.477	1068.04
1028.766	1082.73
1029.055	1056.96
1029.344	1053.8
1029.634	1054.03
1029.923	1049.96
1030.212	1030.75
1030.501	1035.04
1030.79	1037.53
1031.078	1018.32
1031.367	999.34
1031.656	1013.35
1031.945	980.13
1032.233	974.03
1032.522	981.94
1032.81	984.65
1033.099	962.05
1033.387	976.51
1033.675	979.9
1033.963	970.41
1034.251	949.4
1034.54	959.79
1034.828	911.88
1035.116	932.9
1035.403	941.03
1035.691	923.63
1035.979	900.58
1036.267	908.72
1036.554	889.06
1036.842	905.33
1037.129	902.39
1037.417	896.97
1037.704	871.88
1037.992	881.6
1038.279	861.71
1038.566	883.18
1038.853	883.18
1039.14	883.18
