Data from blue_chair_FLMS001491_00058.txt Node
Date: Wed Feb 08 10:31:18 GMT 2017
User: dcchb
Spectrometer: FLMS00149
Trigger mode: 0
Integration Time (sec): 2.000000E-2
Scans to average: 10
Electric dark correction enabled: true
Nonlinearity correction enabled: false
Boxcar width: 0
XAxis mode: Wavelengths
Number of Pixels in Spectrum: 2048
>>>>>Begin Spectral Data<<<<<
341.393	-3.05
341.776	-3.05
342.16	-3.05
342.543	-47.57
342.927	-67.68
343.31	-71.3
343.693	-87.34
344.077	-77.17
344.46	-38.53
344.843	-47.34
345.226	-42.6
345.61	-15.71
345.993	-30.39
346.376	-9.83
346.759	17.97
347.142	29.94
347.525	45.08
347.908	44.86
348.291	76.04
348.674	91.41
349.057	114.91
349.44	144.29
349.823	136.83
350.206	137.96
350.588	174.12
350.971	196.27
351.354	198.53
351.737	211.41
352.119	228.13
352.502	248.92
352.884	262.7
353.267	256.38
353.65	261.35
354.032	269.03
354.414	296.15
354.797	293.44
355.179	305.19
355.562	316.04
355.944	307.45
356.326	292.53
356.709	303.61
357.091	291.63
357.473	327.11
357.855	327.56
358.238	338.64
358.62	323.95
359.002	322.14
359.384	306.55
359.766	306.77
360.148	327.79
360.53	317.39
360.912	323.72
361.294	314.23
361.676	314.23
362.057	310.16
362.439	286.89
362.821	320.33
363.203	303.16
363.584	315.81
363.966	297.28
364.348	290.5
364.729	314
365.111	301.12
365.493	307.22
365.874	298.41
366.256	282.82
366.637	292.76
367.019	297.73
367.4	300.44
367.781	290.05
368.163	291.86
368.544	286.21
368.925	292.31
369.306	274
369.688	306.77
370.069	287.34
370.45	294.12
370.831	294.34
371.212	285.76
371.593	300.22
371.974	316.26
372.355	269.71
372.736	265.19
373.117	306.77
373.498	289.82
373.879	285.53
374.26	299.31
374.641	282.59
375.021	290.05
375.402	294.34
375.783	276.49
376.163	301.35
376.544	265.64
376.925	311.97
377.305	283.27
377.686	294.79
378.066	302.03
378.447	292.31
378.827	298.41
379.208	296.6
379.588	287.11
379.968	308.35
380.349	295.25
380.729	298.41
381.109	321.91
381.489	315.36
381.87	302.03
382.25	304.51
382.63	305.19
383.01	323.04
383.39	315.36
383.77	285.53
384.15	310.61
384.53	298.18
384.91	304.74
385.29	305.64
385.67	313.1
386.049	311.07
386.429	302.7
386.809	307.68
387.189	317.17
387.568	306.77
387.948	329.14
388.328	319.88
388.707	337.96
389.087	320.33
389.466	308.13
389.846	307
390.225	316.26
390.605	314.23
390.984	302.03
391.363	327.79
391.743	294.12
392.122	317.84
392.501	342.25
392.881	324.4
393.26	330.95
393.639	309.48
394.018	336.6
394.397	339.77
394.776	327.79
395.155	347
395.534	324.62
395.913	310.39
396.292	328.24
396.671	334.79
397.05	331.18
397.429	353.55
397.808	343.38
398.186	334.57
398.565	349.71
398.944	316.04
399.323	330.73
399.701	349.93
400.08	354.45
400.458	335.7
400.837	343.83
401.215	342.48
401.594	333.44
401.972	337.28
402.351	353.78
402.729	347.22
403.107	343.15
403.486	352.87
403.864	363.49
404.242	360.78
404.62	356.71
404.999	372.53
405.377	363.72
405.755	393.55
406.133	349.26
406.511	369.82
406.889	377.5
407.267	361.69
407.645	393.32
408.023	379.31
408.401	386.32
408.779	378.63
409.156	387
409.534	384.74
409.912	404.4
410.29	387.9
410.667	379.09
411.045	389.71
411.422	382.25
411.8	405.3
412.178	400.78
412.555	426.54
412.933	399.2
413.31	413.44
413.687	450.27
414.065	410.5
414.442	433.55
414.819	422.25
415.197	427.67
415.574	428.12
415.951	407.56
416.328	421.12
416.705	429.48
417.082	424.06
417.46	423.38
417.837	436.71
418.214	422.02
418.591	428.8
418.967	438.97
419.344	438.52
419.721	452.08
420.098	448.24
420.475	452.53
420.852	431.06
421.228	457.95
421.605	434.68
421.982	460.21
422.358	482.59
422.735	456.15
423.111	483.49
423.488	448.69
423.864	490.27
424.241	485.98
424.617	476.48
424.994	468.58
425.37	482.36
425.746	502.47
426.123	493.43
426.499	507.67
426.875	502.47
427.251	515.58
427.627	509.93
428.003	534.34
428.379	516.71
428.756	528.23
429.132	518.97
429.507	529.82
429.883	550.61
430.259	535.24
430.635	528.46
431.011	563.26
431.387	542.92
431.763	557.16
432.138	580.44
432.514	557.39
432.89	580.89
433.265	558.97
433.641	582.92
434.016	576.37
434.392	600.55
434.767	616.37
435.143	618.63
435.518	621.34
435.894	610.04
436.269	636.48
436.644	609.81
437.02	656.82
437.395	657.5
437.77	664.28
438.145	671.28
438.52	683.26
438.895	684.61
439.271	707.21
439.646	715.35
440.021	708.34
440.395	728.91
440.77	694.56
441.145	716.48
441.52	734.1
441.895	741.79
442.27	754.22
442.645	751.05
443.019	765.52
443.394	757.16
443.769	756.03
444.143	768.23
444.518	751.28
444.892	782.01
445.267	791.05
445.641	794.67
446.016	790.15
446.39	792.63
446.764	796.7
447.139	812.07
447.513	800.09
447.887	820.66
448.262	812.75
448.636	844.61
449.01	864.95
449.384	847.32
449.758	850.71
450.132	844.38
450.506	835.35
450.88	851.16
451.254	881.45
451.628	873.31
452.002	904.27
452.376	896.59
452.75	883.03
453.123	898.17
453.497	901.33
453.871	935.91
454.244	929.13
454.618	954.66
454.992	926.19
455.365	947.88
455.739	939.75
456.112	960.31
456.486	976.81
456.859	979.97
457.232	982.01
457.606	967.32
457.979	999.41
458.352	1009.8
458.725	1018.39
459.099	1003.7
459.472	1037.6
459.845	1046.19
460.218	1025.17
460.591	1034.21
460.964	1042.8
461.337	1028.33
461.71	1067.66
462.083	1090.03
462.456	1080.31
462.829	1080.54
463.201	1096.58
463.574	1097.94
463.947	1111.27
464.32	1109.24
464.692	1147.43
465.065	1159.18
465.438	1165.96
465.81	1175.9
466.183	1211.61
466.555	1206.41
466.928	1209.35
467.3	1201.44
467.672	1211.38
468.045	1206.86
468.417	1212.28
468.789	1254.32
469.161	1247.09
469.534	1238.72
469.906	1261.77
470.278	1266.07
470.65	1269.91
471.022	1298.61
471.394	1294.09
471.766	1311.49
472.138	1330.47
472.51	1355.78
472.882	1331.15
473.253	1363.02
473.625	1371.83
473.997	1376.57
474.369	1401.88
474.74	1364.14
475.112	1420.41
475.484	1434.2
475.855	1442.11
476.227	1432.84
476.598	1500.41
476.97	1488.66
477.341	1504.48
477.713	1507.87
478.084	1516.91
478.455	1560.07
478.827	1533.41
479.198	1593.74
479.569	1579.96
479.94	1592.16
480.311	1640.3
480.682	1627.64
481.053	1684.14
481.424	1645.49
481.795	1667.87
482.166	1676.45
482.537	1693.4
482.908	1708.77
483.279	1704.7
483.65	1739.28
484.021	1774.98
484.391	1762.33
484.762	1775.43
485.133	1815.43
485.503	1767.3
485.874	1798.48
486.244	1856.34
486.615	1848.88
486.985	1831.93
487.356	1894.53
487.726	1873.74
488.097	1887.3
488.467	1869.67
488.837	1923.68
489.207	1908.31
489.578	1891.14
489.948	1939.27
490.318	1930.23
490.688	1951.02
491.058	1952.6
491.428	1963.9
491.798	1955.32
492.168	1986.05
492.538	2002.77
492.908	1981.76
493.278	2008.2
493.648	2005.71
494.017	1973.62
494.387	2005.48
494.757	1997.8
495.126	2033.73
495.496	2022.21
495.866	2009.78
496.235	2023.11
496.605	2021.53
496.974	2021.75
497.344	2034.41
497.713	2007.29
498.082	2041.64
498.452	2026.73
498.821	2029.89
499.19	2006.84
499.559	2049.78
499.928	2017.24
500.298	2031.02
500.667	2004.35
501.036	2024.01
501.405	2040.51
501.774	2011.36
502.143	2038.7
502.512	1993.05
502.88	2000.96
503.249	2004.81
503.618	2023.34
503.987	2019.49
504.356	1975.65
504.724	2008.65
505.093	1987.41
505.462	1982.66
505.83	2025.37
506.199	2012.49
506.567	1969.1
506.936	2008.87
507.304	2004.81
507.672	1986.73
508.041	2032.38
508.409	1953.96
508.777	2001.42
509.145	1962.32
509.514	1966.39
509.882	1981.08
510.25	1977.91
510.618	1978.14
510.986	1982.21
511.354	1978.14
511.722	1993.96
512.09	1981.3
512.458	1923.68
512.826	1940.85
513.193	1960.97
513.561	1948.99
513.929	1934.75
514.297	1928.2
514.664	1952.38
515.032	1929.55
515.4	1924.81
515.767	1928.42
516.135	1931.14
516.502	1866.73
516.869	1923.68
517.237	1895.88
517.604	1893.4
517.972	1892.27
518.339	1876.22
518.706	1899.5
519.073	1863.11
519.44	1866.73
519.808	1862.89
520.175	1843.91
520.542	1843.23
520.909	1854.08
521.276	1855.21
521.643	1840.74
522.009	1857.69
522.376	1811.14
522.743	1816.11
523.11	1826.51
523.477	1865.37
523.843	1800.52
524.21	1834.19
524.577	1817.47
524.943	1818.37
525.31	1840.29
525.676	1834.42
526.043	1813.4
526.409	1790.8
526.776	1815.21
527.142	1809.33
527.508	1796.9
527.874	1768.43
528.241	1817.01
528.607	1791.48
528.973	1765.94
529.339	1766.17
529.705	1784.92
530.071	1794.19
530.437	1754.19
530.803	1788.54
531.169	1758.48
531.535	1734.08
531.901	1733.85
532.267	1743.12
532.632	1743.57
532.998	1747.41
533.364	1715.77
533.73	1719.39
534.095	1750.35
534.461	1735.21
534.826	1737.47
535.192	1720.07
535.557	1748.32
535.923	1705.38
536.288	1689.79
536.653	1698.83
537.019	1692.72
537.384	1684.59
537.749	1692.72
538.114	1665.15
538.479	1671.93
538.845	1661.31
539.21	1670.8
539.575	1640.3
539.94	1649.56
540.305	1653.18
540.67	1640.97
541.034	1641.88
541.399	1647.08
541.764	1616.79
542.129	1627.64
542.494	1622.44
542.858	1607.98
543.223	1600.75
543.587	1600.75
543.952	1577.25
544.316	1626.51
544.681	1584.25
545.045	1568.21
545.41	1565.27
545.774	1552.61
546.138	1550.58
546.503	1553.29
546.867	1527.76
547.231	1571.6
547.595	1547.42
547.959	1540.64
548.324	1538.83
548.688	1517.36
549.052	1522.11
549.416	1521.43
549.779	1537.25
550.143	1510.58
550.507	1520.52
550.871	1505.61
551.235	1500.19
551.599	1499.96
551.962	1498.6
552.326	1513.07
552.689	1495.21
553.053	1462
553.417	1461.32
553.78	1482.33
554.143	1464.26
554.507	1470.36
554.87	1465.16
555.234	1460.41
555.597	1441.21
555.96	1447.76
556.323	1462.22
556.686	1457.7
557.05	1455.22
557.413	1436.46
557.776	1443.92
558.139	1431.49
558.502	1426.29
558.865	1426.74
559.228	1449.34
559.59	1418.38
559.953	1443.69
560.316	1459.96
560.679	1417.93
561.041	1436.69
561.404	1445.95
561.767	1425.61
562.129	1441.66
562.492	1426.74
562.854	1413.64
563.217	1437.36
563.579	1417.02
563.941	1438.72
564.304	1430.36
564.666	1437.82
565.028	1442.79
565.39	1414.99
565.753	1439.62
566.115	1436.91
566.477	1445.95
566.839	1436.69
567.201	1426.52
567.563	1435.56
567.925	1427.42
568.287	1441.43
568.648	1429.45
569.01	1417.02
569.372	1462
569.734	1447.53
570.095	1451.15
570.457	1456.8
570.819	1458.61
571.18	1459.96
571.542	1475.78
571.903	1450.92
572.265	1455.89
572.626	1482.33
572.987	1477.81
573.349	1488.21
573.71	1484.59
574.071	1466.97
574.432	1472.16
574.794	1502.45
575.155	1472.39
575.516	1485.95
575.877	1501.09
576.238	1517.14
576.599	1524.59
576.96	1503.12
577.32	1495.67
577.681	1538.83
578.042	1499.73
578.403	1511.03
578.763	1522.33
579.124	1485.27
579.485	1500.86
579.845	1530.69
580.206	1510.36
580.566	1533.18
580.927	1534.08
581.287	1545.38
581.648	1526.17
582.008	1518.94
582.368	1522.78
582.728	1497.93
583.089	1486.4
583.449	1535.44
583.809	1523.01
584.169	1485.5
584.529	1506.06
584.889	1515.55
585.249	1521.88
585.609	1500.64
585.969	1521.88
586.329	1523.46
586.688	1516.01
587.048	1495.89
587.408	1543.58
587.768	1529.56
588.127	1514.2
588.487	1522.78
588.846	1521.88
589.206	1513.75
589.565	1526.85
589.925	1535.89
590.284	1522.56
590.643	1540.41
591.003	1515.78
591.362	1519.85
591.721	1539.06
592.08	1536.12
592.44	1523.01
592.799	1550.35
593.158	1501.09
593.517	1547.87
593.876	1528.43
594.235	1507.87
594.593	1514.88
594.952	1511.94
595.311	1513.75
595.67	1489.11
596.029	1507.42
596.387	1521.2
596.746	1521.65
597.104	1522.56
597.463	1531.15
597.822	1534.76
598.18	1491.15
598.538	1527.08
598.897	1520.07
599.255	1508.55
599.613	1550.58
599.972	1529.34
600.33	1527.53
600.688	1501.32
601.046	1529.56
601.404	1507.64
601.762	1513.29
602.12	1522.56
602.478	1494.09
602.836	1522.78
603.194	1504.93
603.552	1529.34
603.91	1529.34
604.268	1516.46
604.625	1511.71
604.983	1532.73
605.341	1520.3
605.698	1513.07
606.056	1536.34
606.413	1534.31
606.771	1532.28
607.128	1539.51
607.485	1522.56
607.843	1514.65
608.2	1518.94
608.557	1531.15
608.914	1530.92
609.272	1536.12
609.629	1536.34
609.986	1511.94
610.343	1524.37
610.7	1539.73
611.057	1535.21
611.414	1513.07
611.771	1583.35
612.127	1524.14
612.484	1579.51
612.841	1540.41
613.198	1538.6
613.554	1531.15
613.911	1560.98
614.267	1530.69
614.624	1534.54
614.98	1565.95
615.337	1565.04
615.693	1557.81
616.05	1552.16
616.406	1580.86
616.762	1551.48
617.118	1562.33
617.475	1562.11
617.831	1563.69
618.187	1574.99
618.543	1561.2
618.899	1563.46
619.255	1556
619.611	1570.69
619.967	1577.47
620.323	1594.87
620.678	1566.4
621.034	1577.7
621.39	1521.65
621.746	1585.61
622.101	1568.43
622.457	1559.39
622.812	1556.46
623.168	1596.68
623.523	1555.78
623.879	1553.52
624.234	1570.47
624.589	1550.58
624.945	1559.85
625.3	1575.21
625.655	1587.64
626.01	1574.08
626.365	1591.71
626.72	1577.92
627.075	1573.18
627.43	1594.87
627.785	1580.86
628.14	1577.25
628.495	1579.28
628.85	1574.76
629.205	1589
629.559	1610.47
629.914	1583.35
630.269	1568.89
630.623	1600.97
630.978	1574.76
631.332	1554.65
631.687	1572.05
632.041	1572.28
632.396	1568.89
632.75	1546.51
633.104	1555.33
633.459	1560.98
633.813	1555.33
634.167	1567.53
634.521	1612.27
634.875	1579.96
635.229	1603.46
635.583	1551.26
635.937	1576.34
636.291	1574.76
636.645	1567.08
636.999	1576.79
637.352	1587.64
637.706	1554.65
638.06	1557.13
638.413	1559.62
638.767	1572.73
639.121	1546.74
639.474	1554.2
639.828	1561.2
640.181	1552.61
640.534	1557.59
640.888	1596.46
641.241	1543.58
641.594	1567.98
641.947	1564.59
642.301	1558.49
642.654	1564.37
643.007	1583.8
643.36	1525.72
643.713	1545.61
644.066	1572.95
644.419	1550.58
644.771	1565.04
645.124	1553.52
645.477	1522.33
645.83	1549.9
646.182	1512.62
646.535	1546.51
646.888	1527.98
647.24	1564.14
647.593	1542.67
647.945	1537.93
648.298	1553.97
648.65	1550.13
649.002	1528.89
649.355	1529.79
649.707	1533.63
650.059	1542.9
650.411	1560.07
650.763	1573.86
651.115	1575.66
651.467	1577.92
651.819	1573.63
652.171	1590.81
652.523	1571.82
652.875	1583.12
653.227	1568.89
653.578	1597.36
653.93	1597.36
654.282	1578.38
654.633	1563.91
654.985	1587.19
655.337	1557.13
655.688	1578.15
656.039	1576.12
656.391	1555.78
656.742	1592.16
657.094	1572.95
657.445	1593.29
657.796	1602.56
658.147	1587.64
658.498	1577.7
658.849	1607.75
659.2	1592.39
659.551	1597.81
659.902	1605.04
660.253	1570.24
660.604	1582.67
660.955	1600.52
661.306	1563.46
661.656	1575.21
662.007	1579.96
662.358	1602.1
662.708	1589.68
663.059	1570.47
663.409	1590.13
663.76	1581.99
664.11	1603.46
664.461	1576.79
664.811	1607.98
665.161	1575.89
665.511	1594.42
665.862	1591.48
666.212	1587.87
666.562	1579.28
666.912	1571.15
667.262	1614.53
667.612	1595.78
667.962	1611.6
668.312	1604.59
668.662	1598.04
669.011	1570.47
669.361	1586.96
669.711	1600.52
670.06	1572.05
670.41	1582.22
670.76	1592.61
671.109	1569.79
671.459	1592.61
671.808	1573.18
672.157	1570.24
672.507	1566.17
672.856	1559.62
673.205	1543.8
673.554	1560.3
673.904	1574.76
674.253	1585.61
674.602	1572.73
674.951	1554.65
675.3	1525.5
675.649	1567.53
675.998	1552.84
676.346	1563.24
676.695	1579.51
677.044	1569.56
677.393	1544.03
677.741	1531.37
678.09	1522.33
678.438	1550.35
678.787	1519.85
679.135	1547.87
679.484	1540.64
679.832	1535.67
680.181	1545.84
680.529	1549.68
680.877	1548.55
681.225	1518.49
681.573	1547.19
681.922	1552.16
682.27	1497.02
682.618	1538.6
682.966	1490.02
683.314	1534.54
683.661	1502.67
684.009	1506.97
684.357	1514.2
684.705	1518.94
685.053	1496.12
685.4	1500.64
685.748	1499.73
686.095	1502.67
686.443	1474.88
686.79	1501.54
687.138	1459.96
687.485	1485.95
687.832	1489.34
688.18	1471.03
688.527	1479.4
688.874	1475.33
689.221	1480.75
689.568	1467.87
689.915	1473.97
690.262	1491.37
690.609	1493.86
690.956	1456.12
691.303	1458.15
691.65	1421.54
691.997	1447.98
692.344	1466.97
692.69	1443.01
693.037	1438.95
693.383	1459.06
693.73	1429.23
694.077	1418.61
694.423	1435.78
694.769	1405.27
695.116	1448.21
695.462	1428.55
695.808	1400.75
696.155	1402.56
696.501	1399.62
696.847	1422.9
697.193	1416.57
697.539	1417.7
697.885	1401.66
698.231	1401.66
698.577	1370.47
698.923	1412.51
699.269	1386.52
699.614	1382.45
699.96	1384.48
700.306	1384.48
700.651	1382.9
700.997	1395.78
701.342	1400.3
701.688	1374.77
702.033	1384.48
702.379	1377.48
702.724	1355.56
703.069	1353.98
703.415	1366.63
703.76	1375.22
704.105	1371.6
704.45	1359.4
704.795	1364.82
705.14	1394.2
705.485	1337.7
705.83	1360.76
706.175	1347.87
706.52	1375.22
706.865	1369.12
707.209	1384.48
707.554	1355.78
707.899	1368.66
708.243	1345.39
708.588	1372.05
708.932	1369.34
709.277	1375.22
709.621	1376.12
709.966	1335.67
710.31	1352.39
710.654	1375.44
710.998	1367.99
711.342	1338.38
711.687	1352.62
712.031	1364.82
712.375	1348.55
712.719	1357.59
713.063	1378.38
713.407	1394.65
713.75	1366.4
714.094	1353.98
714.438	1356.01
714.782	1381.55
715.125	1371.6
715.469	1374.77
715.812	1354.2
716.156	1368.44
716.499	1358.27
716.843	1404.14
717.186	1378.83
717.53	1406.63
717.873	1408.89
718.216	1392.62
718.559	1371.83
718.902	1422.67
719.246	1392.17
719.589	1422.67
719.932	1415.22
720.275	1412.73
720.617	1415.44
720.96	1432.62
721.303	1418.83
721.646	1412.28
721.989	1419.28
722.331	1414.77
722.674	1433.97
723.016	1452.73
723.359	1448.21
723.701	1452.5
724.044	1434.2
724.386	1446.85
724.729	1430.81
725.071	1467.42
725.413	1446.85
725.755	1487.08
726.097	1452.96
726.439	1462.67
726.782	1457.02
727.124	1479.85
727.465	1482.56
727.807	1511.49
728.149	1488.66
728.491	1518.27
728.833	1501.99
729.175	1516.23
729.516	1551.71
729.858	1528.89
730.199	1544.25
730.541	1575.44
730.882	1559.62
731.224	1576.34
731.565	1576.79
731.906	1552.39
732.248	1604.82
732.589	1577.47
732.93	1609.34
733.271	1616.79
733.612	1597.59
733.953	1606.62
734.294	1620.41
734.635	1611.82
734.976	1639.17
735.317	1639.39
735.658	1643.46
735.999	1672.61
736.339	1678.03
736.68	1657.7
737.021	1680.29
737.361	1701.31
737.702	1725.04
738.042	1709.9
738.383	1732.27
738.723	1740.41
739.063	1760.74
739.404	1776.11
739.744	1774.76
740.084	1751.48
740.424	1821.76
740.764	1800.29
741.104	1822.89
741.444	1835.77
741.784	1868.31
742.124	1908.76
742.464	1905.37
742.804	1930.23
743.143	1920.74
743.483	1957.8
743.823	1991.02
744.162	2000.06
744.502	2039.16
744.841	2048.87
745.181	2070.79
745.52	2111.7
745.86	2119.38
746.199	2153.95
746.538	2140.17
746.877	2197.8
747.216	2208.19
747.556	2248.64
747.895	2315.31
748.234	2320.05
748.573	2383.55
748.911	2418.35
749.25	2413.16
749.589	2501.52
749.928	2497.45
750.267	2617.22
750.605	2622.87
750.944	2661.51
751.283	2696.99
751.621	2766.59
751.96	2769.53
752.298	2844.56
752.636	2870.09
752.975	2927.04
753.313	2962.07
753.651	3075.96
753.989	3122.06
754.327	3121.39
754.666	3217.88
755.004	3270.76
755.342	3359.8
755.679	3389.85
756.017	3437.76
756.355	3564.09
756.693	3586.23
757.031	3697.87
757.368	3718.66
757.706	3800.24
758.044	3881.59
758.381	3981.25
758.719	4040.23
759.056	4112.77
759.394	4190.06
759.731	4220.12
760.068	4306.67
760.405	4349.38
760.743	4484.74
761.08	4575.36
761.417	4624.62
761.754	4682.48
762.091	4774.9
762.428	4862.58
762.765	4875.01
763.102	5064.39
763.438	5100.54
763.775	5177.6
764.112	5232.97
764.449	5329.24
764.785	5423.47
765.122	5470.7
765.458	5551.61
765.795	5619.17
766.131	5677.93
766.467	5811.94
766.804	5831.6
767.14	5824.37
767.476	5972.61
767.812	6047.41
768.148	6073.17
768.485	6149.56
768.821	6226.62
769.157	6299.61
769.492	6348.42
769.828	6402.66
770.164	6456.67
770.5	6524.24
770.836	6610.56
771.171	6630.9
771.507	6693.5
771.842	6718.35
772.178	6805.58
772.513	6808.75
772.849	6916.32
773.184	6944.79
773.519	6933.72
773.855	6962.42
774.19	7016.2
774.525	7074.5
774.86	7144.33
775.195	7225.69
775.53	7190.88
775.865	7254.16
776.2	7288.06
776.535	7238.57
776.87	7314.5
777.205	7356.3
777.539	7346.36
777.874	7416.19
778.209	7436.98
778.543	7478.79
778.878	7495.51
779.212	7490.09
779.547	7537.09
779.881	7502.97
780.215	7554.49
780.55	7594.26
780.884	7630.65
781.218	7629.97
781.552	7667.03
781.886	7678.56
782.22	7620.7
782.554	7657.31
782.888	7631.1
783.222	7695.96
783.556	7646.69
783.889	7734.15
784.223	7677.2
784.557	7684.2
784.89	7774.82
785.224	7730.31
785.557	7699.35
785.891	7759.68
786.224	7738.21
786.558	7767.59
786.891	7731.66
787.224	7711.1
787.557	7691.21
787.891	7773.47
788.224	7764.88
788.557	7785.45
788.89	7794.03
789.223	7815.27
789.556	7763.52
789.888	7752.68
790.221	7783.19
790.554	7754.94
790.887	7783.41
791.219	7748.38
791.552	7722.4
791.884	7731.21
792.217	7771.43
792.549	7768.5
792.882	7758.55
793.214	7645.56
793.546	7707.48
793.879	7710.87
794.211	7731.21
794.543	7678.78
794.875	7702.28
795.207	7701.61
795.539	7730.76
795.871	7716.97
796.203	7639.23
796.535	7599.91
796.867	7660.02
797.198	7563.3
797.53	7651.21
797.862	7568.95
798.193	7612.34
798.525	7571.67
798.856	7601.04
799.188	7514.04
799.519	7599.69
799.85	7557.65
800.182	7495.51
800.513	7541.16
800.844	7486.7
801.175	7519.92
801.506	7536.64
801.837	7466.58
802.168	7446.92
802.499	7456.19
802.83	7397.21
803.161	7385.23
803.491	7439.69
803.822	7448.5
804.153	7426.13
804.483	7366.92
804.814	7367.15
805.145	7378.45
805.475	7367.15
805.805	7364.67
806.136	7371.44
806.466	7345.46
806.796	7305.46
807.126	7294.16
807.457	7286.02
807.787	7327.83
808.117	7302.29
808.447	7271.56
808.777	7251.22
809.107	7192.24
809.436	7248.74
809.766	7229.98
810.096	7227.04
810.426	7149.76
810.755	7222.97
811.085	7165.12
811.414	7118.12
811.744	7092.58
812.073	7179.36
812.403	7113.6
812.732	7012.36
813.061	7121.73
813.39	7063.43
813.719	7054.62
814.049	7120.6
814.378	7091.23
814.707	7030.89
815.036	7050.78
815.365	7011.68
815.693	6964.22
816.022	6968.07
816.351	6935.98
816.68	7004.67
817.008	6968.29
817.337	7002.19
817.665	6900.95
817.994	6951.34
818.322	6941.63
818.651	6875.64
818.979	6910.67
819.307	6937.33
819.636	6925.81
819.964	6857.33
820.292	6922.42
820.62	6884.23
820.948	6811.23
821.276	6874.06
821.604	6935.52
821.932	6902.53
822.259	6919.25
822.587	6861.18
822.915	6882.19
823.243	6914.51
823.57	6844.23
823.898	6905.69
824.225	6870.44
824.553	6900.72
824.88	6933.26
825.207	6968.97
825.535	6886.03
825.862	6950.21
826.189	6881.51
826.516	6976.65
826.843	6937.56
827.17	6988.63
827.497	6980.04
827.824	6920.83
828.151	7006.26
828.478	6944.34
828.805	6928.74
829.131	6888.75
829.458	6932.59
829.785	6848.75
830.111	6959.25
830.438	6918.35
830.764	6913.83
831.09	6941.17
831.417	6940.5
831.743	6966.94
832.069	6962.42
832.395	6855.3
832.722	6921.06
833.048	6894.39
833.374	6880.84
833.7	6887.62
834.026	6892.36
834.351	6907.73
834.677	6941.85
835.003	6933.04
835.329	6916.77
835.654	6852.14
835.98	6861.85
836.306	6908.63
836.631	6794.74
836.956	6852.14
837.282	6856.2
837.607	6826.6
837.932	6787.96
838.258	6870.67
838.583	6839.03
838.908	6773.27
839.233	6782.99
839.558	6806.26
839.883	6750.22
840.208	6757
840.533	6730.78
840.858	6704.8
841.182	6717.68
841.507	6780.95
841.832	6733.72
842.156	6687.17
842.481	6672.25
842.805	6724.91
843.13	6650.33
843.454	6649.66
843.778	6664.12
844.103	6592.93
844.427	6590.9
844.751	6609.2
845.075	6580.05
845.399	6587.28
845.723	6537.79
846.047	6526.95
846.371	6465.25
846.695	6444.24
847.019	6452.15
847.343	6392.71
847.666	6347.29
847.99	6328.08
848.313	6340.06
848.637	6256.45
848.96	6307.97
849.284	6269.33
849.607	6274.3
849.931	6258.48
850.254	6208.76
850.577	6161.53
850.9	6137.8
851.223	6114.53
851.546	6101.87
851.869	6048.77
852.192	6088.54
852.515	6034.98
852.838	5996.57
853.161	5988.66
853.483	5978.49
853.806	5951.82
854.129	5909.56
854.451	5910.01
854.774	5886.96
855.096	5866.63
855.419	5849.9
855.741	5840.19
856.063	5804.71
856.385	5829.56
856.708	5817.81
857.03	5735.56
857.352	5765.61
857.674	5736.91
857.996	5737.59
858.318	5710.25
858.64	5665.27
858.961	5653.07
859.283	5640.64
859.605	5648.55
859.926	5631.15
860.248	5624.6
860.57	5584.37
860.891	5592.96
861.212	5565.84
861.534	5539.4
861.855	5530.82
862.176	5526.07
862.498	5520.65
862.819	5562
863.14	5476.81
863.461	5453.3
863.782	5459.86
864.103	5493.98
864.424	5457.14
864.745	5458.73
865.065	5462.12
865.386	5426.86
865.707	5404.72
866.027	5400.87
866.348	5394.1
866.668	5403.13
866.989	5398.84
867.309	5373.08
867.63	5376.47
867.95	5352.29
868.27	5325.4
868.59	5355.9
868.91	5293.53
869.23	5279.75
869.55	5289.92
869.87	5255.79
870.19	5308.22
870.51	5278.39
870.83	5299.18
871.15	5283.36
871.469	5270.93
871.789	5229.35
872.109	5276.36
872.428	5253.08
872.748	5191.84
873.067	5204.5
873.386	5204.04
873.706	5198.62
874.025	5134.89
874.344	5162.46
874.663	5218.73
874.982	5210.15
875.301	5185.51
875.62	5172.86
875.939	5132.86
876.258	5135.57
876.577	5101.67
876.896	5116.36
877.214	5051.51
877.533	5053.54
877.852	5139.64
878.17	5064.61
878.489	5033.2
878.807	5046.76
879.125	5045.4
879.444	5077.04
879.762	5010.38
880.08	5039.3
880.398	4999.3
880.716	4941.68
881.034	4907.78
881.352	4960.21
881.67	4939.64
881.988	4973.54
882.306	4935.8
882.624	4937.84
882.941	4885.63
883.259	4895.8
883.577	4852.41
883.894	4844.28
884.212	4884.73
884.529	4886.76
884.846	4841.12
885.164	4839.99
885.481	4872.08
885.798	4791.85
886.115	4788.69
886.432	4773.09
886.75	4762.02
887.067	4810.38
887.383	4756.37
887.7	4767.22
888.017	4740.1
888.334	4728.12
888.651	4678.41
888.967	4690.61
889.284	4652.87
889.6	4663.72
889.917	4614.23
890.233	4620.1
890.55	4599.54
890.866	4585.3
891.182	4596.6
891.498	4560.67
891.815	4547.11
892.131	4535.81
892.447	4563.16
892.763	4513.21
893.079	4513.44
893.395	4510.95
893.71	4474.35
894.026	4492.88
894.342	4422.37
894.657	4414.01
894.973	4425.76
895.289	4390.51
895.604	4409.49
895.92	4372.88
896.235	4349.38
896.55	4372.88
896.865	4355.93
897.181	4310.06
897.496	4298.08
897.811	4290.4
898.126	4287.68
898.441	4243.39
898.756	4203.84
899.071	4196.16
899.386	4217.86
899.7	4173.79
900.015	4180.79
900.33	4084.07
900.644	4157.52
900.959	4124.75
901.273	4093.79
901.588	4101.7
901.902	4084.53
902.216	4048.82
902.531	4054.02
902.845	4049.95
903.159	4044.98
903.473	4007.92
903.787	3982.38
904.101	3979.44
904.415	3960.23
904.729	3926.11
905.042	3924.98
905.356	3917.98
905.67	3869.39
905.984	3915.04
906.297	3864.42
906.611	3810.63
906.924	3834.81
907.237	3822.16
907.551	3844.76
907.864	3759.34
908.177	3778.09
908.491	3732.9
908.804	3718.21
909.117	3669.62
909.43	3710.3
909.743	3694.48
910.056	3756.4
910.368	3622.84
910.681	3648.38
910.994	3638.21
911.307	3621.26
911.619	3590.53
911.932	3558.44
912.244	3567.02
912.557	3534.03
912.869	3574.48
913.181	3525.44
913.494	3545.1
913.806	3480.7
914.118	3460.36
914.43	3444.99
914.742	3463.75
915.054	3464.88
915.366	3452.23
915.678	3414.94
915.99	3408.61
916.302	3410.42
916.613	3368.61
916.925	3400.02
917.236	3355.5
917.548	3324.09
917.859	3355.5
918.171	3272.8
918.482	3330.42
918.794	3301.72
919.105	3292.46
919.416	3216.53
919.727	3244.77
920.038	3255.85
920.349	3249.75
920.66	3202.29
920.971	3212.01
921.282	3209.97
921.593	3153.93
921.903	3166.81
922.214	3136.53
922.525	3121.16
922.835	3133.14
923.146	3086.59
923.456	3103.76
923.767	3082.74
924.077	3079.81
924.387	3071.67
924.697	3070.77
925.008	3043.87
925.318	3025.8
925.628	3054.72
925.938	3047.26
926.248	3012.24
926.558	2984.22
926.867	2953.48
927.177	2963.2
927.487	2927.27
927.796	2932.69
928.106	2932.69
928.416	2896.99
928.725	2942.63
929.034	2899.02
929.344	2880.94
929.653	2882.3
929.962	2819.93
930.271	2874.61
930.581	2838
930.89	2844.11
931.199	2793.03
931.508	2805.46
931.817	2817.21
932.125	2812.24
932.434	2784.22
932.743	2777.89
933.051	2789.87
933.36	2740.15
933.669	2738.12
933.977	2731.34
934.286	2678.23
934.594	2703.54
934.902	2672.13
935.21	2692.25
935.519	2690.44
935.827	2672.13
936.135	2634.62
936.443	2631.46
936.751	2627.61
937.059	2647.05
937.367	2620.38
937.674	2580.38
937.982	2574.96
938.29	2584.68
938.597	2573.6
938.905	2537.45
939.213	2519.14
939.52	2538.13
939.827	2522.98
940.135	2512.59
940.442	2498.35
940.749	2491.35
941.056	2508.3
941.363	2471.01
941.67	2496.09
941.977	2476.66
942.284	2469.43
942.591	2412.48
942.898	2445.25
943.205	2430.78
943.511	2399.15
943.818	2391.46
944.125	2388.3
944.431	2379.71
944.738	2344.01
945.044	2362.76
945.35	2360.05
945.657	2346.04
945.963	2325.7
946.269	2315.98
946.575	2302.65
946.881	2317.34
947.187	2291.8
947.493	2304.46
947.799	2294.29
948.105	2275.31
948.41	2261.75
948.716	2290
949.022	2225.14
949.327	2201.86
949.633	2217.46
949.938	2212.94
950.244	2222.88
950.549	2171.13
950.854	2189.66
951.16	2177.46
951.465	2184.24
951.77	2162.77
952.075	2168.64
952.38	2111.7
952.685	2134.52
952.99	2133.84
953.294	2139.49
953.599	2092.26
953.904	2114.86
954.209	2097.01
954.513	2078.93
954.818	2046.61
955.122	2074.63
955.426	2042.55
955.731	2012.04
956.035	2049.32
956.339	2007.74
956.643	2013.85
956.948	2035.31
957.252	2029.44
957.556	1991.02
957.86	1967.97
958.163	2001.19
958.467	1955.32
958.771	1968.42
959.075	1966.16
959.378	1964.81
959.682	1972.72
959.985	1958.48
960.289	1958.93
960.592	1925.26
960.896	1932.04
961.199	1923.68
961.502	1910.35
961.805	1909.67
962.108	1906.05
962.411	1886.17
962.714	1865.6
963.017	1868.31
963.32	1873.74
963.623	1878.71
963.926	1832.61
964.228	1832.38
964.531	1836.67
964.833	1844.13
965.136	1790.12
965.438	1808.2
965.741	1785.38
966.043	1779.28
966.345	1760.52
966.648	1764.36
966.95	1781.08
967.252	1777.47
967.554	1769.56
967.856	1760.74
968.158	1730.91
968.46	1748.32
968.761	1745.38
969.063	1725.27
969.365	1727.07
969.666	1729.33
969.968	1680.07
970.269	1696.11
970.571	1679.84
970.872	1678.71
971.174	1688.88
971.475	1688.2
971.776	1659.73
972.077	1692.05
972.378	1652.27
972.679	1651.37
972.98	1639.39
973.281	1642.1
973.582	1612.05
973.883	1617.25
974.183	1606.85
974.484	1592.16
974.785	1584.03
975.085	1590.81
975.386	1596.68
975.686	1593.29
975.986	1576.79
976.287	1565.72
976.587	1545.61
976.887	1553.52
977.187	1539.51
977.487	1545.16
977.787	1537.93
978.087	1525.04
978.387	1513.07
978.687	1493.18
978.987	1532.73
979.286	1523.24
979.586	1538.15
979.885	1499.73
980.185	1490.47
980.484	1495.89
980.784	1467.42
981.083	1476.01
981.382	1462.67
981.682	1452.73
981.981	1449.34
982.28	1466.74
982.579	1438.49
982.878	1443.69
983.177	1462.22
983.475	1420.19
983.774	1451.15
984.073	1395.56
984.372	1429.23
984.67	1415.44
984.969	1412.73
985.267	1404.14
985.566	1385.16
985.864	1383.58
986.162	1355.56
986.461	1372.51
986.759	1399.4
987.057	1343.35
987.355	1349.23
987.653	1344.48
987.951	1342.9
988.249	1313.98
988.547	1334.54
988.844	1302
989.142	1333.86
989.44	1332.51
989.737	1288.44
990.035	1320.76
990.332	1264.71
990.63	1290.93
990.927	1304.71
991.224	1275.79
991.521	1273.98
991.819	1277.82
992.116	1278.05
992.413	1233.53
992.71	1263.81
993.006	1257.71
993.303	1234.2
993.6	1212.96
993.897	1212.74
994.193	1246.18
994.49	1224.71
994.787	1195.79
995.083	1212.51
995.379	1215.9
995.676	1187.2
995.972	1173.42
996.268	1198.95
996.565	1191.72
996.861	1187.2
997.157	1156.69
997.453	1182
997.749	1171.16
998.044	1167.99
998.34	1154.88
998.636	1146.07
998.932	1134.55
999.227	1150.59
999.523	1137.48
999.818	1128.67
1000.114	1115.56
1000.409	1116.47
1000.704	1108.33
1001	1114.89
1001.295	1108.78
1001.59	1106.07
1001.885	1099.29
1002.18	1063.36
1002.475	1090.25
1002.77	1073.98
1003.065	1075.11
1003.359	1059.97
1003.654	1077.15
1003.949	1080.76
1004.243	1043.25
1004.538	1040.76
1004.832	1033.08
1005.127	1043.25
1005.421	1039.86
1005.715	1024.72
1006.009	1014.55
1006.304	1005.06
1006.598	1019.75
1006.892	1023.36
1007.186	1002.8
1007.48	993.99
1007.773	972.06
1008.067	985.62
1008.361	975.45
1008.655	973.19
1008.948	965.74
1009.242	969.81
1009.535	963.93
1009.829	978.84
1010.122	962.12
1010.415	965.51
1010.708	922.8
1011.001	956.02
1011.295	936.59
1011.588	927.77
1011.881	931.84
1012.173	920.77
1012.466	935.68
1012.759	902.01
1013.052	898.85
1013.344	915.8
1013.637	920.99
1013.93	926.42
1014.222	909.92
1014.514	901.11
1014.807	888
1015.099	870.15
1015.391	879.41
1015.683	859.75
1015.976	868.79
1016.268	869.02
1016.56	821.11
1016.851	840.77
1017.143	848.68
1017.435	847.55
1017.727	839.64
1018.018	840.54
1018.31	842.58
1018.602	847.32
1018.893	836.7
1019.185	832.86
1019.476	813.2
1019.767	829.7
1020.058	803.93
1020.35	799.87
1020.641	812.97
1020.932	814.78
1021.223	795.8
1021.514	790.37
1021.804	802.13
1022.095	782.92
1022.386	798.06
1022.677	784.05
1022.967	760.32
1023.258	749.25
1023.548	752.41
1023.839	761.22
1024.129	796.93
1024.419	759.64
1024.709	750.6
1025	758.29
1025.29	743.14
1025.58	746.31
1025.87	724.61
1026.16	724.16
1026.449	704.5
1026.739	736.82
1027.029	712.18
1027.319	687.78
1027.608	715.8
1027.898	708.57
1028.187	709.47
1028.477	692.52
1028.766	692.3
1029.055	698.17
1029.344	671.96
1029.634	676.48
1029.923	674.67
1030.212	663.82
1030.501	688.91
1030.79	680.1
1031.078	664.05
1031.367	644.62
1031.656	686.65
1031.945	658.17
1032.233	660.43
1032.522	652.53
1032.81	634.67
1033.099	659.76
1033.387	646.42
1033.675	643.94
1033.963	670.83
1034.251	629.47
1034.54	619.53
1034.828	598.97
1035.116	608.68
1035.403	625.86
1035.691	632.86
1035.979	603.71
1036.267	596.48
1036.554	637.16
1036.842	624.28
1037.129	577.05
1037.417	595.8
1037.704	619.53
1037.992	592.64
1038.279	596.48
1038.566	583.83
1038.853	583.83
1039.14	583.83
