Data from blue_clamp_base_FLMS001491_00059.txt Node
Date: Wed Feb 08 15:16:13 GMT 2017
User: dcchb
Spectrometer: FLMS00149
Trigger mode: 0
Integration Time (sec): 2.000000E-2
Scans to average: 10
Electric dark correction enabled: true
Nonlinearity correction enabled: false
Boxcar width: 0
XAxis mode: Wavelengths
Number of Pixels in Spectrum: 2048
>>>>>Begin Spectral Data<<<<<
341.393	-17.23
341.776	-17.23
342.16	-17.23
342.543	-61.3
342.927	-58.81
343.31	-79.15
343.693	-81.18
344.077	-75.99
344.46	-78.7
344.843	-50.9
345.226	-45.03
345.61	-17.91
345.993	-29.89
346.376	-3.45
346.759	-0.51
347.142	22.32
347.525	61.41
347.908	55.76
348.291	84.24
348.674	95.99
349.057	142.99
349.44	116.55
349.823	146.38
350.206	164.91
350.588	188.41
350.971	204.91
351.354	242.2
351.737	240.39
352.119	261.63
352.502	258.47
352.884	255.3
353.267	286.49
353.65	295.3
354.032	283.55
354.414	307.05
354.797	311.35
355.179	328.75
355.562	328.3
355.944	345.92
356.326	339.6
356.709	339.82
357.091	303.89
357.473	329.43
357.855	345.02
358.238	357.67
358.62	326.04
359.002	335.75
359.384	351.35
359.766	351.12
360.148	327.17
360.53	333.72
360.912	345.25
361.294	314.06
361.676	346.6
362.057	330.1
362.439	340.05
362.821	307.96
363.203	334.17
363.584	348.86
363.966	330.33
364.348	311.12
364.729	307.28
365.111	334.17
365.493	324.45
365.874	314.74
366.256	312.03
366.637	311.35
367.019	299.82
367.4	308.86
367.781	326.71
368.163	318.81
368.544	306.38
368.925	326.71
369.306	317.22
369.688	312.25
370.069	298.92
370.45	307.51
370.831	306.15
371.212	307.96
371.593	301.4
371.974	292.59
372.355	298.47
372.736	328.52
373.117	299.14
373.498	311.57
373.879	308.41
374.26	321.97
374.641	320.39
375.021	324.91
375.402	291.91
375.783	302.31
376.163	342.99
376.544	344.79
376.925	339.14
377.305	342.08
377.686	306.6
378.066	349.31
378.447	360.84
378.827	331.91
379.208	318.35
379.588	330.78
379.968	327.39
380.349	332.14
380.729	320.84
381.109	347.5
381.489	340.05
381.87	335.3
382.25	362.19
382.63	324.68
383.01	336.88
383.39	342.31
383.77	352.7
384.15	362.42
384.53	338.01
384.91	341.63
385.29	346.83
385.67	342.99
386.049	354.96
386.429	341.4
386.809	342.31
387.189	367.39
387.568	342.31
387.948	368.52
388.328	390.44
388.707	382.08
389.087	349.31
389.466	387.05
389.846	402.42
390.225	380.5
390.605	397.45
390.984	388.18
391.363	392.93
391.743	395.87
392.122	388.63
392.501	394.74
392.881	406.94
393.26	421.4
393.639	426.37
394.018	415.3
394.397	407.39
394.776	396.32
395.155	429.08
395.534	411.01
395.913	417.11
396.292	425.7
396.671	432.47
397.05	428.86
397.429	449.42
397.808	453.94
398.186	444.68
398.565	456.88
398.944	449.2
399.323	447.16
399.701	453.94
400.08	446.71
400.458	460.95
400.837	469.99
401.215	496.88
401.594	483.32
401.972	485.35
402.351	490.1
402.729	503.89
403.107	516.31
403.486	528.52
403.864	498.91
404.242	509.31
404.62	537.56
404.999	521.74
405.377	538.69
405.755	547.05
406.133	562.41
406.511	544.11
406.889	563.77
407.267	557.44
407.645	577.78
408.023	563.32
408.401	594.96
408.779	592.7
409.156	601.28
409.534	596.09
409.912	620.27
410.29	615.07
410.667	632.24
411.045	641.06
411.422	643.77
411.8	635.41
412.178	652.58
412.555	686.71
412.933	696.87
413.31	688.96
413.687	678.34
414.065	719.02
414.442	697.33
414.819	713.6
415.197	711.34
415.574	740.26
415.951	716.53
416.328	740.26
416.705	741.17
417.082	739.36
417.46	770.09
417.837	770.77
418.214	778.68
418.591	785.69
418.967	773.26
419.344	803.99
419.721	819.13
420.098	790.43
420.475	816.87
420.852	820.26
421.228	832.46
421.605	838.57
421.982	826.81
422.358	894.38
422.735	867.04
423.111	873.14
423.488	896.19
423.864	879.92
424.241	885.57
424.617	915.63
424.994	915.17
425.37	954.27
425.746	924.21
426.123	933.48
426.499	950.88
426.875	976.87
427.251	994.49
427.627	991.56
428.003	1020.48
428.379	1034.94
428.756	1037.88
429.132	1038.33
429.507	1054.38
429.883	1053.48
430.259	1112.91
430.635	1110.42
431.011	1122.63
431.387	1124.66
431.763	1133.47
432.138	1163.08
432.514	1206.01
432.89	1179.57
433.265	1224.32
433.641	1178.22
434.016	1230.19
434.392	1245.79
434.767	1281.94
435.143	1294.6
435.518	1288.5
435.894	1323.3
436.269	1319.91
436.644	1342.51
437.02	1348.38
437.395	1340.7
437.77	1382.96
438.145	1384.54
438.52	1422.73
438.895	1425.44
439.271	1423.18
439.646	1455.72
440.021	1443.07
440.395	1509.73
440.77	1491.88
441.145	1507.25
441.52	1547.25
441.895	1502.5
442.27	1549.28
442.645	1557.64
443.019	1593.8
443.394	1594.7
443.769	1615.95
444.143	1589.73
444.518	1622.05
444.892	1644.87
445.267	1652.1
445.641	1694.36
446.016	1684.64
446.39	1679.45
446.764	1681.93
447.139	1711.08
447.513	1723.06
447.887	1726.45
448.262	1749.5
448.636	1765.09
449.01	1789.27
449.384	1806.45
449.758	1827.24
450.132	1843.74
450.506	1815.49
450.88	1850.74
451.254	1840.35
451.628	1864.53
452.002	1913.11
452.376	1938.42
452.75	1939.55
453.123	1955.6
453.497	1987.69
453.871	1993.56
454.244	2025.2
454.618	2076.5
454.992	2104.52
455.365	2125.31
455.739	2106.33
456.112	2168.25
456.486	2181.13
456.859	2197.4
457.232	2239.88
457.606	2252.99
457.979	2268.58
458.352	2325.08
458.725	2332.09
459.099	2329.83
459.472	2404.17
459.845	2405.08
460.218	2438.75
460.591	2452.31
460.964	2436.49
461.337	2522.82
461.71	2540.44
462.083	2548.35
462.456	2533.21
462.829	2570.95
463.201	2635.13
463.574	2653.66
463.947	2704.96
464.32	2716.71
464.692	2739.98
465.065	2756.26
465.438	2768.46
465.81	2822.92
466.183	2826.31
466.555	2853.88
466.928	2888
467.3	2900.43
467.672	2940.88
468.045	3050.94
468.417	3026.3
468.789	3050.03
469.161	3073.54
469.534	3117.6
469.906	3188.11
470.278	3202.8
470.65	3215.23
471.022	3263.36
471.394	3349.46
471.766	3342
472.138	3387.2
472.51	3471.72
472.882	3475.56
473.253	3522.34
473.625	3545.84
473.997	3624.93
474.369	3668.1
474.74	3702.9
475.112	3721.43
475.484	3750.81
475.855	3824.7
476.227	3892.95
476.598	3953.96
476.97	3962.1
477.341	4055.88
477.713	4073.06
478.084	4115.32
478.455	4182.43
478.827	4245.71
479.198	4352.6
479.569	4328.19
479.94	4474.63
480.311	4430.56
480.682	4527.51
481.053	4631.01
481.424	4741.51
481.795	4723.89
482.166	4772.02
482.537	4853.38
482.908	4866.03
483.279	4946.48
483.65	4922.3
484.021	5111
484.391	5059.47
484.762	5123.2
485.133	5130.2
485.503	5223.99
485.874	5285.91
486.244	5323.65
486.615	5397.77
486.985	5468.27
487.356	5541.49
487.726	5560.7
488.097	5613.13
488.467	5616.74
488.837	5733.58
489.207	5767.48
489.578	5782.39
489.948	5840.47
490.318	5894.03
490.688	5886.57
491.058	5956.62
491.428	6021.48
491.798	6041.14
492.168	6135.83
492.538	6156.17
492.908	6154.58
493.278	6234.13
493.648	6233.9
494.017	6320.68
494.387	6319.33
494.757	6331.75
495.126	6386.44
495.496	6381.24
495.866	6402.26
496.235	6389.15
496.605	6483.61
496.974	6453.79
497.344	6525.65
497.713	6538.75
498.082	6556.83
498.452	6588.24
498.821	6652.2
499.19	6619.43
499.559	6689.94
499.928	6669.15
500.298	6665.76
500.667	6744.62
501.036	6721.57
501.405	6785.08
501.774	6819.2
502.143	6823.04
502.512	6839.76
502.88	6882.25
503.249	6860.55
503.618	6863.94
503.987	6917.28
504.356	6897.84
504.724	6906.65
505.093	6934
505.462	6914.11
505.83	7003.6
506.199	7001.34
506.567	7023.26
506.936	7058.29
507.304	7079.31
507.672	7145.97
508.041	7087.89
508.409	7130.83
508.777	7191.17
509.145	7205.63
509.514	7177.61
509.882	7210.15
510.25	7185.97
510.618	7245.4
510.986	7276.81
511.354	7323.14
511.722	7359.52
512.09	7378.96
512.458	7357.72
512.826	7378.05
513.193	7380.99
513.561	7395.46
513.929	7456.7
514.297	7470.03
514.664	7505.51
515.032	7508.45
515.4	7531.72
515.767	7522.23
516.135	7562.91
516.502	7482.68
516.869	7618.27
517.237	7643.81
517.604	7559.74
517.972	7672.06
518.339	7688.1
518.706	7645.39
519.073	7665.5
519.44	7695.33
519.808	7751.83
520.175	7755.22
520.542	7829.12
520.909	7861.88
521.276	7789.8
521.643	7889.68
522.009	7892.17
522.376	7879.96
522.743	7947.08
523.11	7978.26
523.477	8031.6
523.843	8020.52
524.21	8114.76
524.577	8125.61
524.943	8106.17
525.31	8131.71
525.676	8192.95
526.043	8230.69
526.409	8237.92
526.776	8295.09
527.142	8302.32
527.508	8360.85
527.874	8391.81
528.241	8459.61
528.607	8395.65
528.973	8456.44
529.339	8510.68
529.705	8518.14
530.071	8596.33
530.437	8536.44
530.803	8558.36
531.169	8658.02
531.535	8643.11
531.901	8644.91
532.267	8660.51
532.632	8738.24
532.998	8711.35
533.364	8750.67
533.73	8795.64
534.095	8823.89
534.461	8848.98
534.826	8864.34
535.192	8885.81
535.557	8988.63
535.923	8907.28
536.288	8983.66
536.653	9012.14
537.019	9022.53
537.384	9078.57
537.749	9084
538.114	9068.41
538.479	9089.87
538.845	9092.59
539.21	9117.22
539.575	9135.07
539.94	9186.37
540.305	9160.15
540.67	9204.9
541.034	9165.35
541.399	9200.83
541.764	9292.81
542.129	9318.12
542.494	9307.04
542.858	9296.42
543.223	9283.77
543.587	9309.98
543.952	9319.02
544.316	9354.95
544.681	9337.55
545.045	9395.4
545.41	9411.22
545.774	9442.41
546.138	9389.75
546.503	9457.32
546.867	9516.53
547.231	9487.6
547.595	9493.03
547.959	9439.47
548.324	9501.61
548.688	9482.86
549.052	9566.02
549.416	9483.08
549.779	9566.92
550.143	9553.14
550.507	9637.2
550.871	9521.95
551.235	9549.52
551.599	9713.81
551.962	9625.91
552.326	9709.74
552.689	9740.25
553.053	9618.67
553.417	9693.47
553.78	9717.65
554.143	9778.44
554.507	9767.37
554.87	9790.42
555.234	9823.19
555.597	9803.53
555.96	9829.06
556.323	9838.33
556.686	9746.81
557.05	9877.65
557.413	9889.85
557.776	9819.35
558.139	9937.99
558.502	9860.93
558.865	9940.25
559.228	10019.57
559.59	9925.33
559.953	9968.04
560.316	10097.98
560.679	9992.22
561.041	10088.72
561.404	10129.85
561.767	10139.79
562.129	10059.11
562.492	10162.16
562.854	10072
563.217	10143.41
563.579	10160.58
563.941	10186.12
564.304	10221.82
564.666	10316.28
565.028	10351.99
565.39	10363.96
565.753	10400.35
566.115	10342.95
566.477	10428.14
566.839	10483.96
567.201	10519.21
567.563	10526.45
567.925	10609.16
568.287	10581.13
568.648	10614.35
569.01	10663.17
569.372	10657.52
569.734	10652.54
570.095	10755.59
570.457	10814.8
570.819	10823.61
571.18	10848.25
571.542	10888.47
571.903	10765.54
572.265	10857.29
572.626	10912.88
572.987	10926.66
573.349	10993.78
573.71	10997.62
574.071	11051.4
574.432	11017.51
574.794	11090.27
575.155	11109.71
575.516	11040.33
575.877	11112.87
576.238	11208.69
576.599	11137.05
576.96	11210.72
577.32	11262.92
577.681	11255.92
578.042	11287.56
578.403	11288.23
578.763	11251.4
579.124	11349.25
579.485	11306.31
579.845	11372.98
580.206	11383.6
580.566	11431.06
580.927	11397.84
581.287	11445.52
581.648	11374.33
582.008	11460.89
582.368	11479.64
582.728	11485.74
583.089	11441
583.449	11505.4
583.809	11511.96
584.169	11492.07
584.529	11554.44
584.889	11577.72
585.249	11514.22
585.609	11437.83
585.969	11612.75
586.329	11530.94
586.688	11616.36
587.048	11609.36
587.408	11612.29
587.768	11650.26
588.127	11574.33
588.487	11620.43
588.846	11703.59
589.206	11652.07
589.565	11657.72
589.925	11676.25
590.284	11571.39
590.643	11717.83
591.003	11697.72
591.362	11741.56
591.721	11687.32
592.08	11729.8
592.44	11746.3
592.799	11785.62
593.158	11757.83
593.517	11723.48
593.876	11726.87
594.235	11767.77
594.593	11691.84
594.952	11760.31
595.311	11734.78
595.67	11767.32
596.029	11823.14
596.387	11866.3
596.746	11860.87
597.104	11809.8
597.463	11863.36
597.822	11897.71
598.18	11746.3
598.538	11837.37
598.897	11846.64
599.255	11776.58
599.613	11971.38
599.972	11963.02
600.33	11894.09
600.688	11877.82
601.046	11939.06
601.404	11931.61
601.762	11915.56
602.12	11992.85
602.478	11921.89
602.836	11885.73
603.194	11894.32
603.552	11898.84
603.91	11845.06
604.268	11959.4
604.625	11877.6
604.983	11941.1
605.341	11882.79
605.698	12029.23
606.056	11989.01
606.413	11962.34
606.771	12047.08
607.128	12049.8
607.485	11950.59
607.843	11998.95
608.2	12040.3
608.557	12096.8
608.914	11990.59
609.272	12054.32
609.629	12102.9
609.986	12089.12
610.343	12074.88
610.7	12147.42
611.057	12170.02
611.414	12135.67
611.771	12146.97
612.127	12156.01
612.484	12185.39
612.841	12277.81
613.198	12191.49
613.554	12099.74
613.911	12298.83
614.267	12203.92
614.624	12250.24
614.98	12348.77
615.337	12446.62
615.693	12365.04
616.05	12293.86
616.406	12418.83
616.762	12354.19
617.118	12441.2
617.475	12394.87
617.831	12486.85
618.187	12429.67
618.543	12445.04
618.899	12521.65
619.255	12487.98
619.611	12508.99
619.967	12496.79
620.323	12513.06
620.678	12527.75
621.034	12448.66
621.39	12538.6
621.746	12513.74
622.101	12623.11
622.457	12516.22
622.812	12495.66
623.168	12565.49
623.523	12708.76
623.879	12680.06
624.234	12650.23
624.589	12650.91
624.945	12698.82
625.3	12745.82
625.655	12698.14
626.01	12739.27
626.365	12780.17
626.72	12727.74
627.075	12706.05
627.43	12668.31
627.785	12770.68
628.14	12735.2
628.495	12743.79
628.85	12786.27
629.205	12777.69
629.559	12852.94
629.914	12791.47
630.269	12815.2
630.623	12827.18
630.978	12805.26
631.332	12916.21
631.687	12855.2
632.041	12886.16
632.396	12866.05
632.75	12828.31
633.104	12946.27
633.459	12861.75
633.813	12903.79
634.167	12916.67
634.521	12924.12
634.875	12880.28
635.229	12840.06
635.583	12871.02
635.937	12845.03
636.291	12937.91
636.645	12931.35
636.999	12992.14
637.352	12932.26
637.706	12877.12
638.06	12995.31
638.413	13060.84
638.767	13029.43
639.121	13131.58
639.474	12905.82
639.828	12951.92
640.181	13110.11
640.534	13067.4
640.888	13100.16
641.241	13000.96
641.594	12952.82
641.947	13059.26
642.301	13026.04
642.654	12981.3
643.007	13167.28
643.36	13204.34
643.713	13089.32
644.066	13130.67
644.419	13129.77
644.771	13071.92
645.124	13142.87
645.477	13053.16
645.83	13011.58
646.182	12966.61
646.535	12898.14
646.888	12926.84
647.24	12853.84
647.593	12946.27
647.945	12886.61
648.298	12841.87
648.65	12908.08
649.002	12856.78
649.355	12950.79
649.707	12950.34
650.059	13064.68
650.411	13255.64
650.763	13239.37
651.115	13458.8
651.467	13499.7
651.819	13422.87
652.171	13435.07
652.523	13365.24
652.875	13428.29
653.227	13400.95
653.578	13480.49
653.93	13485.24
654.282	13423.32
654.633	13451.57
654.985	13482.3
655.337	13482.3
655.688	13563.88
656.039	13553.71
656.391	13415.86
656.742	13475.75
657.094	13597.33
657.445	13618.34
657.796	13604.56
658.147	13643.65
658.498	13646.36
658.849	13699.47
659.2	13572.02
659.551	13578.34
659.902	13693.82
660.253	13665.8
660.604	13754.16
660.955	13656.76
661.306	13691.33
661.656	13689.08
662.007	13762.07
662.358	13684.56
662.708	13784.21
663.059	13762.52
663.409	13659.92
663.76	13791.67
664.11	13732.92
664.461	13731.56
664.811	13766.59
665.161	13676.42
665.511	13721.62
665.862	13722.29
666.212	13787.15
666.562	13854.04
666.912	13743.54
667.262	13729.98
667.612	13755.74
667.962	13793.25
668.312	13765.46
668.662	13840.94
669.011	13802.74
669.361	13758.23
669.711	13691.79
670.06	13616.76
670.41	13642.3
670.76	13586.03
671.109	13733.14
671.459	13616.53
671.808	13603.43
672.157	13677.55
672.507	13485.92
672.856	13477.56
673.205	13490.66
673.554	13537.67
673.904	13446.82
674.253	13468.97
674.602	13446.37
674.951	13186.72
675.3	13146.04
675.649	13298.12
675.998	13282.08
676.346	13340.38
676.695	13306.26
677.044	13176.09
677.393	13285.02
677.741	13202.53
678.09	13284.34
678.438	13177.9
678.787	13172.25
679.135	13186.04
679.484	13058.36
679.832	13100.62
680.181	12928.87
680.529	13003.22
680.877	12979.26
681.225	12940.39
681.573	13046.38
681.922	12904.46
682.27	12916.21
682.618	12892.49
682.966	12823.34
683.314	12894.52
683.661	12816.78
684.009	12722.32
684.357	12651.36
684.705	12770.46
685.053	12650.23
685.4	12704.92
685.748	12561.65
686.095	12655.43
686.443	12540.63
686.79	12473.06
687.138	12562.1
687.485	12523.23
687.832	12444.36
688.18	12523.46
688.527	12415.66
688.874	12396.68
689.221	12341.54
689.568	12407.07
689.915	12373.18
690.262	12344.25
690.609	12347.87
690.956	12262.22
691.303	12250.69
691.65	12262.45
691.997	12164.6
692.344	12115.11
692.69	12252.95
693.037	12188.32
693.383	12076.91
693.73	12157.59
694.077	12112.39
694.423	12014.54
694.769	12053.64
695.116	12021.55
695.462	12050.02
695.808	12049.12
696.155	12056.58
696.501	11935.67
696.847	11924.83
697.193	11895.22
697.539	11944.04
697.885	11882.57
698.231	11784.04
698.577	11847.99
698.923	11942.23
699.269	11883.02
699.614	11834.21
699.96	11778.62
700.306	11785.4
700.651	11806.41
700.997	11707.88
701.342	11760.99
701.688	11746.08
702.033	11717.15
702.379	11736.13
702.724	11738.39
703.069	11726.87
703.415	11633.99
703.76	11624.27
704.105	11690.03
704.45	11581.56
704.795	11643.03
705.14	11642.35
705.485	11559.19
705.83	11503.82
706.175	11487.33
706.52	11542.24
706.865	11464.05
707.209	11460.66
707.554	11530.04
707.899	11562.58
708.243	11411.85
708.588	11491.39
708.932	11436.93
709.277	11336.82
709.621	11477.38
709.966	11358.29
710.31	11497.04
710.654	11371.62
710.998	11375.92
711.342	11331.4
711.687	11381.11
712.031	11361
712.375	11292.98
712.719	11336.37
713.063	11406.42
713.407	11446.87
713.75	11336.59
714.094	11349.93
714.438	11314
714.782	11328.01
715.125	11379.08
715.469	11374.11
715.812	11272.42
716.156	11205.75
716.499	11327.56
716.843	11227.67
717.186	11254.34
717.53	11375.01
717.873	11401
718.216	11356.03
718.559	11252.53
718.902	11235.58
719.246	11154.9
719.589	11172.98
719.932	11242.13
720.275	11179.31
720.617	11124.85
720.96	11095.47
721.303	11168.69
721.646	11165.75
721.989	11149.03
722.331	11263.83
722.674	11191.74
723.016	11186.09
723.359	11182.02
723.701	11167.79
724.044	11167.11
724.386	11157.16
724.729	11212.08
725.071	11170.72
725.413	11121.68
725.755	11168.46
726.097	11124.62
726.439	11067.22
726.782	11167.11
727.124	11224.96
727.465	11115.81
727.807	11105.64
728.149	11137.05
728.491	11138.41
728.833	11103.15
729.175	11127.11
729.516	11117.62
729.858	11099.54
730.199	11217.5
730.541	11192.42
730.882	11162.14
731.224	11229.03
731.565	11176.6
731.906	11267.44
732.248	11215.02
732.589	11181.57
732.93	11218.41
733.271	11260.89
733.612	11185.64
733.953	11231.96
734.294	11210.5
734.635	11272.87
734.976	11321
735.317	11260.21
735.658	11304.28
735.999	11356.48
736.339	11354.45
736.68	11359.64
737.021	11361.45
737.361	11258.4
737.702	11422.02
738.042	11358.97
738.383	11430.38
738.723	11476.93
739.063	11379.53
739.404	11436.93
739.744	11496.14
740.084	11520.54
740.424	11502.24
740.764	11586.31
741.104	11640.32
741.444	11590.15
741.784	11510.83
742.124	11641.22
742.464	11638.06
742.804	11724.38
743.143	11651.84
743.483	11712.86
743.823	11694.78
744.162	11726.41
744.502	11735.68
744.841	11810.93
745.181	11899.29
745.52	11819.52
745.86	11894.09
746.199	11912.17
746.538	11899.07
746.877	11949.69
747.216	12066.74
747.556	12052.96
747.895	12087.54
748.234	12087.08
748.573	12216.57
748.911	12196.01
749.25	12294.31
749.589	12192.62
749.928	12289.79
750.267	12373.63
750.605	12366.85
750.944	12459.95
751.283	12393.06
751.621	12530.69
751.96	12428.32
752.298	12526.17
752.636	12562.55
752.975	12520.07
753.313	12584.02
753.651	12713.96
753.989	12682.55
754.327	12663.57
754.666	12677.58
755.004	12703.11
755.342	12775.2
755.679	12802.77
756.017	12852.49
756.355	12857.01
756.693	12909.66
757.031	13001.18
757.368	12857.68
757.706	12962.99
758.044	12998.7
758.381	12983.33
758.719	12987.17
759.056	13031.24
759.394	13106.04
759.731	13122.08
760.068	13099.94
760.405	13046.38
760.743	13138.13
761.08	13162.08
761.417	13137
761.754	13202.31
762.091	13250.44
762.428	13215.19
762.765	13193.27
763.102	13305.81
763.438	13249.09
763.775	13284.11
764.112	13339.93
764.449	13411.57
764.785	13383.32
765.122	13318.46
765.458	13377.44
765.795	13355.07
766.131	13409.08
766.467	13411.57
766.804	13421.74
767.14	13392.81
767.476	13494.73
767.812	13418.8
768.148	13433.04
768.485	13472.81
768.821	13373.38
769.157	13416.54
769.492	13447.05
769.828	13416.09
770.164	13361.4
770.5	13485.92
770.836	13519.59
771.171	13413.83
771.507	13386.48
771.842	13299.25
772.178	13538.34
772.513	13522.53
772.849	13502.64
773.184	13504
773.519	13526.59
773.855	13405.01
774.19	13442.98
774.525	13522.75
774.86	13503.77
775.195	13495.41
775.53	13474.39
775.865	13471.45
776.2	13400.5
776.535	13364.79
776.87	13448.63
777.205	13361.17
777.539	13349.2
777.874	13400.27
778.209	13336.09
778.543	13346.94
778.878	13290.44
779.212	13404.11
779.547	13296.09
779.881	13403.88
780.215	13359.14
780.55	13402.08
780.884	13375.41
781.218	13347.84
781.552	13326.6
781.886	13313.27
782.22	13275.3
782.554	13256.54
782.888	13226.26
783.222	13251.35
783.556	13200.05
783.889	13195.3
784.223	13163.21
784.557	13115.98
784.89	13183.55
785.224	13109.66
785.557	13070.11
785.891	13186.94
786.224	13068.07
786.558	13197.11
786.891	13083.22
787.224	13047.28
787.557	13014.06
787.891	13023.1
788.224	13111.01
788.557	13066.27
788.89	13107.85
789.223	13023.56
789.556	13000.51
789.888	13026.49
790.221	12984.23
790.554	12824.47
790.887	12939.26
791.219	12934.97
791.552	12924.8
791.884	12926.16
792.217	12850.23
792.549	12873.5
792.882	12868.98
793.214	12824.69
793.546	12937.91
793.879	12780.62
794.211	12777.23
794.543	12841.64
794.875	12799.61
795.207	12867.4
795.539	12733.62
795.871	12782.66
796.203	12693.17
796.535	12690.01
796.867	12659.72
797.198	12578.6
797.53	12736.78
797.862	12617.24
798.193	12678.93
798.525	12568.2
798.856	12577.69
799.188	12483.68
799.519	12424.7
799.85	12431.03
800.182	12518.26
800.513	12502.89
800.844	12366.4
801.175	12438.71
801.506	12473.29
801.837	12485.94
802.168	12429.9
802.499	12323.91
802.83	12337.7
803.161	12346.51
803.491	12349.22
803.822	12367.75
804.153	12330.01
804.483	12179.28
804.814	12237.59
805.145	12183.13
805.475	12261.77
805.805	12196.23
806.136	12236.68
806.466	12272.62
806.796	12148.55
807.126	12060.42
807.457	12179.74
807.787	12041.66
808.117	12060.64
808.447	12039.4
808.777	12122.79
809.107	11958.27
809.436	12054.54
809.766	11990.36
810.096	11983.36
810.426	11923.47
810.755	11935.9
811.085	11925.73
811.414	11909.91
811.744	11793.53
812.073	11818.39
812.403	11855.9
812.732	11810.93
813.061	11858.39
813.39	11747.21
813.719	11687.32
814.049	11745.85
814.378	11752.4
814.707	11727.32
815.036	11680.77
815.365	11642.35
815.693	11546.98
816.022	11637.38
816.351	11579.53
816.68	11549.24
817.008	11624.95
817.337	11526.65
817.665	11488
817.994	11594.89
818.322	11541.11
818.651	11448.68
818.979	11410.26
819.307	11467.89
819.636	11418.63
819.964	11350.38
820.292	11397.84
820.62	11356.26
820.948	11443.48
821.276	11480.77
821.604	11463.82
821.932	11405.07
822.259	11445.97
822.587	11433.09
822.915	11403.03
823.243	11528.23
823.57	11530.94
823.898	11469.92
824.225	11520.77
824.553	11420.21
824.88	11528.45
825.207	11478.29
825.535	11443.71
825.862	11568
826.189	11483.26
826.516	11520.09
826.843	11612.97
827.17	11559.64
827.497	11556.7
827.824	11538.62
828.151	11566.65
828.478	11580.43
828.805	11563.48
829.131	11526.87
829.458	11535.91
829.785	11535.46
830.111	11532.07
830.438	11573.42
830.764	11570.49
831.09	11597.38
831.417	11564.61
831.743	11616.81
832.069	11570.03
832.395	11475.8
832.722	11562.58
833.048	11532.52
833.374	11551.28
833.7	11494.78
834.026	11531.62
834.351	11548.57
834.677	11448.68
835.003	11572.29
835.329	11551.5
835.654	11497.72
835.98	11486.2
836.306	11450.94
836.631	11497.72
836.956	11495.69
837.282	11441.68
837.607	11451.85
837.932	11420.43
838.258	11377.95
838.583	11372.98
838.908	11328.69
839.233	11376.59
839.558	11400.1
839.883	11355.13
840.208	11230.83
840.533	11322.13
840.858	11325.3
841.182	11263.83
841.507	11266.99
841.832	11160.33
842.156	11256.14
842.481	11264.51
842.805	11186.77
843.13	11166.88
843.454	11072.42
843.778	11085.75
844.103	11168.01
844.427	11084.62
844.751	11076.94
845.075	10985.19
845.399	11017.05
845.723	10923.72
846.047	10987.23
846.371	10895.02
846.695	10958.75
847.019	10840.11
847.343	10808.92
847.666	10794.01
847.99	10655.93
848.313	10708.36
848.637	10648.7
848.96	10580.91
849.284	10596.73
849.607	10502.49
849.931	10471.31
850.254	10440.57
850.577	10325.55
850.9	10315.38
851.223	10342.04
851.546	10192.67
851.869	10237.64
852.192	10239.9
852.515	10180.24
852.838	10112.22
853.161	10190.64
853.483	10015.95
853.806	10019.79
854.129	10041.49
854.451	10009.4
854.774	9937.99
855.096	9912.68
855.419	9831.32
855.741	9910.42
856.063	9816.63
856.385	9799.46
856.708	9782.51
857.03	9757.65
857.352	9676.3
857.674	9731.89
857.996	9685.56
858.318	9564.89
858.64	9621.84
858.961	9556.75
859.283	9540.94
859.605	9491.45
859.926	9547.49
860.248	9530.54
860.57	9484.21
860.891	9529.86
861.212	9414.39
861.534	9451.67
861.855	9397.66
862.176	9438.34
862.498	9441.5
862.819	9439.24
863.14	9375.29
863.461	9335.52
863.782	9276.08
864.103	9305.69
864.424	9305.24
864.745	9364.22
865.065	9244.22
865.386	9170.1
865.707	9171.91
866.027	9288.29
866.348	9189.31
866.668	9245.12
866.989	9222.53
867.309	9110.21
867.63	9115.64
867.95	9146.82
868.27	9101.63
868.59	9064.56
868.91	9091
869.23	9064.56
869.55	9013.27
869.87	9023.44
870.19	9057.56
870.51	9038.58
870.83	9018.92
871.15	8928.97
871.469	9020.27
871.789	9029.76
872.109	8940.73
872.428	8872.93
872.748	8982.98
873.067	8962.19
873.386	8931.91
873.706	8919.48
874.025	8903.44
874.344	8857.56
874.663	8831.12
874.982	8853.72
875.301	8815.08
875.62	8856.21
875.939	8807.62
876.258	8813.72
876.577	8799.49
876.896	8752.93
877.214	8790.45
877.533	8729.66
877.852	8712.03
878.17	8798.13
878.489	8711.35
878.807	8712.93
879.125	8759.04
879.444	8640.17
879.762	8651.69
880.08	8610.11
880.398	8592.94
880.716	8603.33
881.034	8575.09
881.352	8573.05
881.67	8614.63
881.988	8547.97
882.306	8510.45
882.624	8526.05
882.941	8445.82
883.259	8420.51
883.577	8470.46
883.894	8422.32
884.212	8384.13
884.529	8417.58
884.846	8398.14
885.164	8354.53
885.481	8334.87
885.798	8384.81
886.115	8253.51
886.432	8277.92
886.75	8235.43
887.067	8290.57
887.383	8231.37
887.7	8207.64
888.017	8151.37
888.334	8203.57
888.651	8163.34
888.967	8194.98
889.284	8083.57
889.6	8094.65
889.917	8031.37
890.233	8085.61
890.55	8047.19
890.866	8042.67
891.182	7970.58
891.498	7997.93
891.815	7942.11
892.131	7882.45
892.447	7853.75
892.763	7914.09
893.079	7756.35
893.395	7850.13
893.71	7833.64
894.026	7761.55
894.342	7680.65
894.657	7672.74
894.973	7701.44
895.289	7698.05
895.604	7688.78
895.92	7607.2
896.235	7594.55
896.55	7573.08
896.865	7543.7
897.181	7530.37
897.496	7564.04
897.811	7449.24
898.126	7425.06
898.441	7445.62
898.756	7430.93
899.071	7400.88
899.386	7343.93
899.7	7315.01
900.015	7330.37
900.33	7260.77
900.644	7296.93
900.959	7204.5
901.273	7232.3
901.588	7150.94
901.902	7106.65
902.216	7128.12
902.531	7126.76
902.845	7061.68
903.159	6987.78
903.473	7002.25
903.787	6950.04
904.101	6959.31
904.415	6936.26
904.729	6931.29
905.042	6897.84
905.356	6892.42
905.67	6844.74
905.984	6876.37
906.297	6750.5
906.611	6728.13
906.924	6790.73
907.237	6698.07
907.551	6690.84
907.864	6689.71
908.177	6664.18
908.491	6628.02
908.804	6627.79
909.117	6556.83
909.43	6586.66
909.743	6522.48
910.056	6476.84
910.368	6510.28
910.681	6451.3
910.994	6341.02
911.307	6451.75
911.619	6348.93
911.932	6321.13
912.244	6274.58
912.557	6280.23
912.869	6235.94
913.181	6228.03
913.494	6199.55
913.806	6197.52
914.118	6197.75
914.43	6103.96
914.742	6091.31
915.054	6047.69
915.366	6066.22
915.678	6017.86
915.99	6021.25
916.302	5994.14
916.613	5954.14
916.925	5927.92
917.236	5923.4
917.548	5867.59
917.859	5905.55
918.171	5840.02
918.482	5821.03
918.794	5772.45
919.105	5833.46
919.416	5774.71
919.727	5763.63
920.038	5749.85
920.349	5687.7
920.66	5638.67
920.971	5629.17
921.282	5615.84
921.593	5579.01
921.903	5572.68
922.214	5558.44
922.525	5539.46
922.835	5522.28
923.146	5509.63
923.456	5448.39
923.767	5423.3
924.077	5440.93
924.387	5384.89
924.697	5401.61
925.008	5350.09
925.318	5345.79
925.628	5302.63
925.938	5319.35
926.248	5240.26
926.558	5221.73
926.867	5213.37
927.177	5157.1
927.487	5164.33
927.796	5131.11
928.106	5197.55
928.416	5081.39
928.725	5084.56
929.034	4983.32
929.344	5119.13
929.653	5078.91
929.962	4991.45
930.271	4958.23
930.581	4983.77
930.89	4936.31
931.199	4927.05
931.508	4907.39
931.817	4868.97
932.125	4859.25
932.434	4835.07
932.743	4794.85
933.051	4787.39
933.36	4781.74
933.669	4826.26
933.977	4745.58
934.286	4700.38
934.594	4723.89
934.902	4635.08
935.21	4654.96
935.519	4626.71
935.827	4639.82
936.135	4635.98
936.443	4574.06
936.751	4520.95
937.059	4545.36
937.367	4521.63
937.674	4532.25
937.982	4496.1
938.29	4491.58
938.597	4451.8
938.905	4374.97
939.213	4412.93
939.52	4363.22
939.827	4408.87
940.135	4364.12
940.442	4390.56
940.749	4308.76
941.056	4391.69
941.363	4292.94
941.67	4313.28
941.977	4276.67
942.284	4232.6
942.591	4215.2
942.898	4203.22
943.205	4203.45
943.511	4175.65
943.818	4173.62
944.125	4119.16
944.431	4115.54
944.738	4121.42
945.044	4104.92
945.35	4059.05
945.657	4067.18
945.963	4055.43
946.269	4000.74
946.575	3996.22
946.881	3986.28
947.187	3950.8
947.493	3942.66
947.799	3942.89
948.105	3916.68
948.41	3896.79
948.716	3930.91
949.022	3875.77
949.327	3829.9
949.633	3843.68
949.938	3823.35
950.244	3837.36
950.549	3822.44
950.854	3741.54
951.16	3767.98
951.465	3727.53
951.77	3697.25
952.075	3700.64
952.38	3676.68
952.685	3688.66
952.99	3604.82
953.294	3640.53
953.599	3607.98
953.904	3603.24
954.209	3578.83
954.513	3584.48
954.818	3607.31
955.122	3571.15
955.426	3553.52
955.731	3523.69
956.035	3497.25
956.339	3498.16
956.643	3476.01
956.948	3480.76
957.252	3467.42
957.556	3439.85
957.86	3431.49
958.163	3424.49
958.467	3379.29
958.771	3355.34
959.075	3380.87
959.378	3325.96
959.682	3332.29
959.985	3306.52
960.289	3292.29
960.592	3292.74
960.896	3311.27
961.199	3226.98
961.502	3256.36
961.805	3253.64
962.108	3265.17
962.411	3179.07
962.714	3188.79
963.017	3184.27
963.32	3235.34
963.623	3135.91
963.926	3143.36
964.228	3153.76
964.531	3097.72
964.833	3093.65
965.136	3090.03
965.438	3093.42
965.741	3070.82
966.043	3044.38
966.345	3005.06
966.648	3012.52
966.95	3009.81
967.252	3017.94
967.554	2972.75
967.856	2977.72
968.158	2954.22
968.46	2928.91
968.761	2945.18
969.063	2935.01
969.365	2923.03
969.666	2857.27
969.968	2875.12
970.269	2846.42
970.571	2856.59
970.872	2836.71
971.174	2849.36
971.475	2812.98
971.776	2800.77
972.077	2794.67
972.378	2800.1
972.679	2784.96
972.98	2783.37
973.281	2749.25
973.582	2728.23
973.883	2719.65
974.183	2707.67
974.484	2702.25
974.785	2714.9
975.085	2696.37
975.386	2673.77
975.686	2650.04
975.986	2629.93
976.287	2630.61
976.587	2643.72
976.887	2592.19
977.187	2622.47
977.487	2627.22
977.787	2587.22
978.087	2534.79
978.387	2547.45
978.687	2572.98
978.987	2555.13
979.286	2555.36
979.586	2557.62
979.885	2545.19
980.185	2511.74
980.484	2477.17
980.784	2501.57
981.083	2474.68
981.382	2445.75
981.682	2464.06
981.981	2469.48
982.28	2457.96
982.579	2457.73
982.878	2416.38
983.177	2408.02
983.475	2416.38
983.774	2383.61
984.073	2344.51
984.372	2356.04
984.67	2363.27
984.969	2340.45
985.267	2317.4
985.566	2343.84
985.864	2316.94
986.162	2304.06
986.461	2305.87
986.759	2245.99
987.057	2269.26
987.355	2252.31
987.653	2249.38
987.951	2262.71
988.249	2217.74
988.547	2231.07
988.844	2221.81
989.142	2210.05
989.44	2194.46
989.737	2150.17
990.035	2183.61
990.332	2160.11
990.63	2171.86
990.927	2132.54
991.224	2129.15
991.521	2123.73
991.819	2115.82
992.116	2094.8
992.413	2102.04
992.71	2071.08
993.006	2075.37
993.303	2066.78
993.6	2036.05
993.897	2023.17
994.193	2017.74
994.49	2036.73
994.787	2004.18
995.083	2021.36
995.379	2009.16
995.676	2020.23
995.972	1993.56
996.268	1978.87
996.565	1972.1
996.861	1946.56
997.157	1947.46
997.453	1959.21
997.749	1909.27
998.044	1916.05
998.34	1895.03
998.636	1881.93
998.932	1865.66
999.227	1851.19
999.523	1852.55
999.818	1831.31
1000.114	1811.65
1000.409	1818.88
1000.704	1877.18
1001	1831.99
1001.295	1814.59
1001.59	1821.82
1001.885	1792.44
1002.18	1772.33
1002.475	1775.04
1002.77	1760.35
1003.065	1735.72
1003.359	1735.04
1003.654	1728.94
1003.949	1728.03
1004.243	1712.67
1004.538	1703.18
1004.832	1694.81
1005.127	1704.08
1005.421	1683.29
1005.715	1682.16
1006.009	1688.49
1006.304	1660.46
1006.598	1659.79
1006.892	1635.83
1007.186	1630.41
1007.48	1610.3
1007.773	1626.34
1008.067	1604.65
1008.361	1598.32
1008.655	1602.84
1008.948	1571.65
1009.242	1539.79
1009.535	1561.48
1009.829	1548.15
1010.122	1576.17
1010.415	1556.51
1010.708	1517.42
1011.001	1514.93
1011.295	1500.7
1011.588	1507.7
1011.881	1478.32
1012.173	1482.84
1012.466	1470.41
1012.759	1469.51
1013.052	1493.46
1013.344	1438.32
1013.637	1440.58
1013.93	1460.47
1014.222	1429.51
1014.514	1437.19
1014.807	1446.46
1015.099	1438.1
1015.391	1422.73
1015.683	1366.46
1015.976	1403.52
1016.268	1349.51
1016.56	1371.88
1016.851	1336.41
1017.143	1366.69
1017.435	1358.78
1017.727	1337.99
1018.018	1332.56
1018.31	1322.85
1018.602	1301.83
1018.893	1298.21
1019.185	1295.95
1019.476	1286.46
1019.767	1280.36
1020.058	1260.48
1020.35	1269.51
1020.641	1267.03
1020.932	1267.93
1021.223	1231.1
1021.514	1249.18
1021.804	1216.63
1022.095	1223.87
1022.386	1223.64
1022.677	1218.44
1022.967	1200.36
1023.258	1207.37
1023.548	1185
1023.839	1178.22
1024.129	1178.44
1024.419	1163.08
1024.709	1162.17
1025	1172.34
1025.29	1162.4
1025.58	1134.15
1025.87	1142.06
1026.16	1115.17
1026.449	1129.18
1026.739	1121.04
1027.029	1112.46
1027.319	1104.77
1027.608	1093.7
1027.898	1093.93
1028.187	1085.34
1028.477	1067.49
1028.766	1059.12
1029.055	1076.53
1029.344	1028.62
1029.634	1025.45
1029.923	1053.48
1030.212	1043.98
1030.501	1043.98
1030.79	1028.84
1031.078	1022.97
1031.367	997.66
1031.656	1000.82
1031.945	987.49
1032.233	956.3
1032.522	962.4
1032.81	977.09
1033.099	943.87
1033.387	945.91
1033.675	950.43
1033.963	961.95
1034.251	949.07
1034.54	924.21
1034.828	916.98
1035.116	924.66
1035.403	943.87
1035.691	921.05
1035.979	916.3
1036.267	894.38
1036.554	883.08
1036.842	893.93
1037.129	872.91
1037.417	884.21
1037.704	914.5
1037.992	867.27
1038.279	861.16
1038.566	870.2
1038.853	870.2
1039.14	870.2
