Data from blue_surface_keyboard_FLMS001491_091.txt Node
Date: Tue Feb 07 11:13:54 GMT 2017
User: dcchb
Spectrometer: FLMS00149
Trigger mode: 0
Integration Time (sec): 2.000000E-2
Scans to average: 10
Electric dark correction enabled: true
Nonlinearity correction enabled: false
Boxcar width: 0
XAxis mode: Wavelengths
Number of Pixels in Spectrum: 2048
>>>>>Begin Spectral Data<<<<<
341.393	-17.01
341.776	-17.01
342.16	-17.01
342.543	-50
342.927	-74.86
343.31	-62.88
343.693	-70.11
344.077	-56.55
344.46	-56.55
344.843	-39.15
345.226	-50
345.61	-29.43
345.993	-24.91
346.376	-14.29
346.759	6.95
347.142	35.2
347.525	44.24
347.908	67.29
348.291	71.13
348.674	95.99
349.057	83.11
349.44	124.91
349.823	139.6
350.206	150.22
350.588	184.35
350.971	168.3
351.354	199.26
351.737	205.81
352.119	229.54
352.502	234.06
352.884	236.55
353.267	269.77
353.65	260.28
354.032	281.74
354.414	266.6
354.797	307.51
355.179	284.23
355.562	309.31
355.944	297.79
356.326	304.12
356.709	312.7
357.091	310.9
357.473	302.53
357.855	305.25
358.238	329.88
358.62	313.16
359.002	328.52
359.384	324.45
359.766	323.55
360.148	317.22
360.53	332.59
360.912	335.53
361.294	302.99
361.676	310.67
362.057	330.1
362.439	286.72
362.821	291.69
363.203	293.72
363.584	305.47
363.966	310.44
364.348	288.3
364.729	289.88
365.111	295.53
365.493	283.1
365.874	268.86
366.256	290.56
366.637	267.28
367.019	290.56
367.4	267.51
367.781	272.25
368.163	293.95
368.544	299.37
368.925	293.95
369.306	289.2
369.688	285.13
370.069	284.68
370.45	286.72
370.831	278.13
371.212	278.58
371.593	282.42
371.974	277.45
372.355	286.49
372.736	282.65
373.117	303.66
373.498	281.74
373.879	267.51
374.26	292.37
374.641	299.37
375.021	301.63
375.402	281.74
375.783	282.65
376.163	291.69
376.544	310.9
376.925	302.76
377.305	287.62
377.686	278.35
378.066	286.94
378.447	308.18
378.827	298.24
379.208	296.88
379.588	288.75
379.968	306.38
380.349	307.73
380.729	287.85
381.109	299.14
381.489	317
381.87	309.09
382.25	312.7
382.63	309.77
383.01	315.19
383.39	309.09
383.77	307.28
384.15	316.09
384.53	293.95
384.91	304.57
385.29	289.2
385.67	308.86
386.049	313.38
386.429	319.26
386.809	301.4
387.189	305.7
387.568	308.41
387.948	311.12
388.328	307.05
388.707	311.12
389.087	314.74
389.466	317.9
389.846	309.09
390.225	326.04
390.605	313.83
390.984	309.31
391.363	308.64
391.743	314.29
392.122	294.17
392.501	308.86
392.881	326.26
393.26	359.03
393.639	303.21
394.018	323.32
394.397	337.11
394.776	341.63
395.155	326.26
395.534	329.65
395.913	336.43
396.292	338.92
396.671	341.86
397.05	347.73
397.429	302.08
397.808	333.72
398.186	341.63
398.565	330.56
398.944	346.38
399.323	327.17
399.701	320.84
400.08	317.45
400.458	327.62
400.837	336.21
401.215	354.74
401.594	338.01
401.972	350.67
402.351	333.04
402.729	352.48
403.107	354.51
403.486	347.05
403.864	358.8
404.242	336.66
404.62	346.83
404.999	337.79
405.377	363.55
405.755	351.12
406.133	349.09
406.511	314.51
406.889	336.43
407.267	342.76
407.645	375.3
408.023	360.61
408.401	369.43
408.779	366.26
409.156	372.14
409.534	365.58
409.912	343.21
410.29	366.71
410.667	375.3
411.045	368.97
411.422	381.85
411.8	355.87
412.178	368.52
412.555	364.23
412.933	390.44
413.31	378.24
413.687	368.75
414.065	382.76
414.442	375.75
414.819	372.82
415.197	369.65
415.574	395.19
415.951	358.8
416.328	396.32
416.705	393.38
417.082	367.62
417.46	401.74
417.837	400.38
418.214	415.53
418.591	387.96
418.967	394.06
419.344	386.15
419.721	404.45
420.098	400.16
420.475	403.77
420.852	382.98
421.228	401.74
421.605	402.64
421.982	402.42
422.358	403.32
422.735	384.11
423.111	423.21
423.488	410.55
423.864	425.92
424.241	416.88
424.617	403.77
424.994	406.49
425.37	417.11
425.746	408.75
426.123	406.26
426.499	416.43
426.875	424.79
427.251	427.73
427.627	441.74
428.003	441.51
428.379	434.73
428.756	433.6
429.132	442.42
429.507	450.1
429.883	461.4
430.259	449.88
430.635	436.99
431.011	427.28
431.387	426.37
431.763	444.45
432.138	471.34
432.514	469.76
432.89	440.38
433.265	469.76
433.641	469.08
434.016	449.88
434.392	472.7
434.767	475.86
435.143	471.8
435.518	481.74
435.894	477.9
436.269	464.34
436.644	494.85
437.02	474.73
437.395	471.12
437.77	505.01
438.145	510.66
438.52	497.56
438.895	502.3
439.271	507.05
439.646	519.03
440.021	513.38
440.395	519.25
440.77	521.74
441.145	514.05
441.52	535.07
441.895	507.5
442.27	522.64
442.645	491.68
443.019	516.31
443.394	511.12
443.769	532.13
444.143	523.32
444.518	509.76
444.892	531.68
445.267	510.89
445.641	537.56
446.016	539.14
446.39	534.17
446.764	555.86
447.139	537.56
447.513	550.66
447.887	541.85
448.262	556.77
448.636	542.98
449.01	552.02
449.384	552.25
449.758	573.71
450.132	554.96
450.506	583.21
450.88	574.62
451.254	549.08
451.628	571.23
452.002	568.97
452.376	579.82
452.75	568.29
453.123	565.13
453.497	581.17
453.871	567.61
454.244	589.31
454.618	568.97
454.992	575.75
455.365	581.17
455.739	580.27
456.112	616.65
456.486	613.71
456.859	613.03
457.232	596.99
457.606	608.06
457.979	596.31
458.352	623.66
458.725	630.44
459.099	636.08
459.472	643.77
459.845	641.28
460.218	649.87
460.591	650.1
460.964	644.45
461.337	661.17
461.71	676.31
462.083	673.37
462.456	657.55
462.829	665.91
463.201	649.19
463.574	661.85
463.947	681.28
464.32	716.31
464.692	690.77
465.065	684.22
465.438	706.37
465.81	691.45
466.183	706.59
466.555	722.86
466.928	725.35
467.3	714.28
467.672	718.12
468.045	720.6
468.417	732.13
468.789	728.29
469.161	746.36
469.534	766.25
469.906	760.38
470.278	782.97
470.65	758.57
471.022	764.44
471.394	752.01
471.766	782.75
472.138	796.08
472.51	809.87
472.882	806.02
473.253	804.44
473.625	831.33
473.997	813.48
474.369	832.01
474.74	844.67
475.112	851.67
475.484	861.16
475.855	865.01
476.227	874.5
476.598	878.11
476.97	888.06
477.341	891.45
477.713	912.46
478.084	908.17
478.455	895.06
478.827	936.64
479.198	951.1
479.569	928.73
479.94	943.65
480.311	944.33
480.682	980.48
481.053	968.05
481.424	989.3
481.795	971.22
482.166	992.91
482.537	1031.55
482.908	1018.67
483.279	1021.84
483.65	1057.09
484.021	1027.94
484.391	1056.64
484.762	1048.96
485.133	1099.35
485.503	1072.46
485.874	1093.02
486.244	1084.66
486.615	1078.11
486.985	1113.13
487.356	1136.86
487.726	1114.94
488.097	1159.69
488.467	1165.79
488.837	1164.21
489.207	1160.82
489.578	1174.15
489.948	1164.21
490.318	1187.03
490.688	1183.64
491.058	1196.97
491.428	1211.44
491.798	1224.77
492.168	1221.61
492.538	1241.72
492.908	1235.84
493.278	1238.56
493.648	1258.89
494.017	1250.08
494.387	1278.55
494.757	1293.02
495.126	1268.61
495.496	1277.2
495.866	1279.46
496.235	1265.67
496.605	1278.33
496.974	1274.26
497.344	1293.47
497.713	1310.19
498.082	1304.99
498.452	1316.75
498.821	1309.97
499.19	1312.9
499.559	1323.07
499.928	1329.4
500.298	1347.7
500.667	1334.82
501.036	1317.87
501.405	1330.08
501.774	1305.9
502.143	1346.35
502.512	1336.41
502.88	1347.25
503.249	1326.24
503.618	1344.31
503.987	1347.93
504.356	1360.36
504.724	1342.73
505.093	1359.91
505.462	1390.19
505.83	1351.77
506.199	1375.95
506.567	1368.04
506.936	1398.78
507.304	1392
507.672	1371.43
508.041	1397.19
508.409	1395.84
508.777	1381.38
509.145	1425.44
509.514	1414.82
509.882	1408.95
510.25	1402.62
510.618	1435.61
510.986	1405.1
511.354	1448.04
511.722	1439.45
512.09	1437.19
512.458	1441.71
512.826	1417.31
513.193	1418.21
513.561	1446.91
513.929	1443.3
514.297	1439
514.664	1477.64
515.032	1478.55
515.4	1438.1
515.767	1439.91
516.135	1467.48
516.502	1458.44
516.869	1440.58
517.237	1439.91
517.604	1459.57
517.972	1465.44
518.339	1470.64
518.706	1454.59
519.073	1483.75
519.44	1461.15
519.808	1447.14
520.175	1474.03
520.542	1484.88
520.909	1456.85
521.276	1506.12
521.643	1510.86
522.009	1497.76
522.376	1508.38
522.743	1497.98
523.11	1515.61
523.477	1533.24
523.843	1523.07
524.21	1517.19
524.577	1523.29
524.943	1553.35
525.31	1514.71
525.676	1527.13
526.043	1534.59
526.409	1529.62
526.776	1549.06
527.142	1543.86
527.508	1561.26
527.874	1538.43
528.241	1571.43
528.607	1574.14
528.973	1559.22
529.339	1555.38
529.705	1555.61
530.071	1586.34
530.437	1570.75
530.803	1592.67
531.169	1576.85
531.535	1628.6
531.901	1551.09
532.267	1592.67
532.632	1595.61
532.998	1594.7
533.364	1570.52
533.73	1584.53
534.095	1602.16
534.461	1597.87
534.826	1599.45
535.192	1629.73
535.557	1580.69
535.923	1598.55
536.288	1627.25
536.653	1607.13
537.019	1572.11
537.384	1586.79
537.749	1594.25
538.114	1624.53
538.479	1620.92
538.845	1605.55
539.21	1593.35
539.575	1627.25
539.94	1626.34
540.305	1623.63
540.67	1606.45
541.034	1608.94
541.399	1635.38
541.764	1614.82
542.129	1628.38
542.494	1605.33
542.858	1618.21
543.223	1644.42
543.587	1597.42
543.952	1664.31
544.316	1636.96
544.681	1631.99
545.045	1634.7
545.41	1627.47
545.774	1618.88
546.138	1615.04
546.503	1594.93
546.867	1619.56
547.231	1637.19
547.595	1620.01
547.959	1634.93
548.324	1657.08
548.688	1624.99
549.052	1644.19
549.416	1643.52
549.779	1639.22
550.143	1637.19
550.507	1645.1
550.871	1642.39
551.235	1637.41
551.599	1638.32
551.962	1637.64
552.326	1652.78
552.689	1648.71
553.053	1642.84
553.417	1626.34
553.78	1668.83
554.143	1646
554.507	1629.96
554.87	1662.27
555.234	1668.83
555.597	1649.17
555.96	1672.89
556.323	1656.62
556.686	1647.13
557.05	1655.95
557.413	1671.09
557.776	1642.84
558.139	1668.15
558.502	1643.29
558.865	1637.64
559.228	1636.51
559.59	1651.2
559.953	1656.4
560.316	1686.45
560.679	1671.99
561.041	1683.06
561.404	1693.46
561.767	1690.29
562.129	1678.32
562.492	1724.87
562.854	1692.1
563.217	1689.39
563.579	1720.58
563.941	1717.86
564.304	1696.4
564.666	1718.32
565.028	1697.07
565.39	1717.19
565.753	1720.58
566.115	1718.09
566.477	1754.93
566.839	1736.85
567.201	1719.9
567.563	1713.8
567.925	1750.86
568.287	1734.14
568.648	1712.21
569.01	1745.21
569.372	1767.13
569.734	1705.21
570.095	1731.42
570.457	1750.86
570.819	1764.64
571.18	1740.01
571.542	1763.51
571.903	1774.59
572.265	1758.99
572.626	1756.51
572.987	1773.68
573.349	1750.63
573.71	1760.58
574.071	1767.13
574.432	1776.17
574.794	1801.25
575.155	1800.8
575.516	1810.29
575.877	1808.48
576.238	1780.24
576.599	1776.17
576.96	1797.86
577.32	1791.76
577.681	1800.57
578.042	1801.48
578.403	1819.33
578.763	1796.96
579.124	1810.29
579.485	1809.84
579.845	1836.05
580.206	1814.81
580.566	1802.38
580.927	1787.69
581.287	1820.01
581.648	1837.41
582.008	1825.88
582.368	1820.91
582.728	1827.47
583.089	1829.05
583.449	1815.94
583.809	1815.26
584.169	1812.33
584.529	1821.36
584.889	1848.03
585.249	1795.6
585.609	1824.3
585.969	1859.1
586.329	1798.54
586.688	1802.16
587.048	1858.88
587.408	1803.96
587.768	1816.39
588.127	1812.55
588.487	1816.39
588.846	1855.04
589.206	1823.17
589.565	1804.19
589.925	1844.87
590.284	1830.63
590.643	1854.13
591.003	1836.96
591.362	1855.94
591.721	1810.29
592.08	1831.99
592.44	1860.01
592.799	1843.51
593.158	1867.24
593.517	1830.86
593.876	1838.99
594.235	1832.21
594.593	1869.95
594.952	1851.19
595.311	1846.45
595.67	1849.39
596.029	1876.05
596.387	1845.77
596.746	1839.44
597.104	1864.3
597.463	1848.71
597.822	1856.17
598.18	1853
598.538	1852.55
598.897	1877.86
599.255	1893.45
599.613	1851.87
599.972	1872.66
600.33	1902.04
600.688	1852.1
601.046	1890.74
601.404	1873.79
601.762	1887.13
602.12	1903.17
602.478	1897.29
602.836	1909.72
603.194	1871.53
603.552	1868.37
603.91	1896.62
604.268	1873.79
604.625	1865.88
604.983	1897.97
605.341	1873.34
605.698	1893.45
606.056	1953.56
606.413	1903.62
606.771	1939.1
607.128	1898.65
607.485	1871.08
607.843	1928.48
608.2	1927.8
608.557	1944.75
608.914	1930.97
609.272	1931.64
609.629	1908.59
609.986	1900.46
610.343	1935.49
610.7	1945.88
611.057	1954.92
611.414	1979.33
611.771	1967.12
612.127	1933.23
612.484	1929.38
612.841	1924.19
613.198	1919.22
613.554	1942.72
613.911	1955.82
614.267	1963.51
614.624	1978.42
614.98	1973.68
615.337	1968.48
615.693	1962.38
616.05	1963.28
616.406	2012.32
616.762	1987.69
617.118	1976.84
617.475	1954.92
617.831	1982.26
618.187	2005.31
618.543	1988.59
618.899	2006.67
619.255	2008.7
619.611	1986.56
619.967	1981.59
620.323	2014.81
620.678	2023.62
621.034	2022.72
621.39	2012.09
621.746	1990.63
622.101	2029.95
622.457	2025.43
622.812	2029.72
623.168	2065.2
623.523	2017.97
623.879	2033.56
624.234	2052.54
624.589	2018.65
624.945	2055.26
625.3	2036.73
625.655	2063.84
626.01	2038.53
626.365	2044.64
626.72	2034.01
627.075	2054.13
627.43	2037.4
627.785	2068.14
628.14	2066.33
628.495	2058.87
628.85	2101.81
629.205	2086.89
629.559	2108.59
629.914	2075.14
630.269	2094.8
630.623	2078.08
630.978	2100.91
631.332	2104.75
631.687	2096.16
632.041	2121.24
632.396	2140.45
632.75	2129.38
633.104	2132.54
633.459	2114.46
633.813	2103.62
634.167	2111.07
634.521	2132.54
634.875	2151.3
635.229	2128.93
635.583	2158.98
635.937	2126.22
636.291	2122.83
636.645	2118.76
636.999	2157.17
637.352	2140.68
637.706	2155.14
638.06	2127.35
638.413	2167.12
638.767	2190.39
639.121	2167.34
639.474	2169.15
639.828	2175.93
640.181	2189.94
640.534	2189.72
640.888	2182.26
641.241	2222.26
641.594	2195.82
641.947	2236.27
642.301	2211.64
642.654	2225.87
643.007	2227.68
643.36	2253.44
643.713	2265.65
644.066	2252.09
644.419	2261.8
644.771	2245.31
645.124	2229.49
645.477	2229.04
645.83	2200.79
646.182	2210.51
646.535	2252.77
646.888	2239.43
647.24	2252.09
647.593	2270.39
647.945	2272.2
648.298	2265.19
648.65	2263.61
649.002	2299.09
649.355	2337.06
649.707	2281.47
650.059	2290.5
650.411	2346.55
650.763	2359.43
651.115	2379.54
651.467	2399.2
651.819	2396.04
652.171	2423.38
652.523	2429.03
652.875	2421.35
653.227	2441.01
653.578	2509.71
653.93	2439.43
654.282	2432.42
654.633	2440.56
654.985	2451.18
655.337	2510.84
655.688	2495.25
656.039	2516.71
656.391	2468.81
656.742	2528.24
657.094	2499.09
657.445	2525.98
657.796	2544.74
658.147	2587.67
658.498	2583.83
658.849	2573.66
659.2	2590.61
659.551	2593.55
659.902	2624.73
660.253	2641.46
660.604	2616.6
660.955	2672.64
661.306	2703.15
661.656	2668.12
662.007	2681.23
662.358	2684.39
662.708	2708.35
663.059	2712.19
663.409	2734.11
663.76	2758.97
664.11	2752.19
664.461	2738.63
664.811	2763.03
665.161	2834.22
665.511	2809.81
665.862	2826.76
666.212	2861.56
666.562	2841.22
666.912	2884.84
667.262	2904.27
667.612	2870.6
667.962	2904.73
668.312	2934.78
668.662	2974.1
669.011	2957.15
669.361	2972.75
669.711	2949.24
670.06	2984.72
670.41	3005.74
670.76	3014.1
671.109	3040.09
671.459	3013.88
671.808	3052.97
672.157	3008.45
672.507	3062.69
672.856	3053.87
673.205	3069.69
673.554	3096.59
673.904	3045.74
674.253	3093.2
674.602	3125.29
674.951	3112.18
675.3	3119.64
675.649	3178.39
675.998	3188.56
676.346	3171.61
676.695	3222.68
677.044	3201.44
677.393	3217.71
677.741	3214.55
678.09	3228.56
678.438	3259.07
678.787	3283.02
679.135	3263.36
679.484	3273.76
679.832	3304.04
680.181	3270.59
680.529	3285.05
680.877	3283.02
681.225	3307.65
681.573	3333.87
681.922	3357.37
682.27	3357.6
682.618	3342
682.966	3334.55
683.314	3406.41
683.661	3385.39
684.009	3350.59
684.357	3406.18
684.705	3425.39
685.053	3447.76
685.4	3414.77
685.748	3426.97
686.095	3430.36
686.443	3431.72
686.79	3476.24
687.138	3462.9
687.485	3461.1
687.832	3492.51
688.18	3445.95
688.527	3478.72
688.874	3535.44
689.221	3519.62
689.568	3506.74
689.915	3500.87
690.262	3521.43
690.609	3497.7
690.956	3542.68
691.303	3515.11
691.65	3491.38
691.997	3485.05
692.344	3500.42
692.69	3502.9
693.037	3506.52
693.383	3490.02
693.73	3543.35
694.077	3502.68
694.423	3519.62
694.769	3511.04
695.116	3540.42
695.462	3565.73
695.808	3517.59
696.155	3546.29
696.501	3520.08
696.847	3525.05
697.193	3484.37
697.539	3507.65
697.885	3526.4
698.231	3476.24
698.577	3483.24
698.923	3491.6
699.269	3522.34
699.614	3522.56
699.96	3511.72
700.306	3492.28
700.651	3477.37
700.997	3482.11
701.342	3486.41
701.688	3485.5
702.033	3459.74
702.379	3490.47
702.724	3510.81
703.069	3504.71
703.415	3449.8
703.76	3470.36
704.105	3507.42
704.45	3471.94
704.795	3461.77
705.14	3450.25
705.485	3511.04
705.83	3417.03
706.175	3426.07
706.52	3445.95
706.865	3486.63
707.209	3446.86
707.554	3451.6
707.899	3399.63
708.243	3437.37
708.588	3434.43
708.932	3388.55
709.277	3402.57
709.621	3422.23
709.966	3419.29
710.31	3421.55
710.654	3437.59
710.998	3392.62
711.342	3409.12
711.687	3398.95
712.031	3408.44
712.375	3390.36
712.719	3376.13
713.063	3416.35
713.407	3412.06
713.75	3416.35
714.094	3374.09
714.438	3377.71
714.782	3371.83
715.125	3372.96
715.469	3417.25
715.812	3410.7
716.156	3381.78
716.499	3355.79
716.843	3382.23
717.186	3368.67
717.53	3402.57
717.873	3394.88
718.216	3434.2
718.559	3381.32
718.902	3372.06
719.246	3403.7
719.589	3381.78
719.932	3379.74
720.275	3382
720.617	3386.97
720.96	3394.88
721.303	3392.62
721.646	3371.15
721.989	3387.2
722.331	3406.86
722.674	3376.58
723.016	3391.94
723.359	3364.6
723.701	3429.91
724.044	3373.64
724.386	3372.74
724.729	3399.85
725.071	3400.08
725.413	3432.4
725.755	3370.93
726.097	3387.65
726.439	3377.93
726.782	3420.87
727.124	3397.59
727.465	3378.61
727.807	3356.01
728.149	3349.01
728.491	3405.05
728.833	3377.03
729.175	3376.8
729.516	3395.79
729.858	3423.13
730.199	3449.12
730.541	3403.24
730.882	3402.34
731.224	3371.83
731.565	3395.56
731.906	3412.51
732.248	3410.02
732.589	3446.63
732.93	3427.88
733.271	3401.66
733.612	3460.19
733.953	3427.65
734.294	3432.62
734.635	3459.97
734.976	3455.22
735.317	3403.7
735.658	3435.33
735.999	3433.07
736.339	3470.59
736.68	3463.81
737.021	3439.85
737.361	3451.38
737.702	3525.5
738.042	3488.67
738.383	3477.59
738.723	3504.26
739.063	3500.64
739.404	3512.17
739.744	3461.1
740.084	3505.61
740.424	3479.85
740.764	3513.07
741.104	3491.6
741.444	3525.73
741.784	3501.77
742.124	3541.55
742.464	3550.36
742.804	3542.68
743.143	3586.74
743.483	3555.78
743.823	3616.35
744.162	3589.68
744.502	3645.72
744.841	3626.97
745.181	3614.31
745.52	3650.24
745.86	3662.9
746.199	3640.75
746.538	3691.15
746.877	3672.62
747.216	3717.81
747.556	3714.87
747.895	3749.45
748.234	3788.09
748.573	3764.59
748.911	3740.41
749.25	3812.95
749.589	3815.44
749.928	3825.83
750.267	3852.95
750.605	3849.11
750.944	3873.97
751.283	3900.63
751.621	3886.39
751.96	3912.38
752.298	3941.08
752.636	3987.64
752.975	3967.07
753.313	3990.35
753.651	3980.86
753.989	4022.89
754.327	4027.86
754.666	4069.89
755.004	4069.44
755.342	4118.03
755.679	4130.46
756.017	4122.55
756.355	4194.86
756.693	4201.19
757.031	4176.1
757.368	4187.63
757.706	4273.73
758.044	4228.98
758.381	4293.16
758.719	4278.25
759.056	4277.35
759.394	4321.86
759.731	4330.23
760.068	4317.8
760.405	4344.91
760.743	4372.48
761.08	4364.8
761.417	4375.42
761.754	4385.14
762.091	4437.57
762.428	4382.43
762.765	4421.52
763.102	4462.43
763.438	4441.41
763.775	4423.1
764.112	4447.74
764.449	4504.23
764.785	4433.05
765.122	4459.04
765.458	4436.66
765.795	4480.73
766.131	4483.22
766.467	4497.68
766.804	4490.67
767.14	4444.35
767.476	4478.02
767.812	4464.68
768.148	4499.71
768.485	4515.76
768.821	4459.94
769.157	4443.44
769.492	4482.31
769.828	4462.2
770.164	4450.9
770.5	4491.8
770.836	4467.62
771.171	4463.1
771.507	4490.67
771.842	4458.36
772.178	4444.8
772.513	4444.35
772.849	4420.17
773.184	4407.96
773.519	4451.8
773.855	4382.88
774.19	4404.57
774.525	4422.65
774.86	4422.43
775.195	4388.98
775.53	4397.12
775.865	4364.12
776.2	4358.7
776.535	4267.4
776.87	4344.91
777.205	4316.89
777.539	4343.78
777.874	4328.64
778.209	4280.73
778.543	4301.53
778.878	4262.43
779.212	4241.19
779.547	4240.74
779.881	4299.49
780.215	4265.14
780.55	4222.66
780.884	4218.14
781.218	4190.57
781.552	4184.24
781.886	4141.76
782.22	4181.98
782.554	4134.52
782.888	4148.99
783.222	4147.41
783.556	4109.89
783.889	4091.81
784.223	4090.68
784.557	4085.71
784.89	4102.66
785.224	4067.41
785.557	4071.93
785.891	4092.49
786.224	4056.79
786.558	4058.59
786.891	4006.17
787.224	3981.53
787.557	3962.1
787.891	3998.26
788.224	3992.38
788.557	3981.08
788.89	3964.36
789.223	3927.75
789.556	3982.89
789.888	3934.08
790.221	3897.92
790.554	3843.91
790.887	3903.57
791.219	3910.8
791.552	3861.08
791.884	3890.01
792.217	3843.23
792.549	3853.85
792.882	3810.46
793.214	3805.04
793.546	3792.84
793.879	3826.28
794.211	3822.44
794.543	3800.07
794.875	3753.97
795.207	3805.49
795.539	3769.56
795.871	3770.01
796.203	3717.59
796.535	3754.65
796.867	3731.6
797.198	3713.97
797.53	3686.4
797.862	3702.45
798.193	3675.78
798.525	3662.67
798.856	3647.98
799.188	3625.38
799.519	3662.67
799.85	3574.76
800.182	3595.1
800.513	3605.72
800.844	3563.47
801.175	3612.73
801.506	3588.55
801.837	3551.26
802.168	3562.56
802.499	3546.52
802.83	3541.55
803.161	3553.75
803.491	3569.12
803.822	3506.97
804.153	3516.91
804.483	3469.91
804.814	3509.68
805.145	3475.11
805.475	3445.28
805.805	3451.6
806.136	3443.47
806.466	3486.86
806.796	3395.33
807.126	3422
807.457	3424.26
807.787	3407.99
808.117	3404.83
808.447	3402.11
808.777	3417.03
809.107	3355.11
809.436	3358.73
809.766	3379.97
810.096	3296.13
810.426	3350.36
810.755	3346.97
811.085	3337.26
811.414	3337.26
811.744	3329.57
812.073	3272.85
812.403	3325.96
812.732	3266.3
813.061	3288.44
813.39	3309.46
813.719	3286.86
814.049	3292.96
814.378	3278.05
814.707	3279.86
815.036	3243.47
815.365	3209.58
815.693	3237.15
816.022	3216.36
816.351	3213.64
816.68	3177.94
817.008	3210.93
817.337	3165.51
817.665	3218.39
817.994	3155.34
818.322	3207.32
818.651	3180.2
818.979	3175.45
819.307	3196.7
819.636	3171.61
819.964	3097.94
820.292	3175.45
820.62	3126.19
820.948	3105.4
821.276	3164.38
821.604	3142.46
821.932	3151.05
822.259	3143.82
822.587	3163.25
822.915	3151.5
823.243	3173.87
823.57	3112.86
823.898	3135
824.225	3128.67
824.553	3131.61
824.88	3165.96
825.207	3131.84
825.535	3129.35
825.862	3119.86
826.189	3090.48
826.516	3131.16
826.843	3115.12
827.17	3123.03
827.497	3116.02
827.824	3121.22
828.151	3156.47
828.478	3163.7
828.805	3124.16
829.131	3151.27
829.458	3132.06
829.785	3091.61
830.111	3098.85
830.438	3101.78
830.764	3137.94
831.09	3102.69
831.417	3121.9
831.743	3128.45
832.069	3076.47
832.395	3105.62
832.722	3111.5
833.048	3084.38
833.374	3099.52
833.7	3108.34
834.026	3107.21
834.351	3071.73
834.677	3118.96
835.003	3132.06
835.329	3102.01
835.654	3120.31
835.98	3073.76
836.306	3131.16
836.631	3092.07
836.956	3068.11
837.282	3071.73
837.607	3048.68
837.932	3045.29
838.258	3058.85
838.583	3079.18
838.908	3033.31
839.233	3049.13
839.558	3049.13
839.883	3024.5
840.208	3024.5
840.533	3050.71
840.858	3005.29
841.182	3034.44
841.507	3059.75
841.832	2973.42
842.156	3005.74
842.481	3023.82
842.805	3012.52
843.13	3012.97
843.454	2972.07
843.778	2979.3
844.103	2944.95
844.427	2963.48
844.751	2991.73
845.075	2929.13
845.399	2935.91
845.723	2931.39
846.047	2935.91
846.371	2902.92
846.695	2896.14
847.019	2895.69
847.343	2884.39
847.666	2851.85
847.99	2845.97
848.313	2870.15
848.637	2815.01
848.96	2806.65
849.284	2811.17
849.607	2823.37
849.931	2815.24
850.254	2781.57
850.577	2761.9
850.9	2751.96
851.223	2764.62
851.546	2755.8
851.869	2760.1
852.192	2726.43
852.515	2720.55
852.838	2684.62
853.161	2705.18
853.483	2709.25
853.806	2704.28
854.129	2712.87
854.451	2674
854.774	2663.15
855.096	2654.11
855.419	2671.06
855.741	2642.13
856.063	2648.24
856.385	2629.03
856.708	2639.87
857.03	2649.59
857.352	2619.54
857.674	2626.54
857.996	2601.68
858.318	2591.06
858.64	2580.21
858.961	2575.02
859.283	2601.91
859.605	2580.44
859.926	2569.59
860.248	2585.86
860.57	2558.75
860.891	2566.2
861.212	2540.22
861.534	2537.96
861.855	2537.05
862.176	2541.12
862.498	2509.71
862.819	2543.61
863.14	2537.05
863.461	2499.99
863.782	2523.04
864.103	2516.71
864.424	2523.49
864.745	2505.64
865.065	2481.01
865.386	2469.71
865.707	2468.13
866.027	2476.49
866.348	2480.1
866.668	2453.66
866.989	2448.47
867.309	2464.51
867.63	2432.65
867.95	2480.33
868.27	2488.69
868.59	2480.56
868.91	2456.38
869.23	2458.41
869.55	2456.83
869.87	2458.18
870.19	2426.32
870.51	2459.99
870.83	2449.14
871.15	2437.17
871.469	2433.55
871.789	2447.34
872.109	2437.62
872.428	2428.13
872.748	2414.57
873.067	2384.74
873.386	2436.26
873.706	2380.67
874.025	2409.15
874.344	2386.32
874.663	2365.08
874.982	2368.24
875.301	2380.45
875.62	2403.72
875.939	2400.11
876.258	2376.15
876.577	2375.93
876.896	2382.03
877.214	2358.98
877.533	2368.92
877.852	2359.88
878.17	2333.22
878.489	2324.85
878.807	2335.48
879.125	2355.36
879.444	2388.36
879.762	2331.18
880.08	2365.31
880.398	2331.86
880.716	2341.35
881.034	2336.83
881.352	2302.71
881.67	2304.97
881.988	2280.56
882.306	2280.34
882.624	2309.94
882.941	2266.55
883.259	2289.6
883.577	2264.74
883.894	2300.22
884.212	2293.89
884.529	2262.93
884.846	2294.8
885.164	2322.37
885.481	2268.81
885.798	2269.94
886.115	2245.53
886.432	2215.48
886.75	2273.78
887.067	2249.6
887.383	2243.27
887.7	2266.1
888.017	2192.2
888.334	2238.53
888.651	2206.89
888.967	2227.23
889.284	2193.78
889.6	2187.23
889.917	2169.6
890.233	2156.27
890.55	2200.79
890.866	2193.33
891.182	2182.48
891.498	2181.81
891.815	2132.54
892.131	2132.99
892.447	2144.29
892.763	2141.13
893.079	2152.43
893.395	2135.71
893.71	2165.76
894.026	2110.85
894.342	2130.96
894.657	2106.78
894.973	2097.74
895.289	2125.99
895.604	2122.15
895.92	2093
896.235	2049.38
896.55	2069.49
896.865	2080.79
897.181	2090.06
897.496	2040.79
897.811	2057.74
898.126	2074.24
898.441	2041.7
898.756	2034.24
899.071	2058.19
899.386	2013.68
899.7	2019.1
900.015	2015.94
900.33	2022.26
900.644	1979.1
900.959	2000.12
901.273	2035.14
901.588	2008.03
901.902	1987.91
902.216	1961.25
902.531	1969.84
902.845	1947.46
903.159	1955.15
903.473	1937.97
903.787	1940.91
904.101	1921.02
904.415	1950.63
904.729	1950.85
905.042	1890.29
905.356	1904.3
905.67	1894.81
905.984	1927.58
906.297	1875.83
906.611	1879.67
906.924	1921.25
907.237	1911.08
907.551	1876.96
907.864	1859.56
908.177	1873.79
908.491	1894.36
908.804	1860.46
909.117	1830.86
909.43	1833.12
909.743	1840.8
910.056	1853
910.368	1817.75
910.681	1799.67
910.994	1804.64
911.307	1808.94
911.619	1799.9
911.932	1793.57
912.244	1797.41
912.557	1811.2
912.869	1790.63
913.181	1802.16
913.494	1787.47
913.806	1754.25
914.118	1765.09
914.43	1739.78
914.742	1741.82
915.054	1768.03
915.366	1727.81
915.678	1725.32
915.99	1712.21
916.302	1710.63
916.613	1706.11
916.925	1719.45
917.236	1704.98
917.548	1657.53
917.859	1683.29
918.171	1709.28
918.482	1673.57
918.794	1655.95
919.105	1644.65
919.416	1650.3
919.727	1636.51
920.038	1683.97
920.349	1642.39
920.66	1621.14
920.971	1618.66
921.282	1642.39
921.593	1602.16
921.903	1604.42
922.214	1609.39
922.525	1594.48
922.835	1606.68
923.146	1601.48
923.456	1584.08
923.767	1583.4
924.077	1595.38
924.387	1572.33
924.697	1545.44
925.008	1547.02
925.318	1549.73
925.628	1549.28
925.938	1550.86
926.248	1540.69
926.558	1536.85
926.867	1536.85
927.177	1536.17
927.487	1524.2
927.796	1503.63
928.106	1515.16
928.416	1490.3
928.725	1518.55
929.034	1503.41
929.344	1474.93
929.653	1482.16
929.962	1479.23
930.271	1506.57
930.581	1467.02
930.89	1456.63
931.199	1465.44
931.508	1441.04
931.817	1433.8
932.125	1449.17
932.434	1430.41
932.743	1427.25
933.051	1413.47
933.36	1397.42
933.669	1409.4
933.977	1398.1
934.286	1426.12
934.594	1408.72
934.902	1410.08
935.21	1387.25
935.519	1375.05
935.827	1396.74
936.135	1369.17
936.443	1353.58
936.751	1349.06
937.059	1370.08
937.367	1368.04
937.674	1367.82
937.982	1365.56
938.29	1386.12
938.597	1342.28
938.905	1361.49
939.213	1306.12
939.52	1345.9
939.827	1322.17
940.135	1314.03
940.442	1315.62
940.749	1312.23
941.056	1318.78
941.363	1283.98
941.67	1341.83
941.977	1284.66
942.284	1291.66
942.591	1297.99
942.898	1303.19
943.205	1259.12
943.511	1260.93
943.818	1264.32
944.125	1240.36
944.431	1278.55
944.738	1260.7
945.044	1228.61
945.35	1243.3
945.657	1251.21
945.963	1239.91
946.269	1239.46
946.575	1247.14
946.881	1235.17
947.187	1265.67
947.493	1226.8
947.799	1239.68
948.105	1225.45
948.41	1188.16
948.716	1195.84
949.022	1202.85
949.327	1187.03
949.633	1198.33
949.938	1184.32
950.244	1207.37
950.549	1197.88
950.854	1177.31
951.16	1171.66
951.465	1174.83
951.77	1156.3
952.075	1152.68
952.38	1151.33
952.685	1150.42
952.99	1144.77
953.294	1149.97
953.599	1142.51
953.904	1152.23
954.209	1131.89
954.513	1113.81
954.818	1121.5
955.122	1123.53
955.426	1139.12
955.731	1106.58
956.035	1104.1
956.339	1128.5
956.643	1097.09
956.948	1116.98
957.252	1087.6
957.556	1090.08
957.86	1099.8
958.163	1088.5
958.467	1104.55
958.771	1096.19
959.075	1097.54
959.378	1055.96
959.682	1101.84
959.985	1073.14
960.289	1045.34
960.592	1039.92
960.896	1048.28
961.199	1046.24
961.502	1074.94
961.805	1045.34
962.108	1044.66
962.411	1041.05
962.714	1034.72
963.017	1020.48
963.32	1032.91
963.623	1035.4
963.926	1024.55
964.228	1020.93
964.531	1029.75
964.833	1036.98
965.136	1014.38
965.438	1031.55
965.741	1000.82
966.043	1012.35
966.345	988.39
966.648	1003.53
966.95	1001.5
967.252	974.61
967.554	998.11
967.856	976.42
968.158	1005.11
968.46	970.77
968.761	977.09
969.063	958.79
969.365	954.95
969.666	986.58
969.968	951.56
970.269	981.61
970.571	967.38
970.872	960.37
971.174	949.98
971.475	928.28
971.776	940.94
972.077	943.87
972.378	956.53
972.679	951.33
972.98	913.82
973.281	938
973.582	956.08
973.883	952.23
974.183	927.6
974.484	913.37
974.785	903.42
975.085	907.94
975.386	928.28
975.686	921.05
975.986	919.92
976.287	910.43
976.587	903.2
976.887	907.26
977.187	884.44
977.487	899.35
977.787	913.59
978.087	890.77
978.387	878.34
978.687	883.99
978.987	870.43
979.286	864.33
979.586	868.17
979.885	860.71
980.185	841.96
980.484	868.85
980.784	845.35
981.083	853.25
981.382	851.67
981.682	855.51
981.981	851.22
982.28	829.53
982.579	852.8
982.878	846.93
983.177	863.2
983.475	834.5
983.774	836.08
984.073	857.77
984.372	841.73
984.67	826.81
984.969	843.31
985.267	830.66
985.566	841.28
985.864	824.1
986.162	806.93
986.461	814.39
986.759	822.07
987.057	795.4
987.355	825.01
987.653	801.05
987.951	805.12
988.249	801.28
988.547	790.88
988.844	803.76
989.142	802.86
989.44	786.36
989.737	794.5
990.035	759.7
990.332	771.22
990.63	792.47
990.927	779.36
991.224	770.54
991.521	757.66
991.819	752.92
992.116	783.88
992.413	746.14
992.71	762.86
993.006	760.6
993.303	768.28
993.6	743.43
993.897	742.97
994.193	756.08
994.49	737.1
994.787	747.95
995.083	731.22
995.379	756.76
995.676	734.84
995.972	721.51
996.268	745.23
996.565	740.26
996.861	738.46
997.157	734.84
997.453	735.29
997.749	736.65
998.044	710.66
998.34	714.95
998.636	710.43
998.932	714.05
999.227	710.21
999.523	719.92
999.818	695.74
1000.114	700.72
1000.409	686.71
1000.704	695.74
1001	705.69
1001.295	704.78
1001.59	698
1001.885	698.68
1002.18	692.58
1002.475	666.14
1002.77	661.62
1003.065	674.5
1003.359	691
1003.654	690.77
1003.949	674.5
1004.243	660.94
1004.538	672.92
1004.832	661.4
1005.127	687.16
1005.421	670.21
1005.715	652.58
1006.009	660.04
1006.304	653.94
1006.598	662.75
1006.892	642.64
1007.186	618.01
1007.48	675.41
1007.773	654.16
1008.067	644.67
1008.361	644.9
1008.655	630.66
1008.948	638.12
1009.242	632.92
1009.535	652.81
1009.829	649.64
1010.122	634.05
1010.415	631.57
1010.708	647.16
1011.001	588.85
1011.295	612.58
1011.588	606.26
1011.881	619.81
1012.173	629.53
1012.466	619.36
1012.759	592.24
1013.052	618.23
1013.344	599.25
1013.637	615.97
1013.93	587.27
1014.222	620.94
1014.514	595.86
1014.807	585.69
1015.099	599.02
1015.391	582.08
1015.683	575.3
1015.976	595.41
1016.268	585.24
1016.56	581.17
1016.851	571
1017.143	568.06
1017.435	571.45
1017.727	556.54
1018.018	589.76
1018.31	573.94
1018.602	573.04
1018.893	567.39
1019.185	566.48
1019.476	547.05
1019.767	542.3
1020.058	576.2
1020.35	567.61
1020.641	566.48
1020.932	549.53
1021.223	556.31
1021.514	556.77
1021.804	518.35
1022.095	543.43
1022.386	559.25
1022.677	537.56
1022.967	545.69
1023.258	538.91
1023.548	533.04
1023.839	554.96
1024.129	533.04
1024.419	527.16
1024.709	536.43
1025	544.11
1025.29	517.9
1025.58	509.76
1025.87	539.59
1026.16	514.28
1026.449	526.03
1026.739	507.95
1027.029	501.63
1027.319	515.41
1027.608	508.63
1027.898	512.47
1028.187	508.63
1028.477	511.57
1028.766	480.38
1029.055	499.82
1029.344	495.98
1029.634	480.16
1029.923	500.04
1030.212	495.75
1030.501	487.39
1030.79	486.48
1031.078	496.88
1031.367	500.72
1031.656	504.79
1031.945	490.1
1032.233	474.28
1032.522	476.09
1032.81	474.28
1033.099	477.45
1033.387	469.31
1033.675	462.3
1033.963	486.71
1034.251	476.99
1034.54	483.32
1034.828	472.7
1035.116	453.49
1035.403	468.18
1035.691	468.63
1035.979	463.21
1036.267	457.33
1036.554	479.93
1036.842	476.99
1037.129	462.98
1037.417	459.14
1037.704	462.76
1037.992	472.25
1038.279	465.24
1038.566	473.15
1038.853	473.15
1039.14	473.15
