Data from blue_chair_FLMS001491_00015.txt Node
Date: Wed Feb 08 10:29:32 GMT 2017
User: dcchb
Spectrometer: FLMS00149
Trigger mode: 0
Integration Time (sec): 2.000000E-2
Scans to average: 10
Electric dark correction enabled: true
Nonlinearity correction enabled: false
Boxcar width: 0
XAxis mode: Wavelengths
Number of Pixels in Spectrum: 2048
>>>>>Begin Spectral Data<<<<<
341.393	-7.7
341.776	-7.7
342.16	-7.7
342.543	-68.26
342.927	-51.99
343.31	-73.91
343.693	-38.43
344.077	-72.78
344.46	-55.61
344.843	-61.26
345.226	-35.49
345.61	-19.45
345.993	-26.23
346.376	-7.47
346.759	20.1
347.142	25.75
347.525	29.82
347.908	39.08
348.291	75.46
348.674	84.5
349.057	115.92
349.44	136.48
349.823	147.1
350.206	141.45
350.588	184.16
350.971	186.87
351.354	184.84
351.737	206.08
352.119	209.92
352.502	242.92
352.884	239.08
353.267	256.25
353.65	283.82
354.032	277.27
354.414	281.56
354.797	278.62
355.179	278.85
355.562	297.61
355.944	286.98
356.326	310.71
356.709	301.67
357.091	290.83
357.473	300.77
357.855	339.64
358.238	304.16
358.62	310.03
359.002	319.53
359.384	308.45
359.766	317.94
360.148	319.53
360.53	306.64
360.912	316.81
361.294	308.45
361.676	303.25
362.057	300.54
362.439	316.36
362.821	306.19
363.203	287.44
363.584	320.43
363.966	306.42
364.348	300.99
364.729	301.9
365.111	294.44
365.493	284.72
365.874	312.07
366.256	284.95
366.637	299.64
367.019	277.04
367.4	269.36
367.781	277.04
368.163	288.34
368.544	268.23
368.925	290.37
369.306	292.86
369.688	274.78
370.069	269.81
370.45	289.02
370.831	300.99
371.212	275.23
371.593	289.92
371.974	276.81
372.355	292.86
372.736	273.65
373.117	292.63
373.498	297.38
373.879	283.59
374.26	278.4
374.641	276.81
375.021	284.5
375.402	287.89
375.783	297.83
376.163	288.57
376.544	275.01
376.925	285.18
377.305	274.78
377.686	292.18
378.066	299.64
378.447	304.16
378.827	296.93
379.208	283.59
379.588	290.37
379.968	279.98
380.349	298.74
380.729	284.95
381.109	305.74
381.489	308.45
381.87	295.35
382.25	278.17
382.63	287.89
383.01	296.48
383.39	300.77
383.77	307.55
384.15	286.53
384.53	295.8
384.91	298.74
385.29	295.8
385.67	303.71
386.049	316.59
386.429	298.96
386.809	313.88
387.189	293.76
387.568	287.89
387.948	297.83
388.328	300.09
388.707	315.01
389.087	316.14
389.466	315.23
389.846	302.8
390.225	308.45
390.605	315.23
390.984	319.07
391.363	322.24
391.743	309.81
392.122	301.9
392.501	316.59
392.881	305.29
393.26	290.6
393.639	322.69
394.018	309.58
394.397	310.03
394.776	317.94
395.155	323.59
395.534	320.88
395.913	320.43
396.292	331.28
396.671	347.77
397.05	316.59
397.429	315.01
397.808	325.4
398.186	335.57
398.565	345.97
398.944	313.88
399.323	327.89
399.701	327.66
400.08	337.38
400.458	350.49
400.837	352.07
401.215	342.8
401.594	336.93
401.972	372.41
402.351	343.03
402.729	340.99
403.107	343.93
403.486	372.18
403.864	348.23
404.242	350.71
404.62	359.07
404.999	367.89
405.377	358.39
405.755	367.66
406.133	331.28
406.511	351.39
406.889	377.83
407.267	339.41
407.645	378.96
408.023	385.51
408.401	388.45
408.779	358.62
409.156	377.6
409.534	365.85
409.912	384.38
410.29	403.37
410.667	374.21
411.045	404.72
411.422	379.41
411.8	384.61
412.178	401.56
412.555	396.13
412.933	371.73
413.31	410.37
413.687	389.35
414.065	393.87
414.442	414.21
414.819	405.4
415.197	393.65
415.574	406.08
415.951	406.08
416.328	431.39
416.705	414.89
417.082	428.22
417.46	407.21
417.837	428.68
418.214	410.6
418.591	413.31
418.967	394.55
419.344	434.55
419.721	407.43
420.098	420.54
420.475	422.35
420.852	407.43
421.228	433.42
421.605	435.68
421.982	426.87
422.358	453.08
422.735	435.68
423.111	463.7
423.488	467.32
423.864	473.42
424.241	448.79
424.617	468.67
424.994	467.77
425.37	462.12
425.746	465.96
426.123	488.11
426.499	471.61
426.875	470.48
427.251	482.69
427.627	474.78
428.003	490.59
428.379	522.91
428.756	523.14
429.132	500.99
429.507	485.85
429.883	498.5
430.259	524.04
430.635	525.17
431.011	532.18
431.387	514.32
431.763	512.51
432.138	546.41
432.514	514.55
432.89	539.86
433.265	541.44
433.641	538.73
434.016	541.21
434.392	552.51
434.767	566.98
435.143	559.29
435.518	578.28
435.894	589.57
436.269	585.28
436.644	575.11
437.02	607.65
437.395	606.75
437.77	616.69
438.145	620.08
438.52	623.02
438.895	621.66
439.271	651.27
439.646	646.75
440.021	637.94
440.395	651.27
440.77	659.4
441.145	642.68
441.52	657.37
441.895	652.62
442.27	690.82
442.645	658.05
443.019	684.71
443.394	685.84
443.769	732.85
444.143	701.21
444.518	697.37
444.892	697.14
445.267	703.92
445.641	721.77
446.016	722.45
446.39	721.32
446.764	727.88
447.139	704.37
447.513	738.72
447.887	771.04
448.262	740.53
448.636	736.46
449.01	765.84
449.384	750.7
449.758	755.22
450.132	751.83
450.506	755.67
450.88	757.48
451.254	776.24
451.628	761.32
452.002	774.2
452.376	792.28
452.75	799.51
453.123	801.09
453.497	817.37
453.871	812.85
454.244	846.29
454.618	859.62
454.992	867.31
455.365	838.61
455.739	853.3
456.112	870.47
456.486	853.07
456.859	877.93
457.232	889
457.606	885.84
457.979	893.52
458.352	903.24
458.725	926.29
459.099	912.73
459.472	929.45
459.845	950.02
460.218	948.44
460.591	949.57
460.964	936.46
461.337	939.17
461.71	923.8
462.083	978.04
462.456	972.39
462.829	969.9
463.201	1012.84
463.574	973.75
463.947	994.08
464.32	972.84
464.692	1018.94
465.065	1022.78
465.438	1017.59
465.81	1039.51
466.183	1043.57
466.555	1053.52
466.928	1047.64
467.3	1039.96
467.672	1068.66
468.045	1084.7
468.417	1111.6
468.789	1091.48
469.161	1097.13
469.534	1097.36
469.906	1122.44
470.278	1151.82
470.65	1133.97
471.022	1167.19
471.394	1166.73
471.766	1146.85
472.138	1186.85
472.51	1190.01
472.882	1206.06
473.253	1219.39
473.625	1196.56
473.997	1247.86
474.369	1256.68
474.74	1222.1
475.112	1258.48
475.484	1264.36
475.855	1320.63
476.227	1308.2
476.598	1334.19
476.97	1342.32
477.341	1336.9
477.713	1354.07
478.084	1346.84
478.455	1398.14
478.827	1380.06
479.198	1380.97
479.569	1417.58
479.94	1414.64
480.311	1456.22
480.682	1465.71
481.053	1451.47
481.424	1504.35
481.795	1505.03
482.166	1491.92
482.537	1539.83
482.908	1547.06
483.279	1524.92
483.65	1563.11
484.021	1605.14
484.391	1574.41
484.762	1581.41
485.133	1601.07
485.503	1583.22
485.874	1624.58
486.244	1664.35
486.615	1624.8
486.985	1656.89
487.356	1651.02
487.726	1688.76
488.097	1691.69
488.467	1708.42
488.837	1726.95
489.207	1736.44
489.578	1759.04
489.948	1762.88
490.318	1780.73
490.688	1731.47
491.058	1784.12
491.428	1791.8
491.798	1777.57
492.168	1815.98
492.538	1813.72
492.908	1788.41
493.278	1832.93
493.648	1801.52
494.017	1825.02
494.387	1805.81
494.757	1814.85
495.126	1824.57
495.496	1846.72
495.866	1823.21
496.235	1854.63
496.605	1862.76
496.974	1839.49
497.344	1845.14
497.713	1852.37
498.082	1854.85
498.452	1852.82
498.821	1823.89
499.19	1855.53
499.559	1862.08
499.928	1826.15
500.298	1856.66
500.667	1875.64
501.036	1817.57
501.405	1875.19
501.774	1868.64
502.143	1860.5
502.512	1864.57
502.88	1872.93
503.249	1871.35
503.618	1839.49
503.987	1840.84
504.356	1883.33
504.724	1857.56
505.093	1838.81
505.462	1851.46
505.83	1856.89
506.199	1863.21
506.567	1860.05
506.936	1844.23
507.304	1858.92
507.672	1819.15
508.041	1827.51
508.409	1849.43
508.777	1860.05
509.145	1867.73
509.514	1848.75
509.882	1847.62
510.25	1833.84
510.618	1856.66
510.986	1838.13
511.354	1825.25
511.722	1858.92
512.09	1867.28
512.458	1821.86
512.826	1852.82
513.193	1851.69
513.561	1813.72
513.929	1802.42
514.297	1821.18
514.664	1834.74
515.032	1820.73
515.4	1852.14
515.767	1814.63
516.135	1816.66
516.502	1757.91
516.869	1825.93
517.237	1780.5
517.604	1785.7
517.972	1793.39
518.339	1790.45
518.706	1797.45
519.073	1798.13
519.44	1769.2
519.808	1831.58
520.175	1772.14
520.542	1778.47
520.909	1804.68
521.276	1768.98
521.643	1779.15
522.009	1776.66
522.376	1761.75
522.743	1807.85
523.11	1761.75
523.477	1781.63
523.843	1768.53
524.21	1783.67
524.577	1804.23
524.943	1743.89
525.31	1782.31
525.676	1773.05
526.043	1781.86
526.409	1774.63
526.776	1778.24
527.142	1781.18
527.508	1757.45
527.874	1751.8
528.241	1778.47
528.607	1775.76
528.973	1735.08
529.339	1730.79
529.705	1772.59
530.071	1757.91
530.437	1771.01
530.803	1774.85
531.169	1792.26
531.535	1764.23
531.901	1750.67
532.267	1745.93
532.632	1739.83
532.998	1781.18
533.364	1756.1
533.73	1735.31
534.095	1742.99
534.461	1751.13
534.826	1736.89
535.192	1718.36
535.557	1723.1
535.923	1734.18
536.288	1756.1
536.653	1748.19
537.019	1722.65
537.384	1728.3
537.749	1734.4
538.114	1719.71
538.479	1705.03
538.845	1710
539.21	1733.5
539.575	1721.75
539.94	1688.08
540.305	1717
540.67	1697.34
541.034	1693.5
541.399	1695.76
541.764	1727.62
542.129	1720.17
542.494	1706.38
542.858	1700.73
543.223	1719.71
543.587	1684.24
543.952	1662.09
544.316	1666.38
544.681	1674.97
545.045	1690.79
545.41	1664.57
545.774	1662.32
546.138	1689.88
546.503	1657.8
546.867	1664.35
547.231	1662.77
547.595	1674.74
547.959	1667.74
548.324	1651.47
548.688	1643.56
549.052	1657.12
549.416	1645.37
549.779	1653.95
550.143	1634.52
550.507	1655.54
550.871	1632.49
551.235	1671.13
551.599	1649.89
551.962	1637
552.326	1658.02
552.689	1630.23
553.053	1630.23
553.417	1650.34
553.78	1642.2
554.143	1617.34
554.507	1625.93
554.87	1627.97
555.234	1635.42
555.597	1642.88
555.96	1622.09
556.323	1590.68
556.686	1639.04
557.05	1610.34
557.413	1582.77
557.776	1620.06
558.139	1634.07
558.502	1603.56
558.865	1615.31
559.228	1603.33
559.59	1622.99
559.953	1626.38
560.316	1601.98
560.679	1620.28
561.041	1586.16
561.404	1630.45
561.767	1640.17
562.129	1613.95
562.492	1620.51
562.854	1601.75
563.217	1571.24
563.579	1592.71
563.941	1592.49
564.304	1613.73
564.666	1628.87
565.028	1633.62
565.39	1633.39
565.753	1621.86
566.115	1602.66
566.477	1652.6
566.839	1634.29
567.201	1646.27
567.563	1637.68
567.925	1627.97
568.287	1645.82
568.648	1639.04
569.01	1646.27
569.372	1675.2
569.734	1644.91
570.095	1695.31
570.457	1692.37
570.819	1680.62
571.18	1693.5
571.542	1691.24
571.903	1666.83
572.265	1673.39
572.626	1660.73
572.987	1705.93
573.349	1691.69
573.71	1693.5
574.071	1698.47
574.432	1695.31
574.794	1708.42
575.155	1696.21
575.516	1725.36
575.877	1709.09
576.238	1735.31
576.599	1758.36
576.96	1738.7
577.32	1734.4
577.681	1728.98
578.042	1737.34
578.403	1719.49
578.763	1761.52
579.124	1718.58
579.485	1784.35
579.845	1757.68
580.206	1738.7
580.566	1736.89
580.927	1754.97
581.287	1785.7
581.648	1776.21
582.008	1735.08
582.368	1766.04
582.728	1758.36
583.089	1760.62
583.449	1777.11
583.809	1789.77
584.169	1802.42
584.529	1768.75
584.889	1776.21
585.249	1781.86
585.609	1754.74
585.969	1792.71
586.329	1784.12
586.688	1786.83
587.048	1767.17
587.408	1758.13
587.768	1749.09
588.127	1785.7
588.487	1774.18
588.846	1791.8
589.206	1746.61
589.565	1768.75
589.925	1793.61
590.284	1773.95
590.643	1815.98
591.003	1814.63
591.362	1792.93
591.721	1774.4
592.08	1797.45
592.44	1775.31
592.799	1787.74
593.158	1788.87
593.517	1784.12
593.876	1767.62
594.235	1768.75
594.593	1792.71
594.952	1799.71
595.311	1807.85
595.67	1768.53
596.029	1796.32
596.387	1786.61
596.746	1764.91
597.104	1777.11
597.463	1775.98
597.822	1772.37
598.18	1790.22
598.538	1777.11
598.897	1762.65
599.255	1771.01
599.613	1824.8
599.972	1788.64
600.33	1759.26
600.688	1779.37
601.046	1785.02
601.404	1789.32
601.762	1785.7
602.12	1773.95
602.478	1781.86
602.836	1794.06
603.194	1806.04
603.552	1764.91
603.91	1759.04
604.268	1772.37
604.625	1801.29
604.983	1764.46
605.341	1791.58
605.698	1776.66
606.056	1795.42
606.413	1770.33
606.771	1800.62
607.128	1765.82
607.485	1789.32
607.843	1750.9
608.2	1791.8
608.557	1776.66
608.914	1778.24
609.272	1798.36
609.629	1787.28
609.986	1804.68
610.343	1799.26
610.7	1807.85
611.057	1816.66
611.414	1777.11
611.771	1811.92
612.127	1811.46
612.484	1815.08
612.841	1793.61
613.198	1808.75
613.554	1813.27
613.911	1830.9
614.267	1812.59
614.624	1802.65
614.98	1791.13
615.337	1799.49
615.693	1797.68
616.05	1813.72
616.406	1836.1
616.762	1816.44
617.118	1797.45
617.475	1828.19
617.831	1804.68
618.187	1797.68
618.543	1819.15
618.899	1832.71
619.255	1816.21
619.611	1823.89
619.967	1840.39
620.323	1825.7
620.678	1825.02
621.034	1820.28
621.39	1832.93
621.746	1826.38
622.101	1799.26
622.457	1833.61
622.812	1837
623.168	1813.95
623.523	1830.22
623.879	1829.32
624.234	1841.97
624.589	1826.83
624.945	1841.07
625.3	1858.92
625.655	1833.38
626.01	1833.16
626.365	1864.12
626.72	1818.92
627.075	1808.07
627.43	1854.85
627.785	1846.94
628.14	1825.7
628.495	1825.02
628.85	1833.61
629.205	1850.11
629.559	1843.33
629.914	1814.63
630.269	1830.9
630.623	1839.94
630.978	1853.95
631.332	1830.45
631.687	1833.84
632.041	1840.16
632.396	1844.01
632.75	1802.65
633.104	1839.03
633.459	1828.19
633.813	1818.7
634.167	1806.49
634.521	1812.14
634.875	1825.93
635.229	1824.12
635.583	1813.5
635.937	1808.07
636.291	1791.35
636.645	1839.03
636.999	1828.86
637.352	1821.86
637.706	1823.89
638.06	1846.27
638.413	1818.7
638.767	1841.97
639.121	1818.92
639.474	1814.63
639.828	1804.68
640.181	1821.63
640.534	1846.94
640.888	1845.81
641.241	1783.22
641.594	1837.68
641.947	1813.95
642.301	1814.63
642.654	1827.51
643.007	1852.37
643.36	1804.01
643.713	1798.36
644.066	1811.92
644.419	1845.81
644.771	1812.14
645.124	1800.62
645.477	1786.15
645.83	1801.97
646.182	1784.12
646.535	1791.35
646.888	1773.05
647.24	1766.49
647.593	1782.99
647.945	1780.5
648.298	1796.1
648.65	1766.95
649.002	1771.46
649.355	1806.49
649.707	1753.16
650.059	1803.33
650.411	1822.31
650.763	1829.32
651.115	1846.27
651.467	1847.17
651.819	1840.84
652.171	1892.37
652.523	1812.37
652.875	1811.24
653.227	1848.3
653.578	1842.2
653.93	1843.1
654.282	1834.97
654.633	1870.9
654.985	1849.2
655.337	1875.64
655.688	1852.59
656.039	1860.28
656.391	1871.12
656.742	1843.33
657.094	1856.89
657.445	1866.15
657.796	1861.18
658.147	1860.5
658.498	1849.88
658.849	1869.54
659.2	1868.64
659.551	1853.5
659.902	1875.87
660.253	1865.93
660.604	1866.15
660.955	1883.33
661.306	1863.67
661.656	1851.69
662.007	1835.87
662.358	1871.58
662.708	1884.68
663.059	1874.06
663.409	1843.55
663.76	1854.85
664.11	1887.17
664.461	1895.98
664.811	1872.48
665.161	1883.1
665.511	1871.12
665.862	1888.07
666.212	1894.85
666.562	1880.61
666.912	1858.69
667.262	1838.81
667.612	1849.2
667.962	1860.5
668.312	1857.79
668.662	1844.01
669.011	1865.47
669.361	1831.58
669.711	1864.57
670.06	1855.3
670.41	1848.3
670.76	1856.21
671.109	1885.81
671.459	1857.79
671.808	1858.69
672.157	1884.46
672.507	1856.43
672.856	1824.34
673.205	1870.45
673.554	1845.81
673.904	1874.06
674.253	1846.04
674.602	1841.07
674.951	1823.89
675.3	1806.49
675.649	1823.44
675.998	1799.94
676.346	1794.29
676.695	1848.3
677.044	1819.37
677.393	1852.14
677.741	1824.57
678.09	1804.01
678.438	1794.74
678.787	1811.01
679.135	1821.63
679.484	1793.39
679.832	1789.54
680.181	1767.85
680.529	1813.05
680.877	1805.81
681.225	1779.37
681.573	1770.56
681.922	1761.97
682.27	1759.49
682.618	1804.01
682.966	1794.74
683.314	1780.5
683.661	1768.3
684.009	1792.26
684.357	1788.64
684.705	1758.36
685.053	1761.52
685.4	1746.83
685.748	1732.14
686.095	1738.47
686.443	1757
686.79	1768.3
687.138	1719.49
687.485	1728.75
687.832	1745.7
688.18	1749.09
688.527	1718.13
688.874	1721.97
689.221	1711.81
689.568	1714.97
689.915	1724.01
690.262	1733.05
690.609	1712.03
690.956	1690.79
691.303	1667.96
691.65	1712.94
691.997	1686.5
692.344	1696.44
692.69	1668.87
693.037	1668.64
693.383	1677.91
693.73	1677.46
694.077	1647.85
694.423	1644.01
694.769	1644.01
695.116	1645.59
695.462	1632.26
695.808	1622.99
696.155	1623.9
696.501	1622.99
696.847	1632.03
697.193	1635.88
697.539	1608.98
697.885	1621.41
698.231	1626.61
698.577	1612.6
698.923	1601.53
699.269	1601.53
699.614	1580.06
699.96	1610.11
700.306	1592.71
700.651	1580.06
700.997	1583.45
701.342	1610.56
701.688	1605.59
702.033	1566.72
702.379	1556.78
702.724	1564.01
703.069	1577.12
703.415	1562.88
703.76	1585.71
704.105	1567.85
704.45	1557.23
704.795	1552.04
705.14	1573.5
705.485	1568.76
705.83	1585.03
706.175	1553.62
706.52	1576.67
706.865	1530.79
707.209	1546.84
707.554	1556.33
707.899	1552.49
708.243	1536.89
708.588	1547.74
708.932	1549.32
709.277	1550.23
709.621	1519.72
709.966	1544.58
710.31	1514.3
710.654	1553.17
710.998	1538.48
711.342	1540.96
711.687	1563.79
712.031	1570.11
712.375	1552.94
712.719	1551.13
713.063	1568.76
713.407	1574.86
713.75	1559.94
714.094	1554.75
714.438	1545.03
714.782	1584.35
715.125	1531.47
715.469	1581.19
715.812	1563.56
716.156	1523.34
716.499	1550
716.843	1581.41
717.186	1555.43
717.53	1556.1
717.873	1562.88
718.216	1567.63
718.559	1565.59
718.902	1564.46
719.246	1557.91
719.589	1588.42
719.932	1588.19
720.275	1624.58
720.617	1586.61
720.96	1577.35
721.303	1594.52
721.646	1595.65
721.989	1611.92
722.331	1610.11
722.674	1630.23
723.016	1618.7
723.359	1624.58
723.701	1603.79
724.044	1597.46
724.386	1594.97
724.729	1597.01
725.071	1627.97
725.413	1635.88
725.755	1646.72
726.097	1640.39
726.439	1670.45
726.782	1634.75
727.124	1654.18
727.465	1660.06
727.807	1652.82
728.149	1647.17
728.491	1644.01
728.833	1658.25
729.175	1670.22
729.516	1678.13
729.858	1697.57
730.199	1687.17
730.541	1694.63
730.882	1696.89
731.224	1724.23
731.565	1738.02
731.906	1725.59
732.248	1728.98
732.589	1741.86
732.93	1746.38
733.271	1756.55
733.612	1760.84
733.953	1759.49
734.294	1769.88
734.635	1786.61
734.976	1757.45
735.317	1776.89
735.658	1783.44
735.999	1816.89
736.339	1825.7
736.68	1826.15
737.021	1839.03
737.361	1844.68
737.702	1862.54
738.042	1852.14
738.383	1883.78
738.723	1879.03
739.063	1886.72
739.404	1918.58
739.744	1906.38
740.084	1947.96
740.424	1943.66
740.764	1961.29
741.104	1968.97
741.444	2007.39
741.784	1992.25
742.124	2035.41
742.464	2055.98
742.804	2038.35
743.143	2077.9
743.483	2104.34
743.823	2060.72
744.162	2112.92
744.502	2141.62
744.841	2169.19
745.181	2208.29
745.52	2226.14
745.86	2264.33
746.199	2273.37
746.538	2305.46
746.877	2280.38
747.216	2329.87
747.556	2340.72
747.895	2390.43
748.234	2410.32
748.573	2429.75
748.911	2464.78
749.25	2503.42
749.589	2541.16
749.928	2562.63
750.267	2626.13
750.605	2623.87
750.944	2685.79
751.283	2718.11
751.621	2734.38
751.96	2792.23
752.298	2861.15
752.636	2867.03
752.975	2903.19
753.313	3008.72
753.651	3047.82
753.989	3053.46
754.327	3110.41
754.666	3163.52
755.004	3194.7
755.342	3261.82
755.679	3301.82
756.017	3345.21
756.355	3450.74
756.693	3462.27
757.031	3506.79
757.368	3580.46
757.706	3649.61
758.044	3671.53
758.381	3735.48
758.719	3801.02
759.056	3863.39
759.394	3908.58
759.731	3950.16
760.068	4050.95
760.405	4071.74
760.743	4168.01
761.08	4231.06
761.417	4236.26
761.754	4318.74
762.091	4369.81
762.428	4440.1
762.765	4495.91
763.102	4600.77
763.438	4626.98
763.775	4687.55
764.112	4695.23
764.449	4825.62
764.785	4818.16
765.122	4819.75
765.458	4937.26
765.795	4910.82
766.131	4997.14
766.467	5076.91
766.804	5103.81
767.14	5136.8
767.476	5218.61
767.812	5261.09
768.148	5383.57
768.485	5358.49
768.821	5391.26
769.157	5411.37
769.492	5513.29
769.828	5512.84
770.164	5548.99
770.5	5611.82
770.836	5627.86
771.171	5662.44
771.507	5694.07
771.842	5713.28
772.178	5751.47
772.513	5785.14
772.849	5850.45
773.184	5811.13
773.519	5892.71
773.855	5891.58
774.19	5893.39
774.525	5981.98
774.86	6003.44
775.195	6020.84
775.53	6063.78
775.865	6007.51
776.2	6019.49
776.535	6025.59
776.87	6100.16
777.205	6123.89
777.539	6145.36
777.874	6175.87
778.209	6095.64
778.543	6189.43
778.878	6230.1
779.212	6183.1
779.547	6111.24
779.881	6255.19
780.215	6207.28
780.55	6245.92
780.884	6209.31
781.218	6239.14
781.552	6265.81
781.886	6242.53
782.22	6214.06
782.554	6282.53
782.888	6238.69
783.222	6234.62
783.556	6275.3
783.889	6282.31
784.223	6218.35
784.557	6278.92
784.89	6302.42
785.224	6233.49
785.557	6271.01
785.891	6293.61
786.224	6250.44
786.558	6206.38
786.891	6231.46
787.224	6229.88
787.557	6231.23
787.891	6268.97
788.224	6243.44
788.557	6256.09
788.89	6284.79
789.223	6304
789.556	6230.78
789.888	6251.8
790.221	6227.17
790.554	6185.13
790.887	6201.63
791.219	6251.57
791.552	6266.71
791.884	6246.83
792.217	6229.43
792.549	6179.26
792.882	6176.09
793.214	6171.12
793.546	6174.29
793.879	6165.02
794.211	6171.12
794.543	6159.37
794.875	6180.39
795.207	6188.98
795.539	6179.03
795.871	6160.5
796.203	6160.95
796.535	6095.42
796.867	6080.5
797.198	6147.85
797.53	6149.2
797.862	6078.24
798.193	6044.35
798.525	6053.39
798.856	6107.4
799.188	6104.91
799.519	6077.34
799.85	6046.38
800.182	6041.86
800.513	6063.78
800.844	5994.18
801.175	5969.09
801.506	6028.98
801.837	5986.5
802.168	5992.82
802.499	5955.99
802.83	5949.21
803.161	5929.55
803.491	5937.68
803.822	5896.55
804.153	5928.64
804.483	5851.81
804.814	5867.63
805.145	5878.48
805.475	5909.21
805.805	5809.32
806.136	5854.75
806.466	5853.17
806.796	5846.84
807.126	5864.01
807.457	5790.57
807.787	5797.12
808.117	5813.17
808.447	5768.65
808.777	5839.15
809.107	5829.66
809.436	5780.62
809.766	5836.67
810.096	5797.35
810.426	5763.22
810.755	5756.22
811.085	5762.09
811.414	5746.5
811.744	5711.7
812.073	5676.45
812.403	5696.33
812.732	5712.15
813.061	5675.99
813.39	5653.17
813.719	5647.52
814.049	5670.57
814.378	5666.28
814.707	5654.53
815.036	5680.51
815.365	5645.49
815.693	5603.91
816.022	5626.28
816.351	5570.01
816.68	5546.05
817.008	5560.52
817.337	5521.2
817.665	5554.19
817.994	5553.51
818.322	5540.86
818.651	5521.87
818.979	5489.56
819.307	5488.66
819.636	5482.1
819.964	5480.75
820.292	5462.22
820.62	5485.94
820.948	5522.33
821.276	5499.73
821.604	5492.04
821.932	5535.66
822.259	5528.65
822.587	5513.29
822.915	5535.43
823.243	5538.6
823.57	5490.24
823.898	5560.29
824.225	5531.59
824.553	5525.04
824.88	5478.94
825.207	5514.87
825.535	5494.08
825.862	5523
826.189	5508.09
826.516	5527.52
826.843	5513.74
827.17	5513.51
827.497	5537.92
827.824	5529.78
828.151	5559.39
828.478	5539.95
828.805	5576.79
829.131	5583.57
829.458	5546.28
829.785	5533.17
830.111	5572.27
830.438	5561.65
830.764	5547.18
831.09	5584.7
831.417	5532.95
831.743	5520.52
832.069	5511.03
832.395	5495.66
832.722	5537.02
833.048	5583.57
833.374	5515.55
833.7	5478.94
834.026	5530.69
834.351	5524.59
834.677	5508.32
835.003	5572.72
835.329	5516.68
835.654	5490.91
835.98	5447.75
836.306	5540.63
836.631	5420.18
836.956	5487.75
837.282	5495.66
837.607	5483.91
837.932	5501.99
838.258	5452.05
838.583	5453.85
838.908	5475.77
839.233	5460.86
839.558	5471.93
839.883	5430.8
840.208	5444.81
840.533	5438.71
840.858	5390.13
841.182	5454.08
841.507	5400.3
841.832	5348.77
842.156	5362.78
842.481	5316.91
842.805	5339.51
843.13	5348.55
843.454	5328.89
843.778	5293.41
844.103	5313.74
844.427	5240.07
844.751	5249.79
845.075	5277.59
845.399	5294.31
845.723	5239.62
846.047	5208.66
846.371	5185.39
846.695	5193.75
847.019	5145.16
847.343	5170.02
847.666	5131.6
847.99	5097.93
848.313	5072.85
848.637	5030.14
848.96	5056.12
849.284	5059.51
849.607	4983.81
849.931	5015.9
850.254	4951.72
850.577	4998.72
850.9	4937.48
851.223	4954.21
851.546	4913.75
851.869	4847.32
852.192	4901.33
852.515	4787.88
852.838	4839.18
853.161	4828.33
853.483	4816.36
853.806	4769.58
854.129	4782.68
854.451	4800.54
854.774	4775.45
855.096	4736.13
855.419	4771.16
855.741	4709.47
856.063	4686.87
856.385	4720.31
856.708	4686.87
857.03	4682.12
857.352	4676.47
857.674	4598.96
857.996	4624.05
858.318	4590.6
858.64	4576.81
858.961	4573.88
859.283	4559.64
859.605	4516.48
859.926	4562.35
860.248	4537.27
860.57	4523.93
860.891	4536.59
861.212	4534.78
861.534	4451.17
861.855	4457.04
862.176	4493.65
862.498	4482.35
862.819	4473.31
863.14	4481.9
863.461	4422.92
863.782	4418.63
864.103	4414.33
864.424	4384.28
864.745	4431.06
865.065	4371.85
865.386	4411.85
865.707	4356.26
866.027	4387.89
866.348	4363.26
866.668	4364.62
866.989	4338.85
867.309	4300.44
867.63	4345.63
867.95	4378.4
868.27	4344.28
868.59	4361.23
868.91	4336.82
869.23	4318.29
869.55	4309.7
869.87	4356.71
870.19	4321
870.51	4282.81
870.83	4346.76
871.15	4252.08
871.469	4269.7
871.789	4290.04
872.109	4272.19
872.428	4211.17
872.748	4245.75
873.067	4235.81
873.386	4262.02
873.706	4242.59
874.025	4195.58
874.344	4234.68
874.663	4209.37
874.982	4168.01
875.301	4169.14
875.62	4191.51
875.939	4169.59
876.258	4196.03
876.577	4175.92
876.896	4193.1
877.214	4175.92
877.533	4164.4
877.852	4149.71
878.17	4111.52
878.489	4127.56
878.807	4104.28
879.125	4126.43
879.444	4117.39
879.762	4066.55
880.08	4094.79
880.398	4075.36
880.716	4101.35
881.034	4053.44
881.352	4059.54
881.67	4050.95
881.988	4027.22
882.306	4064.29
882.624	4007.56
882.941	3991.29
883.259	3958.3
883.577	3995.81
883.894	4020.45
884.212	3970.5
884.529	3992.65
884.846	3948.13
885.164	3971.41
885.481	3943.39
885.798	3945.19
886.115	3938.64
886.432	3917.17
886.75	3890.51
887.067	3864.07
887.383	3888.47
887.7	3892.99
888.017	3877.4
888.334	3863.61
888.651	3828.59
888.967	3772.77
889.284	3792.43
889.6	3809.38
889.917	3823.61
890.233	3807.34
890.55	3728.93
890.866	3763.95
891.182	3734.8
891.498	3725.76
891.815	3754.69
892.131	3746.1
892.447	3671.53
892.763	3682.15
893.079	3686.67
893.395	3664.3
893.71	3671.08
894.026	3675.14
894.342	3647.35
894.657	3631.98
894.973	3645.09
895.289	3613.68
895.604	3631.08
895.92	3585.88
896.235	3596.28
896.55	3603.05
896.865	3553.79
897.181	3554.47
897.496	3535.94
897.811	3519.67
898.126	3504.07
898.441	3536.39
898.756	3498.65
899.071	3467.69
899.386	3479.44
899.7	3459.78
900.015	3430.4
900.33	3425.21
900.644	3421.82
900.959	3415.94
901.273	3386.56
901.588	3369.39
901.902	3328.26
902.216	3326.45
902.531	3347.47
902.845	3305.89
903.159	3294.81
903.473	3290.52
903.787	3302.72
904.101	3272.67
904.415	3246.91
904.729	3233.8
905.042	3264.53
905.356	3253.91
905.67	3222.95
905.984	3211.2
906.297	3176.17
906.611	3174.37
906.924	3157.42
907.237	3169.39
907.551	3190.64
907.864	3112.9
908.177	3141.6
908.491	3127.36
908.804	3084.88
909.117	3089.85
909.43	3065.67
909.743	3059.34
910.056	3072.22
910.368	3053.69
910.681	3045.1
910.994	3006.69
911.307	2954.03
911.619	3015.5
911.932	2987.7
912.244	2952.68
912.557	2945.67
912.869	2923.07
913.181	2901.83
913.494	2926.46
913.806	2904.99
914.118	2891.44
914.43	2876.97
914.742	2907.03
915.054	2907.48
915.366	2867.03
915.678	2832.68
915.99	2854.6
916.302	2838.78
916.613	2799.01
916.925	2787.03
917.236	2790.42
917.548	2777.77
917.859	2760.82
918.171	2752.91
918.482	2756.52
918.794	2744.55
919.105	2734.15
919.416	2715.85
919.727	2715.62
920.038	2660.25
920.349	2686.02
920.66	2634.27
920.971	2644.66
921.282	2649.41
921.593	2622.74
921.903	2637.66
922.214	2607.15
922.525	2617.32
922.835	2608.5
923.146	2579.81
923.456	2578.45
923.767	2580.26
924.077	2519.02
924.387	2572.35
924.697	2571.44
925.008	2528.51
925.318	2519.92
925.628	2550.2
925.938	2510.65
926.248	2512.24
926.558	2472.46
926.867	2463.2
927.177	2489.19
927.487	2462.97
927.796	2419.36
928.106	2423.2
928.416	2451.9
928.725	2460.03
929.034	2425.68
929.344	2408.28
929.653	2369.64
929.962	2384.1
930.271	2413.26
930.581	2393.6
930.89	2342.52
931.199	2339.36
931.508	2343.43
931.817	2356.31
932.125	2353.6
932.434	2332.81
932.743	2324.44
933.051	2285.35
933.36	2318.79
933.669	2261.4
933.977	2269.53
934.286	2259.59
934.594	2269.53
934.902	2256.42
935.21	2236.76
935.519	2229.31
935.827	2206.93
936.135	2207.39
936.443	2202.19
936.751	2208.06
937.059	2199.48
937.367	2204.45
937.674	2165.58
937.982	2182.53
938.29	2187.27
938.597	2163.54
938.905	2155.86
939.213	2158.57
939.52	2154.51
939.827	2138.01
940.135	2129.87
940.442	2105.24
940.749	2097.78
941.056	2084.22
941.363	2094.62
941.67	2082.87
941.977	2060.95
942.284	2051.68
942.591	2057.33
942.898	2026.83
943.205	2035.86
943.511	2020.27
943.818	2012.14
944.125	2003.32
944.431	1984.79
944.738	1998.13
945.044	1977.11
945.35	1960.61
945.657	1979.82
945.963	1974.17
946.269	1935.53
946.575	1936.21
946.881	1924.46
947.187	1931.01
947.493	1917.45
947.799	1933.72
948.105	1912.25
948.41	1899.82
948.716	1897.34
949.022	1906.15
949.327	1895.08
949.633	1883.78
949.938	1889.88
950.244	1860.5
950.549	1867.51
950.854	1858.24
951.16	1839.49
951.465	1841.97
951.77	1794.06
952.075	1829.99
952.38	1816.89
952.685	1793.39
952.99	1807.85
953.294	1799.71
953.599	1786.83
953.904	1788.19
954.209	1745.48
954.513	1739.6
954.818	1742.31
955.122	1733.5
955.426	1712.48
955.731	1740.05
956.035	1709.32
956.339	1730.79
956.643	1706.38
956.948	1725.14
957.252	1685.59
957.556	1700.05
957.86	1677.68
958.163	1684.46
958.467	1702.31
958.771	1692.37
959.075	1680.39
959.378	1670.45
959.682	1673.84
959.985	1655.76
960.289	1642.88
960.592	1643.33
960.896	1614.18
961.199	1603.56
961.502	1663.22
961.805	1627.51
962.108	1601.07
962.411	1575.76
962.714	1569.66
963.017	1598.14
963.32	1604.46
963.623	1581.19
963.926	1565.37
964.228	1554.07
964.531	1576.22
964.833	1558.36
965.136	1553.62
965.438	1549.32
965.741	1544.13
966.043	1525.37
966.345	1517.01
966.648	1517.69
966.95	1521.98
967.252	1499.16
967.554	1503.45
967.856	1482.66
968.158	1479.04
968.46	1486.05
968.761	1468.87
969.063	1489.21
969.365	1446.5
969.666	1448.99
969.968	1461.19
970.269	1450.8
970.571	1448.08
970.872	1453.06
971.174	1437.46
971.475	1394.3
971.776	1416.67
972.077	1411.93
972.378	1422.32
972.679	1406.05
972.98	1390.23
973.281	1410.12
973.582	1368.09
973.883	1388.88
974.183	1373.96
974.484	1339.84
974.785	1407.41
975.085	1368.99
975.386	1353.17
975.686	1348.65
975.986	1378.93
976.287	1379.16
976.587	1342.55
976.887	1348.65
977.187	1328.09
977.487	1357.46
977.787	1347.75
978.087	1363.79
978.387	1315.21
978.687	1304.36
978.987	1284.25
979.286	1294.42
979.586	1319.5
979.885	1275.66
980.185	1277.47
980.484	1294.19
980.784	1251.7
981.083	1268.65
981.382	1265.72
981.682	1259.39
981.981	1266.85
982.28	1242.21
982.579	1254.42
982.878	1241.54
983.177	1213.97
983.475	1225.94
983.774	1219.61
984.073	1216.45
984.372	1214.19
984.67	1221.42
984.969	1229.78
985.267	1184.36
985.566	1218.26
985.864	1188.88
986.162	1171.03
986.461	1190.24
986.759	1190.92
987.057	1172.61
987.355	1180.75
987.653	1149.79
987.951	1159.96
988.249	1145.49
988.547	1145.04
988.844	1181.65
989.142	1161.76
989.44	1123.35
989.737	1123.57
990.035	1135.1
990.332	1141.65
990.63	1092.84
990.927	1113.4
991.224	1115.21
991.521	1098.26
991.819	1104.82
992.116	1112.95
992.413	1091.93
992.71	1096.45
993.006	1084.03
993.303	1066.62
993.6	1070.24
993.897	1043.8
994.193	1062.33
994.49	1084.03
994.787	1055.55
995.083	1032.73
995.379	1057.36
995.676	1056.91
995.972	1062.33
996.268	1041.77
996.565	1031.15
996.861	1019.62
997.157	1049.22
997.453	1029.79
997.749	1018.26
998.044	1048.32
998.34	1007.64
998.636	1008.55
998.932	1004.03
999.227	1002.9
999.523	980.07
999.818	1007.19
1000.114	995.89
1000.409	990.92
1000.704	976.23
1001	960.41
1001.295	956.57
1001.59	960.41
1001.885	972.39
1002.18	937.14
1002.475	951.83
1002.77	950.02
1003.065	947.98
1003.359	941.43
1003.654	945.05
1003.949	915.44
1004.243	905.05
1004.538	915.44
1004.832	904.14
1005.127	910.7
1005.421	897.82
1005.715	911.15
1006.009	919.51
1006.304	897.36
1006.598	889
1006.892	891.04
1007.186	901.66
1007.48	875.9
1007.773	888.78
1008.067	877.48
1008.361	861.43
1008.655	866.18
1008.948	844.03
1009.242	864.6
1009.535	867.53
1009.829	843.58
1010.122	850.36
1010.415	854.43
1010.708	849.68
1011.001	852.84
1011.295	813.75
1011.588	822.56
1011.881	834.54
1012.173	823.92
1012.466	807.65
1012.759	819.63
1013.052	811.94
1013.344	811.04
1013.637	821.21
1013.93	822.79
1014.222	801.55
1014.514	785.95
1014.807	791.15
1015.099	785.73
1015.391	779.85
1015.683	772.17
1015.976	782.11
1016.268	764.49
1016.56	748.44
1016.851	756.8
1017.143	748.89
1017.435	771.94
1017.727	731.04
1018.018	756.8
1018.31	754.77
1018.602	738.5
1018.893	749.12
1019.185	724.71
1019.476	729.46
1019.767	724.03
1020.058	717.26
1020.35	707.09
1020.641	692.62
1020.932	725.16
1021.223	709.8
1021.514	694.43
1021.804	687.88
1022.095	711.61
1022.386	700.76
1022.677	692.62
1022.967	696.46
1023.258	682.68
1023.548	692.4
1023.839	679.52
1024.129	709.8
1024.419	676.58
1024.709	677.26
1025	653.08
1025.29	648.33
1025.58	663.92
1025.87	636.58
1026.16	648.1
1026.449	656.69
1026.739	660.31
1027.029	652.62
1027.319	641.78
1027.608	673.19
1027.898	650.59
1028.187	611.95
1028.477	618.95
1028.766	636.58
1029.055	616.92
1029.344	616.92
1029.634	617.6
1029.923	644.49
1030.212	622.34
1030.501	617.6
1030.79	598.16
1031.078	595.45
1031.367	609.24
1031.656	606.07
1031.945	607.43
1032.233	597.48
1032.522	588.9
1032.81	577.37
1033.099	596.13
1033.387	573.76
1033.675	576.92
1033.963	584.83
1034.251	562.68
1034.54	562.46
1034.828	566.98
1035.116	587.77
1035.403	580.54
1035.691	565.39
1035.979	553.42
1036.267	569.69
1036.554	547.54
1036.842	533.53
1037.129	575.79
1037.417	552.74
1037.704	550.03
1037.992	553.64
1038.279	531.5
1038.566	541.21
1038.853	541.21
1039.14	541.21
