Data from blue_chair_FLMS001491_00007.txt Node
Date: Wed Feb 08 10:28:56 GMT 2017
User: dcchb
Spectrometer: FLMS00149
Trigger mode: 0
Integration Time (sec): 2.000000E-2
Scans to average: 10
Electric dark correction enabled: true
Nonlinearity correction enabled: false
Boxcar width: 0
XAxis mode: Wavelengths
Number of Pixels in Spectrum: 2048
>>>>>Begin Spectral Data<<<<<
341.393	-30
341.776	-30
342.16	-30
342.543	-70.45
342.927	-83.33
343.31	-64.35
343.693	-65.48
344.077	-59.6
344.46	-57.12
344.843	-50.34
345.226	-30.68
345.61	-45.14
345.993	-10.56
346.376	-10.56
346.759	7.97
347.142	13.84
347.525	42.54
347.908	67.17
348.291	67.4
348.674	84.12
349.057	110.79
349.44	133.39
349.823	127.74
350.206	150.11
350.588	167.06
350.971	180.84
351.354	204.8
351.737	211.8
352.119	233.04
352.502	237.79
352.884	264.23
353.267	259.94
353.65	255.19
354.032	263.1
354.414	270.11
354.797	287.05
355.179	272.14
355.562	307.17
355.944	317.34
356.326	294.51
356.709	294.74
357.091	303.55
357.473	301.52
357.855	298.58
358.238	310.1
358.62	283.66
359.002	301.97
359.384	324.12
359.766	302.65
360.148	309.43
360.53	318.69
360.912	310.33
361.294	317.11
361.676	311.01
362.057	325.47
362.439	295.19
362.821	290.67
363.203	309.65
363.584	294.06
363.966	290.44
364.348	285.02
364.729	299.26
365.111	306.94
365.493	269.88
365.874	285.25
366.256	277.11
366.637	302.42
367.019	282.08
367.4	278.92
367.781	295.42
368.163	289.54
368.544	264
368.925	305.36
369.306	285.92
369.688	267.85
370.069	277.34
370.45	261.74
370.831	265.81
371.212	268.75
371.593	257.45
371.974	281.63
372.355	301.52
372.736	281.63
373.117	266.72
373.498	272.14
373.879	278.92
374.26	285.47
374.641	287.73
375.021	275.98
375.402	272.82
375.783	287.73
376.163	265.36
376.544	285.7
376.925	293.61
377.305	276.89
377.686	296.77
378.066	301.52
378.447	284.12
378.827	281.18
379.208	286.6
379.588	290.9
379.968	291.57
380.349	301.29
380.729	282.99
381.109	296.55
381.489	282.76
381.87	284.12
382.25	300.84
382.63	293.38
383.01	288.86
383.39	276.66
383.77	296.77
384.15	293.16
384.53	288.86
384.91	310.56
385.29	293.61
385.67	310.1
386.049	309.2
386.429	302.42
386.809	326.15
387.189	300.16
387.568	297.22
387.948	285.02
388.328	305.36
388.707	308.75
389.087	301.52
389.466	303.55
389.846	322.08
390.225	320.5
390.605	304.68
390.984	308.75
391.363	325.02
391.743	313.72
392.122	311.91
392.501	293.83
392.881	329.31
393.26	304.68
393.639	308.97
394.018	316.66
394.397	306.72
394.776	291.57
395.155	299.26
395.534	304
395.913	337.22
396.292	329.31
396.671	321.86
397.05	307.39
397.429	329.09
397.808	322.99
398.186	333.16
398.565	324.34
398.944	320.5
399.323	329.54
399.701	324.34
400.08	308.52
400.458	333.83
400.837	326.15
401.215	325.92
401.594	349.2
401.972	354.4
402.351	326.6
402.729	334.06
403.107	334.06
403.486	330.44
403.864	346.49
404.242	337.9
404.62	352.14
404.999	350.78
405.377	338.35
405.755	358.01
406.133	375.64
406.511	360.05
406.889	357.11
407.267	350.78
407.645	377.22
408.023	366.37
408.401	369.31
408.779	362.53
409.156	353.27
409.534	383.32
409.912	398.46
410.29	387.84
410.667	369.76
411.045	358.01
411.422	387.62
411.8	381.97
412.178	387.39
412.555	372.02
412.933	381.29
413.31	414.06
413.687	411.57
414.065	382.65
414.442	399.82
414.819	405.24
415.197	419.25
415.574	389.42
415.951	417.45
416.328	401.4
416.705	388.07
417.082	406.83
417.46	388.97
417.837	403.89
418.214	394.17
418.591	403.66
418.967	388.97
419.344	423.1
419.721	398.24
420.098	397.56
420.475	430.1
420.852	412.25
421.228	424.45
421.605	428.29
421.982	436.66
422.358	410.22
422.735	463.77
423.111	454.96
423.488	448.63
423.864	436.88
424.241	432.36
424.617	449.31
424.994	459.03
425.37	461.06
425.746	439.82
426.123	479.82
426.499	457.67
426.875	482.76
427.251	489.31
427.627	497.44
428.003	482.53
428.379	485.24
428.756	494.96
429.132	494.28
429.507	493.6
429.883	514.17
430.259	514.17
430.635	508.97
431.011	510.33
431.387	526.14
431.763	496.99
432.138	526.6
432.514	544
432.89	545.58
433.265	570.21
433.641	544.22
434.016	553.49
434.392	545.8
434.767	545.13
435.143	549.87
435.518	544
435.894	575.18
436.269	565.47
436.644	598.68
437.02	607.05
437.395	592.81
437.77	597.55
438.145	591.68
438.52	628.51
438.895	619.93
439.271	641.85
439.646	612.47
440.021	649.08
440.395	638.01
440.77	627.84
441.145	647.27
441.52	672.58
441.895	647.72
442.27	685.69
442.645	670.55
443.019	661.96
443.394	685.46
443.769	670.55
444.143	689.76
444.518	692.92
444.892	702.18
445.267	687.04
445.641	672.58
446.016	720.04
446.39	712.13
446.764	715.74
447.139	694.73
447.513	717.1
447.887	728.62
448.262	723.65
448.636	703.31
449.01	734.27
449.384	732.92
449.758	747.61
450.132	773.14
450.506	757.78
450.88	775.18
451.254	766.59
451.628	776.99
452.002	772.24
452.376	776.99
452.75	776.99
453.123	774.05
453.497	803.88
453.871	793.48
454.244	806.36
454.618	812.24
454.992	820.37
455.365	840.49
455.739	822.41
456.112	846.59
456.486	833.25
456.859	863.31
457.232	868.73
457.606	868.28
457.979	860.37
458.352	868.96
458.725	914.61
459.099	873.93
459.472	885.91
459.845	897.66
460.218	895.85
460.591	927.26
460.964	931.33
461.337	915.96
461.71	951.44
462.083	935.17
462.456	949.18
462.829	956.87
463.201	946.47
463.574	944.66
463.947	959.58
464.32	949.41
464.692	977.43
465.065	973.14
465.438	995.51
465.81	1019.24
466.183	1012.01
466.555	1004.32
466.928	1015.62
467.3	1013.59
467.672	1007.49
468.045	1051.78
468.417	1074.38
468.789	1045
469.161	1048.16
469.534	1082.06
469.906	1106.02
470.278	1086.58
470.65	1072.12
471.022	1111.21
471.394	1111.67
471.766	1119.35
472.138	1116.19
472.51	1129.52
472.882	1158.9
473.253	1173.13
473.625	1170.42
473.997	1192.34
474.369	1196.18
474.74	1186.92
475.112	1221.04
475.484	1226.69
475.855	1250.42
476.227	1240.93
476.598	1263.75
476.97	1271.21
477.341	1257.2
477.713	1250.87
478.084	1277.54
478.455	1288.84
478.827	1311.43
479.198	1345.11
479.569	1328.84
479.94	1373.13
480.311	1378.78
480.682	1383.97
481.053	1401.6
481.424	1393.24
481.795	1422.39
482.166	1423.52
482.537	1421.71
482.908	1426.01
483.279	1461.71
483.65	1449.51
484.021	1480.24
484.391	1484.99
484.762	1485.89
485.133	1507.59
485.503	1501.71
485.874	1527.7
486.244	1501.26
486.615	1490.86
486.985	1523.86
487.356	1558.43
487.726	1566.12
488.097	1546.68
488.467	1539.45
488.837	1607.47
489.207	1575.83
489.578	1574.48
489.948	1593.46
490.318	1590.98
490.688	1625.55
491.058	1621.03
491.428	1615.83
491.798	1619
492.168	1635.95
492.538	1628.94
492.908	1637.98
493.278	1631.65
493.648	1605.66
494.017	1628.49
494.387	1633.69
494.757	1642.27
495.126	1657.87
495.496	1612.22
495.866	1653.8
496.235	1664.19
496.605	1683.4
496.974	1673.23
497.344	1670.52
497.713	1656.96
498.082	1651.31
498.452	1680.46
498.821	1620.58
499.19	1627.36
499.559	1656.28
499.928	1619
500.298	1604.31
500.667	1637.75
501.036	1616.06
501.405	1646.11
501.774	1620.35
502.143	1648.6
502.512	1619.9
502.88	1620.13
503.249	1600.69
503.618	1616.74
503.987	1629.39
504.356	1610.18
504.724	1602.73
505.093	1614.25
505.462	1616.96
505.83	1595.04
506.199	1600.47
506.567	1653.57
506.936	1610.86
507.304	1625.55
507.672	1573.35
508.041	1584.65
508.409	1602.95
508.777	1570.86
509.145	1595.04
509.514	1591.43
509.882	1585.55
510.25	1573.57
510.618	1555.95
510.986	1586.91
511.354	1580.81
511.722	1545.1
512.09	1548.94
512.458	1546.91
512.826	1559.11
513.193	1560.24
513.561	1552.78
513.929	1542.84
514.297	1563.86
514.664	1550.52
515.032	1539.68
515.4	1521.37
515.767	1513.69
516.135	1533.8
516.502	1487.7
516.869	1515.5
517.237	1522.95
517.604	1495.16
517.972	1522.28
518.339	1488.38
518.706	1461.71
519.073	1460.13
519.44	1499.9
519.808	1475.95
520.175	1462.39
520.542	1496.29
520.909	1441.6
521.276	1450.19
521.643	1433.92
522.009	1445.22
522.376	1475.05
522.743	1435.72
523.11	1446.57
523.477	1429.85
523.843	1456.29
524.21	1459.23
524.577	1461.26
524.943	1440.7
525.31	1449.74
525.676	1454.48
526.043	1454.71
526.409	1436.85
526.776	1414.48
527.142	1451.32
527.508	1437.76
527.874	1466.23
528.241	1414.48
528.607	1414.48
528.973	1413.13
529.339	1407.7
529.705	1428.95
530.071	1431.66
530.437	1423.07
530.803	1432.11
531.169	1426.23
531.535	1423.07
531.901	1428.27
532.267	1406.35
532.632	1446.35
532.998	1408.83
533.364	1426.69
533.73	1410.87
534.095	1431.66
534.461	1429.62
534.826	1385.33
535.192	1390.3
535.557	1397.31
535.923	1440.47
536.288	1388.95
536.653	1424.65
537.019	1402.96
537.384	1395.5
537.749	1400.47
538.114	1406.35
538.479	1373.81
538.845	1382.39
539.21	1388.72
539.575	1385.1
539.94	1390.3
540.305	1385.56
540.67	1398.44
541.034	1375.16
541.399	1350.3
541.764	1374.94
542.129	1388.04
542.494	1388.95
542.858	1360.47
543.223	1365.9
543.587	1356.41
543.952	1384.2
544.316	1361.15
544.681	1352.79
545.045	1373.81
545.41	1355.95
545.774	1334.26
546.138	1360.47
546.503	1366.12
546.867	1382.39
547.231	1343.98
547.595	1357.99
547.959	1332
548.324	1352.56
548.688	1337.87
549.052	1345.56
549.416	1322.73
549.779	1320.93
550.143	1330.19
550.507	1342.39
550.871	1309.17
551.235	1348.5
551.599	1324.99
551.962	1341.49
552.326	1333.81
552.689	1292.45
553.053	1287.93
553.417	1272.34
553.78	1334.03
554.143	1303.07
554.507	1335.16
554.87	1318.44
555.234	1317.99
555.597	1299.23
555.96	1304.43
556.323	1276.63
556.686	1275.05
557.05	1286.12
557.413	1306.91
557.776	1318.89
558.139	1315.5
558.502	1315.73
558.865	1297.88
559.228	1307.14
559.59	1299.46
559.953	1270.53
560.316	1299.91
560.679	1287.03
561.041	1302.17
561.404	1284.77
561.767	1297.88
562.129	1304.88
562.492	1308.27
562.854	1332
563.217	1301.04
563.579	1325.22
563.941	1302.4
564.304	1302.62
564.666	1299.46
565.028	1314.82
565.39	1341.26
565.753	1324.54
566.115	1320.47
566.477	1336.97
566.839	1287.25
567.201	1305.33
567.563	1316.41
567.925	1317.99
568.287	1349.4
568.648	1342.85
569.01	1332.22
569.372	1334.71
569.734	1325.45
570.095	1351.66
570.457	1362.05
570.819	1361.83
571.18	1355.95
571.542	1347.37
571.903	1359.12
572.265	1345.11
572.626	1382.39
572.987	1357.31
573.349	1367.25
573.71	1376.29
574.071	1372.68
574.432	1389.85
574.794	1402.96
575.155	1399.34
575.516	1387.59
575.877	1370.19
576.238	1397.99
576.599	1400.7
576.96	1402.51
577.32	1393.47
577.681	1416.52
578.042	1419
578.403	1401.15
578.763	1411.09
579.124	1408.38
579.485	1429.62
579.845	1419
580.206	1434.37
580.566	1423.3
580.927	1440.7
581.287	1420.36
581.648	1448.61
582.008	1419
582.368	1428.49
582.728	1424.43
583.089	1448.38
583.449	1485.44
583.809	1431.88
584.169	1478.66
584.529	1447.93
584.889	1490.64
585.249	1444.76
585.609	1444.31
585.969	1468.94
586.329	1466.46
586.688	1483.18
587.048	1486.12
587.408	1475.05
587.768	1466.23
588.127	1460.36
588.487	1461.49
588.846	1506.23
589.206	1480.47
589.565	1478.21
589.925	1504.88
590.284	1464.2
590.643	1490.19
591.003	1487.7
591.362	1473.69
591.721	1454.48
592.08	1483.63
592.44	1487.7
592.799	1509.85
593.158	1487.25
593.517	1486.8
593.876	1468.72
594.235	1462.39
594.593	1459.23
594.952	1469.62
595.311	1473.69
595.67	1468.49
596.029	1466.91
596.387	1476.4
596.746	1468.94
597.104	1478.44
597.463	1466.46
597.822	1464.65
598.18	1484.09
598.538	1472.56
598.897	1480.92
599.255	1494.48
599.613	1508.04
599.972	1477.31
600.33	1490.86
600.688	1450.41
601.046	1502.16
601.404	1487.25
601.762	1488.6
602.12	1476.4
602.478	1484.54
602.836	1472.33
603.194	1461.49
603.552	1487.02
603.91	1453.8
604.268	1462.84
604.625	1489.06
604.983	1457.65
605.341	1480.02
605.698	1478.44
606.056	1450.87
606.413	1451.32
606.771	1485.89
607.128	1484.54
607.485	1483.41
607.843	1479.57
608.2	1489.96
608.557	1465.33
608.914	1453.35
609.272	1468.27
609.629	1455.39
609.986	1472.79
610.343	1460.13
610.7	1493.12
611.057	1500.81
611.414	1465.33
611.771	1463.29
612.127	1484.99
612.484	1477.98
612.841	1472.11
613.198	1481.37
613.554	1483.86
613.911	1502.62
614.267	1472.11
614.624	1457.19
614.98	1473.46
615.337	1491.32
615.693	1470.98
616.05	1503.52
616.406	1494.48
616.762	1486.8
617.118	1488.15
617.475	1478.66
617.831	1506.23
618.187	1506.23
618.543	1466.23
618.899	1506.68
619.255	1501.03
619.611	1488.6
619.967	1531.54
620.323	1514.37
620.678	1507.81
621.034	1495.84
621.39	1507.14
621.746	1516.4
622.101	1518.66
622.457	1510.75
622.812	1514.14
623.168	1511.88
623.523	1507.36
623.879	1533.12
624.234	1520.69
624.589	1520.24
624.945	1511.2
625.3	1509.85
625.655	1534.25
626.01	1510.75
626.365	1535.38
626.72	1546.91
627.075	1504.65
627.43	1515.04
627.785	1528.83
628.14	1538.55
628.495	1541.26
628.85	1538.32
629.205	1517.98
629.559	1531.54
629.914	1542.16
630.269	1537.87
630.623	1512.11
630.978	1529.28
631.332	1535.38
631.687	1513.91
632.041	1515.04
632.396	1511.88
632.75	1526.8
633.104	1525.21
633.459	1523.86
633.813	1492.67
634.167	1513.69
634.521	1540.13
634.875	1506.46
635.229	1524.31
635.583	1517.53
635.937	1501.26
636.291	1527.47
636.645	1535.61
636.999	1515.5
637.352	1548.94
637.706	1485.22
638.06	1513.01
638.413	1508.94
638.767	1531.77
639.121	1548.94
639.474	1511.66
639.828	1528.15
640.181	1548.26
640.534	1501.49
640.888	1501.49
641.241	1543.52
641.594	1508.72
641.947	1514.14
642.301	1531.54
642.654	1543.97
643.007	1528.15
643.36	1532.45
643.713	1500.13
644.066	1560.92
644.419	1523.41
644.771	1520.02
645.124	1510.98
645.477	1523.18
645.83	1499.23
646.182	1512.79
646.535	1473.69
646.888	1513.69
647.24	1557.76
647.593	1528.38
647.945	1534.93
648.298	1536.29
648.65	1510.75
649.002	1505.55
649.355	1529.28
649.707	1524.31
650.059	1504.65
650.411	1525.67
650.763	1528.83
651.115	1553.24
651.467	1560.47
651.819	1553.46
652.171	1610.18
652.523	1555.04
652.875	1559.34
653.227	1581.03
653.578	1564.54
653.93	1593.46
654.282	1549.85
654.633	1575.83
654.985	1576.96
655.337	1606.12
655.688	1588.04
656.039	1596.4
656.391	1536.97
656.742	1579
657.094	1572.44
657.445	1591.2
657.796	1607.47
658.147	1570.86
658.498	1602.05
658.849	1611.31
659.2	1599.79
659.551	1586
659.902	1608.83
660.253	1556.4
660.604	1606.57
660.955	1615.83
661.306	1615.16
661.656	1622.61
662.007	1632.33
662.358	1605.66
662.708	1602.27
663.059	1613.57
663.409	1589.39
663.76	1658.54
664.11	1608.38
664.461	1636.85
664.811	1612.9
665.161	1629.62
665.511	1583.97
665.862	1633.01
666.212	1626.91
666.562	1621.71
666.912	1626.91
667.262	1635.27
667.612	1601.82
667.962	1631.88
668.312	1599.56
668.662	1621.71
669.011	1638.21
669.361	1592.78
669.711	1619
670.06	1610.64
670.41	1594.82
670.76	1620.35
671.109	1608.38
671.459	1604.99
671.808	1631.2
672.157	1621.93
672.507	1590.75
672.856	1607.02
673.205	1597.08
673.554	1598.66
673.904	1600.24
674.253	1600.92
674.602	1601.82
674.951	1599.11
675.3	1587.13
675.649	1563.18
675.998	1554.14
676.346	1580.81
676.695	1563.18
677.044	1591.65
677.393	1547.81
677.741	1593.91
678.09	1556.17
678.438	1581.26
678.787	1567.25
679.135	1573.8
679.484	1570.41
679.832	1584.42
680.181	1548.49
680.529	1551.2
680.877	1531.99
681.225	1522.73
681.573	1559.11
681.922	1553.91
682.27	1555.04
682.618	1514.59
682.966	1531.77
683.314	1542.16
683.661	1537.64
684.009	1508.94
684.357	1534.71
684.705	1517.53
685.053	1560.92
685.4	1531.54
685.748	1481.15
686.095	1492.67
686.443	1482.73
686.79	1485.89
687.138	1483.63
687.485	1487.25
687.832	1507.14
688.18	1481.15
688.527	1471.88
688.874	1483.63
689.221	1467.59
689.568	1486.12
689.915	1458.1
690.262	1470.3
690.609	1468.72
690.956	1457.19
691.303	1480.47
691.65	1445.44
691.997	1430.53
692.344	1441.37
692.69	1443.41
693.037	1474.14
693.383	1413.35
693.73	1457.42
694.077	1452
694.423	1438.21
694.769	1425.33
695.116	1398.66
695.462	1423.07
695.808	1417.87
696.155	1399.12
696.501	1396.4
696.847	1404.99
697.193	1390.75
697.539	1387.14
697.885	1363.86
698.231	1336.97
698.577	1359.79
698.923	1374.03
699.269	1353.24
699.614	1367.03
699.96	1362.73
700.306	1352.34
700.651	1340.13
700.997	1389.17
701.342	1372.45
701.688	1351.21
702.033	1338.55
702.379	1335.84
702.724	1348.5
703.069	1340.13
703.415	1337.87
703.76	1342.62
704.105	1343.98
704.45	1350.08
704.795	1333.35
705.14	1332
705.485	1328.61
705.83	1319.57
706.175	1317.99
706.52	1340.59
706.865	1330.42
707.209	1315.5
707.554	1329.06
707.899	1327.25
708.243	1322.96
708.588	1317.54
708.932	1321.15
709.277	1332
709.621	1321.83
709.966	1328.16
710.31	1301.49
710.654	1322.06
710.998	1316.18
711.342	1342.17
711.687	1310.76
712.031	1341.72
712.375	1327.03
712.719	1346.46
713.063	1340.13
713.407	1359.57
713.75	1327.25
714.094	1328.38
714.438	1339
714.782	1320.25
715.125	1346.01
715.469	1361.15
715.812	1346.91
716.156	1334.71
716.499	1359.12
716.843	1318.21
717.186	1336.52
717.53	1367.7
717.873	1368.16
718.216	1373.58
718.559	1387.14
718.902	1401.38
719.246	1376.97
719.589	1385.33
719.932	1388.49
720.275	1408.16
720.617	1400.25
720.96	1401.38
721.303	1370.42
721.646	1409.51
721.989	1406.57
722.331	1385.33
722.674	1415.84
723.016	1395.05
723.359	1393.69
723.701	1405.9
724.044	1408.38
724.386	1424.65
724.729	1431.21
725.071	1419
725.413	1440.47
725.755	1480.47
726.097	1458.78
726.439	1457.19
726.782	1469.4
727.124	1472.33
727.465	1485.67
727.807	1443.41
728.149	1496.29
728.491	1508.72
728.833	1489.73
729.175	1495.61
729.516	1501.03
729.858	1514.37
730.199	1525.21
730.541	1499.68
730.882	1542.16
731.224	1570.41
731.565	1593.23
731.906	1567.47
732.248	1562.73
732.589	1580.13
732.93	1569.51
733.271	1604.76
733.612	1605.66
733.953	1622.39
734.294	1634.36
734.635	1621.03
734.976	1642.27
735.317	1613.12
735.658	1652.22
735.999	1649.96
736.339	1677.75
736.68	1695.83
737.021	1687.47
737.361	1708.94
737.702	1743.29
738.042	1727.24
738.383	1713.01
738.723	1773.8
739.063	1770.18
739.404	1762.5
739.744	1771.99
740.084	1825.32
740.424	1847.69
740.764	1824.87
741.104	1850.4
741.444	1885.43
741.784	1887.46
742.124	1912.1
742.464	1931.98
742.804	1918.42
743.143	1972.66
743.483	1973.11
743.823	2058.53
744.162	2014.92
744.502	2058.08
744.841	2088.36
745.181	2133.11
745.52	2085.2
745.86	2167.46
746.199	2172.2
746.538	2207.68
746.877	2241.35
747.216	2278.19
747.556	2302.14
747.895	2312.76
748.234	2402.93
748.573	2396.38
748.911	2443.38
749.25	2458.75
749.589	2498.07
749.928	2552.08
750.267	2602.02
750.605	2620.33
750.944	2645.18
751.283	2708.46
751.621	2707.33
751.96	2757.27
752.298	2813.32
752.636	2856.03
752.975	2868.46
753.313	2941.67
753.651	3027.32
753.989	3052.86
754.327	3068
754.666	3111.84
755.004	3176.24
755.342	3208.33
755.679	3281.55
756.017	3326.07
756.355	3391.83
756.693	3420.53
757.031	3494.43
757.368	3524.48
757.706	3606.52
758.044	3684.93
758.381	3719.05
758.719	3702.11
759.056	3811.93
759.394	3847.86
759.731	3904.81
760.068	3937.81
760.405	3983.45
760.743	4033.17
761.08	4128.08
761.417	4135.77
761.754	4173.51
762.091	4198.14
762.428	4272.71
762.765	4313.16
763.102	4421.64
763.438	4419.83
763.775	4474.29
764.112	4526.49
764.449	4594.29
764.785	4647.17
765.122	4667.05
765.458	4695.98
765.795	4774.17
766.131	4789.54
766.467	4882.41
766.804	4900.94
767.14	4888.06
767.476	4996.99
767.812	4966.93
768.148	4992.24
768.485	5028.4
768.821	5065.91
769.157	5144.78
769.492	5188.85
769.828	5218.68
770.164	5249.86
770.5	5217.09
770.836	5323.76
771.171	5284.89
771.507	5329.41
771.842	5357.43
772.178	5367.15
772.513	5413.02
772.849	5455.51
773.184	5465.9
773.519	5516.07
773.855	5495.05
774.19	5490.08
774.525	5579.8
774.86	5622.96
775.195	5607.37
775.53	5632
775.865	5674.03
776.2	5608.27
776.535	5664.54
776.87	5691.43
777.205	5753.35
777.539	5730.53
777.874	5716.52
778.209	5722.84
778.543	5783.86
778.878	5728.27
779.212	5770.3
779.547	5743.86
779.881	5831.99
780.215	5813.91
780.55	5853.46
780.884	5811.2
781.218	5815.95
781.552	5881.48
781.886	5844.2
782.22	5839.68
782.554	5791.09
782.888	5819.11
783.222	5876.29
783.556	5882.16
783.889	5826.57
784.223	5769.85
784.557	5867.7
784.89	5844.65
785.224	5813.69
785.557	5898.66
785.891	5891.65
786.224	5819.34
786.558	5855.95
786.891	5857.53
787.224	5846.23
787.557	5860.69
787.891	5852.11
788.224	5888.49
788.557	5871.09
788.89	5879.45
789.223	5893.91
789.556	5831.32
789.888	5886.23
790.221	5888.26
790.554	5865.89
790.887	5857.98
791.219	5858.89
791.552	5830.86
791.884	5882.16
792.217	5881.26
792.549	5826.57
792.882	5846.68
793.214	5882.61
793.546	5868.83
793.879	5821.82
794.211	5803.75
794.543	5810.98
794.875	5819.11
795.207	5850.98
795.539	5831.32
795.871	5867.25
796.203	5813.69
796.535	5832.9
796.867	5799
797.198	5785.44
797.53	5792.9
797.862	5781.15
798.193	5789.28
798.525	5771.88
798.856	5778.44
799.188	5701.6
799.519	5747.25
799.85	5763.97
800.182	5736.4
800.513	5713.13
800.844	5727.36
801.175	5737.08
801.506	5684.88
801.837	5680.59
802.168	5737.53
802.499	5665.9
802.83	5633.58
803.161	5652.79
803.491	5680.36
803.822	5670.87
804.153	5688.27
804.483	5658.21
804.814	5672.22
805.145	5611.21
805.475	5594.49
805.805	5610.3
806.136	5582.06
806.466	5601.94
806.796	5595.84
807.126	5582.06
807.457	5526.92
807.787	5563.3
808.117	5567.59
808.447	5535.28
808.777	5542.06
809.107	5553.36
809.436	5531.89
809.766	5553.13
810.096	5552.23
810.426	5512.23
810.755	5552.23
811.085	5519.91
811.414	5479.23
811.744	5434.26
812.073	5509.29
812.403	5509.97
812.732	5453.7
813.061	5463.64
813.39	5440.82
813.719	5477.88
814.049	5453.25
814.378	5443.76
814.707	5411.67
815.036	5443.76
815.365	5362.85
815.693	5354.94
816.022	5332.12
816.351	5382.51
816.68	5329.18
817.008	5374.38
817.337	5391.1
817.665	5346.36
817.994	5349.29
818.322	5352.68
818.651	5300.93
818.979	5299.13
819.307	5372.12
819.636	5298.67
819.964	5309.07
820.292	5333.48
820.62	5287.83
820.948	5290.76
821.276	5293.7
821.604	5313.82
821.932	5340.93
822.259	5284.66
822.587	5284.21
822.915	5326.92
823.243	5346.58
823.57	5300.71
823.898	5306.81
824.225	5264.1
824.553	5350.65
824.88	5374.6
825.207	5348.16
825.535	5302.29
825.862	5351.33
826.189	5304.55
826.516	5383.19
826.843	5375.51
827.17	5355.62
827.497	5400.59
827.824	5338
828.151	5428.61
828.478	5342.51
828.805	5412.34
829.131	5370.08
829.458	5369.18
829.785	5391.1
830.111	5354.72
830.438	5385.45
830.764	5395.62
831.09	5387.03
831.417	5390.65
831.743	5385.23
832.069	5364.66
832.395	5402.17
832.722	5372.8
833.048	5369.41
833.374	5380.71
833.7	5366.47
834.026	5373.02
834.351	5357.43
834.677	5364.89
835.003	5439.69
835.329	5385.68
835.654	5335.96
835.98	5356.3
836.306	5342.74
836.631	5332.57
836.956	5390.42
837.282	5340.71
837.607	5354.27
837.932	5339.8
838.258	5362.63
838.583	5302.97
838.908	5297.32
839.233	5326.47
839.558	5281.27
839.883	5272.69
840.208	5305.68
840.533	5269.52
840.858	5293.25
841.182	5301.39
841.507	5301.16
841.832	5243.76
842.156	5255.96
842.481	5255.96
842.805	5245.79
843.13	5210.31
843.454	5215.51
843.778	5194.5
844.103	5205.8
844.427	5205.8
844.751	5182.97
845.075	5153.59
845.399	5143.42
845.723	5096.87
846.047	5124.22
846.371	5128.74
846.695	5065.01
847.019	5067.04
847.343	5005.8
847.666	5002.64
847.99	4992.92
848.313	4988.85
848.637	4995.86
848.96	4940.94
849.284	4948.17
849.607	4918.57
849.931	4916.09
850.254	4870.21
850.577	4902.98
850.9	4822.53
851.223	4863.88
851.546	4801.29
851.869	4787.73
852.192	4777.33
852.515	4802.87
852.838	4746.15
853.161	4705.24
853.483	4746.15
853.806	4695.07
854.129	4658.47
854.451	4668.63
854.774	4663.66
855.096	4641.52
855.419	4641.29
855.741	4621.18
856.063	4607.62
856.385	4596.32
856.708	4596.32
857.03	4601.29
857.352	4606.94
857.674	4573.04
857.996	4543.89
858.318	4518.58
858.64	4570.11
858.961	4525.81
859.283	4480.84
859.605	4412.6
859.926	4477
860.248	4474.52
860.57	4437.91
860.891	4423.22
861.212	4414.4
861.534	4437.91
861.855	4397.23
862.176	4374.63
862.498	4382.77
862.819	4387.51
863.14	4380.73
863.461	4370.56
863.782	4329.21
864.103	4378.02
864.424	4356.55
864.745	4305.48
865.065	4328.76
865.386	4326.72
865.707	4323.11
866.027	4313.39
866.348	4348.42
866.668	4332.6
866.989	4287.63
867.309	4316.1
867.63	4311.58
867.95	4290.34
868.27	4288.08
868.59	4278.14
868.91	4251.24
869.23	4226.61
869.55	4216.67
869.87	4277.46
870.19	4261.64
870.51	4223.45
870.83	4255.99
871.15	4193.62
871.469	4201.3
871.789	4206.95
872.109	4185.94
872.428	4129.44
872.748	4171.02
873.067	4149.78
873.386	4191.36
873.706	4184.58
874.025	4191.81
874.344	4173.96
874.663	4177.57
874.982	4159.27
875.301	4098.25
875.62	4094.19
875.939	4143.22
876.258	4110.91
876.577	4105.03
876.896	4076.11
877.214	4062.77
877.533	4107.75
877.852	4070.91
878.17	4062.77
878.489	4093.28
878.807	4081.31
879.125	4065.71
879.444	4065.26
879.762	4072.27
880.08	4029.56
880.398	4019.16
880.716	4050.8
881.034	4049.89
881.352	4011.25
881.67	4019.84
881.988	4021.87
882.306	4030.23
882.624	3925.38
882.941	3972.38
883.259	3937.35
883.577	3979.39
883.894	3928.99
884.212	3934.87
884.529	3911.14
884.846	3928.09
885.164	3901.65
885.481	3926.96
885.798	3903.91
886.115	3857.13
886.432	3879.5
886.75	3879.95
887.067	3869.11
887.383	3814.42
887.7	3850.35
888.017	3851.48
888.334	3822.78
888.651	3815.1
888.967	3803.12
889.284	3779.62
889.6	3763.35
889.917	3742.78
890.233	3744.14
890.55	3751.37
890.866	3738.04
891.182	3707.53
891.498	3693.74
891.815	3686.97
892.131	3707.98
892.447	3688.77
892.763	3701.2
893.079	3671.37
893.395	3646.29
893.71	3641.77
894.026	3680.41
894.342	3633.18
894.657	3636.12
894.973	3577.14
895.289	3567.42
895.604	3614.2
895.92	3557.7
896.235	3529
896.55	3547.53
896.865	3563.35
897.181	3545.73
897.496	3526.29
897.811	3479.74
898.126	3477.25
898.441	3475.22
898.756	3467.76
899.071	3445.16
899.386	3452.85
899.7	3426.41
900.015	3427.54
900.33	3351.15
900.644	3408.33
900.959	3398.16
901.273	3381.44
901.588	3363.13
901.902	3315.68
902.216	3338.73
902.531	3338.27
902.845	3300.53
903.159	3278.84
903.473	3327.43
903.787	3287.65
904.101	3257.6
904.415	3250.82
904.729	3281.1
905.042	3236.13
905.356	3237.26
905.67	3219.86
905.984	3184.38
906.297	3181.89
906.611	3151.61
906.924	3144.15
907.237	3138.73
907.551	3148.22
907.864	3140.54
908.177	3107.09
908.491	3079.07
908.804	3089.24
909.117	3082.46
909.43	3075.46
909.743	3065.29
910.056	3026.87
910.368	3025.74
910.681	3052.18
910.994	3047.89
911.307	3005.18
911.619	2959.07
911.932	2969.47
912.244	2943.03
912.557	2936.48
912.869	2913.43
913.181	2897.16
913.494	2880.21
913.806	2931.28
914.118	2922.92
914.43	2907.55
914.742	2857.61
915.054	2854.9
915.366	2879.3
915.678	2817.16
915.99	2846.99
916.302	2813.77
916.613	2804.28
916.925	2821
917.236	2749.59
917.548	2777.61
917.859	2797.72
918.171	2737.61
918.482	2712.08
918.794	2736.71
919.105	2716.82
919.416	2669.14
919.727	2689.93
920.038	2686.99
920.349	2686.54
920.66	2663.49
920.971	2662.36
921.282	2648.12
921.593	2638.86
921.903	2647.67
922.214	2614.23
922.525	2597.95
922.835	2641.34
923.146	2603.6
923.456	2569.93
923.767	2592.98
924.077	2562.47
924.387	2569.25
924.697	2533.78
925.008	2512.08
925.318	2543.04
925.628	2513.66
925.938	2519.54
926.248	2489.26
926.558	2533.78
926.867	2505.08
927.177	2465.98
927.487	2478.18
927.796	2446.09
928.106	2490.61
928.416	2444.29
928.725	2417.62
929.034	2419.65
929.344	2395.47
929.653	2422.82
929.962	2387.79
930.271	2353.21
930.581	2320.22
930.89	2338.75
931.199	2357.51
931.508	2334.23
931.817	2356.15
932.125	2341.46
932.434	2319.54
932.743	2345.31
933.051	2303.05
933.36	2282.48
933.669	2277.74
933.977	2268.02
934.286	2291.75
934.594	2264.86
934.902	2232.77
935.21	2223.05
935.519	2231.18
935.827	2221.69
936.135	2212.2
936.443	2183.05
936.751	2214.24
937.059	2220.11
937.367	2180.11
937.674	2177.63
937.982	2176.27
938.29	2165.2
938.597	2176.27
938.905	2151.41
939.213	2105.31
939.52	2080.68
939.827	2122.26
940.135	2089.72
940.442	2098.98
940.749	2121.58
941.056	2081.81
941.363	2079.1
941.67	2050.85
941.977	2039.1
942.284	2075.48
942.591	2038.42
942.898	2069.83
943.205	2042.04
943.511	2044.3
943.818	2029.38
944.125	2017.18
944.431	1988.48
944.738	2007.46
945.044	1997.97
945.35	1983.06
945.657	1996.16
945.963	1968.82
946.269	1949.38
946.575	1959.78
946.881	1942.6
947.187	1915.49
947.493	1924.98
947.799	1922.27
948.105	1897.18
948.41	1901.48
948.716	1917.29
949.022	1883.17
949.327	1889.27
949.633	1870.06
949.938	1840.69
950.244	1866
950.549	1872.1
950.854	1854.7
951.16	1841.36
951.465	1824.19
951.77	1839.56
952.075	1843.85
952.38	1809.05
952.685	1810.18
952.99	1764.98
953.294	1792.1
953.599	1777.41
953.904	1793.68
954.209	1788.26
954.513	1762.95
954.818	1774.02
955.122	1757.07
955.426	1739.45
955.731	1756.62
956.035	1687.92
956.339	1729.73
956.643	1732.67
956.948	1706.68
957.252	1710.29
957.556	1668.04
957.86	1685.44
958.163	1687.47
958.467	1662.39
958.771	1674.59
959.075	1677.75
959.378	1625.1
959.682	1681.37
959.985	1670.52
960.289	1631.2
960.592	1620.35
960.896	1628.04
961.199	1641.82
961.502	1637.08
961.805	1635.95
962.108	1605.66
962.411	1582.84
962.714	1576.29
963.017	1595.49
963.32	1571.77
963.623	1568.38
963.926	1552.33
964.228	1582.61
964.531	1582.16
964.833	1564.76
965.136	1541.26
965.438	1538.77
965.741	1538.1
966.043	1509.17
966.345	1506.23
966.648	1523.86
966.95	1506.01
967.252	1509.4
967.554	1502.62
967.856	1487.02
968.158	1484.09
968.46	1488.83
968.761	1502.62
969.063	1477.76
969.365	1452.45
969.666	1459
969.968	1436.4
970.269	1458.1
970.571	1453.58
970.872	1429.4
971.174	1417.42
971.475	1422.84
971.776	1425.1
972.077	1417.65
972.378	1423.97
972.679	1423.52
972.98	1411.77
973.281	1409.74
973.582	1408.61
973.883	1411.77
974.183	1362.96
974.484	1393.24
974.785	1401.83
975.085	1361.38
975.386	1341.49
975.686	1358.89
975.986	1351.89
976.287	1351.43
976.587	1318.44
976.887	1329.74
977.187	1344.43
977.487	1317.54
977.787	1319.12
978.087	1303.75
978.387	1306.24
978.687	1327.93
978.987	1308.5
979.286	1299.01
979.586	1299.23
979.885	1272.34
980.185	1291.55
980.484	1280.25
980.784	1268.27
981.083	1260.81
981.382	1254.49
981.682	1266.92
981.981	1282.73
982.28	1245.45
982.579	1246.8
982.878	1226.46
983.177	1227.59
983.475	1246.8
983.774	1217.65
984.073	1224.21
984.372	1223.98
984.67	1221.04
984.969	1211.55
985.267	1204.09
985.566	1201.83
985.864	1191.21
986.162	1193.25
986.461	1162.29
986.759	1172
987.057	1171.78
987.355	1146.92
987.653	1169.52
987.951	1174.94
988.249	1151.44
988.547	1157.54
988.844	1114.38
989.142	1148.95
989.44	1129.97
989.737	1136.75
990.035	1134.26
990.332	1109.63
990.63	1118.22
990.927	1148.05
991.224	1110.99
991.521	1105.34
991.819	1109.41
992.116	1103.76
992.413	1086.36
992.71	1063.31
993.006	1094.72
993.303	1069.41
993.6	1094.27
993.897	1081.84
994.193	1103.3
994.49	1059.24
994.787	1049.75
995.083	1047.26
995.379	1047.03
995.676	1068.05
995.972	1042.51
996.268	1049.52
996.565	1017.43
996.861	1036.64
997.157	1029.86
997.453	1012.46
997.749	1015.85
998.044	1007.04
998.34	1006.58
998.636	996.87
998.932	1005.45
999.227	997.32
999.523	984.66
999.818	981.73
1000.114	994.83
1000.409	967.71
1000.704	990.99
1001	952.8
1001.295	974.27
1001.59	953.03
1001.885	958.45
1002.18	964.55
1002.475	943.76
1002.77	951.9
1003.065	943.99
1003.359	927.72
1003.654	942.86
1003.949	921.39
1004.243	914.61
1004.538	929.75
1004.832	919.58
1005.127	918.68
1005.421	908.96
1005.715	908.96
1006.009	917.32
1006.304	886.81
1006.598	879.58
1006.892	860.15
1007.186	889.98
1007.48	892.91
1007.773	883.65
1008.067	873.48
1008.361	855.18
1008.655	849.3
1008.948	859.24
1009.242	848.4
1009.535	827.61
1009.829	844.78
1010.122	837.77
1010.415	843.2
1010.708	841.39
1011.001	803.43
1011.295	813.37
1011.588	830.54
1011.881	829.19
1012.173	846.14
1012.466	820.15
1012.759	804.78
1013.052	802.07
1013.344	803.2
1013.637	780.37
1013.93	780.15
1014.222	784.44
1014.514	783.31
1014.807	791.9
1015.099	776.76
1015.391	773.37
1015.683	787.61
1015.976	769.08
1016.268	752.35
1016.56	780.15
1016.851	770.66
1017.143	767.04
1017.435	758.23
1017.727	736.99
1018.018	745.12
1018.31	750.09
1018.602	732.24
1018.893	743.77
1019.185	732.47
1019.476	716.87
1019.767	731.79
1020.058	711.68
1020.35	694.73
1020.641	696.99
1020.932	711.45
1021.223	685.91
1021.514	687.27
1021.804	703.99
1022.095	697.44
1022.386	692.69
1022.677	678.91
1022.967	701.51
1023.258	673.94
1023.548	677.55
1023.839	691.56
1024.129	668.51
1024.419	669.42
1024.709	676.42
1025	677.1
1025.29	661.96
1025.58	646.59
1025.87	671
1026.16	639.59
1026.449	652.47
1026.739	659.25
1027.029	614.96
1027.319	658.12
1027.608	645.92
1027.898	613.83
1028.187	609.31
1028.477	618.8
1028.766	642.98
1029.055	630.55
1029.344	616.76
1029.634	614.73
1029.923	603.2
1030.212	608.63
1030.501	612.7
1030.79	619.02
1031.078	599.36
1031.367	575.18
1031.656	618.35
1031.945	605.46
1032.233	612.92
1032.522	572.7
1032.81	595.52
1033.099	572.92
1033.387	588.52
1033.675	573.6
1033.963	579.93
1034.251	588.52
1034.54	566.6
1034.828	566.6
1035.116	549.65
1035.403	546.26
1035.691	584
1035.979	568.18
1036.267	562.75
1036.554	548.06
1036.842	551
1037.129	560.72
1037.417	557.33
1037.704	539.48
1037.992	547.84
1038.279	542.42
1038.566	532.92
1038.853	532.92
1039.14	532.92
