Data from blue_shiny_book_FLMS001491_00051.txt Node
Date: Wed Feb 08 15:27:12 GMT 2017
User: dcchb
Spectrometer: FLMS00149
Trigger mode: 0
Integration Time (sec): 2.000000E-2
Scans to average: 10
Electric dark correction enabled: true
Nonlinearity correction enabled: false
Boxcar width: 0
XAxis mode: Wavelengths
Number of Pixels in Spectrum: 2048
>>>>>Begin Spectral Data<<<<<
341.393	-29.01
341.776	-29.01
342.16	-29.01
342.543	-90.93
342.927	-69.46
343.31	-73.98
343.693	-73.3
344.077	-50.48
344.46	-62.46
344.843	-62.46
345.226	-39.86
345.61	-37.37
345.993	-35.11
346.376	-7.77
346.759	3.3
347.142	44.21
347.525	41.72
347.908	62.29
348.291	81.04
348.674	97.09
349.057	113.13
349.44	104.55
349.823	127.14
350.206	159.69
350.588	208.05
350.971	225.45
351.354	227.48
351.737	242.39
352.119	262.96
352.502	281.94
352.884	287.59
353.267	288.72
353.65	296.63
354.032	314.71
354.414	313.81
354.797	309.51
355.179	344.76
355.562	338.66
355.944	344.99
356.326	362.62
356.709	341.83
357.091	349.51
357.473	365.33
357.855	347.93
358.238	359.45
358.62	376.85
359.002	362.39
359.384	370.3
359.766	342.51
360.148	355.61
360.53	372.79
360.912	362.17
361.294	347.48
361.676	367.36
362.057	361.71
362.439	349.74
362.821	356.29
363.203	349.51
363.584	345.44
363.966	357.42
364.348	370.75
364.729	349.06
365.111	344.76
365.493	340.25
365.874	361.94
366.256	351.32
366.637	355.61
367.019	340.02
367.4	321.26
367.781	342.05
368.163	341.6
368.544	343.41
368.925	323.3
369.306	339.57
369.688	337.53
370.069	361.04
370.45	369.17
370.831	365.1
371.212	357.19
371.593	369.17
371.974	371.66
372.355	353.58
372.736	362.84
373.117	368.27
373.498	361.49
373.879	359
374.26	381.6
374.641	390.19
375.021	370.98
375.402	361.71
375.783	369.4
376.163	368.72
376.544	413.24
376.925	394.03
377.305	399.68
377.686	377.08
378.066	402.62
378.447	387.93
378.827	413.24
379.208	417.53
379.588	379.79
379.968	417.08
380.349	415.5
380.729	403.97
381.109	426.12
381.489	417.31
381.87	440.81
382.25	439
382.63	416.4
383.01	427.25
383.39	419.11
383.77	445.55
384.15	444.65
384.53	442.84
384.91	476.29
385.29	468.38
385.67	470.64
386.049	501.6
386.429	472.22
386.809	489.39
387.189	477.19
387.568	489.39
387.948	472.67
388.328	496.4
388.707	499.11
389.087	503.63
389.466	504.76
389.846	502.5
390.225	553.35
390.605	526.23
390.984	565.32
391.363	555.38
391.743	549.05
392.122	567.81
392.501	547.47
392.881	586.79
393.26	578.88
393.639	573.23
394.018	590.41
394.397	584.76
394.776	605.32
395.155	609.84
395.534	620.92
395.913	603.74
396.292	602.39
396.671	631.99
397.05	605.78
397.429	641.48
397.808	639.22
398.186	631.09
398.565	662.95
398.944	661.82
399.323	686
399.701	691.65
400.08	684.87
400.458	690.29
400.837	717.41
401.215	704.76
401.594	704.3
401.972	718.54
402.351	719.44
402.729	723.51
403.107	745.21
403.486	762.38
403.864	760.12
404.242	782.04
404.62	794.24
404.999	770.29
405.377	792.44
405.755	817.75
406.133	811.65
406.511	811.65
406.889	845.77
407.267	880.8
407.645	878.76
408.023	871.98
408.401	904.75
408.779	900.91
409.156	904.3
409.534	896.16
409.912	925.54
410.29	943.85
410.667	988.14
411.045	993.11
411.422	997.4
411.8	1009.15
412.178	1010.96
412.555	1066.33
412.933	1064.07
413.31	1097.97
413.687	1074.24
414.065	1109.94
414.442	1100.68
414.819	1109.72
415.197	1144.29
415.574	1149.72
415.951	1183.84
416.328	1194.91
416.705	1207.57
417.082	1178.64
417.46	1212.31
417.837	1240.56
418.214	1228.58
418.591	1265.19
418.967	1273.33
419.344	1278.3
419.721	1313.1
420.098	1297.73
420.475	1349.71
420.852	1384.51
421.228	1388.13
421.605	1405.75
421.982	1410.73
422.358	1423.38
422.735	1452.08
423.111	1434.68
423.488	1452.53
423.864	1450.05
424.241	1491.85
424.617	1521.68
424.994	1507.22
425.37	1581.57
425.746	1568.46
426.123	1603.49
426.499	1611.85
426.875	1639.19
427.251	1657.05
427.627	1718.74
428.003	1683.94
428.379	1719.64
428.756	1761.68
429.132	1819.08
429.507	1821.34
429.883	1808.23
430.259	1881.45
430.635	1891.84
431.011	1911.96
431.387	1955.57
431.763	1980.2
432.138	2016.81
432.514	2016.36
432.89	2022.91
433.265	2058.84
433.641	2121.67
434.016	2117.15
434.392	2184.26
434.767	2215.9
435.143	2250.03
435.518	2262.23
435.894	2304.71
436.269	2357.82
436.644	2396.01
437.02	2379.51
437.395	2411.6
437.77	2450.92
438.145	2442.34
438.52	2471.26
438.895	2516.91
439.271	2517.59
439.646	2558.49
440.021	2628.77
440.395	2647.08
440.77	2643.69
441.145	2711.03
441.52	2710.35
441.895	2753.74
442.27	2730.46
442.645	2763.01
443.019	2813.17
443.394	2793.06
443.769	2850.24
444.143	2859.28
444.518	2892.27
444.892	2908.77
445.267	2944.24
445.641	2945.37
446.016	3014.3
446.39	3048.87
446.764	3028.99
447.139	3057.46
447.513	3089.78
447.887	3094.07
448.262	3149.44
448.636	3120.51
449.01	3172.94
449.384	3207.51
449.758	3252.26
450.132	3306.72
450.506	3331.81
450.88	3341.07
451.254	3364.12
451.628	3373.61
452.002	3439.37
452.376	3467.85
452.75	3533.61
453.123	3528.64
453.497	3579.48
453.871	3655.19
454.244	3722.53
454.618	3704.9
454.992	3774.73
455.365	3783.54
455.739	3907.84
456.112	3954.16
456.486	3975.18
456.859	4045.91
457.232	4113.48
457.606	4135.63
457.979	4144.67
458.352	4264.66
458.725	4329.29
459.099	4361.61
459.472	4463.07
459.845	4443.87
460.218	4531.55
460.591	4541.94
460.964	4564.32
461.337	4730.41
461.71	4809.28
462.083	4896.96
462.456	4885.21
462.829	4920.24
463.201	4997.07
463.574	4987.35
463.947	5099.44
464.32	5257.18
464.692	5287.91
465.065	5280
465.438	5353.67
465.81	5487.68
466.183	5533.1
466.555	5706.66
466.928	5746.43
467.3	5770.61
467.672	5830.72
468.045	5999.98
468.417	5974.9
468.789	6052.86
469.161	6133.77
469.534	6283.14
469.906	6360.65
470.278	6392.97
470.65	6480.87
471.022	6643.58
471.394	6724.03
471.766	6831.37
472.138	6907.08
472.51	7070.24
472.882	7170.35
473.253	7224.36
473.625	7315.66
473.997	7510.23
474.369	7554.52
474.74	7657.12
475.112	7762.2
475.484	7926.71
475.855	8065.01
476.227	8165.12
476.598	8289.87
476.97	8402.63
477.341	8707.48
477.713	8793.36
478.084	8864.77
478.455	9130.3
478.827	9200.8
479.198	9508.82
479.569	9514.92
479.94	9729.6
480.311	9763.27
480.682	10073.77
481.053	10269.93
481.424	10434.9
481.795	10577.72
482.166	10791.04
482.537	10816.58
482.908	11136.57
483.279	11291.6
483.65	11491.36
484.021	11721.87
484.391	11819.94
484.762	11939.26
485.133	12044.8
485.503	12293.38
485.874	12527.5
486.244	12635.74
486.615	12866.7
486.985	13042.96
487.356	13226.23
487.726	13390.3
488.097	13713.45
488.467	13648.37
488.837	14042.26
489.207	14266.88
489.578	14507.56
489.948	14669.81
490.318	14799.98
490.688	14912.74
491.058	15209.68
491.428	15442
491.798	15506.85
492.168	15842.66
492.538	15908.2
492.908	16014.41
493.278	16207.17
493.648	16270
494.017	16491.01
494.387	16689.42
494.757	16979.58
495.126	17222.29
495.496	17276.98
495.866	17518.78
496.235	17649.39
496.605	17888.26
496.974	17925.55
497.344	18107.69
497.713	18255.71
498.082	18418.64
498.452	18596.71
498.821	18702.47
499.19	18670.38
499.559	18871.96
499.928	19002.58
500.298	19138.17
500.667	19290.03
501.036	19318.28
501.405	19683.24
501.774	19753.75
502.143	19897.92
502.512	20069.9
502.88	20307.63
503.249	20257.01
503.618	20419.72
503.987	20573.39
504.356	20720.27
504.724	20774.28
505.093	20753.72
505.462	20955.75
505.83	21037.1
506.199	21288.85
506.567	21548.28
506.936	21429.18
507.304	21920.24
507.672	21983.97
508.041	22106
508.409	22364.07
508.777	22575.14
509.145	22838.86
509.514	22868.01
509.882	23071.85
510.25	23176.03
510.618	23459.41
510.986	23395.68
511.354	23604.94
511.722	23759.29
512.09	24024.59
512.458	23865.05
512.826	24211.93
513.193	24341.42
513.561	24448.09
513.929	24660.28
514.297	24902.31
514.664	25131.46
515.032	25241.96
515.4	25475.4
515.767	25648.05
516.135	25923.08
516.502	25888.5
516.869	26395.15
517.237	26532.32
517.604	26412.78
517.972	26617.97
518.339	26838.98
518.706	26773.67
519.073	26968.92
519.44	27091.18
519.808	27325.98
520.175	27250.95
520.542	27732.75
520.909	27888.67
521.276	27872.18
521.643	28359.85
522.009	28490.01
522.376	28872.38
522.743	29005.25
523.11	29416.99
523.477	29697.21
523.843	29922.29
524.21	30186.69
524.577	30487.25
524.943	30679.79
525.31	30746.23
525.676	30871.87
526.043	31115.03
526.409	31342.14
526.776	31548.24
527.142	31613.77
527.508	31735.58
527.874	32087.66
528.241	32139.64
528.607	32353.19
528.973	32873.63
529.339	32932.61
529.705	33262.54
530.071	33606.49
530.437	33843.09
530.803	34225
531.169	34382.74
531.535	34233.14
531.901	34606.91
532.267	34708.16
532.632	34930.52
532.998	34915.16
533.364	35143.4
533.73	35182.27
534.095	35347.69
534.461	35403.05
534.826	35624.97
535.192	35722.14
535.557	35984.73
535.923	35818.86
536.288	36074.22
536.653	36317.38
537.019	36489.35
537.384	36619.74
537.749	36989.23
538.114	37187.86
538.479	37295.88
538.845	37465.82
539.21	37446.39
539.575	37730.45
539.94	37643.22
540.305	37855.64
540.67	37803.67
541.034	37947.39
541.399	38074.39
541.764	37894.96
542.129	38040.95
542.494	38164.56
542.858	38376.53
543.223	38301.51
543.587	38567.04
543.952	38707.15
544.316	38847.26
544.681	39006.35
545.045	39346.9
545.41	39555.03
545.774	39727.01
546.138	39877.06
546.503	39984.4
546.867	40086.77
547.231	40473.88
547.595	40469.13
547.959	40664.83
548.324	40669.81
548.688	40713.87
549.052	40749.13
549.416	40541.22
549.779	40677.26
550.143	40610.82
550.507	40983.02
550.871	40935.11
551.235	40805.4
551.599	41169.23
551.962	41384.82
552.326	41470.24
552.689	41754.75
553.053	41801.98
553.417	41859.61
553.78	42437.44
554.143	42302.98
554.507	42599.47
554.87	42803.76
555.234	43156.52
555.597	42896.19
555.96	43089.86
556.323	43241.49
556.686	43249.63
557.05	43404.65
557.413	43370.75
557.776	43498.88
558.139	43632.67
558.502	43569.17
558.865	43446.23
559.228	43747.24
559.59	43873.56
559.953	43883.51
560.316	44502.7
560.679	44445.98
561.041	44815.91
561.404	45013.19
561.767	45391.94
562.129	45392.39
562.492	45854.98
562.854	46050
563.217	46014.3
563.579	46288.19
563.941	46575.87
564.304	46802.3
564.666	46928.85
565.028	46929.53
565.39	46985.8
565.753	47099.02
566.115	47221.5
566.477	47366.81
566.839	47318.22
567.201	47379.23
567.563	47422.17
567.925	47769.73
568.287	47673.01
568.648	47976.28
569.01	47912.78
569.372	48212.66
569.734	48292.88
570.095	48568.36
570.457	48678.18
570.819	49025.52
571.18	49054.44
571.542	49342.57
571.903	49418.5
572.265	49601.1
572.626	49562.68
572.987	49663.92
573.349	49815.55
573.71	49986.17
574.071	50023.01
574.432	49959.73
574.794	50128.77
575.155	49969.22
575.516	49841.54
575.877	49780.75
576.238	49804.71
576.599	50004.93
576.96	49955.44
577.32	49984.14
577.681	50138.48
578.042	50369.89
578.403	50376.44
578.763	50490.79
579.124	50575.08
579.485	50822.99
579.845	51007.61
580.206	50905.02
580.566	50954.06
580.927	51096.42
581.287	51359.69
581.648	51147.04
582.008	51236.76
582.368	51274.05
582.728	51403.99
583.089	51333.71
583.449	51299.58
583.809	51312.92
584.169	51333.25
584.529	51179.36
584.889	51450.09
585.249	51205.8
585.609	51110.66
585.969	51307.04
586.329	51157.89
586.688	51145.92
587.048	51218
587.408	51266.36
587.768	51438.79
588.127	51356.31
588.487	51462.52
588.846	51717.65
589.206	51698.89
589.565	51645.56
589.925	51799.01
590.284	51786.35
590.643	51841.04
591.003	51925.56
591.362	52025.89
591.721	51945.89
592.08	51833.58
592.44	52026.57
592.799	51924.65
593.158	51833.58
593.517	51665.9
593.876	51813.92
594.235	51703.87
594.593	51703.87
594.952	51777.54
595.311	51526.7
595.67	51613.02
596.029	51833.58
596.387	51770.76
596.746	51872.45
597.104	51544.77
597.463	51735.96
597.822	51920.36
598.18	51821.6
598.538	51821.6
598.897	52045.55
599.255	51853.02
599.613	52255.26
599.972	52217.07
600.33	52272.21
600.688	52200.12
601.046	52362.38
601.404	52376.84
601.762	52481.25
602.12	52521.92
602.478	52469.5
602.836	52435.37
603.194	52309.95
603.552	52316.28
603.91	52182.95
604.268	52303.62
604.625	52034.71
604.983	52299.11
605.341	52047.81
605.698	52136.4
606.056	52259.56
606.413	52329.61
606.771	52379.55
607.128	52449.84
607.485	52226.56
607.843	52423.62
608.2	52677.63
608.557	52845.08
608.914	52788.81
609.272	52977.73
609.629	53065.64
609.986	53173.66
610.343	53122.13
610.7	53309.02
611.057	53292.98
611.414	53226.09
611.771	53254.79
612.127	53380.21
612.484	53410.04
612.841	53402.35
613.198	53426.76
613.554	53319.19
613.911	53541.33
614.267	53343.82
614.624	53299.3
614.98	53316.48
615.337	53352.64
615.693	53361.45
616.05	53209.82
616.406	53456.81
616.762	53292.53
617.118	53340.89
617.475	53353.09
617.831	53429.7
618.187	53404.39
618.543	53525.97
618.899	53690.71
619.255	53662.69
619.611	53626.08
619.967	53817.26
620.323	53849.8
620.678	53726.64
621.034	53698.84
621.39	53852.96
621.746	53737.94
622.101	54132.05
622.457	53898.61
622.812	53925.5
623.168	53911.49
623.523	53877.14
623.879	53950.14
624.234	53669.24
624.589	53723.47
624.945	53682.12
625.3	53778.16
625.655	53592.4
626.01	53716.24
626.365	53602.35
626.72	53588.34
627.075	53522.35
627.43	53510.6
627.785	53510.37
628.14	53488.68
628.495	53515.57
628.85	53512.63
629.205	53359.87
629.559	53622.46
629.914	53488.45
630.269	53676.7
630.623	53627.43
630.978	53576.36
631.332	53867.65
631.687	53925.5
632.041	53786.98
632.396	53817.26
632.75	53809.57
633.104	53823.13
633.459	53780.2
633.813	53752.4
634.167	53747.65
634.521	53732.29
634.875	53591.73
635.229	53525.74
635.583	53433.31
635.937	53424.27
636.291	53335.01
636.645	53320.55
636.999	53197.61
637.352	53113.77
637.706	52901.35
638.06	53087.78
638.413	52958.52
638.767	52801.01
639.121	52860.22
639.474	52563.28
639.828	52640.79
640.181	52614.35
640.534	52730.05
640.888	52647.12
641.241	52586.1
641.594	52730.96
641.947	52757.4
642.301	52760.56
642.654	52749.04
643.007	52718.53
643.36	52815.93
643.713	52767.57
644.066	52904.74
644.419	52849.83
644.771	52696.16
645.124	52604.86
645.477	52475.15
645.83	52135.04
646.182	51806.24
646.535	51497.77
646.888	51483.53
647.24	51190.21
647.593	51327.15
647.945	51260.94
648.298	50981.17
648.65	50894.4
649.002	50724.23
649.355	50888.07
649.707	50823.44
650.059	50996.99
650.411	51304.78
650.763	51512.69
651.115	51814.82
651.467	51576.86
651.819	51605.79
652.171	51517.2
652.523	51586.81
652.875	51600.14
653.227	51524.89
653.578	51805.33
653.93	51816.41
654.282	51582.51
654.633	51643.08
654.985	51674.04
655.337	51736.63
655.688	51823.41
656.039	51990.19
656.391	51601.5
656.742	51882.62
657.094	51895.5
657.445	51993.12
657.796	51843.3
658.147	51718.78
658.498	51708.84
658.849	51772.34
659.2	51677.2
659.551	51562.85
659.902	51631.78
660.253	51428.17
660.604	51555.85
660.955	51330.09
661.306	51431.11
661.656	51287.38
662.007	51209.19
662.358	51103.2
662.708	51205.35
663.059	51013.26
663.409	50844.23
663.76	51061.4
664.11	50950.44
664.461	50958.12
664.811	51055.97
665.161	51171.23
665.511	51165.58
665.862	51207.16
666.212	51379.81
666.562	51378.9
666.912	51397.89
667.262	51507.71
667.612	51430.43
667.962	51486.02
668.312	51432.91
668.662	51550.42
669.011	51540.48
669.361	51465.68
669.711	51481.27
670.06	51268.4
670.41	51191.56
670.76	51124.22
671.109	51283.09
671.459	51030.21
671.808	50879.03
672.157	50908.41
672.507	50745.7
672.856	50636.1
673.205	50669.32
673.554	50731.46
673.904	50477.91
674.253	50637.23
674.602	50498.93
674.951	49933.97
675.3	49735.56
675.649	50217.35
675.998	50095.1
676.346	50124.47
676.695	50174.19
677.044	49954.08
677.393	50068.66
677.741	50265.71
678.09	50145.72
678.438	50094.42
678.787	50181.87
679.135	50220.06
679.484	50128.99
679.832	50309.55
680.181	50194.08
680.529	50345.94
680.877	50297.35
681.225	50200.86
681.573	50533.73
681.922	50253.06
682.27	50220.29
682.618	50234.3
682.966	49999.96
683.314	50115.66
683.661	49889
684.009	49722.68
684.357	49657.59
684.705	49522.23
685.053	49493.08
685.4	49491.27
685.748	49154.78
686.095	49096.48
686.443	48899.65
686.79	48762.7
687.138	48856.26
687.485	48799.76
687.832	48552.08
688.18	48493.1
688.527	48254.01
688.874	48326.78
689.221	48292.2
689.568	48138.76
689.915	48135.15
690.262	48074.36
690.609	47964.76
690.956	48011.08
691.303	48000.91
691.65	47898.09
691.997	47795.04
692.344	47743.52
692.69	47679.57
693.037	47666.46
693.383	47486.58
693.73	47684.76
694.077	47605.44
694.423	47484.09
694.769	47454.71
695.116	47279.12
695.462	47089.3
695.808	46866.71
696.155	47208.39
696.501	46838.68
696.847	46849.98
697.193	46369.32
697.539	46390.11
697.885	46223.78
698.231	45821.99
698.577	45873.29
698.923	45692.05
699.269	45520.3
699.614	45200.08
699.96	45071.5
700.306	45098.62
700.651	44751.96
700.997	44702.69
701.342	44458.63
701.688	44426.32
702.033	44315.36
702.379	44162.37
702.724	44122.14
703.069	44204.63
703.415	43792.21
703.76	43784.75
704.105	43774.36
704.45	43742.95
704.795	43589.96
705.14	43590.86
705.485	43403.75
705.83	43236.74
706.175	43338.21
706.52	43379.34
706.865	43344.09
707.209	43519.9
707.554	43330.3
707.899	43409.85
708.243	42976.64
708.588	43088.05
708.932	43003.98
709.277	42837.88
709.621	42895.96
709.966	42647.16
710.31	42748.62
710.654	42349.54
710.998	42241.06
711.342	42253.95
711.687	42150.67
712.031	41797.23
712.375	41706.39
712.719	41760.63
713.063	41622.1
713.407	41633.4
713.75	41294.2
714.094	41143.69
714.438	41023.24
714.782	41126.97
715.125	40746.19
715.469	40862.34
715.812	40556.14
716.156	40447.67
716.499	40374.45
716.843	40455.8
717.186	40129.03
717.53	40319.08
717.873	40339.42
718.216	40227.56
718.559	40143.27
718.902	39974.68
719.246	40401.11
719.589	40303.04
719.932	40155.92
720.275	40258.74
720.617	40285.18
720.96	40219.2
721.303	40281.79
721.646	40315.47
721.989	40084.74
722.331	40281.79
722.674	40254.45
723.016	40314.79
723.359	40234.34
723.701	40266.65
724.044	39846.78
724.386	39712.77
724.729	39913.89
725.071	39907.34
725.413	39721.58
725.755	39741.7
726.097	39478.2
726.439	39150.52
726.782	39135.16
727.124	39202.73
727.465	39095.84
727.807	38825.11
728.149	38652.68
728.491	38472.58
728.833	38524.55
729.175	38526.36
729.516	38348.96
729.858	38235.29
730.199	38399.81
730.541	38190.1
730.882	38171.57
731.224	38373.14
731.565	38142.87
731.906	38080.72
732.248	38225.58
732.589	37996.2
732.93	37957.56
733.271	37993.94
733.612	38049.76
733.953	38188.97
734.294	38064.9
734.635	38088.18
734.976	38150.78
735.317	37948.75
735.658	37999.82
735.999	38051.34
736.339	38136.31
736.68	38126.14
737.021	38159.14
737.361	37983.1
737.702	38183.32
738.042	37978.35
738.383	37936.09
738.723	38180.61
739.063	37802.99
739.404	38000.72
739.744	38012.7
740.084	37839.15
740.424	37868.07
740.764	37755.53
741.104	37835.53
741.444	37659.49
741.784	37403.68
742.124	37448.87
742.464	37273.74
742.804	37326.39
743.143	37213.17
743.483	37340.85
743.823	36999.17
744.162	36968.66
744.502	37136.34
744.841	37034.87
745.181	37160.75
745.52	36972.05
745.86	37033.52
746.199	37018.15
746.538	36965.27
746.877	37110.8
747.216	36991.26
747.556	36914.65
747.895	36963.69
748.234	36893.86
748.573	36881.21
748.911	37013.86
749.25	37048.21
749.589	37092.5
749.928	37280.06
750.267	37347.18
750.605	37292.27
750.944	37268.77
751.283	37390.12
751.621	37423.11
751.96	37218.6
752.298	37496.78
752.636	37587.18
752.975	37452.26
753.313	37329.1
753.651	37376.33
753.989	37383.34
754.327	37355.77
754.666	37337.92
755.004	37326.39
755.342	37302.21
755.679	37451.36
756.017	37176.79
756.355	37287.52
756.693	37219.05
757.031	37300.4
757.368	37042.11
757.706	37004.82
758.044	36910.13
758.381	36982.45
758.719	36707.65
759.056	36885.5
759.394	36656.13
759.731	36468.56
760.068	36558.05
760.405	36311.73
760.743	36340.65
761.08	36381.56
761.417	36143.82
761.754	36058.63
762.091	36136.37
762.428	36164.39
762.765	35877.62
763.102	36048.23
763.438	35932.08
763.775	35830.61
764.112	35904.96
764.449	35976.6
764.785	35890.05
765.122	35713.78
765.458	35616.83
765.795	35744.96
766.131	35524.63
766.467	35498.87
766.804	35412.77
767.14	35387.01
767.476	35550.39
767.812	35316.05
768.148	35557.4
768.485	35366.89
768.821	35197.41
769.157	35101.37
769.492	35130.97
769.828	35299.55
770.164	34797.87
770.5	34858.21
770.836	34761.04
771.171	34605.56
771.507	34472.23
771.842	34290.31
772.178	34389.75
772.513	34290.99
772.849	34158.11
773.184	34018
773.519	33780.95
773.855	33710.22
774.19	33530.33
774.525	33490.79
774.86	33424.12
775.195	33416.44
775.53	33204.92
775.865	33087.41
776.2	32864.81
776.535	32535.56
776.87	32602
777.205	32413.98
777.539	32310.25
777.874	32327.88
778.209	31909.36
778.543	31918.85
778.878	31645.18
779.212	31603.38
779.547	31652.64
779.881	31727.89
780.215	31331.29
780.55	31501.69
780.884	31312.76
781.218	31230.28
781.552	31173.78
781.886	31003.85
782.22	30870.06
782.554	30786.9
782.888	30496.51
783.222	30563.18
783.556	30385.33
783.889	30471.88
784.223	30216.52
784.557	30242.96
784.89	30204.54
785.224	30085.23
785.557	30113.7
785.891	30036.64
786.224	30017.43
786.558	29942.18
786.891	29667.84
787.224	29621.74
787.557	29535.41
787.891	29502.87
788.224	29512.13
788.557	29519.82
788.89	29406.83
789.223	29421.29
789.556	29233.04
789.888	29096.1
790.221	28892.49
790.554	28825.37
790.887	28775.43
791.219	28560.29
791.552	28457.02
791.884	28351.26
792.217	28183.81
792.549	28097.48
792.882	27765.51
793.214	27965.96
793.546	27853.19
793.879	27686.64
794.211	27560.32
794.543	27712.41
794.875	27552.64
795.207	27478.97
795.539	27246.43
795.871	27156.94
796.203	26901.58
796.535	26648.25
796.867	26648.48
797.198	26617.29
797.53	26624.75
797.862	26464.76
798.193	26496.17
798.525	26205.33
798.856	26364.87
799.188	26195.16
799.519	26097.31
799.85	25935.28
800.182	25952.68
800.513	25987.48
800.844	25858.9
801.175	25933.47
801.506	25833.13
801.837	25752.23
802.168	25664.1
802.499	25596.08
802.83	25405.35
803.161	25420.04
803.491	25458.91
803.822	25404.22
804.153	25295.07
804.483	25101.63
804.814	25145.02
805.145	25195.41
805.475	25164.9
805.805	24929.43
806.136	25007.17
806.466	25008.52
806.796	25061.4
807.126	24763.33
807.457	24737.12
807.787	24720.17
808.117	24534.41
808.447	24475.88
808.777	24482.66
809.107	24345.49
809.436	24157.47
809.766	24211.93
810.096	24154.08
810.426	23952.73
810.755	23910.47
811.085	23858.5
811.414	23693.53
811.744	23526.3
812.073	23484.27
812.403	23604.94
812.732	23353.88
813.061	23399.53
813.39	23196.37
813.719	22972.42
814.049	23107.1
814.378	22959.99
814.707	22778.75
815.036	22736.04
815.365	22609.72
815.693	22465.77
816.022	22513
816.351	22495.14
816.68	22358.88
817.008	22442.71
817.337	22271.65
817.665	22248.37
817.994	22249.27
818.322	22195.49
818.651	22054.25
818.979	22021.03
819.307	22143.97
819.636	22035.49
819.964	22003.63
820.292	21981.03
820.62	22129.5
820.948	22093.35
821.276	22202.72
821.604	22093.35
821.932	22188.03
822.259	22122.72
822.587	22151.65
822.915	22078.2
823.243	22156.39
823.57	22141.03
823.898	22140.12
824.225	22122.5
824.553	22131.99
824.88	22167.69
825.207	22310.74
825.535	22258.54
825.862	22286.56
826.189	22252.44
826.516	22285.88
826.843	22352.1
827.17	22335.37
827.497	22381.02
827.824	22281.82
828.151	22262.61
828.478	22181.7
828.805	22299.89
829.131	22183.06
829.458	22082.5
829.785	22077.98
830.111	22036.4
830.438	22126.57
830.764	22024.42
831.09	22011.54
831.417	21928.38
831.743	21953.69
832.069	21924.76
832.395	21945.33
832.722	21910.75
833.048	21771.09
833.374	21760.7
833.7	21630.31
834.026	21697.88
834.351	21786.69
834.677	21571.55
835.003	21689.51
835.329	21725.9
835.654	21579.91
835.98	21465.11
836.306	21547.82
836.631	21347.38
836.956	21369.75
837.282	21418.79
837.607	21257.89
837.932	21256.53
838.258	21360.26
838.583	21274.61
838.908	21171.56
839.233	21269.86
839.558	21054.05
839.883	21199.36
840.208	21055.18
840.533	21068.51
840.858	21190.09
841.182	21259.02
841.507	21229.41
841.832	21109.87
842.156	21110.55
842.481	21053.15
842.805	21063.09
843.13	21029.64
843.454	20946.71
843.778	20835.75
844.103	20864.9
844.427	20784.23
844.751	20734.29
845.075	20682.99
845.399	20758.47
845.723	20638.02
846.047	20681.86
846.371	20416.55
846.695	20347.85
847.019	20204.81
847.343	20239.84
847.666	20108.31
847.99	19997.36
848.313	19969.56
848.637	19809.56
848.96	19850.92
849.284	19658.38
849.607	19452.06
849.931	19425.17
850.254	19214.78
850.577	19123.25
850.9	18971.62
851.223	19016.14
851.546	18777.05
851.869	18720.55
852.192	18788.8
852.515	18406.21
852.838	18443.27
853.161	18391.52
853.483	18231.98
853.806	18189.27
854.129	18170.06
854.451	18048.71
854.774	18040.12
855.096	17906.34
855.419	17925.32
855.741	17771.65
856.063	17631.09
856.385	17684.65
856.708	17592.22
857.03	17585.89
857.352	17566.23
857.674	17473.58
857.996	17477.65
858.318	17483.52
858.64	17421.38
858.961	17412.11
859.283	17463.41
859.605	17369.18
859.926	17360.14
860.248	17346.8
860.57	17166.7
860.891	17244.66
861.212	17163.76
861.534	17211.44
861.855	17156.07
862.176	17215.06
862.498	17175.51
862.819	17170.09
863.14	17116.75
863.461	17071.78
863.782	17015.51
864.103	17077.88
864.424	17130.76
864.745	17023.42
865.065	17087.15
865.386	16964.89
865.707	17015.74
866.027	17045.79
866.348	16903.65
866.668	16928.06
866.989	16851.9
867.309	16689.19
867.63	16818.91
867.95	16709.31
868.27	16704.56
868.59	16689.65
868.91	16639.48
869.23	16663.66
869.55	16599.03
869.87	16640.38
870.19	16639.7
870.51	16498.69
870.83	16471.35
871.15	16218.25
871.469	16217.57
871.789	16280.84
872.109	16195.42
872.428	16071.81
872.748	16008.53
873.067	16058.02
873.386	16092.37
873.706	15966.5
874.025	15848.09
874.344	15898.48
874.663	15955.43
874.982	15793.62
875.301	15854.41
875.62	15667.75
875.939	15717.69
876.258	15601.99
876.577	15697.81
876.896	15585.95
877.214	15611.71
877.533	15665.94
877.852	15586.85
878.17	15525.61
878.489	15566.51
878.807	15545.04
879.125	15520.19
879.444	15560.41
879.762	15511.15
880.08	15502.33
880.398	15394.09
880.716	15392.5
881.034	15352.05
881.352	15454.88
881.67	15359.29
881.988	15428.89
882.306	15362.9
882.624	15373.75
882.941	15277.71
883.259	15151.83
883.577	15284.71
883.894	15280.64
884.212	15300.53
884.529	15157.26
884.846	15260.98
885.164	15181.21
885.481	15087.43
885.798	15144.6
886.115	15044.49
886.432	15109.8
886.75	15044.94
887.067	15106.18
887.383	15058.05
887.7	15063.7
888.017	14892.41
888.334	14966.08
888.651	14873.87
888.967	14798.17
889.284	14727.44
889.6	14698.74
889.917	14613.99
890.233	14679.3
890.55	14538.29
890.866	14571.96
891.182	14441.57
891.498	14423.04
891.815	14286.77
892.131	14302.82
892.447	14257.39
892.763	14142.59
893.079	14058.98
893.395	14006.55
893.71	13986.67
894.026	13964.97
894.342	13908.93
894.657	13729.95
894.973	13740.57
895.289	13691.08
895.604	13648.37
895.92	13515.27
896.235	13498.32
896.55	13482.27
896.865	13414.03
897.181	13314.14
897.496	13223.07
897.811	13218.55
898.126	13186.46
898.441	13041.38
898.756	13072.11
899.071	13047.26
899.386	13061.94
899.7	12913.02
900.015	12884.32
900.33	12793.25
900.644	12844.78
900.959	12805.45
901.273	12810.88
901.588	12623.31
901.902	12608.62
902.216	12653.14
902.531	12647.49
902.845	12587.38
903.159	12571.11
903.473	12550.32
903.787	12407.72
904.101	12399.36
904.415	12371.79
904.729	12416.09
905.042	12361.85
905.356	12295.19
905.67	12278.01
905.984	12308.74
906.297	12202.76
906.611	12147.39
906.924	12201.85
907.237	12089.31
907.551	12070.11
907.864	12069.43
908.177	12023.55
908.491	11895.2
908.804	11883.67
909.117	11772.71
909.43	11824.46
909.743	11687.74
910.056	11646.84
910.368	11741.98
910.681	11656.33
910.994	11599.16
911.307	11641.64
911.619	11463.79
911.932	11501.08
912.244	11395.1
912.557	11390.58
912.869	11244.59
913.181	11220.19
913.494	11133.18
913.806	11125.72
914.118	11097.93
914.43	11002.56
914.742	11002.11
915.054	10914.2
915.366	10825.39
915.678	10823.59
915.99	10674.44
916.302	10652.52
916.613	10613.2
916.925	10536.81
917.236	10490.71
917.548	10436.48
917.859	10364.61
918.171	10355.8
918.482	10239.65
918.794	10175.92
919.105	10191.06
919.416	10109.48
919.727	10131.4
920.038	9987
920.349	9974.57
920.66	9894.8
920.971	9935.25
921.282	9848.24
921.593	9759.88
921.903	9725.54
922.214	9721.24
922.525	9685.54
922.835	9629.72
923.146	9578.19
923.456	9565.54
923.767	9513.11
924.077	9528.7
924.387	9451.42
924.697	9367.8
925.008	9384.3
925.318	9416.39
925.628	9346.79
925.938	9255.04
926.248	9218.66
926.558	9246
926.867	9189.05
927.177	9189.05
927.487	9199.45
927.796	9127.58
928.106	9126.68
928.416	9102.27
928.725	9052.33
929.034	9049.62
929.344	8986.12
929.653	8955.16
929.962	8910.19
930.271	8916.06
930.581	8924.43
930.89	8834.71
931.199	8832.9
931.508	8846.01
931.817	8822.06
932.125	8808.95
932.434	8772.34
932.743	8676.3
933.051	8607.37
933.36	8671.78
933.669	8578.67
933.977	8558.11
934.286	8547.94
934.594	8533.02
934.902	8383.42
935.21	8423.65
935.519	8384.55
935.827	8377.32
936.135	8335.97
936.443	8168.29
936.751	8231.79
937.059	8205.35
937.367	8128.06
937.674	8128.97
937.982	8040.38
938.29	8041.06
938.597	8051.68
938.905	7881.29
939.213	7860.95
939.52	7848.97
939.827	7839.71
940.135	7736.89
940.442	7663.44
940.749	7630.9
941.056	7677
941.363	7541.86
941.67	7497.8
941.977	7484.92
942.284	7392.94
942.591	7353.62
942.898	7373.28
943.205	7326.5
943.511	7333.96
943.818	7218.26
944.125	7178.94
944.431	7125.38
944.738	7125.6
945.044	7091.48
945.35	7046.51
945.657	6999.05
945.963	7028.21
946.269	7026.85
946.575	6994.99
946.881	6966.74
947.187	6984.36
947.493	6890.13
947.799	6837.48
948.105	6825.05
948.41	6824.82
948.716	6759.06
949.022	6764.26
949.327	6693.98
949.633	6635.67
949.938	6618.5
950.244	6630.93
950.549	6593.64
950.854	6566.3
951.16	6579.86
951.465	6526.3
951.77	6523.36
952.075	6497.15
952.38	6458.95
952.685	6454.89
952.99	6406.3
953.294	6398.39
953.599	6417.83
953.904	6293.99
954.209	6329.69
954.513	6309.35
954.818	6289.69
955.122	6277.04
955.426	6306.87
955.731	6245.85
956.035	6210.6
956.339	6209.92
956.643	6227.32
956.948	6133.77
957.252	6165.63
957.556	6161.34
957.86	6103.71
958.163	6102.35
958.467	6034.11
958.771	5992.07
959.075	6015.58
959.378	5946.2
959.682	5933.32
959.985	5877.73
960.289	5852.87
960.592	5827.33
960.896	5813.1
961.199	5774.68
961.502	5716.6
961.805	5726.09
962.108	5653.33
962.411	5687
962.714	5606.55
963.017	5614.46
963.32	5554.57
963.623	5533.78
963.926	5531.52
964.228	5478.64
964.531	5405.65
964.833	5413.11
965.136	5378.98
965.438	5335.82
965.741	5310.96
966.043	5299.44
966.345	5272.09
966.648	5258.08
966.95	5260.12
967.252	5202.26
967.554	5125.2
967.856	5120.23
968.158	5092.21
968.46	5078.88
968.761	5046.34
969.063	5003.4
969.365	5002.95
969.666	4953.46
969.968	4964.76
970.269	4929.96
970.571	4932.89
970.872	4895.15
971.174	4779.68
971.475	4841.82
971.776	4827.13
972.077	4755.72
972.378	4766.8
972.679	4749.62
972.98	4746.46
973.281	4731.54
973.582	4684.54
973.883	4657.19
974.183	4611.77
974.484	4605.67
974.785	4574.03
975.085	4571.77
975.386	4605.22
975.686	4534.71
975.986	4573.35
976.287	4548.72
976.587	4442.51
976.887	4472.34
977.187	4495.84
977.487	4445.9
977.787	4430.31
978.087	4425.34
978.387	4405.45
978.687	4412
978.987	4371.33
979.286	4382.85
979.586	4364.32
979.885	4317.99
980.185	4334.72
980.484	4330.87
980.784	4306.69
981.083	4227.83
981.382	4282.29
981.682	4268.96
981.981	4260.14
982.28	4234.83
982.579	4238.67
982.878	4141.28
983.177	4163.87
983.475	4168.62
983.774	4122.74
984.073	4098.56
984.372	4069.41
984.67	4117.77
984.969	4103.08
985.267	4093.59
985.566	4076.42
985.864	4033.71
986.162	4046.14
986.461	3967.72
986.759	3996.87
987.057	3967.72
987.355	3975.86
987.653	3964.78
987.951	3952.13
988.249	3933.15
988.547	3863.99
988.844	3881.4
989.142	3807.27
989.44	3780.15
989.737	3753.04
990.035	3729.53
990.332	3743.09
990.63	3744.68
990.927	3701.74
991.224	3708.29
991.521	3638.69
991.819	3635.75
992.116	3627.16
992.413	3622.19
992.71	3564.12
993.006	3567.51
993.303	3530.9
993.6	3557.56
993.897	3494.06
994.193	3464.68
994.49	3451.8
994.787	3445.47
995.083	3423.55
995.379	3396.21
995.676	3348.3
995.972	3356.89
996.268	3315.99
996.565	3305.14
996.861	3264.91
997.157	3230.79
997.453	3271.02
997.749	3244.12
998.044	3205.93
998.34	3190.34
998.636	3175.65
998.932	3178.36
999.227	3152.6
999.523	3107.63
999.818	3084.13
1000.114	3074.86
1000.409	3098.36
1000.704	3071.7
1001	3049.33
1001.295	3064.02
1001.59	3038.48
1001.885	3023.56
1002.18	2991.02
1002.475	2982.66
1002.77	2951.93
1003.065	2951.48
1003.359	2923.45
1003.654	2930.69
1003.949	2899.05
1004.243	2854.53
1004.538	2898.37
1004.832	2871.03
1005.127	2879.61
1005.421	2832.38
1005.715	2814.98
1006.009	2807.75
1006.304	2765.27
1006.598	2772.72
1006.892	2736.79
1007.186	2730.92
1007.48	2728.21
1007.773	2666.96
1008.067	2691.6
1008.361	2696.34
1008.655	2666.29
1008.948	2630.58
1009.242	2652.73
1009.535	2647.3
1009.829	2604.14
1010.122	2623.12
1010.415	2621.32
1010.708	2605.27
1011.001	2566.4
1011.295	2575.67
1011.588	2543.35
1011.881	2536.35
1012.173	2533.63
1012.466	2493.86
1012.759	2480.08
1013.052	2478.27
1013.344	2485.27
1013.637	2420.19
1013.93	2396.91
1014.222	2409.12
1014.514	2367.31
1014.807	2379.74
1015.099	2343.58
1015.391	2364.15
1015.683	2303.36
1015.976	2273.75
1016.268	2297.03
1016.56	2286.63
1016.851	2303.81
1017.143	2271.27
1017.435	2242.79
1017.727	2231.27
1018.018	2191.04
1018.31	2178.62
1018.602	2187.88
1018.893	2158.73
1019.185	2155.11
1019.476	2120.31
1019.767	2085.74
1020.058	2085.96
1020.35	2108.79
1020.641	2084.15
1020.932	2045.96
1021.223	2066.3
1021.514	2026.98
1021.804	1996.25
1022.095	1986.3
1022.386	1971.16
1022.677	1974.78
1022.967	1971.84
1023.258	1908.79
1023.548	1906.31
1023.839	1876.48
1024.129	1875.8
1024.419	1880.32
1024.709	1844.84
1025	1848
1025.29	1812.52
1025.58	1820.43
1025.87	1791.28
1026.16	1760.55
1026.449	1793.77
1026.739	1754.67
1027.029	1769.13
1027.319	1740.21
1027.608	1720.55
1027.898	1675.13
1028.187	1702.92
1028.477	1683.49
1028.766	1707.21
1029.055	1663.83
1029.344	1651.85
1029.634	1629.7
1029.923	1633.54
1030.212	1616.6
1030.501	1599.87
1030.79	1592.87
1031.078	1565.98
1031.367	1557.16
1031.656	1577.73
1031.945	1582.25
1032.233	1543.15
1032.522	1507.67
1032.81	1544.73
1033.099	1519.42
1033.387	1528.91
1033.675	1528.24
1033.963	1499.76
1034.251	1475.13
1034.54	1479.88
1034.828	1439.43
1035.116	1451.18
1035.403	1443.27
1035.691	1455.24
1035.979	1436.04
1036.267	1433.1
1036.554	1408.69
1036.842	1411.4
1037.129	1383.83
1037.417	1362.14
1037.704	1375.02
1037.992	1354.68
1038.279	1354.46
1038.566	1327.79
1038.853	1327.79
1039.14	1327.79
