Data from blue_shiny_book_FLMS001491_00095.txt Node
Date: Wed Feb 08 15:27:48 GMT 2017
User: dcchb
Spectrometer: FLMS00149
Trigger mode: 0
Integration Time (sec): 2.000000E-2
Scans to average: 10
Electric dark correction enabled: true
Nonlinearity correction enabled: false
Boxcar width: 0
XAxis mode: Wavelengths
Number of Pixels in Spectrum: 2048
>>>>>Begin Spectral Data<<<<<
341.393	-11.36
341.776	-11.36
342.16	-11.36
342.543	-59.49
342.927	-50.45
343.31	-71.92
343.693	-82.77
344.077	-64.24
344.46	-65.59
344.843	-38.25
345.226	-42.32
345.61	-27.4
345.993	-32.82
346.376	-19.94
346.759	5.59
347.142	30.23
347.525	52.15
347.908	52.6
348.291	81.07
348.674	102.54
349.057	121.07
349.44	138.02
349.823	154.74
350.206	156.1
350.588	184.8
350.971	211.01
351.354	237.9
351.737	244
352.119	243.1
352.502	257.11
352.884	284.91
353.267	291.91
353.65	291.46
354.032	303.66
354.414	302.53
354.797	321.74
355.179	342.76
355.562	342.53
355.944	305.47
356.326	325.58
356.709	337.56
357.091	342.99
357.473	356.54
357.855	349.99
358.238	347.96
358.62	351.57
359.002	342.53
359.384	343.44
359.766	340.05
360.148	347.28
360.53	352.7
360.912	339.37
361.294	324
361.676	368.52
362.057	335.98
362.439	349.31
362.821	342.08
363.203	337.34
363.584	324.45
363.966	321.74
364.348	324.23
364.729	326.94
365.111	330.1
365.493	333.27
365.874	304.57
366.256	317.68
366.637	328.75
367.019	318.81
367.4	348.41
367.781	317
368.163	309.99
368.544	328.52
368.925	317.22
369.306	312.25
369.688	335.3
370.069	332.82
370.45	317.22
370.831	326.04
371.212	328.52
371.593	337.79
371.974	315.64
372.355	321.52
372.736	341.86
373.117	343.44
373.498	341.63
373.879	334.17
374.26	330.78
374.641	336.66
375.021	335.08
375.402	309.09
375.783	337.79
376.163	340.05
376.544	353.38
376.925	351.35
377.305	348.86
377.686	320.61
378.066	341.4
378.447	338.47
378.827	354.96
379.208	354.74
379.588	344.34
379.968	342.53
380.349	350.89
380.729	373.27
381.109	353.15
381.489	381.4
381.87	364.68
382.25	353.15
382.63	382.53
383.01	375.3
383.39	371.69
383.77	373.94
384.15	380.95
384.53	373.94
384.91	372.59
385.29	367.62
385.67	393.61
386.049	389.09
386.429	398.8
386.809	399.71
387.189	395.19
387.568	401.29
387.948	398.35
388.328	422.08
388.707	391.8
389.087	407.84
389.466	417.11
389.846	392.25
390.225	417.79
390.605	435.41
390.984	409.88
391.363	405.81
391.743	425.92
392.122	438.58
392.501	449.2
392.881	432.7
393.26	442.19
393.639	446.94
394.018	458.24
394.397	436.54
394.776	479.25
395.155	480.83
395.534	468.63
395.913	471.34
396.292	460.72
396.671	469.54
397.05	491
397.429	477.45
397.808	478.8
398.186	472.47
398.565	483.32
398.944	474.96
399.323	472.93
399.701	517.44
400.08	508.18
400.458	492.13
400.837	525.35
401.215	511.79
401.594	521.29
401.972	521.74
402.351	556.31
402.729	537.78
403.107	536.88
403.486	521.29
403.864	560.15
404.242	563.54
404.62	543.66
404.999	582.75
405.377	573.49
405.755	595.41
406.133	580.27
406.511	564.67
406.889	608.06
407.267	602.87
407.645	608.06
408.023	628.63
408.401	633.6
408.779	637.67
409.156	647.16
409.534	648.29
409.912	643.09
410.29	654.16
410.667	655.75
411.045	680.15
411.422	691.45
411.8	709.98
412.178	712.24
412.555	736.42
412.933	732.13
413.31	721.96
413.687	749.98
414.065	755.18
414.442	766.48
414.819	752.47
415.197	753.14
415.574	779.36
415.951	800.15
416.328	779.58
416.705	824.1
417.082	804.89
417.46	834.05
417.837	839.7
418.214	834.5
418.591	850.99
418.967	855.06
419.344	850.77
419.721	867.72
420.098	875.63
420.475	897.32
420.852	898.45
421.228	890.99
421.605	919.24
421.982	915.4
422.358	924.44
422.735	950.88
423.111	960.82
423.488	976.64
423.864	980.71
424.241	984.32
424.617	1000.14
424.994	983.65
425.37	1015.51
425.746	1012.35
426.123	1035.85
426.499	1071.1
426.875	1086.47
427.251	1093.47
427.627	1109.29
428.003	1117.43
428.379	1136.18
428.756	1114.26
429.132	1124.21
429.507	1168.05
429.883	1135.73
430.259	1197.65
430.635	1177.99
431.011	1224.09
431.387	1255.96
431.763	1271.32
432.138	1267.03
432.514	1289.18
432.89	1285.56
433.265	1325.56
433.641	1369.17
434.016	1376.86
434.392	1379.34
434.767	1403.52
435.143	1378.21
435.518	1415.5
435.894	1462.5
436.269	1453.46
436.644	1472.45
437.02	1511.54
437.395	1498.44
437.77	1516.74
438.145	1553.8
438.52	1556.51
438.895	1573.01
439.271	1597.64
439.646	1629.96
440.021	1640.13
440.395	1653.46
440.77	1674.93
441.145	1655.95
441.52	1738.2
441.895	1711.31
442.27	1733.01
442.645	1731.2
443.019	1758.32
443.394	1768.26
443.769	1773.68
444.143	1764.42
444.518	1773
444.892	1792.66
445.267	1848.93
445.641	1838.99
446.016	1891.65
446.39	1885.09
446.764	1915.37
447.139	1929.38
447.513	1927.8
447.887	1928.48
448.262	1933.9
448.636	1937.97
449.01	1957.86
449.384	1998.31
449.758	2003.51
450.132	2037.86
450.506	2037.86
450.88	2056.84
451.254	2078.31
451.628	2107.68
452.002	2152.43
452.376	2121.92
452.75	2161.69
453.123	2160.56
453.497	2201.69
453.871	2194.01
454.244	2292.09
454.618	2270.39
454.992	2289.83
455.365	2350.62
455.739	2377.28
456.112	2428.58
456.486	2426.32
456.859	2446.43
457.232	2537.05
457.606	2507
457.979	2531.18
458.352	2620.21
458.725	2624.96
459.099	2602.59
459.472	2662.02
459.845	2718.97
460.218	2737.5
460.591	2774.56
460.964	2820.21
461.337	2860.66
461.71	2888.91
462.083	2962.58
462.456	2965.06
462.829	3005.29
463.201	3045.06
463.574	3088.22
463.947	3101.33
464.32	3139.52
464.692	3176.36
465.065	3231.27
465.438	3245.28
465.81	3303.36
466.183	3372.96
466.555	3440.53
466.928	3412.96
467.3	3431.04
467.672	3527.08
468.045	3606.85
468.417	3611.6
468.789	3647.53
469.161	3706.29
469.534	3752.61
469.906	3852.72
470.278	3819.28
470.65	3880.29
471.022	3993.96
471.394	4042.32
471.766	4077.58
472.138	4111.47
472.51	4228.76
472.882	4287.06
473.253	4332.94
473.625	4417.68
473.997	4466.94
474.369	4474.85
474.74	4593.04
475.112	4652.02
475.484	4742.87
475.855	4818.8
476.227	4876.88
476.598	4955.75
476.97	5018.12
477.341	5152.12
477.713	5206.81
478.084	5266.47
478.455	5445.9
478.827	5492.23
479.198	5586.69
479.569	5629.17
479.94	5809.96
480.311	5868.94
480.682	5976.28
481.053	6090.63
481.424	6128.37
481.795	6150.06
482.166	6299.66
482.537	6362.04
482.908	6619.2
483.279	6629.83
483.65	6725.87
484.021	6912.76
484.391	6991.4
484.762	7086.99
485.133	7166.08
485.503	7285.85
485.874	7458.73
486.244	7458.73
486.615	7608.11
486.985	7664.83
487.356	7761.1
487.726	7856.91
488.097	8061.43
488.467	8004.7
488.837	8182.55
489.207	8353.4
489.578	8514.75
489.948	8654.63
490.318	8781.63
490.688	8741.18
491.058	8943.21
491.428	9102.98
491.798	9265.01
492.168	9407.61
492.538	9378
492.908	9506.36
493.278	9595.62
493.648	9577.09
494.017	9816.63
494.387	9797.65
494.757	9865.67
495.126	10010.3
495.496	10152.22
495.866	10192.67
496.235	10347.24
496.605	10481.7
496.974	10514.47
497.344	10704.52
497.713	10765.76
498.082	10841.24
498.452	10959.2
498.821	11057.51
499.19	11039.2
499.559	11064.29
499.928	11161.91
500.298	11235.81
500.667	11306.31
501.036	11375.69
501.405	11503.6
501.774	11481.22
502.143	11676.92
502.512	11771.16
502.88	11844.6
503.249	11909.23
503.618	12035.33
503.987	12174.54
504.356	12245.05
504.724	12310.35
505.093	12398.94
505.462	12424.48
505.83	12512.16
506.199	12461.31
506.567	12641.42
506.936	12640.97
507.304	12764.58
507.672	12852.49
508.041	12918.25
508.409	13044.35
508.777	13202.31
509.145	13274.4
509.514	13396.65
509.882	13435.3
510.25	13551.68
510.618	13658.57
510.986	13731.33
511.354	13870.54
511.722	13963.42
512.09	14111.44
512.458	14097.43
512.826	14289.74
513.193	14279.79
513.561	14266.91
513.929	14425.33
514.297	14463.07
514.664	14537.64
515.032	14575.61
515.4	14795.26
515.767	14907.35
516.135	14976.72
516.502	14944.86
516.869	15260.33
517.237	15381.46
517.604	15261.01
517.972	15620.78
518.339	15730.15
518.706	15777.16
519.073	15754.78
519.44	15924.95
519.808	16053.76
520.175	15931.05
520.542	16168.33
520.909	16286.75
521.276	16242.23
521.643	16394.77
522.009	16497.36
522.376	16668.88
522.743	16699.84
523.11	16922.89
523.477	17200.62
523.843	17279.26
524.21	17578.24
524.577	17870.43
524.943	17807.61
525.31	17942.52
525.676	18147.71
526.043	18243.98
526.409	18285.56
526.776	18453.02
527.142	18360.14
527.508	18468.38
527.874	18707.02
528.241	18688.94
528.607	18715.38
528.973	18996.96
529.339	18942.72
529.705	19108.82
530.071	19233.56
530.437	19449.6
530.803	19655.7
531.169	19772.08
531.535	19888.69
531.901	20027.67
532.267	20031.28
532.632	20291.16
532.998	20391.5
533.364	20479.63
533.73	20527.31
534.095	20760.08
534.461	20795.55
534.826	20703.58
535.192	20744.93
535.557	20796.68
535.923	20742.67
536.288	20898.83
536.653	20978.37
537.019	21064.25
537.384	21029.9
537.749	21281.19
538.114	21463.79
538.479	21489.1
538.845	21665.59
539.21	21709.66
539.575	21867.39
539.94	22009.08
540.305	22034.62
540.67	22145.35
541.034	22144.22
541.399	22157.78
541.764	22180.6
542.129	22197.33
542.494	22171.34
542.858	22307.38
543.223	22222.18
543.587	22342.86
543.952	22392.12
544.316	22469.86
544.681	22471.44
545.045	22451.33
545.41	22738.55
545.774	22739.91
546.138	22814.03
546.503	22860.59
546.867	23013.58
547.231	23267.81
547.595	23336.05
547.959	23513.22
548.324	23464.86
548.688	23543.96
549.052	23509.61
549.416	23585.31
549.779	23529.95
550.143	23527.46
550.507	23642.03
550.871	23650.4
551.235	23549.83
551.599	23771.07
551.962	23757.51
552.326	23696.72
552.689	23865.08
553.053	23747.79
553.417	23836.6
553.78	24310.94
554.143	24159.76
554.507	24308.23
554.87	24463.03
555.234	24644.49
555.597	24657.6
555.96	24808.78
556.323	24983.92
556.686	25033.18
557.05	25085.16
557.413	25083.58
557.776	25141.2
558.139	25235.89
558.502	25157.25
558.865	25273.4
559.228	25363.34
559.59	25247.64
559.953	25072.05
560.316	25457.58
560.679	25550.68
561.041	25684.24
561.404	25728.98
561.767	26025.02
562.129	25858.25
562.492	26286.71
562.854	26259.59
563.217	26345.01
563.579	26515.18
563.941	26832.01
564.304	26986.13
564.666	27130.3
565.028	27127.82
565.39	27221.37
565.753	27326
566.115	27408.49
566.477	27449.84
566.839	27455.49
567.201	27499.11
567.563	27456.17
567.925	27650.74
568.287	27563.96
568.648	27577.07
569.01	27623.62
569.372	27826.56
569.734	27784.98
570.095	27904.97
570.457	28030.17
570.819	28215.47
571.18	28325.75
571.542	28482.81
571.903	28641.9
572.265	28799.19
572.626	28942.23
572.987	28976.81
573.349	29045.96
573.71	29199.85
574.071	29317.82
574.432	29310.81
574.794	29342
575.155	29345.61
575.516	29355.78
575.877	29306.97
576.238	29311.72
576.599	29383.58
576.96	29356.69
577.32	29537.02
577.681	29565.49
578.042	29503.35
578.403	29542.22
578.763	29617.7
579.124	29663.12
579.485	29932.26
579.845	29963
580.206	29979.72
580.566	29994.18
580.927	30131.81
581.287	30421.97
581.648	30256.55
582.008	30562.3
582.368	30431.01
582.728	30477.33
583.089	30657.22
583.449	30590.33
583.809	30487.73
584.169	30666.93
584.529	30493.15
584.889	30706.25
585.249	30595.3
585.609	30387.85
585.969	30455.64
586.329	30327.73
586.688	30416.77
587.048	30466.94
587.408	30373.61
587.768	30403.89
588.127	30373.38
588.487	30396.66
588.846	30691.57
589.206	30516.2
589.565	30572.7
589.925	30756.65
590.284	30680.49
590.643	30843.88
591.003	31112.57
591.362	31109.63
591.721	31082.74
592.08	31177.43
592.44	31221.04
592.799	31208.61
593.158	31133.14
593.517	31150.08
593.876	31286.8
594.235	31069.64
594.593	31036.64
594.952	31104.89
595.311	30948.28
595.67	30984.44
596.029	31100.82
596.387	31168.62
596.746	31158.45
597.104	30845.46
597.463	30873.71
597.822	31072.35
598.18	31052.23
598.538	31046.58
598.897	31182.85
599.255	30903.09
599.613	31452.22
599.972	31354.15
600.33	31444.09
600.688	31369.51
601.046	31654.03
601.404	31790.07
601.762	31751.65
602.12	31905.55
602.478	31754.36
602.836	31802.05
603.194	31659.68
603.552	31727.92
603.91	31661.71
604.268	31761.37
604.625	31657.64
604.983	31631.43
605.341	31464.43
605.698	31578.77
606.056	31700.8
606.413	31582.39
606.771	31667.81
607.128	31696.96
607.485	31658.77
607.843	31597.98
608.2	31971.31
608.557	31993.45
608.914	31965.2
609.272	32154.58
609.629	32038.88
609.986	32282.94
610.343	32088.37
610.7	32380.56
611.057	32440.9
611.414	32437.51
611.771	32550.5
612.127	32776.71
612.484	32605.19
612.841	32835.01
613.198	32591.85
613.554	32798.18
613.911	32879.98
614.267	32834.56
614.624	32743.26
614.98	32704.17
615.337	32917.72
615.693	32823.04
616.05	32616.71
616.406	32897.16
616.762	32696.94
617.118	32549.6
617.475	32723.15
617.831	32621.68
618.187	32775.58
618.543	32736.48
618.899	33100.54
619.255	32884.95
619.611	32940.77
619.967	33111.16
620.323	33250.82
620.678	33177.83
621.034	33217.83
621.39	33278.84
621.746	33313.87
622.101	33557.25
622.457	33292.18
622.812	33403.13
623.168	33634.09
623.523	33520.87
623.879	33696.68
624.234	33394.77
624.589	33464.15
624.945	33562
625.3	33673.41
625.655	33539.4
626.01	33586.63
626.365	33416.47
626.72	33333.76
627.075	33352.06
627.43	33203.82
627.785	33164.72
628.14	33303.47
628.495	33328.33
628.85	33214.66
629.205	33036.14
629.559	33169.47
629.914	33033.88
630.269	33179.64
630.623	33008.79
630.978	33024.39
631.332	33316.81
631.687	33326.07
632.041	33307.99
632.396	33358.61
632.75	33181.67
633.104	33089.24
633.459	33167.88
633.813	33222.57
634.167	33241.56
634.521	33034.33
634.875	33314.1
635.229	33180.99
635.583	32971.51
635.937	33022.35
636.291	32938.74
636.645	32969.92
636.999	32760.21
637.352	32880.89
637.706	32748.69
638.06	32845.63
638.413	32639.09
638.767	32513.66
639.121	32561.35
639.474	32239.77
639.828	32292.43
640.181	32232.32
640.534	32179.44
640.888	32151.64
641.241	32061.25
641.594	32010.4
641.947	32285.87
642.301	32276.16
642.654	32178.53
643.007	32275.48
643.36	32294.46
643.713	32188.93
644.066	32376.27
644.419	32390.5
644.771	32221.7
645.124	32214.92
645.477	32310.51
645.83	32042.26
646.182	31894.02
646.535	31569.51
646.888	31442.96
647.24	31151.21
647.593	31116.41
647.945	31086.81
648.298	30882.3
648.65	30877.78
649.002	30815.4
649.355	30867.15
649.707	30963.88
650.059	31201.83
650.411	31683.4
650.763	31602.05
651.115	31771.31
651.467	31440.7
651.819	31404.54
652.171	31415.61
652.523	31356.86
652.875	31381.94
653.227	31230.99
653.578	31668.49
653.93	31450.19
654.282	31314.83
654.633	31249.07
654.985	31479.34
655.337	31513.69
655.688	31477.31
656.039	31640.47
656.391	31504.43
656.742	31565.22
657.094	31676.4
657.445	31821.93
657.796	31752.55
658.147	31691.99
658.498	31572.22
658.849	31716.85
659.2	31696.51
659.551	31618.77
659.902	31674.36
660.253	31604.08
660.604	31613.8
660.955	31377.2
661.306	31496.06
661.656	31335.84
662.007	31176.52
662.358	31140.14
662.708	31174.27
663.059	31124.32
663.409	30981.5
663.76	31154.83
664.11	30989.86
664.461	30906.25
664.811	31000.71
665.161	31026.47
665.511	30896.31
665.862	30937.89
666.212	31245.68
666.562	31053.36
666.912	31119.35
667.262	31082.29
667.612	31268.5
667.962	31264.21
668.312	31340.81
668.662	31447.7
669.011	31470.53
669.361	31596.17
669.711	31391.89
670.06	31345.11
670.41	31332.45
670.76	31327.03
671.109	31300.14
671.459	31350.31
671.808	31158.45
672.157	31218.11
672.507	31003.65
672.856	30957.1
673.205	31058.34
673.554	30946.7
673.904	30800.72
674.253	30980.82
674.602	30719.14
674.951	30248.64
675.3	30214.06
675.649	30559.14
675.998	30518.69
676.346	30492.7
676.695	30356.66
677.044	30167.51
677.393	30360.28
677.741	30339.03
678.09	30153.73
678.438	30213.84
678.787	30294.29
679.135	30132.03
679.484	30164.35
679.832	30250.45
680.181	30049.55
680.529	30250.9
680.877	30338.13
681.225	30329.77
681.573	30568.86
681.922	30348.52
682.27	30239.6
682.618	30338.13
682.966	30216.1
683.314	30266.04
683.661	30202.99
684.009	29997.8
684.357	30070.79
684.705	29879.16
685.053	29891.81
685.4	29772.49
685.748	29675.1
686.095	29490.02
686.443	29407.76
686.79	29329.12
687.138	29343.35
687.485	29316.46
687.832	29222.68
688.18	29216.8
688.527	28916.47
688.874	28759.64
689.221	28521.68
689.568	28640.32
689.915	28364.4
690.262	28590.83
690.609	28424.28
690.956	28339.09
691.303	28246.66
691.65	28063.16
691.997	28096.61
692.344	27915.14
692.69	27960.34
693.037	27980
693.383	27782.72
693.73	27884.63
694.077	27671.76
694.423	27935.48
694.769	27762.38
695.116	27781.13
695.462	27616.39
695.808	27740.91
696.155	27674.02
696.501	27474.93
696.847	27499.56
697.193	27272.22
697.539	27365.1
697.885	27274.03
698.231	26992
698.577	27016.41
698.923	26860.25
699.269	26785
699.614	26694.38
699.96	26571.45
700.306	26575.52
700.651	26361.96
700.997	26112.93
701.342	26100.5
701.688	25858.92
702.033	25862.99
702.379	25825.71
702.724	25703.9
703.069	25719.27
703.415	25460.97
703.76	25385.72
704.105	25425.04
704.45	25338.71
704.795	25205.38
705.14	25137.14
705.485	25194.08
705.83	25080.19
706.175	25133.29
706.52	25027.08
706.865	25077.48
707.209	25109.79
707.554	25094.65
707.899	25150.02
708.243	24878.39
708.588	25000.87
708.932	25049.91
709.277	24870.93
709.621	24979.85
709.966	24715.45
710.31	24837.93
710.654	24572.18
710.998	24671.61
711.342	24611.95
711.687	24476.36
712.031	24436.82
712.375	24296.03
712.719	24392.75
713.063	24229.14
713.407	24310.94
713.75	24021.01
714.094	23887.23
714.438	23812.88
714.782	23809.71
715.125	23707.34
715.469	23698.76
715.812	23422.38
716.156	23423.51
716.499	23327.69
716.843	23309.61
717.186	23146.91
717.53	23271.42
717.873	23311.19
718.216	23102.84
718.559	23080.24
718.902	23078.88
719.246	23143.06
719.589	23090.41
719.932	23095.16
720.275	23022.84
720.617	23136.96
720.96	23065.78
721.303	23028.49
721.646	23157.3
721.989	23044.08
722.331	23266.22
722.674	23150.75
723.016	23271.2
723.359	23202.72
723.701	23201.82
724.044	22973.58
724.386	22897.42
724.729	23068.04
725.071	23055.16
725.413	23032.11
725.755	23012.67
726.097	22986.68
726.439	22847.03
726.782	22841.6
727.124	22904.2
727.465	22553.25
727.807	22578.11
728.149	22625.56
728.491	22528.84
728.833	22625.34
729.175	22504.89
729.516	22461.95
729.858	22580.37
730.199	22591.44
730.541	22512.35
730.882	22386.7
731.224	22462.4
731.565	22184.67
731.906	22274.61
732.248	22252.69
732.589	22145.35
732.93	22174.95
733.271	22161.17
733.612	22319.36
733.953	22279.58
734.294	22156.2
734.635	22253.37
734.976	22299.24
735.317	22102.19
735.658	22320.71
735.999	22345.8
736.339	22369.07
736.68	22378.79
737.021	22284.78
737.361	22295.85
737.702	22539.01
738.042	22526.36
738.383	22412.46
738.723	22443.65
739.063	22504.89
739.404	22606.13
739.744	22543.76
740.084	22578.56
740.424	22686.35
740.764	22537.66
741.104	22556.41
741.444	22510.09
741.784	22386.47
742.124	22478.22
742.464	22384.89
742.804	22507.83
743.143	22447.49
743.483	22277.55
743.823	22300.37
744.162	22327.94
744.502	22355.29
744.841	22269.41
745.181	22396.19
745.52	22252.92
745.86	22267.15
746.199	22273.48
746.538	22294.05
746.877	22382.18
747.216	22328.85
747.556	22286.59
747.895	22378.56
748.234	22384.89
748.573	22440.26
748.911	22403.2
749.25	22513.7
749.589	22440.26
749.928	22443.42
750.267	22628.05
750.605	22509.41
750.944	22448.17
751.283	22558.22
751.621	22660.59
751.96	22568.62
752.298	22651.55
752.636	22810.87
752.975	22641.16
753.313	22697.43
753.651	22862.62
753.989	22806.35
754.327	22916.86
754.666	23033.91
755.004	23107.13
755.342	23153.46
755.679	23118.66
756.017	23035.95
756.355	23120.24
756.693	23052.67
757.031	23190.07
757.368	23081.6
757.706	23140.35
758.044	23101.93
758.381	23171.76
758.719	23034.82
759.056	23105.78
759.394	22993.24
759.731	23006.8
760.068	22934.48
760.405	22948.49
760.743	22964.76
761.08	22962.05
761.417	22852.22
761.754	22853.58
762.091	22894.03
762.428	22663.3
762.765	22667.37
763.102	22735.16
763.438	22597.77
763.775	22611.33
764.112	22660.36
764.449	22677.99
764.785	22617.65
765.122	22562.74
765.458	22591.67
765.795	22579.69
766.131	22771.77
766.467	22731.1
766.804	22632.34
767.14	22551.89
767.476	22634.15
767.812	22551.44
768.148	22614.26
768.485	22550.09
768.821	22303.76
769.157	22511.22
769.492	22366.81
769.828	22486.81
770.164	22262.18
770.5	22302.63
770.836	22397.77
771.171	22201.17
771.507	22210.43
771.842	22054.5
772.178	22146.03
772.513	22149.64
772.849	21999.14
773.184	21857.67
773.519	22032.81
773.855	21785.13
774.19	21790.11
774.525	21640.05
774.86	21663.1
775.195	21554.86
775.53	21592.37
775.865	21495.2
776.2	21214.98
776.535	21130.01
776.87	21113.96
777.205	21000.3
777.539	20970.92
777.874	21076.68
778.209	20860.19
778.543	20799.62
778.878	20679.4
779.212	20649.34
779.547	20518.5
779.881	20511.04
780.215	20423.36
780.55	20381.1
780.884	20421.1
781.218	20279.64
781.552	20286.42
781.886	20188.11
782.22	20011.39
782.554	20084.39
782.888	19909.02
783.222	19697.5
783.556	19686.88
783.889	19662.48
784.223	19628.81
784.557	19521.01
784.89	19617.73
785.224	19553.78
785.557	19393.56
785.891	19357.4
786.224	19386.78
786.558	19425.87
786.891	19260.23
787.224	19102.72
787.557	19182.94
787.891	19026.11
788.224	19040.12
788.557	19067.69
788.89	19048.03
789.223	19015.04
789.556	18908.82
789.888	18801.94
790.221	18794.93
790.554	18791.31
790.887	18688.27
791.219	18542.28
791.552	18587.7
791.884	18439.01
792.217	18364.88
792.549	18334.15
792.882	18220.71
793.214	18126.25
793.546	18197.43
793.879	18036.98
794.211	18068.39
794.543	18039.24
794.875	18007.15
795.207	17963.99
795.539	17757.67
795.871	17693.26
796.203	17542.08
796.535	17377.11
796.867	17373.95
797.198	17364.46
797.53	17413.04
797.862	17224.58
798.193	17264.12
798.525	17121.98
798.856	17126.72
799.188	16988.88
799.519	16931.93
799.85	16908.2
800.182	16821.42
800.513	16933.96
800.844	16708.66
801.175	16784.59
801.506	16699.84
801.837	16724.25
802.168	16716.57
802.499	16591.82
802.83	16501.88
803.161	16477.25
803.491	16490.36
803.822	16439.96
804.153	16350.25
804.483	16256.47
804.814	16392.28
805.145	16287.88
805.475	16286.75
805.805	16290.81
806.136	16294.2
806.466	16268.22
806.796	16221.44
807.126	16057.83
807.457	16053.31
807.787	16033.87
808.117	16048.79
808.447	15993.2
808.777	16006.98
809.107	15949.35
809.436	15830.49
809.766	15958.17
810.096	15837.95
810.426	15846.76
810.755	15863.03
811.085	15743.48
811.414	15702.81
811.744	15570.16
812.073	15594.11
812.403	15508.01
812.732	15435.24
813.061	15434.11
813.39	15309.15
813.719	15286.55
814.049	15306.66
814.378	15244.06
814.707	15196.38
815.036	15158.19
815.365	15053.33
815.693	14914.58
816.022	14922.04
816.351	14919.1
816.68	14820.12
817.008	14837.75
817.337	14745.32
817.665	14720.69
817.994	14693.79
818.322	14603.63
818.651	14550.52
818.979	14510.07
819.307	14600.24
819.636	14490.18
819.964	14469.17
820.292	14531.76
820.62	14498.77
820.948	14446.34
821.276	14595.94
821.604	14423.75
821.932	14503.06
822.259	14519.79
822.587	14551.65
822.915	14536.51
823.243	14504.87
823.57	14549.39
823.898	14530.86
824.225	14508.04
824.553	14517.98
824.88	14561.14
825.207	14611.99
825.535	14613.8
825.862	14567.24
826.189	14613.8
826.516	14591.65
826.843	14661.25
827.17	14711.87
827.497	14689.73
827.824	14656.96
828.151	14644.08
828.478	14606.79
828.805	14671.87
829.131	14599.79
829.458	14612.89
829.785	14395.27
830.111	14567.47
830.438	14519.56
830.764	14593.23
831.09	14625.55
831.417	14472.56
831.743	14502.16
832.069	14493.8
832.395	14529.5
832.722	14469.39
833.048	14481.37
833.374	14443.18
833.7	14294.93
834.026	14268.27
834.351	14278.21
834.677	14201.38
835.003	14307.36
835.329	14257.42
835.654	14202.51
835.98	14128.61
836.306	14049.52
836.631	14126.58
836.956	14024.21
837.282	14078.67
837.607	13980.59
837.932	14007.03
838.258	13999.58
838.583	13968.62
838.908	13866.7
839.233	13848.17
839.558	13875.96
839.883	13828.73
840.208	13835.06
840.533	13804.1
840.858	13839.81
841.182	13715.74
841.507	13832.12
841.832	13799.13
842.156	13777.21
842.481	13766.14
842.805	13800.26
843.13	13763.65
843.454	13734.95
843.778	13695.18
844.103	13592.58
844.427	13653.37
844.751	13589.87
845.075	13604.78
845.399	13525.24
845.723	13548.06
846.047	13571.56
846.371	13471.45
846.695	13409.08
847.019	13283.89
847.343	13271.23
847.666	13290.67
847.99	13219.93
848.313	13109.88
848.637	13022.65
848.96	13068.3
849.284	12965.25
849.607	12857.68
849.931	12890
850.254	12779.04
850.577	12715.32
850.9	12570.91
851.223	12615.21
851.546	12462.44
851.869	12409.79
852.192	12562.1
852.515	12284.82
852.838	12292.5
853.161	12357.58
853.483	12261.09
853.806	12046.18
854.129	11975.67
854.451	12026.07
854.774	11992.62
855.096	11893.87
855.419	11831.27
855.741	11835.79
856.063	11725.28
856.385	11675.79
856.708	11631.95
857.03	11689.13
857.352	11662.24
857.674	11572.75
857.996	11591.73
858.318	11536.82
858.64	11485.29
858.961	11464.05
859.283	11443.26
859.605	11419.08
859.926	11398.97
860.248	11292.3
860.57	11344.73
860.891	11330.95
861.212	11328.69
861.534	11278.07
861.855	11285.52
862.176	11279.87
862.498	11265.86
862.819	11306.09
863.14	11181.34
863.461	11238.74
863.782	11228.8
864.103	11202.59
864.424	11151.97
864.745	11248.24
865.065	11215.47
865.386	11195.13
865.707	11166.2
866.027	11215.92
866.348	11135.7
866.668	11136.37
866.989	11151.51
867.309	11033.55
867.63	11088.01
867.95	11068.58
868.27	11008.02
868.59	11082.59
868.91	11029.26
869.23	11010.05
869.55	10998.75
869.87	11027.9
870.19	11016.83
870.51	10930.96
870.83	10933.22
871.15	10854.57
871.469	10869.94
871.789	10854.57
872.109	10763.05
872.428	10695.26
872.748	10706.1
873.067	10702.71
873.386	10655.48
873.706	10628.14
874.025	10645.99
874.344	10536.39
874.663	10578.87
874.982	10537.52
875.301	10523.06
875.62	10454.58
875.939	10430.63
876.258	10356.28
876.577	10372.55
876.896	10388.14
877.214	10366.9
877.533	10417.52
877.852	10246.91
878.17	10354.25
878.489	10259.33
878.807	10288.71
879.125	10247.36
879.444	10258.2
879.762	10124.42
880.08	10219.34
880.398	10184.76
880.716	10134.82
881.034	10106.34
881.352	10064.31
881.67	10050.07
881.988	10040.13
882.306	10037.65
882.624	10007.14
882.941	10020.92
883.259	9971.88
883.577	9990.64
883.894	9970.08
884.212	10010.08
884.529	9932.34
884.846	9878.1
885.164	9914.94
885.481	9948.38
885.798	9975.27
886.115	9940.47
886.432	9917.42
886.75	9897.08
887.067	9900.93
887.383	9903.41
887.7	9851.21
888.017	9857.99
888.334	9851.89
888.651	9813.47
888.967	9853.7
889.284	9763.98
889.6	9726.92
889.917	9675.62
890.233	9647.15
890.55	9643.08
890.866	9695.51
891.182	9592.46
891.498	9570.99
891.815	9552.23
892.131	9544.1
892.447	9436.53
892.763	9415.06
893.079	9373.71
893.395	9321.28
893.71	9312.92
894.026	9248.06
894.342	9214.39
894.657	9187.05
894.973	9097.78
895.289	9088.29
895.604	9153.15
895.92	9024.79
896.235	9046.94
896.55	8996.32
896.865	8952.25
897.181	8916.32
897.496	8861.18
897.811	8811.24
898.126	8752.93
898.441	8720.17
898.756	8719.49
899.071	8626.38
899.386	8654.63
899.7	8554.75
900.015	8554.97
900.33	8480.85
900.644	8470
900.959	8507.06
901.273	8465.71
901.588	8394.75
901.902	8367.63
902.216	8317.24
902.531	8327.63
902.845	8286.28
903.159	8241.53
903.473	8236.34
903.787	8209.45
904.101	8210.12
904.415	8215.09
904.729	8179.39
905.042	8025.95
905.356	8179.84
905.67	8101.65
905.984	8126.51
906.297	8042.9
906.611	8048.09
906.924	7994.54
907.237	8025.5
907.551	7938.27
907.864	7886.06
908.177	7876.8
908.491	7927.87
908.804	7908.89
909.117	7797.7
909.43	7724.49
909.743	7792.06
910.056	7731.72
910.368	7758.16
910.681	7790.7
910.994	7691.04
911.307	7661.44
911.619	7630.93
911.932	7685.62
912.244	7538.5
912.557	7551.16
912.869	7540.99
913.181	7498.28
913.494	7472.74
913.806	7375.34
914.118	7442.01
914.43	7355.91
914.742	7309.81
915.054	7333.31
915.366	7323.82
915.678	7217.38
915.99	7244.27
916.302	7170.6
916.613	7157.72
916.925	7124.95
917.236	7069.59
917.548	7025.07
917.859	7005.18
918.171	6986.2
918.482	6933.09
918.794	6890.38
919.105	6885.86
919.416	6805.64
919.727	6818.07
920.038	6790.05
920.349	6717.96
920.66	6652.42
920.971	6661.92
921.282	6621.69
921.593	6634.57
921.903	6559.32
922.214	6563.16
922.525	6515.93
922.835	6526.1
923.146	6433.9
923.456	6408.14
923.767	6428.48
924.077	6379.44
924.387	6371.75
924.697	6284.75
925.008	6277.29
925.318	6242.49
925.628	6323.17
925.938	6200.68
926.248	6132.89
926.558	6061.48
926.867	6135.6
927.177	6160.91
927.487	6112.33
927.796	5997.98
928.106	6009.5
928.416	6029.62
928.725	5967.92
929.034	5958.66
929.344	5951.88
929.653	5970.86
929.962	5898.77
930.271	5886.79
930.581	5934.02
930.89	5842.5
931.199	5858.32
931.508	5858.55
931.817	5857.64
932.125	5776.74
932.434	5809.28
932.743	5709.17
933.051	5751.66
933.36	5714.37
933.669	5686.8
933.977	5666.46
934.286	5657.2
934.594	5656.29
934.902	5644.77
935.21	5570.19
935.519	5591.66
935.827	5595.73
936.135	5513.7
936.443	5461.49
936.751	5539.23
937.059	5470.31
937.367	5425.34
937.674	5436.18
937.982	5417.43
938.29	5352.35
938.597	5332.23
938.905	5274.38
939.213	5308.05
939.52	5271.22
939.827	5233.7
940.135	5233.03
940.442	5134.72
940.749	5185.34
941.056	5121.16
941.363	5044.78
941.67	5021.05
941.977	5003.2
942.284	4967.27
942.591	4953.49
942.898	4973.6
943.205	4965.46
943.511	4894.5
943.818	4902.64
944.125	4814.51
944.431	4840.27
944.738	4818.12
945.044	4793.94
945.35	4703.32
945.657	4710.78
945.963	4725.02
946.269	4681.18
946.575	4720.05
946.881	4632.36
947.187	4676.2
947.493	4577.68
947.799	4605.47
948.105	4571.35
948.41	4539.49
948.716	4564.12
949.022	4507.4
949.327	4499.71
949.633	4417.45
949.938	4447.96
950.244	4454.97
950.549	4440.28
950.854	4424.46
951.16	4372.48
951.465	4384.69
951.77	4341.07
952.075	4304.24
952.38	4299.04
952.685	4297.23
952.99	4292.03
953.294	4275.54
953.599	4273.05
953.904	4269.44
954.209	4225.14
954.513	4229.89
954.818	4225.14
955.122	4200.96
955.426	4151.25
955.731	4134.52
956.035	4163.68
956.339	4164.81
956.643	4184.69
956.948	4109.44
957.252	4070.8
957.556	4102.66
957.86	4059.5
958.163	4075.99
958.467	4038.71
958.771	4027.18
959.075	4017.01
959.378	4025.37
959.682	4043
959.985	4011.82
960.289	3982.66
960.592	3973.85
960.896	3975.43
961.199	3915.77
961.502	3941.31
961.805	3886.85
962.108	3868.99
962.411	3893.63
962.714	3781.54
963.017	3831.93
963.32	3812.5
963.623	3807.98
963.926	3789.9
964.228	3734.08
964.531	3714.2
964.833	3685.72
965.136	3731.37
965.438	3699.28
965.741	3665.84
966.043	3660.41
966.345	3631.26
966.648	3601.2
966.95	3562.79
967.252	3571.15
967.554	3580.87
967.856	3512.39
968.158	3526.86
968.46	3485.28
968.761	3500.87
969.063	3443.92
969.365	3445.5
969.666	3433.3
969.968	3426.29
970.269	3385.62
970.571	3400.76
970.872	3354.43
971.174	3359.4
971.475	3323.7
971.776	3294.09
972.077	3307.2
972.378	3275.11
972.679	3273.3
972.98	3279.86
973.281	3241.21
973.582	3236.24
973.883	3200.54
974.183	3193.31
974.484	3186.3
974.785	3169.8
975.085	3141.56
975.386	3142.46
975.686	3127.09
975.986	3139.07
976.287	3087.77
976.587	3067.21
976.887	3049.81
977.187	3094.33
977.487	3047.77
977.787	3058.17
978.087	3012.29
978.387	2994.22
978.687	3008.23
978.987	3014.1
979.286	2964.61
979.586	2982.92
979.885	2962.35
980.185	2975.46
980.484	2942.24
980.784	2936.14
981.083	2948.11
981.382	2910.83
981.682	2937.27
981.981	2955.57
982.28	2886.2
982.579	2845.07
982.878	2882.35
983.177	2864.05
983.475	2883.03
983.774	2823.37
984.073	2800.1
984.372	2827.44
984.67	2819.76
984.969	2803.49
985.267	2808.91
985.566	2782.02
985.864	2788.12
986.162	2793.77
986.461	2765.07
986.759	2735.46
987.057	2699.31
987.355	2728.69
987.653	2705.41
987.951	2714.45
988.249	2711.28
988.547	2676.03
988.844	2618.63
989.142	2628.8
989.44	2568.24
989.737	2601.23
990.035	2594.9
990.332	2538.63
990.63	2586.99
990.927	2566.88
991.224	2528.01
991.521	2509.26
991.819	2494.12
992.116	2511.52
992.413	2480.56
992.71	2498.86
993.006	2464.96
993.303	2443.27
993.6	2445.3
993.897	2442.37
994.193	2399.43
994.49	2390.39
994.787	2337.06
995.083	2391.07
995.379	2356.72
995.676	2358.3
995.972	2348.36
996.268	2304.06
996.565	2327.79
996.861	2305.42
997.157	2289.15
997.453	2296.61
997.749	2260.68
998.044	2216.16
998.34	2236.04
998.636	2206.44
998.932	2216.38
999.227	2167.57
999.523	2195.82
999.818	2165.31
1000.114	2138.19
1000.409	2142.49
1000.704	2125.76
1001	2136.38
1001.295	2100
1001.59	2112.88
1001.885	2088.02
1002.18	2077.85
1002.475	2066.78
1002.77	2036.5
1003.065	2036.95
1003.359	2052.09
1003.654	2046.67
1003.949	2001.02
1004.243	1992.89
1004.538	2027.91
1004.832	2013.68
1005.127	2001.02
1005.421	1995.37
1005.715	1972.77
1006.009	1970.51
1006.304	1966.67
1006.598	1935.94
1006.892	1956.73
1007.186	1931.64
1007.48	1936.39
1007.773	1924.64
1008.067	1914.92
1008.361	1854.58
1008.655	1855.94
1008.948	1855.94
1009.242	1852.32
1009.535	1832.21
1009.829	1843.96
1010.122	1826.79
1010.415	1817.3
1010.708	1812.1
1011.001	1819.1
1011.295	1808.94
1011.588	1784.08
1011.881	1782.72
1012.173	1763.51
1012.466	1762.16
1012.759	1730.97
1013.052	1765.32
1013.344	1746.34
1013.637	1716.51
1013.93	1731.2
1014.222	1709.05
1014.514	1723.97
1014.807	1662.5
1015.099	1671.09
1015.391	1674.48
1015.683	1683.29
1015.976	1625.66
1016.268	1649.62
1016.56	1635.61
1016.851	1603.29
1017.143	1637.87
1017.435	1608.71
1017.727	1617.98
1018.018	1582.5
1018.31	1586.79
1018.602	1554.25
1018.893	1563.29
1019.185	1560.58
1019.476	1508.38
1019.767	1539.56
1020.058	1528.26
1020.35	1511.77
1020.641	1494.59
1020.932	1481.49
1021.223	1462.73
1021.514	1478.1
1021.804	1440.81
1022.095	1434.71
1022.386	1453.46
1022.677	1405.78
1022.967	1416.86
1023.258	1397.42
1023.548	1379.57
1023.839	1379.34
1024.129	1386.12
1024.419	1356.29
1024.709	1344.99
1025	1333.92
1025.29	1343.19
1025.58	1333.92
1025.87	1334.15
1026.16	1308.84
1026.449	1316.97
1026.739	1275.84
1027.029	1284.43
1027.319	1287.14
1027.608	1262.74
1027.898	1261.38
1028.187	1238.56
1028.477	1236.75
1028.766	1200.36
1029.055	1217.09
1029.344	1250.08
1029.634	1210.99
1029.923	1202.85
1030.212	1184.32
1030.501	1187.48
1030.79	1181.83
1031.078	1181.61
1031.367	1181.83
1031.656	1168.95
1031.945	1173.7
1032.233	1150.2
1032.522	1126.92
1032.81	1139.8
1033.099	1115.62
1033.387	1092.12
1033.675	1115.17
1033.963	1106.58
1034.251	1098.9
1034.54	1091.44
1034.828	1082.4
1035.116	1084.43
1035.403	1084.66
1035.691	1078.79
1035.979	1058.45
1036.267	1071.55
1036.554	1044.44
1036.842	1034.27
1037.129	1048.5
1037.417	1047.83
1037.704	1026.36
1037.992	1036.75
1038.279	1021.84
1038.566	993.59
1038.853	993.59
1039.14	993.59
