Data from blue_clamp_base_FLMS001491_00011.txt Node
Date: Wed Feb 08 15:15:36 GMT 2017
User: dcchb
Spectrometer: FLMS00149
Trigger mode: 0
Integration Time (sec): 2.000000E-2
Scans to average: 10
Electric dark correction enabled: true
Nonlinearity correction enabled: false
Boxcar width: 0
XAxis mode: Wavelengths
Number of Pixels in Spectrum: 2048
>>>>>Begin Spectral Data<<<<<
341.393	-29.56
341.776	-29.56
342.16	-29.56
342.543	-53.52
342.927	-58.26
343.31	-64.59
343.693	-75.66
344.077	-64.36
344.46	-53.74
344.843	-54.65
345.226	-34.31
345.61	-37.02
345.993	-32.5
346.376	-13.06
346.759	7.73
347.142	1.85
347.525	55.63
347.908	68.97
348.291	79.14
348.674	96.09
349.057	120.49
349.44	119.14
349.823	156.87
350.206	178.12
350.588	185.8
350.971	221.28
351.354	227.16
351.737	232.58
352.119	245.23
352.502	258.11
352.884	290.88
353.267	268.51
353.65	300.15
354.032	304.44
354.414	308.96
354.797	306.7
355.179	309.41
355.562	334.27
355.944	341.95
356.326	326.81
356.709	340.15
357.091	341.73
357.473	346.93
357.855	338.11
358.238	362.07
358.62	342.63
359.002	347.6
359.384	320.94
359.766	360.71
360.148	331.33
360.53	336.53
360.912	327.27
361.294	336.53
361.676	343.08
362.057	355.51
362.439	337.89
362.821	326.36
363.203	322.29
363.584	326.14
363.966	340.15
364.348	343.31
364.729	335.85
365.111	316.19
365.493	307.38
365.874	301.5
366.256	329.07
366.637	315.29
367.019	332.69
367.4	317.55
367.781	316.64
368.163	305.8
368.544	309.86
368.925	326.81
369.306	329.3
369.688	312.35
370.069	324.55
370.45	305.57
370.831	318
371.212	315.29
371.593	334.5
371.974	336.98
372.355	319.13
372.736	308.73
373.117	332.24
373.498	317.1
373.879	333.59
374.26	333.82
374.641	329.07
375.021	332.69
375.402	330.2
375.783	319.58
376.163	342.41
376.544	329.98
376.925	332.46
377.305	344.44
377.686	346.02
378.066	358.45
378.447	354.61
378.827	351.22
379.208	329.98
379.588	337.66
379.968	352.8
380.349	336.98
380.729	364.33
381.109	342.41
381.489	351.22
381.87	373.82
382.25	342.41
382.63	355.29
383.01	359.81
383.39	369.52
383.77	386.7
384.15	355.97
384.53	358
384.91	371.11
385.29	371.11
385.67	379.69
386.049	391.9
386.429	380.15
386.809	395.06
387.189	376.98
387.568	391.67
387.948	383.76
388.328	384.21
388.707	386.02
389.087	407.94
389.466	393.03
389.846	400.94
390.225	403.87
390.605	399.35
390.984	404.78
391.363	411.56
391.743	410.2
392.122	428.51
392.501	413.14
392.881	432.57
393.26	410.88
393.639	420.37
394.018	456.75
394.397	451.33
394.776	467.6
395.155	447.71
395.534	458.56
395.913	456.53
396.292	464.44
396.671	468.5
397.05	468.73
397.429	447.04
397.808	472.35
398.186	461.27
398.565	478.9
398.944	505.57
399.323	489.07
399.701	495.17
400.08	500.14
400.458	519.35
400.837	524.77
401.215	532.46
401.594	523.19
401.972	537.2
402.351	512.12
402.729	532.01
403.107	542.85
403.486	552.57
403.864	540.82
404.242	553.7
404.62	581.04
404.999	580.14
405.377	568.39
405.755	571.33
406.133	570.87
406.511	600.7
406.889	597.99
407.267	589.86
407.645	587.15
408.023	616.3
408.401	628.05
408.779	617.65
409.156	632.34
409.534	635.05
409.912	660.82
410.29	671.66
410.667	665.56
411.045	693.81
411.422	676.18
411.8	701.94
412.178	701.49
412.555	708.05
412.933	728.38
413.31	714.37
413.687	734.49
414.065	747.14
414.442	762.96
414.819	794.6
415.197	759.57
415.574	778.1
415.951	788.95
416.328	798.67
416.705	809.51
417.082	797.31
417.46	783.3
417.837	819
418.214	830.3
418.591	851.32
418.967	837.99
419.344	863.07
419.721	866.69
420.098	874.14
420.475	881.6
420.852	882.28
421.228	898.1
421.605	909.4
421.982	910.75
422.358	917.08
422.735	935.61
423.111	945.78
423.488	918.44
423.864	937.42
424.241	956.4
424.617	969.06
424.994	989.39
425.37	978.1
425.746	1001.37
426.123	998.66
426.499	1021.71
426.875	1032.78
427.251	1056.96
427.627	1075.27
428.003	1100.35
428.379	1093.57
428.756	1107.13
429.132	1115.95
429.507	1136.51
429.883	1129.5
430.259	1193.91
430.635	1174.02
431.011	1178.54
431.387	1209.05
431.763	1229.16
432.138	1230.52
432.514	1264.64
432.89	1289.73
433.265	1282.49
433.641	1314.58
434.016	1328.82
434.392	1318.88
434.767	1356.84
435.143	1366.79
435.518	1385.99
435.894	1424.64
436.269	1449.95
436.644	1428.93
437.02	1448.59
437.395	1454.02
437.77	1492.66
438.145	1497.4
438.52	1513.67
438.895	1521.58
439.271	1560.68
439.646	1585.99
440.021	1603.39
440.395	1587.12
440.77	1576.72
441.145	1600.23
441.52	1637.29
441.895	1661.92
442.27	1656.95
442.645	1661.47
443.019	1684.52
443.394	1699.66
443.769	1688.59
444.143	1725.42
444.518	1727.23
444.892	1739.88
445.267	1772.88
445.641	1778.75
446.016	1826.66
446.39	1798.19
446.764	1797.28
447.139	1825.31
447.513	1832.99
447.887	1864.17
448.262	1857.39
448.636	1856.26
449.01	1903.27
449.384	1942.36
449.758	1936.04
450.132	1968.35
450.506	1961.12
450.88	1971.52
451.254	1990.27
451.628	2010.84
452.002	2035.92
452.376	2063.72
452.75	2068.46
453.123	2084.96
453.497	2128.12
453.871	2130.83
454.244	2175.13
454.618	2173.32
454.992	2227.1
455.365	2205.41
455.739	2247.89
456.112	2308.91
456.486	2306.65
456.859	2331.73
457.232	2361.56
457.606	2390.26
457.979	2448.34
458.352	2447.21
458.725	2480.88
459.099	2448.34
459.472	2539.64
459.845	2552.97
460.218	2595.68
460.591	2613.76
460.964	2606.98
461.337	2679.29
461.71	2719.52
462.083	2729.24
462.456	2728.11
462.829	2743.25
463.201	2795.22
463.574	2780.31
463.947	2829.57
464.32	2914.54
464.692	2927.2
465.065	2926.07
465.438	2978.95
465.81	3004.48
466.183	3028.44
466.555	3100.07
466.928	3114.54
467.3	3124.25
467.672	3182.33
468.045	3228.43
468.417	3216
468.789	3283.35
469.161	3321.54
469.534	3352.04
469.906	3459.16
470.278	3429.1
470.65	3491.25
471.022	3523.57
471.394	3592.49
471.766	3604.47
472.138	3654.41
472.51	3714.07
472.882	3726.72
473.253	3789.32
473.625	3860.73
473.997	3917
474.369	3957
474.74	3961.29
475.112	4040.61
475.484	4072.03
475.855	4143.44
476.227	4162.87
476.598	4301.62
476.97	4303.66
477.341	4327.39
477.713	4500.04
478.084	4458.91
478.455	4565.12
478.827	4603.54
479.198	4709.52
479.569	4685.12
479.94	4845.56
480.311	4853.7
480.682	4934.83
481.053	5012.79
481.424	5103.64
481.795	5121.72
482.166	5247.59
482.537	5295.5
482.908	5345.44
483.279	5433.57
483.65	5476.51
484.021	5512.89
484.391	5574.13
484.762	5651.19
485.133	5686.67
485.503	5718.99
485.874	5794.92
486.244	5850.74
486.615	6013.22
486.985	6005.08
487.356	6087.11
487.726	6106.55
488.097	6197.85
488.467	6210.73
488.837	6309.93
489.207	6379.76
489.578	6476.93
489.948	6488.91
490.318	6514.67
490.688	6560.77
491.058	6618.4
491.428	6701.79
491.798	6701.34
492.168	6825.17
492.538	6833.08
492.908	6946.75
493.278	6972.06
493.648	6977.03
494.017	7007.09
494.387	7078.5
494.757	7116.47
495.126	7161.21
495.496	7164.83
495.866	7232.85
496.235	7281.66
496.605	7313.75
496.974	7337.48
497.344	7377.93
497.713	7406.63
498.082	7397.59
498.452	7482.78
498.821	7527.98
499.19	7547.41
499.559	7563.01
499.928	7586.51
500.298	7673.51
500.667	7697.47
501.036	7674.19
501.405	7710.8
501.774	7723.23
502.143	7770.69
502.512	7787.41
502.88	7866.5
503.249	7821.53
503.618	7884.35
503.987	7913.05
504.356	8002.09
504.724	7974.52
505.093	7983.11
505.462	8008.19
505.83	8091.13
506.199	8062.88
506.567	8165.93
506.936	8113.28
507.304	8240.73
507.672	8238.02
508.041	8230.79
508.409	8275.31
508.777	8363.66
509.145	8319.6
509.514	8358.69
509.882	8386.04
510.25	8426.04
510.618	8520.95
510.986	8503.55
511.354	8492.47
511.722	8626.26
512.09	8663.54
512.458	8615.86
512.826	8722.52
513.193	8696.99
513.561	8698.12
513.929	8786.48
514.297	8778.57
514.664	8771.11
515.032	8847.49
515.4	8842.3
515.767	8871.22
516.135	8873.26
516.502	8858.11
516.869	9023.31
517.237	9064.21
517.604	9022.63
517.972	9116.19
518.339	9174.94
518.706	9097.88
519.073	9169.74
519.44	9225.79
519.808	9220.82
520.175	9214.49
520.542	9380.36
520.909	9374.49
521.276	9395.73
521.643	9447.25
522.009	9465.1
522.376	9541.49
522.743	9554.14
523.11	9594.59
523.477	9718.88
523.843	9697.87
524.21	9752.33
524.577	9802.5
524.943	9805.89
525.31	9905.77
525.676	10015.37
526.043	10059.44
526.409	10056.95
526.776	10136.72
527.142	10111.87
527.508	10197.74
527.874	10256.27
528.241	10263.95
528.607	10303.73
528.973	10390.5
529.339	10422.59
529.705	10453.33
530.071	10517.28
530.437	10522.7
530.803	10539.88
531.169	10672.3
531.535	10616.71
531.901	10572.65
532.267	10775.13
532.632	10731.29
532.998	10732.19
533.364	10784.84
533.73	10949.13
534.095	10958.62
534.461	10909.13
534.826	10981
535.192	11000.21
535.557	11095.8
535.923	11046.53
536.288	11059.64
536.653	11108.45
537.019	11080.65
537.384	11182.8
537.749	11227.54
538.114	11212.85
538.479	11260.31
538.845	11320.42
539.21	11344.6
539.575	11351.83
539.94	11328.11
540.305	11463.7
540.67	11449.23
541.034	11500.98
541.399	11575.33
541.764	11567.87
542.129	11544.82
542.494	11594.54
542.858	11612.39
543.223	11639.74
543.587	11724.25
543.952	11769.9
544.316	11691.49
544.681	11764.03
545.045	11733.07
545.41	11917.92
545.774	11818.94
546.138	11837.47
546.503	11937.81
546.867	11907.07
547.231	11988.88
547.595	12005.6
547.959	12007.64
548.324	12032.72
548.688	12026.84
549.052	12074.75
549.416	12092.61
549.779	12102.32
550.143	12127.86
550.507	12154.3
550.871	12221.64
551.235	12185.71
551.599	12361.53
551.962	12311.58
552.326	12341.86
552.689	12336.22
553.053	12288.98
553.417	12394.97
553.78	12514.52
554.143	12460.96
554.507	12531.46
554.87	12542.76
555.234	12645.36
555.597	12521.97
555.96	12648.75
556.323	12621.86
556.686	12623.21
557.05	12711.12
557.413	12752.7
557.776	12812.13
558.139	12844
558.502	12930.32
558.865	12836.54
559.228	12911.12
559.59	12959.25
559.953	13062.98
560.316	13115.63
560.679	13114.5
561.041	13155.18
561.404	13220.03
561.767	13289.64
562.129	13247.15
562.492	13347.71
562.854	13339.35
563.217	13360.82
563.579	13354.95
563.941	13551.32
564.304	13585
564.666	13609.4
565.028	13652.79
565.39	13659.34
565.753	13721.49
566.115	13709.74
566.477	13839.45
566.839	13881.03
567.201	13910.19
567.563	13889.17
567.925	14038.32
568.287	14083.29
568.648	14064.31
569.01	14138.65
569.372	14228.14
569.734	14134.81
570.095	14246.45
570.457	14412.77
570.819	14365.54
571.18	14405.99
571.542	14516.95
571.903	14454.13
572.265	14576.16
572.626	14501.13
572.987	14600.34
573.349	14653.67
573.71	14744.29
574.071	14671.52
574.432	14818.64
574.794	14909.71
575.155	14897.73
575.516	14879.88
575.877	14934.11
576.238	14906.54
576.599	15130.49
576.96	15004.62
577.32	15119.64
577.681	15151.06
578.042	15200.55
578.403	15250.26
578.763	15154.45
579.124	15170.94
579.485	15313.09
579.845	15377.04
580.206	15250.71
580.566	15329.13
580.927	15384.5
581.287	15464.95
581.648	15321.9
582.008	15480.77
582.368	15476.47
582.728	15552.4
583.089	15440.54
583.449	15456.36
583.809	15453.42
584.169	15438.73
584.529	15480.77
584.889	15594.43
585.249	15529.13
585.609	15455.46
585.969	15580.2
586.329	15648.22
586.688	15629.91
587.048	15627.2
587.408	15600.31
587.768	15577.03
588.127	15593.3
588.487	15667.88
588.846	15746.52
589.206	15601.67
589.565	15687.09
589.925	15767.09
590.284	15694.09
590.643	15721.89
591.003	15800.08
591.362	15940.41
591.721	15871.04
592.08	15767.09
592.44	15872.85
592.799	15817.71
593.158	15853.86
593.517	15784.26
593.876	15835.11
594.235	15867.2
594.593	15859.29
594.952	15923.01
595.311	15911.71
595.67	15917.14
596.029	15976.35
596.387	15967.08
596.746	16027.87
597.104	15951.26
597.463	15916.46
597.822	15969.79
598.18	15957.59
598.538	15970.47
598.897	16007.98
599.255	15847.08
599.613	16164.82
599.972	16049.11
600.33	16103.57
600.688	16090.69
601.046	16047.76
601.404	16153.97
601.762	16122.56
602.12	16167.3
602.478	16180.18
602.836	16232.38
603.194	16069.22
603.552	16131.37
603.91	16198.71
604.268	16192.61
604.625	16226.73
604.983	16305.15
605.341	16157.58
605.698	16234.19
606.056	16272.83
606.413	16257.24
606.771	16255.89
607.128	16389.22
607.485	16245.26
607.843	16238.94
608.2	16348.54
608.557	16359.16
608.914	16359.61
609.272	16476.45
609.629	16495.43
609.986	16589.44
610.343	16416.11
610.7	16524.13
611.057	16586.95
611.414	16541.3
611.771	16623.33
612.127	16594.63
612.484	16676.89
612.841	16639.15
613.198	16584.47
613.554	16646.84
613.911	16750.79
614.267	16685.25
614.624	16761.86
614.98	16694.29
615.337	16871.01
615.693	16865.59
616.05	16792.14
616.406	16889.32
616.762	16894.74
617.118	16935.87
617.475	16848.86
617.831	16889.54
618.187	17006.15
618.543	16898.58
618.899	17112.36
619.255	16981.52
619.611	17043.66
619.967	17089.54
620.323	17085.02
620.678	17015.41
621.034	17013.83
621.39	17126.37
621.746	17074.17
622.101	17193.04
622.457	17055.87
622.812	17239.59
623.168	17212.92
623.523	17277.78
623.879	17317.55
624.234	17213.6
624.589	17176.99
624.945	17221.96
625.3	17220.83
625.655	17387.61
626.01	17279.59
626.365	17286.14
626.72	17295.18
627.075	17245.69
627.43	17354.39
627.785	17359.13
628.14	17378.34
628.495	17404.78
628.85	17369.53
629.205	17318.46
629.559	17532.01
629.914	17400.71
630.269	17489.53
630.623	17419.02
630.978	17516.64
631.332	17495.4
631.687	17590.54
632.041	17479.36
632.396	17661.72
632.75	17420.6
633.104	17609.3
633.459	17513.03
633.813	17525.46
634.167	17478
634.521	17394.39
634.875	17573.14
635.229	17541.5
635.583	17447.72
635.937	17491.11
636.291	17444.1
636.645	17529.3
636.999	17508.28
637.352	17519.13
637.706	17544.67
638.06	17640.71
638.413	17562.29
638.767	17435.06
639.121	17664.89
639.474	17504.21
639.828	17565.68
640.181	17560.94
640.534	17620.14
640.888	17619.92
641.241	17554.16
641.594	17570.88
641.947	17735.62
642.301	17650.2
642.654	17677.32
643.007	17607.26
643.36	17659.01
643.713	17586.02
644.066	17706.7
644.419	17654.72
644.771	17529.3
645.124	17434.39
645.477	17386.48
645.83	17278.46
646.182	17255.18
646.535	17208.63
646.888	17250.66
647.24	17145.35
647.593	17279.81
647.945	17381.96
648.298	17214.96
648.65	17174.51
649.002	17169.99
649.355	17330.89
649.707	17351.22
650.059	17405.69
650.411	17577.89
650.763	17656.3
651.115	17865.34
651.467	17783.76
651.819	17820.36
652.171	17770.87
652.523	17823.3
652.875	17826.01
653.227	17800.7
653.578	17969.51
653.93	17901.49
654.282	17853.58
654.633	17739.24
654.985	17883.19
655.337	17933.13
655.688	17923.64
656.039	17936.07
656.391	17885.45
656.742	17891.32
657.094	17955.28
657.445	17978.1
657.796	18061.04
658.147	17921.83
658.498	17939.68
658.849	17964.09
659.2	17901.49
659.551	17894.49
659.902	17976.29
660.253	17934.94
660.604	17898.33
660.955	17951.43
661.306	18004.09
661.656	18022.39
662.007	17961.38
662.358	18005.44
662.708	18028.95
663.059	18010.64
663.409	17939.23
663.76	18023.75
664.11	17939.46
664.461	18089.51
664.811	17966.12
665.161	17983.07
665.511	17918.67
665.862	17996.63
666.212	17973.13
666.562	17954.82
666.912	17981.72
667.262	18081.15
667.612	17964.54
667.962	18002.96
668.312	17985.11
668.662	18002.96
669.011	17986.69
669.361	18053.35
669.711	17988.95
670.06	17888.16
670.41	17898.33
670.76	17795.51
671.109	17802.06
671.459	17810.2
671.808	17754.6
672.157	17733.81
672.507	17649.3
672.856	17602.74
673.205	17665.34
673.554	17757.77
673.904	17563.2
674.253	17650.43
674.602	17763.42
674.951	17329.08
675.3	17326.14
675.649	17505.34
675.998	17501.5
676.346	17553.71
676.695	17486.36
677.044	17315.07
677.393	17512.12
677.741	17343.54
678.09	17386.48
678.438	17292.92
678.787	17363.65
679.135	17358.46
679.484	17256.54
679.832	17362.07
680.181	17157.78
680.529	17143.77
680.877	17115.07
681.225	17136.54
681.573	17201.4
681.922	17095.41
682.27	17037.33
682.618	16962.53
682.966	16969.99
683.314	16974.74
683.661	16956.43
684.009	16759.38
684.357	16758.25
684.705	16732.26
685.053	16698.59
685.4	16834.18
685.748	16696.33
686.095	16683.67
686.443	16628.31
686.79	16572.94
687.138	16697.91
687.485	16581.75
687.832	16473.51
688.18	16623.79
688.527	16453.4
688.874	16397.58
689.221	16431.7
689.568	16362.1
689.915	16387.86
690.262	16378.82
690.609	16297.92
690.956	16252.27
691.303	16318.71
691.65	16167.98
691.997	16092.5
692.344	16137.25
692.69	16207.98
693.037	16094.31
693.383	16037.59
693.73	16052.28
694.077	16012.28
694.423	15953.3
694.769	15910.13
695.116	15943.8
695.462	15946.52
695.808	15956.46
696.155	15951.49
696.501	15795.11
696.847	15866.52
697.193	15642.79
697.539	15793.53
697.885	15648.67
698.231	15728.22
698.577	15671.72
698.923	15679.4
699.269	15653.42
699.614	15534.1
699.96	15595.56
700.306	15510.59
700.651	15589.91
700.997	15449.13
701.342	15475.79
701.688	15543.14
702.033	15341.56
702.379	15373.65
702.724	15455.91
703.069	15383.37
703.415	15366.87
703.76	15321.45
704.105	15302.92
704.45	15321.9
704.795	15175.01
705.14	15251.17
705.485	15143.82
705.83	15147.44
706.175	15157.61
706.52	15109.48
706.865	15081.23
707.209	15121.9
707.554	15058.63
707.899	15146.08
708.243	15027.44
708.588	14969.82
708.932	14979.76
709.277	14908.12
709.621	14954.9
709.966	14943.6
710.31	14850.95
710.654	14820.44
710.998	14886.2
711.342	14853.89
711.687	14850.95
712.031	14850.27
712.375	14803.49
712.719	14760.78
713.063	14789.48
713.407	14859.09
713.75	14823.38
714.094	14760.11
714.438	14770.28
714.782	14729.37
715.125	14608.92
715.469	14752.65
715.812	14642.6
716.156	14631.07
716.499	14566.21
716.843	14665.19
717.186	14567.57
717.53	14722.59
717.873	14664.52
718.216	14675.36
718.559	14490.28
718.902	14462.94
719.246	14551.52
719.589	14453
719.932	14421.81
720.275	14568.25
720.617	14434.01
720.96	14525.08
721.303	14479.66
721.646	14452.77
721.989	14383.84
722.331	14496.16
722.674	14415.03
723.016	14480.79
723.359	14355.15
723.701	14444.18
724.044	14372.09
724.386	14357.4
724.729	14381.59
725.071	14242.61
725.413	14320.12
725.755	14375.26
726.097	14290.97
726.439	14201.48
726.782	14225.88
727.124	14353.11
727.465	14327.58
727.807	14228.14
728.149	14254.36
728.491	14220.23
728.833	14252.1
729.175	14220.23
729.516	14241.48
729.858	14271.31
730.199	14261.81
730.541	14218.88
730.882	14234.92
731.224	14255.03
731.565	14229.72
731.906	14239.89
732.248	14190.86
732.589	14253.23
732.93	14215.26
733.271	14242.15
733.612	14180.23
733.953	14252.77
734.294	14182.72
734.635	14229.27
734.976	14253
735.317	14300.01
735.658	14311.98
735.999	14311.53
736.339	14327.58
736.68	14320.57
737.021	14369.16
737.361	14335.94
737.702	14405.31
738.042	14356.95
738.383	14368.93
738.723	14407.12
739.063	14403.51
739.404	14481.24
739.744	14475.82
740.084	14437.85
740.424	14487.35
740.764	14421.36
741.104	14557.85
741.444	14542.26
741.784	14456.61
742.124	14609.83
742.464	14598.08
742.804	14580
743.143	14524.63
743.483	14631.97
743.823	14595.14
744.162	14604.18
744.502	14589.49
744.841	14593.1
745.181	14767.11
745.52	14703.16
745.86	14769.15
746.199	14756.04
746.538	14789.03
746.877	14815.47
747.216	14843.72
747.556	14850.05
747.895	14945.19
748.234	14903.15
748.573	14957.39
748.911	14872.42
749.25	14910.61
749.589	14853.21
749.928	15015.24
750.267	15055.24
750.605	15114.22
750.944	15044.39
751.283	15137.72
751.621	15073.77
751.96	15081.91
752.298	15186.99
752.636	15154.9
752.975	15142.24
753.313	15123.71
753.651	15318.06
753.989	15143.82
754.327	15183.82
754.666	15198.96
755.004	15221.56
755.342	15331.84
755.679	15301.79
756.017	15285.97
756.355	15412.29
756.693	15292.75
757.031	15420.2
757.368	15381.11
757.706	15354.89
758.044	15343.82
758.381	15428.34
758.719	15358.73
759.056	15440.99
759.394	15368
759.731	15447.55
760.068	15450.48
760.405	15417.49
760.743	15447.09
761.08	15465.62
761.417	15450.03
761.754	15523.02
762.091	15453.65
762.428	15469.24
762.765	15450.48
763.102	15470.37
763.438	15484.38
763.775	15533.42
764.112	15572.29
764.449	15565.51
764.785	15577.26
765.122	15489.8
765.458	15490.03
765.795	15499.3
766.131	15570.71
766.467	15526.64
766.804	15445.06
767.14	15444.16
767.476	15481.44
767.812	15498.84
768.148	15528.9
768.485	15426.08
768.821	15450.71
769.157	15511.27
769.492	15412.97
769.828	15484.38
770.164	15461.33
770.5	15434.44
770.836	15441.44
771.171	15339.3
771.507	15454.55
771.842	15187.44
772.178	15335.46
772.513	15346.53
772.849	15316.02
773.184	15305.4
773.519	15359.41
773.855	15330.03
774.19	15248.23
774.525	15266.31
774.86	15231.96
775.195	15292.97
775.53	15318.06
775.865	15216.37
776.2	15156.25
776.535	15040.32
776.87	15095.46
777.205	15158.06
777.539	15141.34
777.874	15144.5
778.209	15077.39
778.543	15052.08
778.878	15073.54
779.212	15098.63
779.547	14984.06
779.881	15073.32
780.215	15040.55
780.55	14979.08
780.884	14965.52
781.218	14914.23
781.552	14997.16
781.886	14946.32
782.22	14858.18
782.554	14899.31
782.888	14852.99
783.222	14818.64
783.556	14722.37
783.889	14782.03
784.223	14842.14
784.557	14731.63
784.89	14738.19
785.224	14669.04
785.557	14608.47
785.891	14644.63
786.224	14613.67
786.558	14553.11
786.891	14528.47
787.224	14476.05
787.557	14529.38
787.891	14453.22
788.224	14454.35
788.557	14549.72
788.89	14463.16
789.223	14421.81
789.556	14361.92
789.888	14514.91
790.221	14415.03
790.554	14311.53
790.887	14321.47
791.219	14209.16
791.552	14260.68
791.884	14220.69
792.217	14233.57
792.549	14209.61
792.882	14079.22
793.214	14023.85
793.546	14115.38
793.879	14081.03
794.211	14078.09
794.543	14100.01
794.875	14100.46
795.207	14177.3
795.539	14067.24
795.871	14016.17
796.203	13989.51
796.535	13886
796.867	13968.49
797.198	13921.03
797.53	13873.35
797.862	13813.01
798.193	13909.51
798.525	13791.32
798.856	13893.46
799.188	13675.84
799.519	13674.49
799.85	13641.04
800.182	13603.53
800.513	13657.76
800.844	13593.36
801.175	13690.3
801.506	13628.84
801.837	13576.86
802.168	13618.89
802.499	13532.34
802.83	13504.77
803.161	13444.21
803.491	13427.49
803.822	13475.62
804.153	13444.21
804.483	13359.24
804.814	13282.18
805.145	13370.76
805.475	13367.83
805.805	13267.49
806.136	13298.45
806.466	13325.12
806.796	13234.95
807.126	13165.8
807.457	13183.65
807.787	13191.79
808.117	13163.09
808.447	13146.59
808.777	13157.44
809.107	13046.93
809.436	13066.59
809.766	13079.92
810.096	12992.24
810.426	12928.06
810.755	12973.03
811.085	12957.89
811.414	12956.31
811.744	12888.07
812.073	12807.62
812.403	12834.06
812.732	12866.82
813.061	12755.87
813.39	12764.68
813.719	12780.27
814.049	12782.31
814.378	12709.31
814.707	12720.84
815.036	12682.65
815.365	12573.95
815.693	12584.34
816.022	12640.39
816.351	12502.99
816.68	12498.02
817.008	12525.36
817.337	12424.35
817.665	12434.52
817.994	12515.87
818.322	12503.44
818.651	12400.17
818.979	12342.54
819.307	12372.15
819.636	12356.33
819.964	12286.95
820.292	12398.36
820.62	12360.85
820.948	12301.64
821.276	12353.16
821.604	12370.34
821.932	12292.15
822.259	12362.2
822.587	12259.61
822.915	12257.57
823.243	12305.26
823.57	12321.3
823.898	12340.73
824.225	12278.59
824.553	12315.88
824.88	12300.28
825.207	12381.41
825.535	12333.05
825.862	12337.57
826.189	12337.35
826.516	12447.62
826.843	12471.8
827.17	12512.48
827.497	12404.46
827.824	12332.6
828.151	12445.82
828.478	12476.78
828.805	12444.69
829.131	12456.89
829.458	12382.77
829.785	12297.35
830.111	12395.2
830.438	12465.48
830.764	12434.52
831.09	12451.01
831.417	12432.48
831.743	12399.04
832.069	12375.76
832.395	12389.77
832.722	12345.71
833.048	12319.27
833.374	12377.12
833.7	12314.29
834.026	12270.68
834.351	12368.98
834.677	12399.72
835.003	12395.42
835.329	12317.01
835.654	12338.93
835.98	12435.65
836.306	12246.5
836.631	12301.41
836.956	12324.92
837.282	12261.87
837.607	12224.58
837.932	12183.68
838.258	12239.27
838.583	12224.58
838.908	12206.28
839.233	12225.26
839.558	12194.98
839.883	12088.09
840.208	12100.74
840.533	12082.66
840.858	12151.59
841.182	12067.52
841.507	12057.8
841.832	12014.42
842.156	11973.74
842.481	11947.07
842.805	11995.21
843.13	11966.51
843.454	11907.3
843.778	11880.63
844.103	11892.39
844.427	11928.09
844.751	11913.18
845.075	11825.27
845.399	11819.62
845.723	11732.84
846.047	11757.25
846.371	11705.72
846.695	11601.55
847.019	11580.75
847.343	11623.24
847.666	11481.77
847.99	11470.02
848.313	11394.55
848.637	11346.86
848.96	11327.65
849.284	11334.43
849.607	11203.14
849.931	11199.3
850.254	11130.37
850.577	11140.77
850.9	10994.1
851.223	11036.36
851.546	10935.57
851.869	10837.05
852.192	10954.78
852.515	10888.57
852.838	10842.02
853.161	10801.11
853.483	10737.16
853.806	10702.13
854.129	10690.38
854.451	10627.11
854.774	10665.75
855.096	10588.92
855.419	10582.14
855.741	10554.34
856.063	10436.6
856.385	10488.58
856.708	10373.33
857.03	10356.15
857.352	10446.32
857.674	10328.13
857.996	10243.16
858.318	10263.95
858.64	10261.69
858.961	10186.44
859.283	10211.75
859.605	10131.53
859.926	10218.76
860.248	10096.73
860.57	10123.84
860.891	10154.8
861.212	10088.59
861.534	10036.39
861.855	10044.52
862.176	10046.78
862.498	10091.98
862.819	10012.89
863.14	10038.42
863.461	10000.46
863.782	9910.74
864.103	9964.75
864.424	9945.09
864.745	9837.3
865.065	9882.95
865.386	9762.95
865.707	9821.03
866.027	9908.48
866.348	9857.41
866.668	9776.73
866.989	9810.86
867.309	9757.53
867.63	9793.91
867.95	9738.09
868.27	9678.66
868.59	9730.41
868.91	9731.99
869.23	9722.27
869.55	9638.43
869.87	9651.99
870.19	9599.79
870.51	9695.61
870.83	9645.66
871.15	9610.41
871.469	9584.88
871.789	9629.17
872.109	9572.45
872.428	9539.45
872.748	9550.75
873.067	9526.57
873.386	9564.76
873.706	9581.03
874.025	9453.13
874.344	9454.94
874.663	9407.03
874.982	9403.41
875.301	9401.83
875.62	9395.05
875.939	9372
876.258	9384.65
876.577	9319.12
876.896	9372.23
877.214	9308.5
877.533	9339.91
877.852	9316.63
878.17	9337.65
878.489	9290.87
878.807	9272.11
879.125	9217.2
879.444	9308.27
879.762	9197.99
880.08	9250.42
880.398	9198.67
880.716	9175.62
881.034	9189.41
881.352	9117.77
881.67	9149.86
881.988	9139.01
882.306	9133.81
882.624	9081.84
882.941	8998.22
883.259	8953.71
883.577	8985.79
883.894	9007.26
884.212	8953.48
884.529	8890.43
884.846	8881.84
885.164	8872.58
885.481	8884.78
885.798	8907.38
886.115	8789.87
886.432	8838.68
886.75	8780.15
887.067	8748.74
887.383	8684.11
887.7	8711.23
888.017	8725.91
888.334	8767.04
888.651	8679.36
888.967	8680.04
889.284	8628.06
889.6	8636.65
889.917	8574.73
890.233	8583.77
890.55	8509.2
890.866	8524.34
891.182	8488.41
891.498	8558.24
891.815	8497.45
892.131	8453.83
892.447	8399.82
892.763	8478.46
893.079	8391.46
893.395	8335.87
893.71	8332.93
894.026	8312.82
894.342	8288.41
894.657	8177.45
894.973	8233.05
895.289	8205.02
895.604	8192.82
895.92	8055.42
896.235	8150.79
896.55	8090.23
896.865	8078.7
897.181	7989.66
897.496	8002.32
897.811	8026.05
898.126	7934.97
898.441	7903.11
898.756	7929.78
899.071	7870.57
899.386	7860.17
899.7	7809.78
900.015	7717.13
900.33	7784.7
900.644	7673.29
900.959	7731.14
901.273	7666.96
901.588	7638.94
901.902	7614.76
902.216	7600.75
902.531	7518.71
902.845	7494.31
903.159	7546.28
903.473	7450.02
903.787	7492.27
904.101	7400.53
904.415	7342.22
904.729	7378.38
905.042	7335.67
905.356	7292.51
905.67	7306.74
905.984	7274.88
906.297	7275.56
906.611	7204.37
906.924	7193.98
907.237	7214.54
907.551	7128.22
907.864	7104.26
908.177	7114.43
908.491	7040.99
908.804	7092.29
909.117	7021.33
909.43	6949.69
909.743	7049.35
910.056	6911.05
910.368	6909.92
910.681	6819.75
910.994	6816.13
911.307	6797.6
911.619	6707.89
911.932	6803.93
912.244	6677.61
912.557	6695.46
912.869	6684.61
913.181	6652.52
913.494	6652.07
913.806	6594.45
914.118	6544.28
914.43	6563.94
914.742	6507.89
915.054	6483.49
915.366	6476.48
915.678	6420.21
915.99	6431.29
916.302	6399.2
916.613	6337.73
916.925	6391.06
917.236	6378.41
917.548	6321.01
917.859	6250.5
918.171	6224.96
918.482	6236.71
918.794	6130.28
919.105	6160.78
919.416	6149.03
919.727	6132.08
920.038	6092.54
920.349	6048.02
920.66	6059.54
920.971	5964.63
921.282	6002.37
921.593	5926.21
921.903	5898.64
922.214	5924.41
922.525	5891.64
922.835	5848.93
923.146	5795.82
923.456	5800.57
923.767	5803.05
924.077	5775.03
924.387	5729.38
924.697	5759.21
925.008	5691.64
925.318	5675.37
925.628	5669.27
925.938	5623.62
926.248	5588.82
926.558	5521.48
926.867	5601.03
927.177	5516.73
927.487	5501.82
927.796	5433.35
928.106	5460.46
928.416	5393.57
928.725	5397.64
929.034	5393.35
929.344	5400.13
929.653	5394.93
929.962	5303.86
930.271	5311.09
930.581	5258.66
930.89	5238.1
931.199	5239.23
931.508	5164.43
931.817	5161.49
932.125	5135.73
932.434	5134.6
932.743	5139.34
933.051	5062.96
933.36	5077.2
933.669	5046.46
933.977	5034.49
934.286	4965.79
934.594	5003.53
934.902	4918.33
935.21	4930.08
935.519	4936.18
935.827	4914.72
936.135	4868.61
936.443	4838.11
936.751	4836.3
937.059	4822.29
937.367	4829.75
937.674	4776.87
937.982	4766.7
938.29	4758.34
938.597	4762.85
938.905	4703.87
939.213	4663.65
939.52	4668.17
939.827	4678.11
940.135	4640.6
940.442	4600.15
940.749	4594.05
941.056	4642.18
941.363	4578.68
941.67	4561.5
941.977	4435.86
942.284	4506.36
942.591	4461.17
942.898	4494.16
943.205	4472.47
943.511	4441.06
943.818	4433.37
944.125	4405.8
944.431	4353.37
944.738	4351.79
945.044	4298.46
945.35	4325.58
945.657	4298.01
945.963	4292.36
946.269	4262.53
946.575	4265.47
946.881	4233.83
947.187	4211.46
947.493	4182.31
947.799	4176.2
948.105	4157.22
948.41	4127.17
948.716	4126.94
949.022	4145.7
949.327	4115.41
949.633	4052.59
949.938	4019.15
950.244	4040.61
950.549	3994.97
950.854	3998.58
951.16	3988.41
951.465	3982.76
951.77	3917.23
952.075	3923.1
952.38	3906.61
952.685	3878.81
952.99	3848.53
953.294	3875.42
953.599	3881.52
953.904	3790
954.209	3828.87
954.513	3833.61
954.818	3800.85
955.122	3721.3
955.426	3771.92
955.731	3720.62
956.035	3713.62
956.339	3680.85
956.643	3697.35
956.948	3670.45
957.252	3654.64
957.556	3622.55
957.86	3626.16
958.163	3671.13
958.467	3599.27
958.771	3606.73
959.075	3548.42
959.378	3517.01
959.682	3514.3
959.985	3489.89
960.289	3500.29
960.592	3430.46
960.896	3460.06
961.199	3469.56
961.502	3446.05
961.805	3430.23
962.108	3388.43
962.411	3381.2
962.714	3383.68
963.017	3369.45
963.32	3393.4
963.623	3366.28
963.926	3360.18
964.228	3353.63
964.531	3297.36
964.833	3277.24
965.136	3238.83
965.438	3222.78
965.741	3231.6
966.043	3256.68
966.345	3229.79
966.648	3267.3
966.95	3230.01
967.252	3178.26
967.554	3186.17
967.856	3174.42
968.158	3101.43
968.46	3124.25
968.761	3136.23
969.063	3089.23
969.365	3066.4
969.666	3061.43
969.968	3064.59
970.269	3003.81
970.571	3023.69
970.872	2972.85
971.174	2986.18
971.475	3020.98
971.776	2987.31
972.077	2935.78
972.378	2927.2
972.679	2950.47
972.98	2933.75
973.281	2914.54
973.582	2940.76
973.883	2877.48
974.183	2858.72
974.484	2889.23
974.785	2844.04
975.085	2856.69
975.386	2810.82
975.686	2830.93
975.986	2803.81
976.287	2794.09
976.587	2743.93
976.887	2749.35
977.187	2758.84
977.487	2731.95
977.787	2726.07
978.087	2726.07
978.387	2701.21
978.687	2690.59
978.987	2670.25
979.286	2655.34
979.586	2663.93
979.885	2649.24
980.185	2659.86
980.484	2619.18
980.784	2657.15
981.083	2602.23
981.382	2583.25
981.682	2551.84
981.981	2565.4
982.28	2621.67
982.579	2552.52
982.878	2552.07
983.177	2513.42
983.475	2546.87
983.774	2510.03
984.073	2512.97
984.372	2470.49
984.67	2480.88
984.969	2480.66
985.267	2451.5
985.566	2415.8
985.864	2444.27
986.162	2412.41
986.461	2380.54
986.759	2402.47
987.057	2395.23
987.355	2381.9
987.653	2357.04
987.951	2374.22
988.249	2362.69
988.547	2332.64
988.844	2311.17
989.142	2316.82
989.44	2287.89
989.737	2293.77
990.035	2270.72
990.332	2288.57
990.63	2271.85
990.927	2218.52
991.224	2212.41
991.521	2229.59
991.819	2231.17
992.116	2219.87
992.413	2224.62
992.71	2170.38
993.006	2194.11
993.303	2163.15
993.6	2162.02
993.897	2161.57
994.193	2164.96
994.49	2148.69
994.787	2115.24
995.083	2108.69
995.379	2081.8
995.676	2105.75
995.972	2078.41
996.268	2051.06
996.565	2080.67
996.861	2033.44
997.157	2076.37
997.453	2010.84
997.749	2024.4
998.044	2023.49
998.34	2016.03
998.636	1984.62
998.932	1974.45
999.227	1964.74
999.523	1969.93
999.818	1968.58
1000.114	1921.8
1000.409	1927
1000.704	1916.15
1001	1887.45
1001.295	1911.86
1001.59	1857.17
1001.885	1871.86
1002.18	1860.56
1002.475	1853.78
1002.77	1829.82
1003.065	1825.53
1003.359	1812.42
1003.654	1794.57
1003.949	1801.58
1004.243	1797.74
1004.538	1805.87
1004.832	1779.43
1005.127	1796.38
1005.421	1774.01
1005.715	1727.91
1006.009	1753.67
1006.304	1716.83
1006.598	1716.83
1006.892	1729.94
1007.186	1692.43
1007.48	1698.75
1007.773	1670.51
1008.067	1683.61
1008.361	1646.1
1008.655	1652.43
1008.948	1678.19
1009.242	1637.74
1009.535	1651.52
1009.829	1612.2
1010.122	1628.7
1010.415	1631.86
1010.708	1593.67
1011.001	1594.8
1011.295	1560.91
1011.588	1564.52
1011.881	1562.04
1012.173	1549.15
1012.466	1542.15
1012.759	1517.29
1013.052	1530.85
1013.344	1539.89
1013.637	1536.05
1013.93	1508.93
1014.222	1500.57
1014.514	1492.43
1014.807	1474.35
1015.099	1491.75
1015.391	1465.09
1015.683	1459.44
1015.976	1456.95
1016.268	1439.78
1016.56	1413.11
1016.851	1401.14
1017.143	1442.04
1017.435	1402.27
1017.727	1392.32
1018.018	1398.42
1018.31	1386.67
1018.602	1374.7
1018.893	1344.64
1019.185	1343.06
1019.476	1331.53
1019.767	1363.4
1020.058	1337.41
1020.35	1321.59
1020.641	1290.18
1020.932	1302.61
1021.223	1298.09
1021.514	1299.9
1021.804	1262.38
1022.095	1272.1
1022.386	1272.55
1022.677	1242.72
1022.967	1255.6
1023.258	1258.77
1023.548	1238.65
1023.839	1228.71
1024.129	1224.87
1024.419	1174.7
1024.709	1213.12
1025	1174.93
1025.29	1203.85
1025.58	1211.76
1025.87	1164.76
1026.16	1153.91
1026.449	1149.84
1026.739	1161.37
1027.029	1130.18
1027.319	1132.89
1027.608	1136.96
1027.898	1128.15
1028.187	1105.78
1028.477	1103.29
1028.766	1114.14
1029.055	1085.21
1029.344	1066.23
1029.634	1091.54
1029.923	1096.28
1030.212	1088.83
1030.501	1060.13
1030.79	1057.64
1031.078	1042.73
1031.367	1040.92
1031.656	1040.47
1031.945	1027.59
1032.233	1029.62
1032.522	1004.31
1032.81	1013.58
1033.099	1003.41
1033.387	1026.46
1033.675	983.07
1033.963	973.35
1034.251	979
1034.54	970.64
1034.828	983.07
1035.116	994.14
1035.403	946.46
1035.691	955.27
1035.979	943.97
1036.267	950.98
1036.554	940.81
1036.842	895.84
1037.129	939.23
1037.417	917.76
1037.704	907.59
1037.992	903.75
1038.279	900.81
1038.566	901.49
1038.853	901.49
1039.14	901.49
