Data from blue_clamp_base_FLMS001491_00092.txt Node
Date: Wed Feb 08 15:16:47 GMT 2017
User: dcchb
Spectrometer: FLMS00149
Trigger mode: 0
Integration Time (sec): 2.000000E-2
Scans to average: 10
Electric dark correction enabled: true
Nonlinearity correction enabled: false
Boxcar width: 0
XAxis mode: Wavelengths
Number of Pixels in Spectrum: 2048
>>>>>Begin Spectral Data<<<<<
341.393	-15.27
341.776	-15.27
342.16	-15.27
342.543	-67.24
342.927	-80.35
343.31	-46
343.693	-78.09
344.077	-56.62
344.46	-61.59
344.843	-39.45
345.226	-34.02
345.61	-30.86
345.993	-19.79
346.376	5.75
346.759	9.59
347.142	15.92
347.525	16.82
347.908	70.83
348.291	69.7
348.674	86.2
349.057	91.62
349.44	106.31
349.823	105.63
350.206	152.19
350.588	185.18
350.971	228.79
351.354	227.21
351.737	228.79
352.119	255.46
352.502	266.98
352.884	271.96
353.267	259.3
353.65	277.15
354.032	299.3
354.414	304.95
354.797	314.21
355.179	315.34
355.562	325.51
355.944	325.74
356.326	343.82
356.709	339.07
357.091	346.53
357.473	342.69
357.855	343.59
358.238	344.95
358.62	352.18
359.002	319.41
359.384	335.68
359.766	337.72
360.148	351.95
360.53	337.27
360.912	335.91
361.294	330.26
361.676	340.2
362.057	328
362.439	328.9
362.821	336.81
363.203	320.09
363.584	325.74
363.966	310.37
364.348	312.63
364.729	333.2
365.111	316.93
365.493	344.95
365.874	329.81
366.256	335.01
366.637	323.03
367.019	320.99
367.4	309.92
367.781	331.62
368.163	318.73
368.544	326.87
368.925	324.84
369.306	324.61
369.688	329.13
370.069	308.11
370.45	314.89
370.831	302.01
371.212	318.06
371.593	328
371.974	303.37
372.355	310.83
372.736	309.92
373.117	321.67
373.498	318.96
373.879	309.92
374.26	311.28
374.641	332.29
375.021	340.2
375.402	341.11
375.783	364.16
376.163	351.73
376.544	327.77
376.925	333.42
377.305	332.29
377.686	335.46
378.066	336.36
378.447	361.67
378.827	365.96
379.208	354.89
379.588	356.7
379.968	335.01
380.349	342.24
380.729	357.15
381.109	346.3
381.489	365.06
381.87	346.3
382.25	353.99
382.63	354.89
383.01	346.08
383.39	363.48
383.77	363.48
384.15	374.55
384.53	367.32
384.91	370.48
385.29	365.29
385.67	368.45
386.049	389.69
386.429	395.79
386.809	384.72
387.189	381.78
387.568	362.58
387.948	375.68
388.328	412.52
388.707	415
389.087	392.86
389.466	394.21
389.846	402.57
390.225	441.67
390.605	392.86
390.984	418.84
391.363	427.88
391.743	436.7
392.122	426.3
392.501	448
392.881	433.76
393.26	445.96
393.639	437.83
394.018	450.93
394.397	459.07
394.776	437.83
395.155	432.18
395.534	459.52
395.913	471.27
396.292	466.08
396.671	471.5
397.05	473.31
397.429	477.37
397.808	472.18
398.186	468.56
398.565	502.68
398.944	517.15
399.323	480.54
399.701	502.01
400.08	490.48
400.458	513.31
400.837	520.99
401.215	544.94
401.594	549.01
401.972	536.36
402.351	557.37
402.729	551.5
403.107	549.24
403.486	550.37
403.864	560.54
404.242	572.74
404.62	570.03
404.999	594.21
405.377	590.14
405.755	624.72
406.133	605.05
406.511	613.64
406.889	602.12
407.267	631.72
407.645	624.94
408.023	641.21
408.401	640.53
408.779	649.8
409.156	661.78
409.534	662.91
409.912	671.27
410.29	695.67
410.667	672.4
411.045	683.24
411.422	696.8
411.8	717.59
412.178	728.22
412.555	733.64
412.933	741.1
413.31	740.64
413.687	766.86
414.065	783.36
414.442	779.29
414.819	804.15
415.197	782.45
415.574	823.13
415.951	829.46
416.328	811.15
416.705	846.4
417.082	816.35
417.46	820.19
417.837	840.98
418.214	848.66
418.591	853.86
418.967	874.65
419.344	860.42
419.721	897.93
420.098	869.23
420.475	906.97
420.852	914.2
421.228	931.15
421.605	935.44
421.982	930.92
422.358	948.1
422.735	964.82
423.111	948.55
423.488	966.85
423.864	974.08
424.241	976.34
424.617	1033.52
424.994	1018.15
425.37	1003.01
425.746	1038.26
426.123	1018.83
426.499	1066.51
426.875	1071.48
427.251	1091.37
427.627	1101.09
428.003	1091.37
428.379	1126.4
428.756	1116.91
429.132	1145.83
429.507	1165.27
429.883	1171.59
430.259	1222.21
430.635	1174.98
431.011	1229.45
431.387	1276.45
431.763	1265.38
432.138	1279.84
432.514	1293.4
432.89	1308.77
433.265	1331.82
433.641	1360.97
434.016	1323.68
434.392	1352.15
434.767	1391.93
435.143	1424.02
435.518	1432.6
435.894	1432.6
436.269	1446.84
436.644	1478.7
437.02	1479.83
437.395	1495.43
437.77	1487.52
438.145	1513.28
438.52	1562.54
438.895	1570.91
439.271	1569.32
439.646	1602.32
440.021	1578.36
440.395	1622.88
440.77	1614.75
441.145	1660.62
441.52	1701.3
441.895	1668.53
442.27	1710.34
442.645	1695.87
443.019	1739.49
443.394	1689.09
443.769	1746.95
444.143	1747.85
444.518	1782.88
444.892	1776.78
445.267	1791.01
445.641	1800.5
446.016	1824.91
446.39	1813.84
446.764	1832.14
447.139	1857.45
447.513	1858.13
447.887	1889.77
448.262	1873.72
448.636	1916.21
449.01	1948.3
449.384	1966.6
449.758	1975.87
450.132	1983.32
450.506	1993.27
450.88	1984.68
451.254	2019.93
451.628	2054.73
452.002	2068.29
452.376	2073.94
452.75	2088.41
453.123	2141.51
453.497	2155.3
453.871	2184.45
454.244	2220.38
454.618	2204.56
454.992	2236.42
455.365	2232.81
455.739	2319.59
456.112	2348.74
456.486	2362.07
456.859	2373.14
457.232	2414.72
457.606	2367.27
457.979	2416.31
458.352	2475.74
458.725	2490.88
459.099	2512.35
459.472	2564.1
459.845	2572.69
460.218	2625.11
460.591	2629.41
460.964	2625.79
461.337	2698.33
461.71	2731.33
462.083	2752.34
462.456	2807.93
462.829	2794.6
463.201	2803.64
463.574	2825.56
463.947	2868.05
464.32	2910.08
464.692	2948.72
465.065	2977.42
465.438	3015.61
465.81	3035.73
466.183	3033.01
466.555	3121.37
466.928	3160.47
467.3	3127.93
467.672	3164.99
468.045	3233.91
468.417	3262.16
468.789	3251.31
469.161	3339.9
469.534	3347.81
469.906	3449.73
470.278	3452.21
470.65	3452.89
471.022	3577.86
471.394	3621.02
471.766	3600.91
472.138	3633.22
472.51	3684.3
472.882	3742.15
473.253	3828.7
473.625	3822.15
473.997	3878.19
474.369	3913.22
474.74	3939.43
475.112	3982.37
475.484	4078.18
475.855	4141.23
476.227	4169.71
476.598	4269.82
476.97	4251.29
477.341	4363.6
477.713	4407.89
478.084	4439.3
478.455	4510.94
478.827	4533.09
479.198	4703.93
479.569	4664.61
479.94	4766.3
480.311	4779.41
480.682	4912.96
481.053	4965.62
481.424	5014.88
481.795	5119.96
482.166	5138.49
482.537	5163.8
482.908	5323.12
483.279	5285.61
483.65	5393.86
484.021	5474.08
484.391	5511.59
484.762	5552.5
485.133	5547.3
485.503	5652.83
485.874	5731.7
486.244	5673.62
486.615	5876.55
486.985	5905.48
487.356	5966.72
487.726	6021.18
488.097	6076.32
488.467	6082.65
488.837	6165.59
489.207	6260.27
489.578	6300.05
489.948	6337.11
490.318	6416.88
490.688	6398.35
491.058	6482.87
491.428	6524
491.798	6592.47
492.168	6695.06
492.538	6647.16
492.908	6745.68
493.278	6789.98
493.648	6769.86
494.017	6841.27
494.387	6876.53
494.757	6882.63
495.126	6941.61
495.496	6943.87
495.866	6941.39
496.235	6951.78
496.605	7070.87
496.974	7055.96
497.344	7135.28
497.713	7116.75
498.082	7171.21
498.452	7267.48
498.821	7207.37
499.19	7271.55
499.559	7274.48
499.928	7281.94
500.298	7355.16
500.667	7360.13
501.036	7347.7
501.405	7391.99
501.774	7422.95
502.143	7416.63
502.512	7466.34
502.88	7435.61
503.249	7470.18
503.618	7519.9
503.987	7579.11
504.356	7569.39
504.724	7599
505.093	7570.75
505.462	7636.51
505.83	7715.83
506.199	7702.04
506.567	7764.19
506.936	7772.32
507.304	7812.32
507.672	7826.56
508.041	7798.31
508.409	7841.25
508.777	7846.45
509.145	8051.19
509.514	7905.2
509.882	8008.48
510.25	7996.5
510.618	8027.23
510.986	8038.76
511.354	8104.97
511.722	8125.31
512.09	8192.2
512.458	8186.32
512.826	8224.52
513.193	8288.92
513.561	8253.22
513.929	8233.33
514.297	8343.16
514.664	8376.15
515.032	8356.49
515.4	8436.04
515.767	8415.24
516.135	8480.55
516.502	8365.08
516.869	8562.59
517.237	8554.22
517.604	8522.13
517.972	8563.26
518.339	8631.74
518.706	8601.91
519.073	8638.97
519.44	8631.28
519.808	8697.72
520.175	8678.97
520.542	8842.8
520.909	8762.58
521.276	8798.96
521.643	8904.27
522.009	8933.88
522.376	8927.77
522.743	8968.9
523.11	9073.98
523.477	9088.9
523.843	9112.85
524.21	9241.21
524.577	9182.68
524.943	9248.67
525.31	9222
525.676	9337.93
526.043	9394.88
526.409	9415.67
526.776	9487.08
527.142	9487.08
527.508	9530.7
527.874	9578.6
528.241	9548.55
528.607	9562.79
528.973	9661.54
529.339	9693.18
529.705	9761.65
530.071	9794.19
530.437	9843.91
530.803	9941.53
531.169	9887.75
531.535	9907.41
531.901	9923.68
532.267	9981.76
532.632	9981.08
532.998	9996.45
533.364	10098.14
533.73	10122.09
534.095	10214.29
534.461	10263.56
534.826	10290
535.192	10285.03
535.557	10351.69
535.923	10272.15
536.288	10317.12
536.653	10419.26
537.019	10395.53
537.384	10437.79
537.749	10487.51
538.114	10541.52
538.479	10496.77
538.845	10513.72
539.21	10539.03
539.575	10632.36
539.94	10558.69
540.305	10747.39
540.67	10594.17
541.034	10621.29
541.399	10703.32
541.764	10748.29
542.129	10796.65
542.494	10833.26
542.858	10814.96
543.223	10857.89
543.587	10923.2
543.952	10937.89
544.316	10976.99
544.681	10963.65
545.045	11034.39
545.41	11034.39
545.774	11059.7
546.138	11048.4
546.503	11106.47
546.867	11135.17
547.231	11144.89
547.595	11202.52
547.959	11252.01
548.324	11248.16
548.688	11237.09
549.052	11258.79
549.416	11287.26
549.779	11301.04
550.143	11279.35
550.507	11480.7
550.871	11465.79
551.235	11366.81
551.599	11429.85
551.962	11503.07
552.326	11516.41
552.689	11611.77
553.053	11491.1
553.417	11571.77
553.78	11713.46
554.143	11553.69
554.507	11738.32
554.87	11700.13
555.234	11817.87
555.597	11728.83
555.96	11781.71
556.323	11840.47
556.686	11719.34
557.05	11829.39
557.413	11856.74
557.776	11939.9
558.139	12011.76
558.502	11995.72
558.865	11965.21
559.228	12160.46
559.59	12106.22
559.953	12083.62
560.316	12289.04
560.679	12258.53
561.041	12270.28
561.404	12375.59
561.767	12422.82
562.129	12302.37
562.492	12497.62
562.854	12463.73
563.217	12503.95
563.579	12517.74
563.941	12625.53
564.304	12641.57
564.666	12762.7
565.028	12667.11
565.39	12748.69
565.753	12879.31
566.115	12859.65
566.477	12936.03
566.839	12908.23
567.201	13030.26
567.563	13034.56
567.925	13134.22
568.287	13167.89
568.648	13234.1
569.01	13277.94
569.372	13365.4
569.734	13289.01
570.095	13351.61
570.457	13401.78
570.819	13449.91
571.18	13450.14
571.542	13562
571.903	13525.17
572.265	13613.07
572.626	13686.07
572.987	13713.18
573.349	13719.96
573.71	13840.64
574.071	13834.76
574.432	13888.77
574.794	13957.7
575.155	14023.91
575.516	13947.3
575.877	13961.77
576.238	13992.27
576.599	14022.56
576.96	14110.91
577.32	14148.88
577.681	14147.3
578.042	14109.11
578.403	14230.46
578.763	14153.4
579.124	14284.02
579.485	14314.98
579.845	14359.72
580.206	14344.35
580.566	14380.06
580.927	14364.92
581.287	14352.04
581.648	14376.22
582.008	14476.55
582.368	14471.36
582.728	14506.84
583.089	14516.55
583.449	14408.08
583.809	14496.44
584.169	14535.76
584.529	14535.99
584.889	14670.45
585.249	14486.72
585.609	14536.21
585.969	14641.97
586.329	14587.96
586.688	14635.42
587.048	14661.86
587.408	14604.91
587.768	14622.31
588.127	14509.77
588.487	14573.28
588.846	14672.48
589.206	14590.9
589.565	14609.66
589.925	14725.14
590.284	14679.49
590.643	14748.19
591.003	14701.86
591.362	14773.5
591.721	14773.04
592.08	14785.92
592.44	14798.81
592.799	14780.28
593.158	14772.37
593.517	14763.78
593.876	14775.76
594.235	14850.78
594.593	14761.52
594.952	14871.12
595.311	14846.94
595.67	14883.78
596.029	14916.99
596.387	14948.41
596.746	14971
597.104	14871.35
597.463	14875.87
597.822	14985.69
598.18	14916.32
598.538	14941.4
598.897	15024.56
599.255	14974.62
599.613	15089.42
599.972	14933.49
600.33	14973.26
600.688	14935.75
601.046	15019.82
601.404	15114.05
601.762	15035.64
602.12	15093.26
602.478	15121.51
602.836	15173.94
603.194	15027.27
603.552	15053.04
603.91	15056.65
604.268	15189.98
604.625	15081.74
604.983	15201.06
605.341	15070.21
605.698	15118.12
606.056	15263.65
606.413	15180.72
606.771	15260.26
607.128	15284.67
607.485	15076.54
607.843	15197.67
608.2	15370.09
608.557	15342.97
608.914	15324.89
609.272	15252.35
609.629	15366.93
609.986	15349.53
610.343	15426.81
610.7	15456.87
611.057	15549.97
611.414	15466.13
611.771	15473.36
612.127	15536.87
612.484	15525.34
612.841	15538.45
613.198	15500.71
613.554	15484.66
613.911	15564.66
614.267	15636.98
614.624	15534.38
614.98	15566.47
615.337	15663.64
615.693	15632.46
616.05	15635.39
616.406	15674.49
616.762	15603.98
617.118	15693.02
617.475	15686.47
617.831	15741.38
618.187	15746.58
618.543	15763.75
618.899	15907.25
619.255	15840.13
619.611	15807.37
619.967	15809.4
620.323	15876.74
620.678	15743.87
621.034	15784.99
621.39	15873.13
621.746	15793.58
622.101	16042.84
622.457	15881.26
622.812	15973.01
623.168	16008.72
623.523	15958.1
623.879	16082.61
624.234	15954.48
624.589	16072.9
624.945	16078.55
625.3	16095.27
625.655	16070.18
626.01	16116.96
626.365	16212.1
626.72	16097.75
627.075	16102.73
627.43	16151.76
627.785	16015.72
628.14	16094.14
628.495	16108.83
628.85	16128.49
629.205	16078.32
629.559	16238.77
629.914	16196.06
630.269	16118.55
630.623	16223.85
630.978	16099.79
631.332	16326
631.687	16269.28
632.041	16257.75
632.396	16270.41
632.75	16217.98
633.104	16248.49
633.459	16206.23
633.813	16150.18
634.167	16188.37
634.521	16250.07
634.875	16260.69
635.229	16239.45
635.583	16195.61
635.937	16210.75
636.291	16248.26
636.645	16253
636.999	16320.12
637.352	16380.91
637.706	16227.69
638.06	16245.55
638.413	16291.2
638.767	16254.13
639.121	16262.27
639.474	16240.8
639.828	16218.2
640.181	16283.06
640.534	16326.68
640.888	16359.22
641.241	16214.81
641.594	16355.83
641.947	16305.66
642.301	16356.28
642.654	16403.51
643.007	16248.26
643.36	16384.98
643.713	16357.41
644.066	16460.91
644.419	16414.13
644.771	16210.29
645.124	16152.67
645.477	16112.22
645.83	16060.69
646.182	15988.61
646.535	15923.07
646.888	16164.19
647.24	16096.17
647.593	16168.04
647.945	16139.34
648.298	16104.99
648.65	16110.86
649.002	16071.54
649.355	16210.97
649.707	16077.64
650.059	16177.3
650.411	16422.49
650.763	16492.32
651.115	16680.56
651.467	16585.43
651.819	16559.44
652.171	16545.43
652.523	16600.57
652.875	16615.71
653.227	16560.12
653.578	16668.59
653.93	16590.4
654.282	16597.85
654.633	16681.24
654.985	16637.4
655.337	16648.7
655.688	16758.08
656.039	16749.26
656.391	16610.51
656.742	16735.93
657.094	16650.28
657.445	16776.83
657.796	16627.91
658.147	16667.68
658.498	16776.38
658.849	16885.3
659.2	16761.92
659.551	16680.11
659.902	16862.48
660.253	16735.25
660.604	16845.98
660.955	16702.71
661.306	16765.53
661.656	16772.09
662.007	16813.89
662.358	16803.27
662.708	16826.78
663.059	16828.81
663.409	16797.4
663.76	16926.43
664.11	16864.97
664.461	16898.19
664.811	16891.86
665.161	16871.52
665.511	16856.15
665.862	16871.75
666.212	16840.79
666.562	16842.37
666.912	16813.44
667.262	16750.39
667.612	16767.79
667.962	16850.28
668.312	16757.62
668.662	16930.5
669.011	16768.92
669.361	16752.88
669.711	16719.21
670.06	16614.13
670.41	16689.83
670.76	16655.48
671.109	16684.41
671.459	16587.46
671.808	16603.05
672.157	16616.16
672.507	16492.55
672.856	16485.77
673.205	16486.9
673.554	16505.2
673.904	16507.69
674.253	16525.09
674.602	16483.28
674.951	16233.8
675.3	16118.55
675.649	16415.26
675.998	16364.41
676.346	16415.94
676.695	16379.78
677.044	16225.89
677.393	16299.11
677.741	16291.42
678.09	16165.32
678.438	16142.5
678.787	16109.28
679.135	16159.45
679.484	15888.95
679.832	16031.77
680.181	16079.22
680.529	16108.83
680.877	15954.93
681.225	15901.6
681.573	15973.69
681.922	16003.52
682.27	15862.51
682.618	15866.35
682.966	15829.06
683.314	15859.34
683.661	15676.07
684.009	15762.4
684.357	15739.57
684.705	15677.2
685.053	15676.75
685.4	15656.41
685.748	15507.94
686.095	15495.96
686.443	15446.02
686.79	15440.14
687.138	15457.77
687.485	15433.14
687.832	15368.96
688.18	15478.34
688.527	15388.17
688.874	15283.76
689.221	15270.21
689.568	15297.1
689.915	15216.65
690.262	15260.94
690.609	15201.06
690.956	15159.47
691.303	15231.79
691.65	15182.75
691.997	15095.3
692.344	15007.84
692.69	15042.19
693.037	15055.52
693.383	14897.56
693.73	15033.38
694.077	14932.81
694.423	14977.78
694.769	14890.78
695.116	14968.07
695.462	14791.35
695.808	14824.34
696.155	14851.91
696.501	14772.82
696.847	14711.8
697.193	14697.79
697.539	14788.18
697.885	14656.66
698.231	14571.69
698.577	14720.39
698.923	14603.78
699.269	14620.05
699.614	14444.01
699.96	14531.02
700.306	14479.72
700.651	14461.64
700.997	14474.75
701.342	14398.14
701.688	14457.35
702.033	14417.12
702.379	14439.72
702.724	14327.86
703.069	14380.51
703.415	14294.41
703.76	14328.31
704.105	14288.99
704.45	14278.59
704.795	14201.31
705.14	14171.03
705.485	14171.03
705.83	14147.52
706.175	14203.57
706.52	14223.45
706.865	14096.9
707.209	14184.81
707.554	14099.62
707.899	14107.07
708.243	14000.63
708.588	14066.4
708.932	14063.68
709.277	13968.32
709.621	13960.18
709.966	13945.95
710.31	13918.6
710.654	13823.92
710.998	13909.56
711.342	14046.28
711.687	13948.88
712.031	13828.89
712.375	13880.86
712.719	13865.5
713.063	13888.1
713.407	13887.64
713.75	13854.65
714.094	13846.97
714.438	13783.24
714.782	13766.74
715.125	13709.57
715.469	13805.16
715.812	13769.91
716.156	13665.5
716.499	13732.62
716.843	13824.14
717.186	13711.38
717.53	13731.04
717.873	13746.18
718.216	13706.63
718.559	13624.83
718.902	13586.41
719.246	13700.76
719.589	13597.71
719.932	13541.89
720.275	13568.33
720.617	13530.59
720.96	13565.39
721.303	13628.67
721.646	13603.81
721.989	13529.69
722.331	13583.7
722.674	13639.51
723.016	13586.41
723.359	13606.07
723.701	13517.26
724.044	13494.21
724.386	13412.63
724.729	13564.26
725.071	13529.91
725.413	13506.86
725.755	13446.3
726.097	13423.93
726.439	13385.74
726.782	13414.89
727.124	13434.77
727.465	13480.65
727.807	13525.62
728.149	13408.79
728.491	13426.64
728.833	13401.1
729.175	13462.8
729.516	13435.68
729.858	13385.74
730.199	13415.34
730.541	13469.35
730.882	13429.58
731.224	13464.38
731.565	13428.45
731.906	13423.02
732.248	13373.31
732.589	13460.99
732.93	13375.34
733.271	13507.54
733.612	13437.71
733.953	13507.54
734.294	13496.02
734.635	13423.47
734.976	13483.59
735.317	13385.96
735.658	13411.05
735.999	13451.72
736.339	13463.02
736.68	13550.7
737.021	13511.61
737.361	13471.38
737.702	13610.59
738.042	13565.62
738.383	13656.24
738.723	13611.27
739.063	13616.69
739.404	13733.75
739.744	13658.27
740.084	13747.99
740.424	13793.41
740.764	13729.46
741.104	13804.26
741.444	13748.66
741.784	13694.88
742.124	13824.59
742.464	13774.65
742.804	13849.45
743.143	13882.9
743.483	13856.23
743.823	13843.58
744.162	13892.16
744.502	13937.13
744.841	13987.75
745.181	13975.1
745.52	13958.38
745.86	14063.46
746.199	14081.31
746.538	14091.03
746.877	14068.2
747.216	14149.78
747.556	14107.52
747.895	14194.53
748.234	14182.55
748.573	14200.18
748.911	14199.05
749.25	14183
749.589	14286.28
749.928	14331.7
750.267	14388.42
750.605	14368.99
750.944	14432.04
751.283	14360.4
751.621	14498.93
751.96	14450.34
752.298	14469.77
752.636	14514.29
752.975	14444.01
753.313	14520.17
753.651	14653.27
753.989	14591.58
754.327	14530.56
754.666	14681.97
755.004	14619.15
755.342	14689.2
755.679	14693.27
756.017	14643.33
756.355	14777.56
756.693	14788.86
757.031	14814.85
757.368	14788.64
757.706	14800.84
758.044	14829.54
758.381	14840.39
758.719	14792.03
759.056	14896.2
759.394	14763.33
759.731	14818.24
760.068	14903.21
760.405	14862.53
760.743	14871.8
761.08	14955.86
761.417	15016.88
761.754	14995.86
762.091	14859.14
762.428	14930.33
762.765	14967.39
763.102	15039.7
763.438	15013.26
763.775	14941.4
764.112	15022.3
764.449	15010.55
764.785	15059.36
765.122	14977.56
765.458	14989.31
765.795	15072.02
766.131	15020.49
766.467	15039.93
766.804	15011.46
767.14	15032.47
767.476	15013.72
767.812	14936.43
768.148	15039.48
768.485	15040.83
768.821	14942.3
769.157	14987.5
769.492	15043.77
769.828	15059.36
770.164	14895.53
770.5	14974.39
770.836	14984.34
771.171	14992.92
771.507	14975.3
771.842	14887.84
772.178	14953.83
772.513	14988.63
772.849	14909.99
773.184	14925.36
773.519	14994.51
773.855	14912.7
774.19	14899.59
774.525	14944.11
774.86	14988.18
775.195	14937.56
775.53	14888.97
775.865	14825.02
776.2	14759.48
776.535	14785.25
776.87	14796.32
777.205	14825.02
777.539	14728.98
777.874	14842.87
778.209	14768.52
778.543	14713.16
778.878	14711.12
779.212	14767.85
779.547	14734.4
779.881	14752.93
780.215	14601.3
780.55	14715.19
780.884	14688.98
781.218	14652.37
781.552	14715.64
781.886	14605.59
782.22	14647.85
782.554	14590.9
782.888	14477.91
783.222	14522.2
783.556	14444.46
783.889	14507.97
784.223	14427.97
784.557	14381.64
784.89	14448.76
785.224	14441.75
785.557	14413.73
785.891	14330.12
786.224	14376.9
786.558	14343.9
786.891	14344.58
787.224	14231.36
787.557	14369.66
787.891	14323.56
788.224	14277.01
788.557	14282.66
788.89	14222.55
789.223	14320.4
789.556	14135.77
789.888	14113.63
790.221	14112.04
790.554	14025.04
790.887	14115.89
791.219	14062.78
791.552	14041.09
791.884	14011.48
792.217	14022.33
792.549	13924.93
792.882	13898.04
793.214	13919.51
793.546	13920.86
793.879	13909.56
794.211	13792.73
794.543	13823.92
794.875	13897.59
795.207	13934.87
795.539	13801.77
795.871	13892.39
796.203	13747.31
796.535	13688.33
796.867	13747.53
797.198	13651.72
797.53	13696.46
797.862	13512.51
798.193	13613.75
798.525	13599.74
798.856	13616.69
799.188	13503.47
799.519	13516.81
799.85	13386.87
800.182	13417.6
800.513	13447.65
800.844	13296.02
801.175	13468.45
801.506	13492.4
801.837	13405.17
802.168	13357.26
802.499	13316.58
802.83	13303.25
803.161	13326.98
803.491	13291.95
803.822	13337.6
804.153	13181.9
804.483	13182.8
804.814	13070.94
805.145	13156.36
805.475	13083.6
805.805	13072.75
806.136	13054.44
806.466	13097.16
806.796	13007.44
807.126	12929.25
807.457	12994.11
807.787	13009.47
808.117	12972.87
808.447	12878.63
808.777	13018.51
809.107	12990.27
809.436	12821.46
809.766	12896.48
810.096	12816.71
810.426	12838.18
810.755	12783.72
811.085	12774.9
811.414	12725.19
811.744	12725.41
812.073	12672.31
812.403	12696.94
812.732	12604.29
813.061	12592.76
813.39	12568.58
813.719	12543.95
814.049	12584.85
814.378	12585.53
814.707	12543.5
815.036	12509.83
815.365	12487.68
815.693	12443.39
816.022	12416.95
816.351	12440.22
816.68	12329.49
817.008	12395.25
817.337	12344.18
817.665	12287.23
817.994	12293.79
818.322	12256.73
818.651	12190.06
818.979	12217.63
819.307	12206.78
819.636	12195.71
819.964	12182.83
820.292	12215.82
820.62	12205.88
820.948	12084.53
821.276	12131.08
821.604	12183.06
821.932	12186.45
822.259	12179.21
822.587	12141.93
822.915	12091.31
823.243	12238.65
823.57	12194.13
823.898	12220.34
824.225	12118.2
824.553	12183.06
824.88	12113.9
825.207	12260.79
825.535	12209.27
825.862	12189.16
826.189	12230.51
826.516	12320
826.843	12286.1
827.17	12274.13
827.497	12347.34
827.824	12248.14
828.151	12230.06
828.478	12285.65
828.805	12391.41
829.131	12277.06
829.458	12254.01
829.785	12208.59
830.111	12232.32
830.438	12271.19
830.764	12207.01
831.09	12338.53
831.417	12290.62
831.743	12303.73
832.069	12307.8
832.395	12244.52
832.722	12251.53
833.048	12258.08
833.374	12255.6
833.7	12177.86
834.026	12313.67
834.351	12263.05
834.677	12316.84
835.003	12226.67
835.329	12271.19
835.654	12184.86
835.98	12161.59
836.306	12204.98
836.631	12160.23
836.956	12164.07
837.282	12149.84
837.607	12195.03
837.932	12089.5
838.258	12127.24
838.583	12093.79
838.908	12045.43
839.233	12130.4
839.558	12103.74
839.883	12030.74
840.208	12021.93
840.533	12032.55
840.858	12003.85
841.182	12037.75
841.507	12019.9
841.832	11915.94
842.156	11938.09
842.481	11838.43
842.805	11862.84
843.13	11882.27
843.454	11816.51
843.778	11832.33
844.103	11798.88
844.427	11746.23
844.751	11791.88
845.075	11738.1
845.399	11673.92
845.723	11683.41
846.047	11599.57
846.371	11508.95
846.695	11606.12
847.019	11483.86
847.343	11490.42
847.666	11363.19
847.99	11345.11
848.313	11357.99
848.637	11276.64
848.96	11255.17
849.284	11196.41
849.607	11081.16
849.931	11093.37
850.254	11022.86
850.577	11028.74
850.9	10946.03
851.223	10970.88
851.546	10896.31
851.869	10865.58
852.192	10895.86
852.515	10787.61
852.838	10743.32
853.161	10786.48
853.483	10658.35
853.806	10643.89
854.129	10592.36
854.451	10591.01
854.774	10502.65
855.096	10478.92
855.419	10486.6
855.741	10464.68
856.063	10389.43
856.385	10395.98
856.708	10359.83
857.03	10283.22
857.352	10269.66
857.674	10241.19
857.996	10244.8
858.318	10159.38
858.64	10239.38
858.961	10135.88
859.283	10137.23
859.605	10114.86
859.926	10124.8
860.248	10092.04
860.57	10031.47
860.891	10097.46
861.212	10041.64
861.534	10041.42
861.855	9925.94
862.176	9980.85
862.498	9931.59
862.819	9947.86
863.14	9891.36
863.461	9967.52
863.782	9876.9
864.103	9839.39
864.424	9825.6
864.745	9916.45
865.065	9800.97
865.386	9747.64
865.707	9781.99
866.027	9784.7
866.348	9772.5
866.668	9761.88
866.989	9720.3
867.309	9677.58
867.63	9664.7
867.95	9647.98
868.27	9609.11
868.59	9617.93
868.91	9670.13
869.23	9622.67
869.55	9591.26
869.87	9605.04
870.19	9600.3
870.51	9528.21
870.83	9549.23
871.15	9513.07
871.469	9527.98
871.789	9508.78
872.109	9494.99
872.428	9438.72
872.748	9492.5
873.067	9466.52
873.386	9415.44
873.706	9401.21
874.025	9383.13
874.344	9325.5
874.663	9370.25
874.982	9302
875.301	9360.08
875.62	9380.87
875.939	9301.1
876.258	9307.42
876.577	9252.28
876.896	9301.1
877.214	9248.9
877.533	9231.27
877.852	9197.37
878.17	9193.08
878.489	9258.39
878.807	9151.27
879.125	9220.65
879.444	9198.73
879.762	9110.82
880.08	9170.03
880.398	9167.09
880.716	9131.16
881.034	9152.63
881.352	9109.01
881.67	9090.71
881.988	9123.25
882.306	9026.08
882.624	8968.22
882.941	8911.95
883.259	8959.19
883.577	8886.42
883.894	8901.56
884.212	8874.22
884.529	8957.83
884.846	8846.19
885.164	8832.63
885.481	8856.82
885.798	8809.81
886.115	8679.19
886.432	8844.61
886.75	8763.48
887.067	8702.69
887.383	8710.38
887.7	8812.07
888.017	8642.81
888.334	8631.06
888.651	8581.79
888.967	8588.8
889.284	8531.17
889.6	8568.91
889.917	8512.64
890.233	8556.71
890.55	8504.73
890.866	8428.8
891.182	8424.74
891.498	8472.19
891.815	8400.1
892.131	8377.73
892.447	8329.6
892.763	8307
893.079	8321.46
893.395	8240.33
893.71	8247.79
894.026	8251.63
894.342	8229.49
894.657	8167.79
894.973	8197.17
895.289	8102.71
895.604	8076.95
895.92	8048.93
896.235	7980.45
896.55	8026.33
896.865	8059.32
897.181	7973
897.496	8028.36
897.811	7878.08
898.126	7868.37
898.441	7901.81
898.756	7822.49
899.071	7782.95
899.386	7813
899.7	7728.26
900.015	7755.15
900.33	7643.97
900.644	7612.1
900.959	7695.49
901.273	7658.65
901.588	7532.1
901.902	7537.75
902.216	7559.45
902.531	7528.94
902.845	7512.67
903.159	7439.68
903.473	7423.63
903.787	7356.74
904.101	7369.62
904.415	7343.41
904.729	7345.89
905.042	7306.35
905.356	7274.94
905.67	7266.8
905.984	7269.96
906.297	7193.81
906.611	7144.09
906.924	7132.79
907.237	7174.6
907.551	7081.49
907.864	7040.37
908.177	7036.52
908.491	7040.82
908.804	6986.58
909.117	6979.58
909.43	6905.68
909.743	6911.33
910.056	6911.56
910.368	6853.7
910.681	6811.67
910.994	6824.78
911.307	6748.17
911.619	6702.3
911.932	6717.21
912.244	6632.92
912.557	6635.86
912.869	6620.26
913.181	6575.07
913.494	6552.92
913.806	6552.02
914.118	6569.19
914.43	6417.78
914.742	6487.84
915.054	6461.17
915.366	6403.55
915.678	6344.79
915.99	6372.36
916.302	6340.27
916.613	6355.86
916.925	6329.65
917.236	6296.88
917.548	6209.88
917.859	6270.67
918.171	6218.47
918.482	6196.09
918.794	6147.73
919.105	6091.69
919.416	6094.4
919.727	6041.75
920.038	6062.31
920.349	5987.06
920.66	5995.87
920.971	6018.47
921.282	5953.39
921.593	5922.66
921.903	5850.79
922.214	5874.07
922.525	5892.6
922.835	5860.06
923.146	5767.63
923.456	5751.59
923.767	5747.97
924.077	5742.77
924.387	5681.31
924.697	5637.24
925.008	5636.79
925.318	5633.17
925.628	5623.91
925.938	5571.7
926.248	5577.35
926.558	5505.26
926.867	5502.78
927.177	5483.57
927.487	5439.28
927.796	5448.54
928.106	5430.24
928.416	5390.69
928.725	5338.26
929.034	5331.26
929.344	5315.89
929.653	5309.11
929.962	5296.91
930.271	5271.82
930.581	5256.01
930.89	5199.06
931.199	5170.36
931.508	5182.34
931.817	5145.05
932.125	5103.92
932.434	5095.33
932.743	5059.4
933.051	5048.33
933.36	5032.96
933.669	4981.89
933.977	4987.76
934.286	5006.52
934.594	4932.85
934.902	4906.64
935.21	4904.15
935.519	4907.54
935.827	4860.99
936.135	4831.38
936.443	4803.81
936.751	4792.29
937.059	4776.7
937.367	4768.56
937.674	4741.44
937.982	4764.04
938.29	4719.97
938.597	4716.59
938.905	4650.82
939.213	4649.69
939.52	4602.24
939.827	4587.1
940.135	4572.63
940.442	4594.1
940.749	4561.33
941.056	4544.84
941.363	4528.12
941.67	4466.65
941.977	4444.05
942.284	4451.51
942.591	4442.02
942.898	4432.98
943.205	4388.91
943.511	4429.81
943.818	4376.48
944.125	4357.5
944.431	4362.7
944.738	4338.97
945.044	4292.19
945.35	4296.48
945.657	4241.12
945.963	4247.9
946.269	4174.9
946.575	4259.87
946.881	4173.77
947.187	4197.5
947.493	4130.61
947.799	4126.32
948.105	4091.74
948.41	4115.02
948.716	4083.16
949.022	4038.64
949.327	4048.58
949.633	3991.63
949.938	3998.86
950.244	3997.73
950.549	3981.92
950.854	3962.25
951.16	3955.48
951.465	3912.31
951.77	3978.98
952.075	3903.05
952.38	3914.35
952.685	3880.67
952.99	3848.13
953.294	3826.21
953.599	3818.76
953.904	3811.07
954.209	3811.98
954.513	3782.6
954.818	3731.98
955.122	3755.25
955.426	3751.19
955.731	3748.47
956.035	3652.88
956.339	3661.25
956.643	3698.53
956.948	3659.44
957.252	3657.63
957.556	3616.73
957.86	3627.8
958.163	3589.61
958.467	3562.04
958.771	3567.01
959.075	3590.74
959.378	3517.07
959.682	3513
959.985	3532.21
960.289	3480.23
960.592	3460.8
960.896	3438.43
961.199	3408.37
961.502	3409.27
961.805	3368.37
962.108	3350.29
962.411	3330.41
962.714	3355.26
963.017	3336.06
963.32	3351.2
963.623	3305.55
963.926	3322.5
964.228	3300.35
964.531	3270.52
964.833	3249.05
965.136	3245.21
965.438	3221.03
965.741	3236.85
966.043	3212.44
966.345	3236.4
966.648	3161.82
966.95	3158.21
967.252	3161.37
967.554	3134.25
967.856	3094.25
968.158	3099.23
968.46	3068.04
968.761	3051.09
969.063	2985.56
969.365	3049.51
969.666	3050.64
969.968	3024.65
970.269	3011.55
970.571	2987.14
970.872	2971.09
971.174	2963.41
971.475	2950.3
971.776	2937.87
972.077	2934.94
972.378	2899.46
972.679	2908.72
972.98	2928.38
973.281	2899.91
973.582	2875.05
973.883	2875.96
974.183	2849.74
974.484	2836.86
974.785	2841.83
975.085	2815.17
975.386	2786.69
975.686	2790.76
975.986	2777.88
976.287	2758.44
976.587	2711.67
976.887	2767.03
977.187	2762.29
977.487	2732.46
977.787	2709.86
978.087	2672.34
978.387	2679.58
978.687	2659.92
978.987	2670.54
979.286	2637.09
979.586	2637.54
979.885	2620.59
980.185	2597.32
980.484	2613.82
980.784	2607.49
981.083	2600.93
981.382	2575.62
981.682	2576.98
981.981	2555.51
982.28	2563.2
982.579	2531.33
982.878	2529.52
983.177	2495.4
983.475	2506.7
983.774	2499.69
984.073	2426.25
984.372	2468.96
984.67	2442.97
984.969	2448.85
985.267	2450.43
985.566	2432.13
985.864	2403.65
986.162	2402.07
986.461	2410.2
986.759	2354.39
987.057	2359.13
987.355	2328.63
987.653	2343.09
987.951	2346.93
988.249	2332.92
988.547	2312.58
988.844	2314.39
989.142	2293.82
989.44	2299.47
989.737	2255.86
990.035	2226.26
990.332	2233.71
990.63	2260.83
990.927	2202.3
991.224	2191.91
991.521	2202.07
991.819	2198.01
992.116	2191.68
992.413	2156.88
992.71	2173.15
993.006	2172.02
993.303	2107.61
993.6	2138.8
993.897	2132.7
994.193	2131.57
994.49	2111.23
994.787	2091.57
995.083	2063.55
995.379	2068.75
995.676	2081.17
995.972	2056.99
996.268	2062.64
996.565	2034.62
996.861	2021.51
997.157	2031.68
997.453	2016.77
997.749	2043.21
998.044	1979.26
998.34	1974.06
998.636	1976.77
998.932	1966.15
999.227	1946.26
999.523	1944.23
999.818	1939.03
1000.114	1941.74
1000.409	1913.72
1000.704	1918.24
1001	1907.39
1001.295	1877.11
1001.59	1854.74
1001.885	1845.47
1002.18	1826.49
1002.475	1867.85
1002.77	1840.28
1003.065	1821.97
1003.359	1828.53
1003.654	1789.2
1003.949	1794.18
1004.243	1786.27
1004.538	1765.48
1004.832	1771.13
1005.127	1737.91
1005.421	1763.67
1005.715	1742.65
1006.009	1727.06
1006.304	1718.92
1006.598	1707.62
1006.892	1658.13
1007.186	1672.82
1007.48	1667.85
1007.773	1683.67
1008.067	1664.91
1008.361	1634.41
1008.655	1607.29
1008.948	1615.88
1009.242	1621.07
1009.535	1587.4
1009.829	1599.6
1010.122	1577.91
1010.415	1592.15
1010.708	1598.02
1011.001	1572.26
1011.295	1549.89
1011.588	1558.93
1011.881	1530
1012.173	1521.41
1012.466	1526.84
1012.759	1494.75
1013.052	1511.25
1013.344	1509.89
1013.637	1508.76
1013.93	1462.21
1014.222	1498.59
1014.514	1466.5
1014.807	1464.02
1015.099	1454.07
1015.391	1466.05
1015.683	1445.71
1015.976	1426.5
1016.268	1445.48
1016.56	1403.23
1016.851	1394.19
1017.143	1383.34
1017.435	1375.66
1017.727	1360.74
1018.018	1341.76
1018.31	1367.97
1018.602	1336.56
1018.893	1348.31
1019.185	1323.45
1019.476	1327.75
1019.767	1330.46
1020.058	1283.68
1020.35	1285.26
1020.641	1312.15
1020.932	1273.06
1021.223	1256.56
1021.514	1260.4
1021.804	1252.95
1022.095	1234.64
1022.386	1238.03
1022.677	1242.33
1022.967	1243.91
1023.258	1205.26
1023.548	1212.95
1023.839	1219.95
1024.129	1201.42
1024.419	1180.63
1024.709	1178.37
1025	1166.85
1025.29	1140.18
1025.58	1162.78
1025.87	1143.35
1026.16	1140.18
1026.449	1132.72
1026.739	1140.86
1027.029	1102.67
1027.319	1101.31
1027.608	1110.35
1027.898	1102.67
1028.187	1096.79
1028.477	1075.1
1028.766	1086.4
1029.055	1060.64
1029.344	1075.55
1029.634	1036.68
1029.923	1057.7
1030.212	1043.69
1030.501	1028.09
1030.79	1022.67
1031.078	1031.03
1031.367	1014.99
1031.656	1028.09
1031.945	992.84
1032.233	989
1032.522	1000.3
1032.81	993.29
1033.099	994.2
1033.387	971.82
1033.675	945.38
1033.963	968.43
1034.251	987.64
1034.54	954.65
1034.828	942.45
1035.116	936.57
1035.403	927.53
1035.691	924.37
1035.979	902.22
1036.267	906.52
1036.554	913.3
1036.842	914.43
1037.129	929.11
1037.417	877.36
1037.704	905.84
1037.992	887.76
1038.279	869
1038.566	873.07
1038.853	873.07
1039.14	873.07
