Data from blue_clamp_base_FLMS001491_00014.txt Node
Date: Wed Feb 08 15:15:37 GMT 2017
User: dcchb
Spectrometer: FLMS00149
Trigger mode: 0
Integration Time (sec): 2.000000E-2
Scans to average: 10
Electric dark correction enabled: true
Nonlinearity correction enabled: false
Boxcar width: 0
XAxis mode: Wavelengths
Number of Pixels in Spectrum: 2048
>>>>>Begin Spectral Data<<<<<
341.393	-15.14
341.776	-15.14
342.16	-15.14
342.543	-61.02
342.927	-55.37
343.31	-88.36
343.693	-65.99
344.077	-79.09
344.46	-60.56
344.843	-44.97
345.226	-42.03
345.61	-35.03
345.993	-5.88
346.376	-11.98
346.759	3.62
347.142	10.4
347.525	53.56
347.908	79.32
348.291	74.12
348.674	96.49
349.057	116.38
349.44	123.39
349.823	139.43
350.206	155.25
350.588	188.92
350.971	211.07
351.354	219.88
351.737	241.8
352.119	272.76
352.502	249.94
352.884	267.56
353.267	277.51
353.65	308.47
354.032	297.39
354.414	303.27
354.797	322.25
355.179	319.09
355.562	310.73
355.944	317.05
356.326	319.09
356.709	341.46
357.091	341.01
357.473	355.47
357.855	332.42
358.238	341.91
358.62	333.78
359.002	353.21
359.384	350.73
359.766	345.08
360.148	334.68
360.53	337.62
360.912	327.68
361.294	357.28
361.676	336.71
362.057	340.78
362.439	326.09
362.821	316.6
363.203	319.99
363.584	350.05
363.966	331.29
364.348	298.75
364.729	321.12
365.111	321.12
365.493	349.14
365.874	323.16
366.256	315.7
366.637	306.66
367.019	321.57
367.4	317.96
367.781	333.1
368.163	321.12
368.544	332.87
368.925	325.19
369.306	327.68
369.688	318.41
370.069	293.55
370.45	301.69
370.831	323.38
371.212	318.18
371.593	324.29
371.974	304.85
372.355	316.38
372.736	321.12
373.117	333.32
373.498	309.6
373.879	327.22
374.26	319.99
374.641	324.29
375.021	337.39
375.402	343.49
375.783	310.73
376.163	321.8
376.544	332.87
376.925	335.58
377.305	343.95
377.686	331.74
378.066	332.87
378.447	345.08
378.827	349.37
379.208	344.17
379.588	333.1
379.968	352.31
380.349	355.92
380.729	355.47
381.109	345.98
381.489	330.61
381.87	348.69
382.25	326.77
382.63	349.82
383.01	338.52
383.39	361.57
383.77	374.91
384.15	350.95
384.53	345.75
384.91	376.04
385.29	363.61
385.67	378.97
386.049	354.79
386.429	381.23
386.809	367.45
387.189	393.44
387.568	388.01
387.948	391.4
388.328	407.22
388.707	389.82
389.087	364.28
389.466	379.88
389.846	399.76
390.225	405.64
390.605	429.82
390.984	395.02
391.363	415.36
391.743	411.06
392.122	407.67
392.501	438.41
392.881	430.5
393.26	449.25
393.639	429.59
394.018	437.95
394.397	438.63
394.776	442.7
395.155	439.76
395.534	443.83
395.913	461.23
396.292	476.15
396.671	469.14
397.05	468.46
397.429	472.53
397.808	484.51
398.186	466.2
398.565	472.76
398.944	495.81
399.323	472.76
399.701	508.91
400.08	493.09
400.458	505.98
400.837	514.11
401.215	530.83
401.594	517.73
401.972	514.79
402.351	533.77
402.729	536.48
403.107	560.21
403.486	551.17
403.864	546.43
404.242	539.87
404.62	533.77
404.999	553.43
405.377	572.41
405.755	594.56
406.133	581.45
406.511	590.94
406.889	605.18
407.267	604.05
407.645	601.11
408.023	634.33
408.401	626.2
408.779	639.98
409.156	670.26
409.534	657.16
409.912	661.9
410.29	666.65
410.667	692.41
411.045	672.52
411.422	689.7
411.8	701.9
412.178	695.8
412.555	713.88
412.933	722.24
413.31	719.53
413.687	736.93
414.065	769.25
414.442	743.71
414.819	764.95
415.197	751.62
415.574	759.98
415.951	788.23
416.328	820.32
416.705	806.08
417.082	802.01
417.46	808.57
417.837	823.03
418.214	835.68
418.591	813.76
418.967	842.24
419.344	869.58
419.721	869.81
420.098	860.77
420.475	900.32
420.852	867.32
421.228	886.98
421.605	903.48
421.982	886.53
422.358	909.58
422.735	922.91
423.111	925.85
423.488	951.16
423.864	926.76
424.241	959.07
424.617	961.1
424.994	991.84
425.37	1020.09
425.746	1001.78
426.123	1010.14
426.499	1043.59
426.875	1025.51
427.251	1053.98
427.627	1074.1
428.003	1062.34
428.379	1079.97
428.756	1091.72
429.132	1111.38
429.507	1128.33
429.883	1134.66
430.259	1156.58
430.635	1165.39
431.011	1178.05
431.387	1218.27
431.763	1235
432.138	1247.42
432.514	1267.31
432.89	1237.26
433.265	1318.16
433.641	1321.32
434.016	1287.42
434.392	1329.23
434.767	1381.88
435.143	1348.21
435.518	1404.48
435.894	1394.31
436.269	1408.78
436.644	1445.39
437.02	1445.16
437.395	1436.8
437.77	1463.69
438.145	1494.42
438.52	1503.01
438.895	1503.01
439.271	1533.74
439.646	1561.99
440.021	1568.55
440.395	1587.3
440.77	1586.4
441.145	1611.03
441.52	1616.68
441.895	1662.33
442.27	1639.5
442.645	1659.17
443.019	1675.66
443.394	1658.26
443.769	1713.85
444.143	1675.44
444.518	1744.81
444.892	1727.86
445.267	1748.65
445.641	1793.17
446.016	1757.24
446.39	1804.02
446.764	1821.42
447.139	1815.77
447.513	1858.26
447.887	1859.84
448.262	1843.34
448.636	1843.57
449.01	1912.04
449.384	1907.07
449.758	1931.47
450.132	1934.64
450.506	1964.92
450.88	1959.95
451.254	1984.58
451.628	2013.51
452.002	2039.04
452.376	2045.6
452.75	2065.93
453.123	2109.55
453.497	2130.79
453.871	2109.1
454.244	2159.27
454.618	2162.66
454.992	2223.67
455.365	2235.87
455.739	2263.67
456.112	2253.27
456.486	2288.53
456.859	2307.28
457.232	2371.46
457.606	2382.08
457.979	2427.96
458.352	2428.64
458.725	2478.35
459.099	2487.39
459.472	2536.43
459.845	2533.72
460.218	2580.95
460.591	2570.55
460.964	2630.67
461.337	2642.42
461.71	2678.8
462.083	2744.79
462.456	2739.14
462.829	2741.17
463.201	2771
463.574	2801.73
463.947	2848.74
464.32	2874.5
464.692	2925.57
465.065	2951.33
465.438	2973.03
465.81	2995.4
466.183	3022.07
466.555	3092.8
466.928	3127.83
467.3	3105
467.672	3128.96
468.045	3262.74
468.417	3232.23
468.789	3247.82
469.161	3310.2
469.534	3369.18
469.906	3450.3
470.278	3458.89
470.65	3480.36
471.022	3513.81
471.394	3545.9
471.766	3580.47
472.138	3615.05
472.51	3701.37
472.882	3766.45
473.253	3812.1
473.625	3819.79
473.997	3925.77
474.369	3939.78
474.74	3974.36
475.112	4075.6
475.484	4077.63
475.855	4157.86
476.227	4173.9
476.598	4271.53
476.97	4292.99
477.341	4394.69
477.713	4467.91
478.084	4473.78
478.455	4573.67
478.827	4640.56
479.198	4669.71
479.569	4722.59
479.94	4822.47
480.311	4828.12
480.682	4932.98
481.053	5048
481.424	5115.12
481.795	5157.15
482.166	5207.55
482.537	5246.42
482.908	5335.23
483.279	5369.8
483.65	5410.71
484.021	5584.26
484.391	5594.43
484.762	5623.58
485.133	5642.11
485.503	5755.78
485.874	5800.98
486.244	5818.83
486.615	5923.23
486.985	5984.7
487.356	6052.72
487.726	6140.86
488.097	6168.43
488.467	6224.47
488.837	6357.8
489.207	6368.87
489.578	6461.07
489.948	6442.54
490.318	6498.59
490.688	6558.47
491.058	6662.2
491.428	6738.13
491.798	6770.9
492.168	6879.59
492.538	6859.25
492.908	6901.74
493.278	6936.54
493.648	6999.82
494.017	7044.79
494.387	7132.69
494.757	7135.18
495.126	7146.48
495.496	7169.98
495.866	7234.16
496.235	7249.53
496.605	7285.91
496.974	7340.6
497.344	7366.13
497.713	7398.68
498.082	7442.52
498.452	7477.54
498.821	7493.59
499.19	7483.42
499.559	7641.61
499.928	7631.66
500.298	7611.78
500.667	7702.17
501.036	7665.34
501.405	7760.47
501.774	7696.75
502.143	7700.14
502.512	7800.7
502.88	7838.89
503.249	7805.22
503.618	7944.65
503.987	7877.08
504.356	7964.31
504.724	7997.98
505.093	7952.79
505.462	8006.8
505.83	8041.82
506.199	8109.17
506.567	8163.85
506.936	8124.31
507.304	8151.65
507.672	8214.7
508.041	8180.58
508.409	8277.97
508.777	8335.37
509.145	8360.91
509.514	8383.73
509.882	8428.93
510.25	8456.05
510.618	8431.19
510.986	8513.22
511.354	8555.26
511.722	8549.38
512.09	8616.72
512.458	8621.47
512.826	8664.4
513.193	8700.79
513.561	8680.68
513.929	8764.74
514.297	8754.8
514.664	8819.66
515.032	8870.28
515.4	8866.89
515.767	8906.88
516.135	8951.18
516.502	8843.61
516.869	8996.6
517.237	9072.08
517.604	9020.1
517.972	9093.77
518.339	9042.93
518.706	9100.55
519.073	9108.46
519.44	9077.28
519.808	9281.56
520.175	9185.52
520.542	9282.92
520.909	9335.35
521.276	9355.91
521.643	9407.89
522.009	9448.11
522.376	9559.52
522.743	9530.14
523.11	9609.24
523.477	9717.94
523.843	9753.64
524.21	9785.28
524.577	9834.77
524.943	9863.7
525.31	9857.82
525.676	9967.2
526.043	10005.84
526.409	10069.34
526.776	10118.38
527.142	10154.31
527.508	10174.42
527.874	10235.66
528.241	10230.24
528.607	10302.33
528.973	10329.45
529.339	10413.96
529.705	10485.6
530.071	10515.88
530.437	10557.91
530.803	10625.71
531.169	10660.96
531.535	10579.61
531.901	10658.7
532.267	10641.53
532.632	10665.03
532.998	10750
533.364	10863.44
533.73	10874.52
534.095	10946.15
534.461	10926.94
534.826	11070.9
535.192	10994.51
535.557	11064.12
535.923	11013.5
536.288	11127.17
536.653	11199.48
537.019	11105.7
537.384	11142.76
537.749	11209.2
538.114	11192.02
538.479	11275.64
538.845	11320.61
539.21	11284.9
539.575	11328.29
539.94	11424.11
540.305	11413.71
540.67	11401.06
541.034	11382.07
541.399	11586.81
541.764	11572.13
542.129	11525.8
542.494	11604.67
542.858	11636.76
543.223	11654.16
543.587	11653.48
543.952	11668.62
544.316	11751.56
544.681	11690.09
545.045	11864.32
545.41	11822.06
545.774	11841.95
546.138	11900.48
546.503	11924.43
546.867	11845.56
547.231	12011.44
547.595	11956.75
547.959	11962.85
548.324	11936.18
548.688	11999.46
549.052	12084.88
549.416	12116.07
549.779	12132.11
550.143	12158.55
550.507	12204.42
550.871	12197.42
551.235	12230.86
551.599	12335.72
551.962	12317.87
552.326	12349.05
552.689	12386.79
553.053	12328.04
553.417	12350.18
553.78	12530.52
554.143	12475.38
554.507	12467.02
554.87	12521.93
555.234	12631.08
555.597	12634.24
555.96	12638.31
556.323	12610.29
556.686	12655.03
557.05	12729.83
557.413	12708.14
557.776	12760.79
558.139	12803.51
558.502	12829.49
558.865	12899.1
559.228	12932.77
559.59	12969.15
559.953	12986.78
560.316	13095.25
560.679	13140.67
561.041	13120.56
561.404	13235.81
561.767	13257.28
562.129	13253.66
562.492	13339.76
562.854	13329.59
563.217	13380.89
563.579	13470.15
563.941	13535.01
564.304	13519.42
564.666	13642.81
565.028	13556.25
565.39	13629.92
565.753	13663.14
566.115	13687.1
566.477	13790.82
566.839	13850.26
567.201	13829.01
567.563	13936.58
567.925	14065.39
568.287	13974.77
568.648	14149.23
569.01	14153.53
569.372	14251.6
569.734	14200.53
570.095	14298.38
570.457	14272.39
570.819	14402.11
571.18	14376.57
571.542	14527.53
571.903	14485.04
572.265	14585.83
572.626	14501.09
572.987	14609.56
573.349	14585.38
573.71	14711.7
574.071	14765.26
574.432	14850.46
574.794	14981.98
575.155	14868.54
575.516	14834.86
575.877	14976.56
576.238	14978.59
576.599	15020.62
576.96	15052.03
577.32	15054.97
577.681	15092.03
578.042	15134.07
578.403	15197.11
578.763	15164.57
579.124	15293.84
579.485	15249.32
579.845	15310.33
580.206	15262.65
580.566	15312.59
580.927	15402.08
581.287	15393.72
581.648	15344.46
582.008	15463.1
582.368	15399.82
582.728	15491.34
583.089	15483.43
583.449	15509.65
583.809	15492.7
584.169	15507.39
584.529	15525.24
584.889	15628.29
585.249	15531.57
585.609	15556.43
585.969	15567.05
586.329	15558.01
586.688	15590.55
587.048	15706.25
587.408	15633.49
587.768	15600.49
588.127	15622.41
588.487	15616.99
588.846	15713.71
589.206	15596.65
589.565	15666.48
589.925	15684.33
590.284	15638.46
590.643	15691.11
591.003	15789.64
591.362	15759.36
591.721	15784.22
592.08	15770.66
592.44	15927.26
592.799	15858.34
593.158	15783.99
593.517	15843.88
593.876	15897.89
594.235	15744.67
594.593	15829.64
594.952	15881.39
595.311	15819.47
595.67	15860.6
596.029	15968.85
596.387	15943.54
596.746	15976.08
597.104	15899.02
597.463	15966.59
597.822	15999.35
598.18	15916.87
598.538	15907.38
598.897	16034.15
599.255	15950.32
599.613	16120.48
599.972	16035.51
600.33	16066.92
600.688	16038.22
601.046	16038.45
601.404	16193.47
601.762	16120.25
602.12	16163.87
602.478	16173.59
602.836	16198.44
603.194	16102.18
603.552	16137.88
603.91	16105.79
604.268	16181.72
604.625	16202.51
604.983	16275.73
605.341	16148.05
605.698	16156.41
606.056	16232.79
606.413	16266.92
606.771	16323.86
607.128	16321.6
607.485	16256.3
607.843	16264.21
608.2	16377.65
608.557	16425.56
608.914	16352.11
609.272	16492.45
609.629	16470.53
609.986	16571.77
610.343	16435.5
610.7	16577.87
611.057	16588.04
611.414	16428.27
611.771	16496.52
612.127	16555.72
612.484	16547.59
612.841	16683.18
613.198	16626.46
613.554	16569.73
613.911	16683.63
614.267	16636.17
614.624	16664.42
614.98	16777.86
615.337	16814.93
615.693	16822.38
616.05	16721.14
616.406	16923.85
616.762	16820.35
617.118	16829.61
617.475	16865.09
617.831	17005.43
618.187	16917.3
618.543	17005.65
618.899	17034.35
619.255	17003.17
619.611	17057.4
619.967	17091.98
620.323	17091.75
620.678	17046.11
621.034	16995.71
621.39	17108.02
621.746	17052.43
622.101	17232.09
622.457	17021.47
622.812	17162.49
623.168	17181.02
623.523	17163.39
623.879	17279.55
624.234	17119.78
624.589	17249.26
624.945	17193.45
625.3	17221.47
625.655	17276.38
626.01	17254.01
626.365	17355.25
626.72	17297.4
627.075	17340.34
627.43	17373.1
627.785	17305.31
628.14	17490.84
628.495	17438.41
628.85	17325.42
629.205	17364.29
629.559	17506.21
629.914	17385.08
630.269	17537.17
630.623	17479.77
630.978	17390.96
631.332	17551.4
631.687	17531.97
632.041	17422.37
632.396	17484.06
632.75	17423.27
633.104	17517.51
633.459	17434.8
633.813	17513.44
634.167	17499.88
634.521	17630.27
634.875	17543.72
635.229	17492.87
635.583	17519.54
635.937	17526.54
636.291	17527.22
636.645	17440.9
636.999	17651.29
637.352	17583.04
637.706	17530.16
638.06	17597.73
638.413	17591.85
638.767	17543.27
639.121	17573.32
639.474	17460.78
639.828	17490.16
640.181	17536.04
640.534	17626.66
640.888	17640.67
641.241	17494
641.594	17578.75
641.947	17696.48
642.301	17552.53
642.654	17649.03
643.007	17626.66
643.36	17646.32
643.713	17623.72
644.066	17720.44
644.419	17581.23
644.771	17542.82
645.124	17317.06
645.477	17458.52
645.83	17312.09
646.182	17310.28
646.535	17253.11
646.888	17327.23
647.24	17187.57
647.593	17237.51
647.945	17316.61
648.298	17189.83
648.65	17156.84
649.002	17141.02
649.355	17378.3
649.707	17355.48
650.059	17322.93
650.411	17701.23
650.763	17766.76
651.115	17833.2
651.467	17818.06
651.819	17900.09
652.171	17835.69
652.523	17781.91
652.875	17843.15
653.227	17686.77
653.578	17974.22
653.93	17826.65
654.282	17740.1
654.633	17783.94
654.985	17868
655.337	17763.15
655.688	17874.33
656.039	18029.13
656.391	17797.95
656.742	17870.72
657.094	17907.55
657.445	17998.17
657.796	17993.2
658.147	17882.47
658.498	17932.86
658.849	17908.46
659.2	17917.72
659.551	17844.28
659.902	17979.19
660.253	17996.59
660.604	18027.32
660.955	17929.47
661.306	17915.01
661.656	17952.97
662.007	18030.94
662.358	17912.52
662.708	17950.26
663.059	17943.71
663.409	17939.19
663.76	18016.7
664.11	17899.87
664.461	18053.54
664.811	17967.21
665.161	18035.01
665.511	17934.22
665.862	17957.04
666.212	17970.6
666.562	18004.95
666.912	17956.82
667.262	17973.09
667.612	17988.23
667.962	18007.66
668.312	17978.06
668.662	18053.08
669.011	17880.21
669.361	17928.12
669.711	17896.48
670.06	17899.19
670.41	17775.58
670.76	17752.98
671.109	17858.29
671.459	17841.11
671.808	17782.81
672.157	17820.32
672.507	17703.94
672.856	17704.17
673.205	17770.61
673.554	17680.44
673.904	17696.26
674.253	17724.73
674.602	17612.64
674.951	17482.03
675.3	17332.65
675.649	17509.14
675.998	17536.04
676.346	17472.99
676.695	17525.64
677.044	17402.03
677.393	17422.82
677.741	17374.68
678.09	17356.83
678.438	17308.02
678.787	17308.92
679.135	17322.26
679.484	17242.71
679.832	17227.34
680.181	17117.29
680.529	17315.02
680.877	17157.74
681.225	17087.69
681.573	17220.79
681.922	17027.35
682.27	16931.31
682.618	17008.59
682.966	17041.36
683.314	17023.51
683.661	16867.81
684.009	16874.13
684.357	16790.07
684.705	16738.09
685.053	16791.65
685.4	16792.55
685.748	16738.77
686.095	16713.01
686.443	16682.05
686.79	16565.89
687.138	16641.82
687.485	16583.52
687.832	16437.99
688.18	16563.41
688.527	16408.38
688.874	16403.18
689.221	16390.08
689.568	16414.03
689.915	16335.62
690.262	16306.92
690.609	16392.11
690.956	16211.78
691.303	16282.96
691.65	16135.39
691.997	16157.32
692.344	16127.71
692.69	16039.8
693.037	16178.56
693.383	15953.03
693.73	16048.62
694.077	15972.46
694.423	15893.37
694.769	15940.37
695.116	15926.13
695.462	15864.67
695.808	15866.7
696.155	15952.57
696.501	15861.05
696.847	15796.19
697.193	15737.89
697.539	15793.03
697.885	15697.89
698.231	15548.52
698.577	15696.54
698.923	15626.93
699.269	15634.62
699.614	15588.29
699.96	15532.25
700.306	15577.44
700.651	15544.68
700.997	15424.68
701.342	15487.95
701.688	15398.24
702.033	15395.53
702.379	15385.36
702.724	15348.3
703.069	15444.11
703.415	15173.16
703.76	15338.81
704.105	15279.37
704.45	15305.59
704.795	15241.86
705.14	15256.55
705.485	15146.72
705.83	15187.17
706.175	15179.71
706.52	15104.01
706.865	15063.11
707.209	15092.94
707.554	14955.54
707.899	15105.14
708.243	15102.43
708.588	15001.41
708.932	14958.02
709.277	14995.09
709.621	14894.98
709.966	14871.7
710.31	14859.72
710.654	14800.06
710.998	14818.59
711.342	14880.74
711.687	14852.94
712.031	14868.54
712.375	14742.21
712.719	14864.24
713.063	14865.6
713.407	14785.83
713.75	14812.49
714.094	14746.28
714.438	14698.37
714.782	14667.41
715.125	14645.94
715.469	14786.73
715.812	14612.27
716.156	14548.77
716.499	14648.2
716.843	14623.34
717.186	14510.8
717.53	14620.41
717.873	14602.55
718.216	14587.41
718.559	14579.5
718.902	14430.81
719.246	14520.07
719.589	14549.67
719.932	14433.07
720.275	14414.31
720.617	14469.22
720.96	14438.04
721.303	14353.52
721.646	14494.76
721.989	14380.64
722.331	14420.19
722.674	14442.33
723.016	14388.32
723.359	14446.4
723.701	14406.17
724.044	14351.71
724.386	14347.19
724.729	14374.09
725.071	14339.96
725.413	14373.18
725.755	14348.55
726.097	14271.26
726.439	14257.93
726.782	14237.59
727.124	14370.92
727.465	14255.22
727.807	14168.89
728.149	14241.66
728.491	14197.82
728.833	14217.48
729.175	14228.33
729.516	14224.94
729.858	14255.9
730.199	14309
730.541	14160.31
730.882	14210.47
731.224	14222.22
731.565	14186.97
731.906	14226.52
732.248	14252.05
732.589	14200.53
732.93	14225.61
733.271	14222.9
733.612	14230.36
733.953	14315.33
734.294	14264.03
734.635	14241.43
734.976	14368.21
735.317	14257.93
735.658	14276.01
735.999	14370.92
736.339	14291.6
736.68	14375.22
737.021	14240.76
737.361	14319.85
737.702	14385.16
738.042	14420.19
738.383	14406.4
738.723	14479.39
739.063	14372.28
739.404	14400.07
739.744	14451.37
740.084	14430.13
740.424	14414.76
740.764	14492.73
741.104	14634.87
741.444	14411.37
741.784	14479.85
742.124	14546.06
742.464	14558.04
742.804	14575.89
743.143	14547.87
743.483	14700.4
743.823	14526.62
744.162	14546.96
744.502	14603.23
744.841	14579.5
745.181	14659.28
745.52	14636.23
745.86	14739.05
746.199	14699.27
746.538	14770.01
746.877	14902.88
747.216	14885.71
747.556	14829.67
747.895	14854.75
748.234	14869.67
748.573	14925.03
748.911	14856.56
749.25	14945.6
749.589	14975.88
749.928	14968.65
750.267	15027.4
750.605	15071.47
750.944	15116.21
751.283	15085.93
751.621	15186.72
751.96	15087.74
752.298	15075.54
752.636	15209.09
752.975	15146.49
753.313	15209.77
753.651	15174.29
753.989	15188.53
754.327	15225.81
754.666	15145.36
755.004	15254.06
755.342	15303.55
755.679	15264.68
756.017	15232.82
756.355	15355.75
756.693	15339.03
757.031	15419.26
757.368	15301.07
757.706	15390.1
758.044	15349.2
758.381	15391.69
758.719	15350.56
759.056	15472.81
759.394	15400.95
759.731	15414.96
760.068	15489.31
760.405	15494.51
760.743	15424.91
761.08	15519.37
761.417	15432.14
761.754	15520.95
762.091	15469.2
762.428	15462.42
762.765	15422.19
763.102	15540.16
763.438	15443.44
763.775	15490.67
764.112	15474.4
764.449	15595.07
764.785	15520.72
765.122	15455.64
765.458	15492.25
765.795	15449.09
766.131	15512.81
766.467	15555.3
766.804	15525.47
767.14	15453.15
767.476	15455.86
767.812	15479.14
768.148	15476.43
768.485	15499.25
768.821	15376.09
769.157	15410.67
769.492	15494.06
769.828	15464.68
770.164	15308.98
770.5	15391.46
770.836	15397.34
771.171	15386.71
771.507	15334.29
771.842	15311.69
772.178	15348.3
772.513	15241.18
772.849	15340.61
773.184	15325.25
773.519	15395.3
773.855	15230.79
774.19	15291.12
774.525	15325.92
774.86	15322.76
775.195	15300.39
775.53	15228.53
775.865	15196.66
776.2	15211.58
776.535	15098.36
776.87	15205.02
777.205	15132.03
777.539	15143.78
777.874	15201.63
778.209	15006.39
778.543	15064.24
778.878	15107.85
779.212	15016.1
779.547	14930.45
779.881	15085.93
780.215	15015.88
780.55	15045.71
780.884	14960.28
781.218	14999.61
781.552	14999.83
781.886	14866.05
782.22	14881.42
782.554	14894.52
782.888	14791.02
783.222	14766.84
783.556	14749.44
783.889	14712.16
784.223	14613.4
784.557	14704.47
784.89	14669.9
785.224	14639.62
785.557	14627.64
785.891	14578.37
786.224	14611.59
786.558	14598.94
786.891	14539.96
787.224	14391.94
787.557	14457.47
787.891	14448.66
788.224	14496.57
788.557	14520.52
788.89	14400.53
789.223	14525.27
789.556	14378.83
789.888	14405.27
790.221	14323.92
790.554	14386.97
790.887	14270.13
791.219	14250.02
791.552	14293.86
791.884	14237.37
792.217	14259.51
792.549	14197.82
792.882	14058.61
793.214	14154.2
793.546	14172.06
793.879	14121.66
794.211	13989.91
794.543	14024.72
794.875	13990.82
795.207	14068.56
795.539	13962.57
795.871	14020.42
796.203	14016.35
796.535	13850.48
796.867	13895.23
797.198	13812.97
797.53	13872.18
797.862	13772.07
798.193	13872.86
798.525	13806.64
798.856	13768.45
799.188	13634.44
799.519	13746.31
799.85	13598.74
800.182	13606.87
800.513	13736.81
800.844	13599.42
801.175	13705.4
801.506	13667.44
801.837	13571.85
802.168	13595.57
802.499	13533.43
802.83	13507.89
803.161	13453.66
803.491	13487.1
803.822	13478.74
804.153	13380.21
804.483	13295.24
804.814	13258.18
805.145	13387.67
805.475	13338.86
805.805	13328.24
806.136	13250.05
806.466	13288.69
806.796	13303.6
807.126	13189.26
807.457	13176.83
807.787	13143.84
808.117	13115.14
808.447	13112.2
808.777	13209.14
809.107	13032.2
809.436	13037.17
809.766	13089.83
810.096	13019.77
810.426	12916.5
810.755	13012.99
811.085	12928.47
811.414	12916.27
811.744	12871.53
812.073	12883.96
812.403	12810.06
812.732	12808.7
813.061	12749.27
813.39	12758.08
813.719	12732.55
814.049	12840.34
814.378	12688.93
814.707	12720.12
815.036	12725.99
815.365	12646.67
815.693	12553.57
816.022	12494.59
816.351	12627.46
816.68	12430.63
817.008	12564.42
817.337	12466.11
817.665	12425.21
817.994	12427.47
818.322	12323.52
818.651	12375.27
818.979	12415.72
819.307	12428.15
819.636	12313.12
819.964	12314.48
820.292	12339.79
820.62	12279.68
820.948	12234.25
821.276	12310.64
821.604	12247.59
821.932	12296.17
822.259	12340.24
822.587	12282.16
822.915	12269.06
823.243	12313.57
823.57	12316.51
823.898	12345.21
824.225	12293.91
824.553	12310.41
824.88	12289.17
825.207	12370.07
825.535	12417.3
825.862	12367.13
826.189	12344.76
826.516	12425.89
826.843	12382.5
827.17	12488.03
827.497	12377.08
827.824	12443.74
828.151	12467.47
828.478	12433.12
828.805	12465.43
829.131	12332.11
829.458	12349.51
829.785	12383.4
830.111	12359.68
830.438	12508.82
830.764	12489.39
831.09	12409.17
831.417	12327.81
831.743	12386.57
832.069	12465.89
832.395	12362.61
832.722	12415.04
833.048	12370.3
833.374	12398.09
833.7	12370.07
834.026	12372.78
834.351	12341.14
834.677	12335.27
835.003	12349.05
835.329	12388.37
835.654	12411.2
835.98	12294.14
836.306	12306.12
836.631	12304.08
836.956	12264.08
837.282	12326.68
837.607	12219.34
837.932	12243.75
838.258	12226.12
838.583	12189.06
838.908	12131.21
839.233	12172.34
839.558	12168.95
839.883	12135.5
840.208	12067.48
840.533	12108.16
840.858	12040.81
841.182	12104.99
841.507	12123.3
841.832	11986.8
842.156	12028.16
842.481	11985.67
842.805	12033.81
843.13	11987.03
843.454	11979.12
843.778	11856.64
844.103	11918.78
844.427	11838.33
844.751	11880.37
845.075	11819.12
845.399	11766.02
845.723	11682.63
846.047	11763.53
846.371	11595.4
846.695	11639.92
847.019	11504.33
847.343	11479.7
847.666	11488.51
847.99	11436.54
848.313	11392.02
848.637	11290.1
848.96	11309.08
849.284	11305.24
849.607	11284.22
849.931	11206.71
850.254	11151.57
850.577	11089.43
850.9	11031.35
851.223	11013.72
851.546	10891.01
851.869	10877
852.192	10899.6
852.515	10822.99
852.838	10800.62
853.161	10822.99
853.483	10756.33
853.806	10678.59
854.129	10711.58
854.451	10651.25
854.774	10633.62
855.096	10578.48
855.419	10487.63
855.741	10550.91
856.063	10507.52
856.385	10446.96
856.708	10439.27
857.03	10501.42
857.352	10393.17
857.674	10321.76
857.996	10291.48
858.318	10302.78
858.64	10282.44
858.961	10240.63
859.283	10224.36
859.605	10101.88
859.926	10184.36
860.248	10114.54
860.57	10131.26
860.891	10152.73
861.212	10102.79
861.534	10008.78
861.855	9940.53
862.176	10029.57
862.498	9984.6
862.819	10012.17
863.14	9999.51
863.461	9948.89
863.782	9938.04
864.103	9965.39
864.424	9917.25
864.745	9881.55
865.065	9864.6
865.386	9835.45
865.707	9813.3
866.027	9838.39
866.348	9843.36
866.668	9852.85
866.989	9840.65
867.309	9704.38
867.63	9716.58
867.95	9665.51
868.27	9704.83
868.59	9713.42
868.91	9691.5
869.23	9715.22
869.55	9670.25
869.87	9640.42
870.19	9613.31
870.51	9629.8
870.83	9642.01
871.15	9569.01
871.469	9569.24
871.789	9604.04
872.109	9547.55
872.428	9500.09
872.748	9544.83
873.067	9557.94
873.386	9559.52
873.706	9470.49
874.025	9468.9
874.344	9435.23
874.663	9442.92
874.982	9398.62
875.301	9408.79
875.62	9372.18
875.939	9375.57
876.258	9346.87
876.577	9356.59
876.896	9369.92
877.214	9298.29
877.533	9346.19
877.852	9354.33
878.17	9316.59
878.489	9288.12
878.807	9279.98
879.125	9192.07
879.444	9225.29
879.762	9255.12
880.08	9169.25
880.398	9132.42
880.716	9152.75
881.034	9196.37
881.352	9154.34
881.67	9195.46
881.988	9149.59
882.306	9126.54
882.624	9059.2
882.941	9048.12
883.259	8952.76
883.577	8972.42
883.894	8975.58
884.212	8956.6
884.529	8966.32
884.846	8875.25
885.164	8902.82
885.481	8854.46
885.798	8899.2
886.115	8830.05
886.432	8818.98
886.75	8804.06
887.067	8851.74
887.383	8755.93
887.7	8769.03
888.017	8693.33
888.334	8771.75
888.651	8689.49
888.967	8650.17
889.284	8624.41
889.6	8607.68
889.917	8519.1
890.233	8606.78
890.55	8565.88
890.866	8525.88
891.182	8521.81
891.498	8501.92
891.815	8460.57
892.131	8447.01
892.447	8440.46
892.763	8384.19
893.079	8404.52
893.395	8346.45
893.71	8306.22
894.026	8337.63
894.342	8295.83
894.657	8266.9
894.973	8245.21
895.289	8192.55
895.604	8183.06
895.92	8127.7
896.235	8061.48
896.55	8106.68
896.865	8027.59
897.181	8019.9
897.496	7998.43
897.811	8032.11
898.126	7941.26
898.441	7936.51
898.756	7897.65
899.071	7884.54
899.386	7887.02
899.7	7827.82
900.015	7755.95
900.33	7667.82
900.644	7665.34
900.959	7746.01
901.273	7695.39
901.588	7651.1
901.902	7607.03
902.216	7552.34
902.531	7581.27
902.845	7514.15
903.159	7548.05
903.473	7482.06
903.787	7405.45
904.101	7442.74
904.415	7442.52
904.729	7402.07
905.042	7356.87
905.356	7291.79
905.67	7367.04
905.984	7307.38
906.297	7235.06
906.611	7216.08
906.924	7220.6
907.237	7185.12
907.551	7154.61
907.864	7175.18
908.177	7064.45
908.491	7042.98
908.804	7061.51
909.117	6981.06
909.43	6936.31
909.743	6927.28
910.056	6882.53
910.368	6862.19
910.681	6868.07
910.994	6847.05
911.307	6756.88
911.619	6736.09
911.932	6705.13
912.244	6718.47
912.557	6684.57
912.869	6673.72
913.181	6633.5
913.494	6642.76
913.806	6598.02
914.118	6604.12
914.43	6529.32
914.742	6523.67
915.054	6504.01
915.366	6487.29
915.678	6438.25
915.99	6393.05
916.302	6351.7
916.613	6387.85
916.925	6344.92
917.236	6297.01
917.548	6268.99
917.859	6284.58
918.171	6169.1
918.482	6209.78
918.794	6193.51
919.105	6148.31
919.416	6127.07
919.727	6126.39
920.038	6088.2
920.349	6049.11
920.66	6026.06
920.971	5996.9
921.282	5980.18
921.593	5952.84
921.903	5880.98
922.214	5878.04
922.525	5909.22
922.835	5866.51
923.146	5852.73
923.456	5828.1
923.767	5787.87
924.077	5770.92
924.387	5724.37
924.697	5720.98
925.008	5686.86
925.318	5659.29
925.628	5670.81
925.938	5647.54
926.248	5601.43
926.558	5548.33
926.867	5518.27
927.177	5510.36
927.487	5510.59
927.796	5449.12
928.106	5443.92
928.416	5421.1
928.725	5374.32
929.034	5400.76
929.344	5377.49
929.653	5360.09
929.962	5344.27
930.271	5278.05
930.581	5308.56
930.89	5260.2
931.199	5189.02
931.508	5213.2
931.817	5215.46
932.125	5150.37
932.434	5158.06
932.743	5121
933.051	5094.33
933.36	5034.22
933.669	5048.23
933.977	5039.87
934.286	5023.14
934.594	5019.3
934.902	4971.85
935.21	4938.85
935.519	4921.9
935.827	4921.9
936.135	4858.18
936.443	4856.82
936.751	4810.49
937.059	4843.49
937.367	4744.06
937.674	4826.77
937.982	4742.25
938.29	4758.97
938.597	4737.73
938.905	4687.33
939.213	4645.98
939.52	4636.49
939.827	4660.44
940.135	4659.99
940.442	4610.27
940.749	4601.91
941.056	4563.95
941.363	4538.41
941.67	4501.58
941.977	4505.64
942.284	4481.24
942.591	4509.26
942.898	4454.12
943.205	4467
943.511	4439.66
943.818	4406.21
944.125	4378.64
944.431	4349.04
944.738	4366.66
945.044	4336.38
945.35	4308.36
945.657	4281.47
945.963	4271.3
946.269	4272.2
946.575	4222.26
946.881	4230.62
947.187	4193.11
947.493	4170.74
947.799	4172.09
948.105	4178.2
948.41	4134.35
948.716	4109.95
949.022	4111.08
949.327	4090.97
949.633	4047.58
949.938	4082.15
950.244	4018.65
950.549	3980.69
950.854	3977.75
951.16	3969.61
951.465	3994.02
951.77	3966.9
952.075	3989.73
952.38	3933.91
952.685	3911.99
952.99	3839.22
953.294	3821.14
953.599	3841.48
953.904	3812.1
954.209	3790.86
954.513	3817.75
954.818	3791.76
955.122	3775.72
955.426	3700.24
955.731	3694.82
956.035	3643.52
956.339	3703.18
956.643	3712.67
956.948	3679.23
957.252	3702.28
957.556	3646.23
957.86	3635.16
958.163	3639.23
958.467	3587.93
958.771	3586.35
959.075	3578.44
959.378	3522.62
959.682	3515.16
959.985	3496.86
960.289	3456.86
960.592	3467.71
960.896	3453.24
961.199	3455.73
961.502	3452.79
961.805	3416.41
962.108	3361.49
962.411	3430.42
962.714	3371.66
963.017	3366.69
963.32	3336.86
963.623	3334.38
963.926	3330.31
964.228	3268.84
964.531	3294.38
964.833	3241.95
965.136	3275.17
965.438	3267.94
965.741	3213.02
966.043	3239.69
966.345	3218.45
966.648	3181.39
966.95	3185.9
967.252	3144.55
967.554	3147.04
967.856	3166.47
968.158	3165.79
968.46	3129.86
968.761	3098.68
969.063	3105
969.365	3073.14
969.666	3050.77
969.968	3056.42
970.269	3019.13
970.571	2995.63
970.872	2996.08
971.174	2964.44
971.475	2978.9
971.776	2919.47
972.077	2988.4
972.378	2946.14
972.679	2923.76
972.98	2938.23
973.281	2927.61
973.582	2887.83
973.883	2868.17
974.183	2857.1
974.484	2859.81
974.785	2814.62
975.085	2811.9
975.386	2845.8
975.686	2817.1
975.986	2790.89
976.287	2813.26
976.587	2766.93
976.887	2794.05
977.187	2781.17
977.487	2745.24
977.787	2722.87
978.087	2736.88
978.387	2711.34
978.687	2682.19
978.987	2677.44
979.286	2630.89
979.586	2676.77
979.885	2632.02
980.185	2605.58
980.484	2618.91
980.784	2604.9
981.083	2564.23
981.382	2586.6
981.682	2581.85
981.981	2556.09
982.28	2584.34
982.579	2558.58
982.878	2553.83
983.177	2498.24
983.475	2509.54
983.774	2479.26
984.073	2506.37
984.372	2480.84
984.67	2463.44
984.969	2477.9
985.267	2474.29
985.566	2460.95
985.864	2400.16
986.162	2408.75
986.461	2402.2
986.759	2418.69
987.057	2400.61
987.355	2389.32
987.653	2371.01
987.951	2371.46
988.249	2334.63
988.547	2339.15
988.844	2323.33
989.142	2350.22
989.44	2262.31
989.737	2287.85
990.035	2305.48
990.332	2273.61
990.63	2238.81
990.927	2231.81
991.224	2192.26
991.521	2261.86
991.819	2223.67
992.116	2187.06
992.413	2167.4
992.71	2156.1
993.006	2161.07
993.303	2194.52
993.6	2171.92
993.897	2150.45
994.193	2158.14
994.49	2129.21
994.787	2119.49
995.083	2135.54
995.379	2079.95
995.676	2071.81
995.972	2089.21
996.268	2073.62
996.565	2064.35
996.861	2039.49
997.157	2037.91
997.453	2044.01
997.749	2018.25
998.044	1996.56
998.34	2006.5
998.636	1972.83
998.932	1983.45
999.227	1956.11
999.523	1975.99
999.818	1956.78
1000.114	1936.45
1000.409	1899.16
1000.704	1891.48
1001	1914.07
1001.295	1904.58
1001.59	1888.09
1001.885	1849.22
1002.18	1844.92
1002.475	1859.39
1002.77	1853.28
1003.065	1852.61
1003.359	1834.75
1003.654	1834.3
1003.949	1804.92
1004.243	1779.16
1004.538	1775.77
1004.832	1776.45
1005.127	1767.19
1005.421	1748.88
1005.715	1765.83
1006.009	1765.15
1006.304	1722.21
1006.598	1737.81
1006.892	1716.79
1007.186	1703.91
1007.48	1688.09
1007.773	1678.83
1008.067	1670.01
1008.361	1661.43
1008.655	1645.38
1008.948	1643.8
1009.242	1640.86
1009.535	1625.04
1009.829	1619.84
1010.122	1625.04
1010.415	1617.58
1010.708	1585.27
1011.001	1583.69
1011.295	1591.14
1011.588	1561.09
1011.881	1558.83
1012.173	1562.44
1012.466	1554.31
1012.759	1536.91
1013.052	1537.81
1013.344	1525.16
1013.637	1500.53
1013.93	1489.45
1014.222	1488.55
1014.514	1512.05
1014.807	1457.36
1015.099	1472.28
1015.391	1486.29
1015.683	1467.53
1015.976	1418.49
1016.268	1417.59
1016.56	1413.52
1016.851	1433.63
1017.143	1423.24
1017.435	1401.55
1017.727	1395.67
1018.018	1389.79
1018.31	1357.48
1018.602	1394.77
1018.893	1392.73
1019.185	1354.09
1019.476	1360.42
1019.767	1337.37
1020.058	1320.64
1020.35	1325.84
1020.641	1316.35
1020.932	1290.36
1021.223	1288.78
1021.514	1269.35
1021.804	1289.23
1022.095	1278.61
1022.386	1256.24
1022.677	1249.01
1022.967	1281.32
1023.258	1251.49
1023.548	1220.76
1023.839	1249.23
1024.129	1183.47
1024.419	1196.13
1024.709	1199.06
1025	1182.12
1025.29	1191.38
1025.58	1177.82
1025.87	1163.13
1026.16	1153.42
1026.449	1164.04
1026.739	1127.2
1027.029	1172.4
1027.319	1131.95
1027.608	1126.07
1027.898	1099.86
1028.187	1111.38
1028.477	1118.61
1028.766	1075.9
1029.055	1099.86
1029.344	1095.34
1029.634	1075.68
1029.923	1087.88
1030.212	1066.86
1030.501	1058.96
1030.79	1055.79
1031.078	1044.27
1031.367	1029.35
1031.656	1052.18
1031.945	1039.29
1032.233	1013.98
1032.522	999.97
1032.81	1030.93
1033.099	1021.44
1033.387	977.38
1033.675	981.44
1033.963	998.39
1034.251	989.35
1034.54	997.49
1034.828	971.73
1035.116	958.39
1035.403	961.33
1035.691	925.17
1035.979	919.75
1036.267	922.91
1036.554	941.22
1036.842	923.59
1037.129	909.58
1037.417	922.69
1037.704	892.18
1037.992	913.2
1038.279	895.57
1038.566	880.65
1038.853	880.65
1039.14	880.65
