Data from blue_surface_keyboard_FLMS001491_077.txt Node
Date: Tue Feb 07 11:13:38 GMT 2017
User: dcchb
Spectrometer: FLMS00149
Trigger mode: 0
Integration Time (sec): 2.000000E-2
Scans to average: 10
Electric dark correction enabled: true
Nonlinearity correction enabled: false
Boxcar width: 0
XAxis mode: Wavelengths
Number of Pixels in Spectrum: 2048
>>>>>Begin Spectral Data<<<<<
341.393	-9.76
341.776	-9.76
342.16	-9.76
342.543	-51.34
342.927	-77.1
343.31	-50.21
343.693	-65.13
344.077	-73.03
344.46	-64.22
344.843	-59.25
345.226	-51.57
345.61	-32.13
345.993	-27.39
346.376	13.29
346.759	21.43
347.142	27.08
347.525	35.44
347.908	54.19
348.291	78.15
348.674	86.28
349.057	107.07
349.44	126.28
349.823	134.64
350.206	151.14
350.588	166.28
350.971	187.75
351.354	227.75
351.737	208.77
352.119	225.04
352.502	210.35
352.884	248.76
353.267	257.8
353.65	299.16
354.032	269.56
354.414	282.44
354.797	295.54
355.179	313.17
355.562	297.8
355.944	312.49
356.326	318.59
356.709	302.1
357.091	300.06
357.473	315.66
357.855	307.29
358.238	321.98
358.62	310.46
359.002	327.18
359.384	315.43
359.766	318.59
360.148	312.04
360.53	310.91
360.912	292.83
361.294	322.66
361.676	307.29
362.057	289.67
362.439	307.52
362.821	317.69
363.203	319.72
363.584	308.65
363.966	288.54
364.348	302.77
364.729	296.22
365.111	283.34
365.493	298.25
365.874	275.66
366.256	310.91
366.637	292.83
367.019	280.18
367.4	275.88
367.781	281.53
368.163	290.35
368.544	295.09
368.925	292.15
369.306	314.3
369.688	281.53
370.069	267.3
370.45	290.35
370.831	288.31
371.212	286.28
371.593	291.93
371.974	277.46
372.355	265.71
372.736	295.54
373.117	289.67
373.498	282.89
373.879	301.19
374.26	286.96
374.641	275.88
375.021	270.01
375.402	287.63
375.783	282.44
376.163	263.23
376.544	285.15
376.925	286.05
377.305	286.05
377.686	311.14
378.066	296.67
378.447	289.44
378.827	296.22
379.208	296.67
379.588	294.87
379.968	278.37
380.349	308.42
380.729	306.84
381.109	290.35
381.489	303.45
381.87	302.55
382.25	282.89
382.63	288.99
383.01	297.35
383.39	298.93
383.77	301.87
384.15	304.58
384.53	298.93
384.91	294.64
385.29	309.33
385.67	297.8
386.049	295.09
386.429	307.29
386.809	335.32
387.189	318.37
387.568	318.37
387.948	315.2
388.328	310.46
388.707	313.4
389.087	324.92
389.466	312.72
389.846	295.32
390.225	312.72
390.605	322.66
390.984	331.93
391.363	344.36
391.743	327.18
392.122	313.17
392.501	311.59
392.881	323.79
393.26	311.59
393.639	328.54
394.018	318.59
394.397	312.49
394.776	309.55
395.155	349.1
395.534	308.2
395.913	336.22
396.292	343.9
396.671	330.8
397.05	317.92
397.429	331.7
397.808	327.41
398.186	326.5
398.565	329.21
398.944	312.04
399.323	331.47
399.701	340.97
400.08	330.12
400.458	343.45
400.837	324.92
401.215	339.38
401.594	332.15
401.972	328.54
402.351	333.96
402.729	344.13
403.107	359.95
403.486	326.28
403.864	328.54
404.242	344.58
404.62	348.42
404.999	339.61
405.377	352.04
405.755	353.17
406.133	345.26
406.511	338.25
406.889	355.65
407.267	331.47
407.645	367.18
408.023	367.63
408.401	353.17
408.779	345.26
409.156	355.2
409.534	361.53
409.912	350.91
410.29	366.28
410.667	362.21
411.045	381.42
411.422	371.02
411.8	376.22
412.178	364.24
412.555	366.28
412.933	374.86
413.31	388.65
413.687	372.38
414.065	354.3
414.442	380.51
414.819	386.84
415.197	390.91
415.574	377.8
415.951	399.27
416.328	367.86
416.705	388.42
417.082	377.8
417.46	384.58
417.837	367.86
418.214	375.54
418.591	373.73
418.967	379.61
419.344	369.67
419.721	384.13
420.098	411.92
420.475	394.3
420.852	392.26
421.228	407.86
421.605	386.16
421.982	388.65
422.358	404.47
422.735	396.11
423.111	392.94
423.488	416.44
423.864	413.73
424.241	403.11
424.617	415.54
424.994	416.22
425.37	414.41
425.746	414.18
426.123	406.27
426.499	432.26
426.875	430.45
427.251	423.68
427.627	396.56
428.003	434.07
428.379	407.63
428.756	448.76
429.132	425.94
429.507	430
429.883	435.88
430.259	417.8
430.635	459.61
431.011	443.56
431.387	433.84
431.763	433.39
432.138	448.53
432.514	438.82
432.89	432.26
433.265	455.54
433.641	463.9
434.016	456.67
434.392	472.94
434.767	452.38
435.143	477.01
435.518	460.06
435.894	453.05
436.269	464.35
436.644	490.34
437.02	471.81
437.395	463.9
437.77	465.03
438.145	484.46
438.52	482.43
438.895	481.3
439.271	486.5
439.646	495.76
440.021	505.03
440.395	500.06
440.77	510.45
441.145	492.6
441.52	506.61
441.895	486.27
442.27	510
442.645	511.13
443.019	487.63
443.394	498.25
443.769	480.4
444.143	497.57
444.518	512.26
444.892	506.84
445.267	528.31
445.641	520.4
446.016	527.18
446.39	525.82
446.764	519.94
447.139	525.82
447.513	517.46
447.887	531.47
448.262	533.73
448.636	531.24
449.01	527.4
449.384	535.08
449.758	531.92
450.132	544.58
450.506	529.66
450.88	549.77
451.254	563.33
451.628	546.16
452.002	522.2
452.376	551.13
452.75	557.91
453.123	535.99
453.497	561.07
453.871	574.18
454.244	567.85
454.618	597.46
454.992	565.14
455.365	574.18
455.739	596.55
456.112	598.36
456.486	584.8
456.859	592.03
457.232	587.74
457.606	605.37
457.979	597.91
458.352	603.56
458.725	609.89
459.099	616.44
459.472	619.6
459.845	593.39
460.218	624.35
460.591	639.26
460.964	625.25
461.337	635.87
461.71	643.78
462.083	624.35
462.456	638.58
462.829	646.72
463.201	660.96
463.574	648.3
463.947	650.56
464.32	670.67
464.692	665.25
465.065	665.48
465.438	673.84
465.81	673.84
466.183	673.16
466.555	676.32
466.928	711.13
467.3	704.8
467.672	690.11
468.045	691.92
468.417	722.2
468.789	718.58
469.161	724.46
469.534	729.43
469.906	728.75
470.278	738.7
470.65	729.2
471.022	733.95
471.394	757.23
471.766	760.62
472.138	751.12
472.51	757.9
472.882	753.84
473.253	770.33
473.625	800.16
473.997	811.01
474.369	810.11
474.74	793.61
475.112	818.92
475.484	831.8
475.855	827.96
476.227	822.99
476.598	834.74
476.97	839.94
477.341	865.7
477.713	871.57
478.084	853.72
478.455	871.8
478.827	880.84
479.198	908.86
479.569	881.97
479.94	924.68
480.311	907.28
480.682	901.63
481.053	933.04
481.424	930.1
481.795	957.67
482.166	952.25
482.537	963.77
482.908	968.97
483.279	971.68
483.65	1005.35
484.021	1003.55
484.391	982.3
484.762	1034.05
485.133	1031.34
485.503	1016.88
485.874	1032.25
486.244	1015.52
486.615	1029.99
486.985	1088.29
487.356	1059.59
487.726	1076.54
488.097	1107.95
488.467	1072.47
488.837	1105.47
489.207	1116.76
489.578	1122.64
489.948	1129.65
490.318	1133.49
490.688	1129.87
491.058	1134.17
491.428	1121.06
491.798	1161.28
492.168	1173.26
492.538	1167.84
492.908	1188.63
493.278	1185.01
493.648	1190.43
494.017	1216.87
494.387	1196.08
494.757	1198.8
495.126	1165.8
495.496	1222.52
495.866	1217.33
496.235	1206.25
496.605	1205.8
496.974	1252.13
497.344	1234.28
497.713	1243.09
498.082	1241.51
498.452	1232.69
498.821	1232.24
499.19	1279.25
499.559	1281.73
499.928	1258.23
500.298	1227.04
500.667	1266.82
501.036	1244.67
501.405	1260.72
501.774	1253.03
502.143	1247.83
502.512	1267.27
502.88	1297.55
503.249	1299.58
503.618	1289.42
503.987	1292.35
504.356	1290.32
504.724	1298.23
505.093	1306.82
505.462	1310.43
505.83	1309.3
506.199	1297.1
506.567	1299.36
506.936	1299.58
507.304	1330.54
507.672	1334.16
508.041	1342.3
508.409	1299.36
508.777	1303.2
509.145	1341.62
509.514	1355.85
509.882	1344.56
510.25	1361.05
510.618	1360.83
510.986	1355.4
511.354	1349.53
511.722	1342.52
512.09	1365.35
512.458	1339.58
512.826	1344.1
513.193	1365.57
513.561	1347.72
513.929	1339.58
514.297	1369.87
514.664	1364.89
515.032	1374.84
515.4	1344.78
515.767	1367.38
516.135	1373.93
516.502	1382.75
516.869	1382.07
517.237	1395.63
517.604	1372.8
517.972	1382.07
518.339	1408.06
518.706	1427.94
519.073	1404.44
519.44	1397.89
519.808	1376.19
520.175	1402.63
520.542	1400.37
520.909	1410.99
521.276	1399.69
521.643	1402.63
522.009	1428.85
522.376	1425.91
522.743	1424.33
523.11	1439.24
523.477	1455.74
523.843	1470.65
524.21	1452.8
524.577	1457.77
524.943	1460.71
525.31	1473.59
525.676	1465
526.043	1456.42
526.409	1445.8
526.776	1479.47
527.142	1464.33
527.508	1456.19
527.874	1492.8
528.241	1502.07
528.607	1483.76
528.973	1484.44
529.339	1475.17
529.705	1500.71
530.071	1514.04
530.437	1533.7
530.803	1537.77
531.169	1495.74
531.535	1494.83
531.901	1520.37
532.267	1533.25
532.632	1510.88
532.998	1525.12
533.364	1505.23
533.73	1505.23
534.095	1516.3
534.461	1553.36
534.826	1547.71
535.192	1542.97
535.557	1542.29
535.923	1552.46
536.288	1517.66
536.653	1543.19
537.019	1547.94
537.384	1510.88
537.749	1529.41
538.114	1561.05
538.479	1558.33
538.845	1552.69
539.21	1537.09
539.575	1556.3
539.94	1527.15
540.305	1563.53
540.67	1514.95
541.034	1561.5
541.399	1570.31
541.764	1548.84
542.129	1536.19
542.494	1583.64
542.858	1543.65
543.223	1551.33
543.587	1554.27
543.952	1597.2
544.316	1593.81
544.681	1569.86
545.045	1581.61
545.41	1587.94
545.774	1556.98
546.138	1563.08
546.503	1599.24
546.867	1588.62
547.231	1560.82
547.595	1547.49
547.959	1595.4
548.324	1583.64
548.688	1570.54
549.052	1577.54
549.416	1597.88
549.779	1577.09
550.143	1602.4
550.507	1613.47
550.871	1570.54
551.235	1592.23
551.599	1577.54
551.962	1591.33
552.326	1625.45
552.689	1609.86
553.053	1591.78
553.417	1598.33
553.78	1599.01
554.143	1610.99
554.507	1607.37
554.87	1606.92
555.234	1615.06
555.597	1608.95
555.96	1610.99
556.323	1608.95
556.686	1626.36
557.05	1609.41
557.413	1622.51
557.776	1596.3
558.139	1639.01
558.502	1596.75
558.865	1602.18
559.228	1639.69
559.59	1604.44
559.953	1653.47
560.316	1637.88
560.679	1625.23
561.041	1609.18
561.404	1630.88
561.767	1647.6
562.129	1684.89
562.492	1645.79
562.854	1629.75
563.217	1633.59
563.579	1657.77
563.941	1625.9
564.304	1670.87
564.666	1676.3
565.028	1665.9
565.39	1678.33
565.753	1665
566.115	1675.39
566.477	1674.26
566.839	1694.6
567.201	1702.51
567.563	1665.22
567.925	1704.32
568.287	1669.29
568.648	1706.81
569.01	1692.79
569.372	1720.59
569.734	1726.01
570.095	1721.49
570.457	1733.47
570.819	1712.45
571.18	1719.23
571.542	1710.2
571.903	1732.34
572.265	1726.01
572.626	1729.4
572.987	1722.85
573.349	1728.73
573.71	1718.56
574.071	1747.03
574.432	1728.05
574.794	1743.64
575.155	1758.33
575.516	1744.77
575.877	1740.93
576.238	1752.68
576.599	1759.69
576.96	1731.44
577.32	1743.19
577.681	1754.04
578.042	1752.23
578.403	1776.63
578.763	1754.71
579.124	1770.08
579.485	1770.31
579.845	1776.41
580.206	1754.26
580.566	1789.74
580.927	1790.42
581.287	1757.88
581.648	1789.97
582.008	1816.86
582.368	1763.08
582.728	1788.39
583.089	1780.93
583.449	1755.62
583.809	1789.06
584.169	1774.83
584.529	1747.93
584.889	1793.58
585.249	1786.8
585.609	1767.59
585.969	1779.57
586.329	1777.31
586.688	1786.58
587.048	1804.66
587.408	1793.13
587.768	1762.4
588.127	1801.72
588.487	1805.33
588.846	1804.43
589.206	1801.27
589.565	1781.15
589.925	1746.8
590.284	1779.35
590.643	1792.9
591.003	1789.74
591.362	1792
591.721	1795.62
592.08	1798.33
592.44	1825.22
592.799	1787.71
593.158	1798.33
593.517	1785.67
593.876	1842.85
594.235	1805.79
594.593	1818.89
594.952	1833.13
595.311	1800.36
595.67	1840.36
596.029	1788.39
596.387	1853.24
596.746	1811.21
597.104	1810.76
597.463	1826.8
597.822	1815.05
598.18	1821.83
598.538	1828.84
598.897	1826.58
599.255	1819.8
599.613	1828.38
599.972	1815.73
600.33	1821.38
600.688	1813.24
601.046	1827.03
601.404	1829.06
601.762	1813.47
602.12	1845.78
602.478	1856.18
602.836	1818.67
603.194	1794.94
603.552	1835.84
603.91	1791.32
604.268	1855.95
604.625	1848.5
604.983	1850.76
605.341	1834.03
605.698	1818.21
606.056	1864.32
606.413	1844.88
606.771	1849.85
607.128	1854.37
607.485	1821.6
607.843	1861.38
608.2	1859.8
608.557	1873.35
608.914	1883.07
609.272	1885.33
609.629	1889.17
609.986	1876.52
610.343	1901.6
610.7	1914.03
611.057	1878.78
611.414	1903.86
611.771	1905.9
612.127	1899.79
612.484	1868.16
612.841	1883.75
613.198	1868.38
613.554	1902.51
613.911	1903.41
614.267	1910.64
614.624	1902.96
614.98	1929.62
615.337	1933.47
615.693	1895.95
616.05	1902.51
616.406	1946.57
616.762	1921.94
617.118	1952
617.475	1951.77
617.831	1959.68
618.187	1960.36
618.543	1924.65
618.899	1950.41
619.255	1949.06
619.611	1954.48
619.967	1967.36
620.323	1969.85
620.678	1955.39
621.034	1937.99
621.39	1981.15
621.746	1948.38
622.101	1965.56
622.457	1963.97
622.812	1977.53
623.168	1958.32
623.523	1943.41
623.879	1958.1
624.234	1959.45
624.589	1982.73
624.945	1983.18
625.3	1963.3
625.655	1997.65
626.01	1978.66
626.365	1999.68
626.72	1975.5
627.075	1982.05
627.43	1981.15
627.785	1987.25
628.14	1984.31
628.495	2011.43
628.85	2010.07
629.205	1985.67
629.559	2036.51
629.914	1982.5
630.269	1976.18
630.623	2017.98
630.978	2002.84
631.332	2008.49
631.687	2018.21
632.041	2037.42
632.396	2036.74
632.75	2008.04
633.104	2055.5
633.459	2037.19
633.813	2037.19
634.167	2037.42
634.521	2041.26
634.875	2024.76
635.229	2049.4
635.583	2029.06
635.937	2047.14
636.291	2044.42
636.645	2054.14
636.999	2078.77
637.352	2085.33
637.706	2048.04
638.06	2058.89
638.413	2053.46
638.767	2076.97
639.121	2091.2
639.474	2066.34
639.828	2076.74
640.181	2122.84
640.534	2107.47
640.888	2075.61
641.241	2081.03
641.594	2122.84
641.947	2117.19
642.301	2138.88
642.654	2121.94
643.007	2117.87
643.36	2102.28
643.713	2101.6
644.066	2161.48
644.419	2126.46
644.771	2138.88
645.124	2124.65
645.477	2121.03
645.83	2138.88
646.182	2135.95
646.535	2119
646.888	2128.72
647.24	2142.73
647.593	2145.89
647.945	2130.75
648.298	2156.06
648.65	2178.88
649.002	2159
649.355	2168.71
649.707	2144.76
650.059	2186.34
650.411	2207.13
650.763	2234.48
651.115	2282.16
651.467	2258.66
651.819	2253.91
652.171	2290.52
652.523	2298.2
652.875	2297.3
653.227	2297.07
653.578	2302.5
653.93	2310.63
654.282	2310.86
654.633	2321.7
654.985	2327.35
655.337	2356.05
655.688	2302.72
656.039	2385.88
656.391	2371.19
656.742	2381.82
657.094	2362.16
657.445	2386.34
657.796	2396.73
658.147	2418.65
658.498	2400.35
658.849	2419.56
659.2	2439.89
659.551	2427.69
659.902	2452.77
660.253	2494.36
660.604	2467.92
660.955	2477.18
661.306	2487.58
661.656	2507.46
662.007	2541.81
662.358	2525.54
662.708	2546.11
663.059	2541.13
663.409	2577.29
663.76	2566.67
664.11	2597.4
664.461	2593.11
664.811	2588.36
665.161	2620.91
665.511	2610.74
665.862	2593.11
666.212	2619.78
666.562	2672.88
666.912	2650.96
667.262	2654.35
667.612	2681.47
667.962	2701.81
668.312	2661.81
668.662	2722.82
669.011	2729.15
669.361	2734.8
669.711	2735.03
670.06	2740.9
670.41	2752.88
670.76	2769.15
671.109	2782.26
671.459	2764.18
671.808	2784.97
672.157	2829.94
672.507	2794.69
672.856	2797.4
673.205	2789.71
673.554	2822.03
673.904	2840.11
674.253	2880.79
674.602	2850.73
674.951	2828.36
675.3	2828.13
675.649	2905.64
675.998	2870.39
676.346	2921.01
676.695	2916.04
677.044	2946.32
677.393	2930.28
677.741	2911.75
678.09	2952.42
678.438	2962.14
678.787	2968.02
679.135	2941.58
679.484	2999.88
679.832	2977.51
680.181	2976.6
680.529	3016.38
680.877	3022.48
681.225	2999.65
681.573	3024.96
681.922	3016.38
682.27	3044.85
682.618	3034.23
682.966	3061.12
683.314	3036.71
683.661	3082.14
684.009	3055.24
684.357	3071.29
684.705	3088.46
685.053	3051.63
685.4	3085.98
685.748	3086.43
686.095	3079.2
686.443	3085.98
686.79	3083.04
687.138	3117.62
687.485	3121.91
687.832	3076.03
688.18	3112.64
688.527	3110.38
688.874	3128.69
689.221	3129.59
689.568	3146.99
689.915	3127.78
690.262	3128.46
690.609	3122.36
690.956	3129.14
691.303	3105.64
691.65	3139.08
691.997	3137.95
692.344	3124.17
692.69	3121.91
693.037	3114.9
693.383	3129.37
693.73	3163.49
694.077	3124.17
694.423	3158.74
694.769	3130.04
695.116	3141.12
695.462	3099.99
695.808	3113.77
696.155	3091.4
696.501	3142.02
696.847	3101.8
697.193	3093.44
697.539	3097.5
697.885	3105.86
698.231	3141.57
698.577	3098.41
698.923	3083.72
699.269	3106.99
699.614	3099.09
699.96	3065.41
700.306	3091.63
700.651	3138.63
700.997	3107.22
701.342	3086.2
701.688	3067.45
702.033	3075.81
702.379	3053.21
702.724	3085.07
703.069	3069.48
703.415	3027.9
703.76	3041.91
704.105	3032.42
704.45	3048.92
704.795	3034.91
705.14	3034.45
705.485	3043.27
705.83	3049.37
706.175	3064.51
706.52	2973.21
706.865	3016.83
707.209	3016.83
707.554	3000.56
707.899	3023.38
708.243	2991.07
708.588	3018.64
708.932	3009.37
709.277	2992.42
709.621	3006.43
709.966	2971.86
710.31	2973.21
710.654	2950.61
710.998	2981.8
711.342	2977.51
711.687	2958.3
712.031	2957.17
712.375	2954.91
712.719	2969.37
713.063	3003.72
713.407	2948.81
713.75	2981.57
714.094	2979.09
714.438	2975.47
714.782	2968.02
715.125	2956.26
715.469	2971.63
715.812	2947.9
716.156	2909.94
716.499	2938.41
716.843	2955.13
717.186	2934.8
717.53	2988.58
717.873	2940.45
718.216	2937.73
718.559	2926.66
718.902	2948.58
719.246	2989.03
719.589	2924.17
719.932	2921.69
720.275	2920.56
720.617	2919.88
720.96	2948.58
721.303	2964.63
721.646	2935.02
721.989	2923.04
722.331	2940.67
722.674	2940.45
723.016	2925.53
723.359	2935.47
723.701	2958.98
724.044	2960.33
724.386	2943.38
724.729	2934.34
725.071	2984.51
725.413	2946.77
725.755	2941.8
726.097	2934.8
726.439	2955.13
726.782	2906.1
727.124	2979.77
727.465	2965.3
727.807	2930.5
728.149	2939.99
728.491	2936.38
728.833	2945.42
729.175	2955.81
729.516	2964.4
729.858	2936.15
730.199	2930.28
730.541	3010.05
730.882	2963.95
731.224	2980.9
731.565	2969.15
731.906	2977.51
732.248	2958.07
732.589	2949.48
732.93	2968.92
733.271	2957.17
733.612	2957.39
733.953	2956.72
734.294	2978.18
734.635	2965.3
734.976	2965.3
735.317	2990.84
735.658	2954.23
735.999	3008.01
736.339	2979.54
736.68	3042.82
737.021	3039.2
737.361	3007.79
737.702	3048.92
738.042	3011.18
738.383	2972.99
738.723	3055.02
739.063	3010.05
739.404	3067.67
739.744	3061.57
740.084	3047.56
740.424	3054.57
740.764	3082.59
741.104	3094.11
741.444	3065.87
741.784	3084.17
742.124	3105.86
742.464	3108.8
742.804	3079.42
743.143	3098.63
743.483	3154.22
743.823	3105.64
744.162	3147.67
744.502	3167.11
744.841	3165.98
745.181	3166.88
745.52	3200.1
745.86	3175.69
746.199	3199.42
746.538	3231.51
746.877	3231.96
747.216	3258.18
747.556	3311.73
747.895	3298.18
748.234	3275.8
748.573	3282.81
748.911	3321.68
749.25	3338.63
749.589	3342.92
749.928	3347.44
750.267	3367.55
750.605	3435.57
750.944	3426.76
751.283	3429.25
751.621	3448
751.96	3471.5
752.298	3477.38
752.636	3523.03
752.975	3525.51
753.313	3509.92
753.651	3535.01
753.989	3565.97
754.327	3602.12
754.666	3569.81
755.004	3640.09
755.342	3677.6
755.679	3639.86
756.017	3633.53
756.355	3635.34
756.693	3732.97
757.031	3751.95
757.368	3761.44
757.706	3730.26
758.044	3796.69
758.381	3774.32
758.719	3817.71
759.056	3845.28
759.394	3842.34
759.731	3872.4
760.068	3816.13
760.405	3866.52
760.743	3893.41
761.08	3943.81
761.417	3868.78
761.754	3915.11
762.091	4014.54
762.428	3967.08
762.765	3946.29
763.102	3960.31
763.438	3984.03
763.775	3989.46
764.112	3979.74
764.449	3979.29
764.785	4003.69
765.122	3983.81
765.458	4039.4
765.795	4011.15
766.131	4019.29
766.467	4022.45
766.804	4025.16
767.14	3996.01
767.476	4046.86
767.812	4056.8
768.148	4086.63
768.485	4015.22
768.821	3995.56
769.157	4028.1
769.492	4054.99
769.828	4026.52
770.164	4044.37
770.5	4025.84
770.836	4025.61
771.171	4027.42
771.507	4034.88
771.842	3970.02
772.178	4019.74
772.513	3984.26
772.849	3978.84
773.184	3970.02
773.519	3989.01
773.855	3947.88
774.19	3979.29
774.525	3956.46
774.86	4023.13
775.195	3948.55
775.53	3954.2
775.865	3960.76
776.2	3968.67
776.535	3918.5
776.87	3906.07
777.205	3920.31
777.539	3869.46
777.874	3919.85
778.209	3855.9
778.543	3895.9
778.878	3849.57
779.212	3834.66
779.547	3857.71
779.881	3877.6
780.215	3850.25
780.55	3853.64
780.884	3850.25
781.218	3797.82
781.552	3795.56
781.886	3803.93
782.22	3769.8
782.554	3820.65
782.888	3738.84
783.222	3746.98
783.556	3733.64
783.889	3750.59
784.223	3709.01
784.557	3718.05
784.89	3681.22
785.224	3699.3
785.557	3695.68
785.891	3657.71
786.224	3661.33
786.558	3693.19
786.891	3605.74
787.224	3609.13
787.557	3650.03
787.891	3611.84
788.224	3617.94
788.557	3608.22
788.89	3570.49
789.223	3550.6
789.556	3566.64
789.888	3522.12
790.221	3570.26
790.554	3496.81
790.887	3528.45
791.219	3511.5
791.552	3486.19
791.884	3482.8
792.217	3484.61
792.549	3488.68
792.882	3490.94
793.214	3431.05
793.546	3449.58
793.879	3483.71
794.211	3416.14
794.543	3443.93
794.875	3404.61
795.207	3402.81
795.539	3408.68
795.871	3430.38
796.203	3384.28
796.535	3362.81
796.867	3339.76
797.198	3362.81
797.53	3372.98
797.862	3317.38
798.193	3334.33
798.525	3311.28
798.856	3297.95
799.188	3290.49
799.519	3311.51
799.85	3269.48
800.182	3209.59
800.513	3246.43
800.844	3269.02
801.175	3278.74
801.506	3238.06
801.837	3213.43
802.168	3234
802.499	3188.57
802.83	3226.31
803.161	3218.18
803.491	3217.73
803.822	3199.87
804.153	3195.35
804.483	3161.46
804.814	3149.25
805.145	3210.27
805.475	3136.82
805.805	3108.12
806.136	3135.02
806.466	3140.44
806.796	3121.68
807.126	3083.49
807.457	3093.89
807.787	3097.96
808.117	3068.58
808.447	3074.91
808.777	3132.08
809.107	3063.15
809.436	3015.7
809.766	3041.69
810.096	3051.18
810.426	3039.2
810.755	3022.7
811.085	3043.04
811.414	3030.84
811.744	3013.66
812.073	3009.37
812.403	3016.6
812.732	2991.07
813.061	2954.68
813.39	3009.6
813.719	2966.43
814.049	2969.15
814.378	2979.99
814.707	2957.39
815.036	2960.78
815.365	2916.72
815.693	2931.63
816.022	2930.95
816.351	2925.3
816.68	2925.76
817.008	2926.21
817.337	2864.06
817.665	2893.21
817.994	2904.97
818.322	2890.96
818.651	2854.12
818.979	2880.56
819.307	2857.74
819.636	2873.1
819.964	2885.53
820.292	2830.84
820.62	2877.62
820.948	2840.11
821.276	2876.49
821.604	2812.99
821.932	2825.87
822.259	2858.64
822.587	2861.58
822.915	2844.4
823.243	2825.42
823.57	2833.1
823.898	2816.38
824.225	2835.59
824.553	2834.23
824.88	2834.91
825.207	2799.66
825.535	2833.78
825.862	2855.02
826.189	2815.48
826.516	2830.17
826.843	2838.08
827.17	2863.39
827.497	2836.04
827.824	2818.19
828.151	2857.28
828.478	2862.03
828.805	2857.51
829.131	2827.91
829.458	2845.08
829.785	2837.4
830.111	2834.91
830.438	2848.24
830.764	2873.33
831.09	2834.46
831.417	2827.45
831.743	2814.35
832.069	2835.36
832.395	2837.4
832.722	2808.25
833.048	2851.86
833.374	2837.62
833.7	2832.2
834.026	2817.06
834.351	2816.83
834.677	2829.49
835.003	2849.37
835.329	2819.32
835.654	2805.76
835.98	2798.3
836.306	2801.01
836.631	2839.66
836.956	2829.71
837.282	2803.05
837.607	2786.1
837.932	2798.53
838.258	2750.85
838.583	2760.34
838.908	2787.23
839.233	2759.89
839.558	2760.34
839.883	2747.91
840.208	2741.13
840.533	2743.39
840.858	2711.52
841.182	2740.45
841.507	2725.08
841.832	2750.39
842.156	2724.86
842.481	2771.41
842.805	2713.56
843.13	2690.73
843.454	2667.01
843.778	2711.52
844.103	2676.5
844.427	2699.55
844.751	2692.77
845.075	2685.76
845.399	2671.53
845.723	2605.76
846.047	2669.49
846.371	2661.81
846.695	2654.13
847.019	2621.13
847.343	2597.4
847.666	2596.05
847.99	2617.29
848.313	2612.32
848.637	2568.93
848.96	2611.19
849.284	2571.64
849.607	2553.56
849.931	2555.37
850.254	2549.95
850.577	2528.93
850.9	2524.19
851.223	2517.41
851.546	2496.84
851.869	2495.26
852.192	2464.53
852.515	2474.24
852.838	2484.86
853.161	2512.21
853.483	2493
853.806	2462.04
854.129	2467.92
854.451	2431.53
854.774	2413.91
855.096	2414.36
855.419	2418.2
855.741	2426.79
856.063	2402.15
856.385	2400.57
856.708	2424.53
857.03	2389.05
857.352	2334.59
857.674	2384.53
857.996	2372.1
858.318	2391.99
858.64	2353.12
858.961	2373.45
859.283	2331.87
859.605	2322.83
859.926	2357.18
860.248	2322.61
860.57	2329.84
860.891	2285.55
861.212	2293.91
861.534	2341.36
861.855	2296.39
862.176	2331.65
862.498	2305.89
862.819	2315.83
863.14	2252.78
863.461	2298.88
863.782	2296.62
864.103	2314.7
864.424	2280.35
864.745	2287.36
865.065	2296.39
865.386	2298.88
865.707	2271.54
866.027	2255.94
866.348	2284.42
866.668	2254.14
866.989	2258.2
867.309	2238.99
867.63	2241.71
867.95	2251.65
868.27	2232.67
868.59	2236.28
868.91	2252.78
869.23	2220.92
869.55	2198.32
869.87	2248.26
870.19	2198.32
870.51	2232.22
870.83	2201.03
871.15	2197.19
871.469	2192.22
871.789	2211.88
872.109	2235.38
872.428	2189.05
872.748	2217.07
873.067	2197.41
873.386	2194.48
873.706	2224.98
874.025	2186.79
874.344	2203.29
874.663	2213.23
874.982	2177.08
875.301	2187.7
875.62	2157.42
875.939	2174.82
876.258	2152.9
876.577	2188.15
876.896	2199
877.214	2179.11
877.533	2154.7
877.852	2124.65
878.17	2146.79
878.489	2136.85
878.807	2125.33
879.125	2150.41
879.444	2137.53
879.762	2154.48
880.08	2124.87
880.398	2134.36
880.716	2164.87
881.034	2118.32
881.352	2116.51
881.67	2139.79
881.988	2087.13
882.306	2132.78
882.624	2117.87
882.941	2096.85
883.259	2121.71
883.577	2099.11
883.894	2090.75
884.212	2088.72
884.529	2042.16
884.846	2087.59
885.164	2055.5
885.481	2092.11
885.798	2098.43
886.115	2095.5
886.432	2055.95
886.75	2060.47
887.067	2054.59
887.383	2044.42
887.7	2027.7
888.017	2047.81
888.334	2052.33
888.651	2053.24
888.967	2022.73
889.284	2041.71
889.6	2032.45
889.917	1999.45
890.233	2008.04
890.55	2026.57
890.866	2008.49
891.182	1998.78
891.498	2004.2
891.815	1979.79
892.131	1990.87
892.447	1976.85
892.763	1967.59
893.079	1952
893.395	1933.24
893.71	1948.61
894.026	1973.24
894.342	1948.38
894.657	1928.04
894.973	1932.79
895.289	1942.05
895.604	1939.79
895.92	1932.11
896.235	1903.18
896.55	1882.17
896.865	1919.46
897.181	1914.94
897.496	1892.11
897.811	1898.44
898.126	1864.32
898.441	1881.49
898.756	1878.33
899.071	1873.35
899.386	1836.29
899.7	1836.52
900.015	1822.06
900.33	1824.09
900.644	1832
900.959	1827.48
901.273	1854.82
901.588	1794.71
901.902	1820.93
902.216	1825.67
902.531	1816.18
902.845	1781.61
903.159	1785.45
903.473	1775.73
903.787	1792.68
904.101	1792.23
904.415	1773.7
904.729	1752.23
905.042	1772.79
905.356	1787.93
905.67	1752.68
905.984	1773.7
906.297	1730.31
906.611	1727.82
906.924	1725.11
907.237	1727.6
907.551	1758.78
907.864	1713.58
908.177	1696.41
908.491	1715.17
908.804	1680.82
909.117	1712.91
909.43	1686.69
909.743	1711.33
910.056	1640.82
910.368	1675.39
910.681	1663.64
910.994	1659.8
911.307	1651.89
911.619	1669.97
911.932	1677.43
912.244	1660.48
912.557	1621.38
912.869	1621.38
913.181	1668.61
913.494	1611.89
913.806	1636.98
914.118	1624.1
914.43	1581.38
914.742	1621.61
915.054	1580.26
915.366	1585.9
915.678	1603.53
915.99	1575.96
916.302	1578.9
916.613	1568.73
916.925	1574.61
917.236	1571.67
917.548	1570.99
917.859	1560.82
918.171	1548.17
918.482	1539.13
918.794	1537.32
919.105	1562.18
919.416	1528.96
919.727	1527.38
920.038	1499.81
920.349	1507.04
920.66	1503.65
920.971	1496.87
921.282	1481.05
921.593	1478.56
921.903	1503.87
922.214	1483.08
922.525	1485.34
922.835	1481.5
923.146	1484.66
923.456	1478.56
923.767	1428.85
924.077	1441.5
924.387	1470.43
924.697	1436.3
925.008	1422.97
925.318	1429.52
925.628	1424.78
925.938	1441.95
926.248	1398.34
926.558	1410.32
926.867	1399.47
927.177	1419.58
927.487	1393.37
927.796	1380.71
928.106	1410.09
928.416	1394.72
928.725	1391.56
929.034	1375.29
929.344	1387.27
929.653	1357.21
929.962	1397.89
930.271	1362.86
930.581	1347.72
930.89	1345.91
931.199	1366.48
931.508	1317.89
931.817	1326.25
932.125	1327.83
932.434	1332.35
932.743	1309.08
933.051	1304.56
933.36	1342.52
933.669	1318.12
933.977	1286.03
934.286	1298
934.594	1304.78
934.902	1278.79
935.21	1291
935.519	1284.22
935.827	1310.43
936.135	1259.13
936.443	1249.87
936.751	1282.41
937.059	1250.77
937.367	1245.35
937.674	1256.2
937.982	1269.3
938.29	1236.76
938.597	1239.25
938.905	1235.63
939.213	1206.48
939.52	1211.9
939.827	1213.94
940.135	1221.62
940.442	1246.7
940.749	1197.89
941.056	1232.92
941.363	1217.55
941.67	1201.51
941.977	1213.03
942.284	1206.71
942.591	1211
942.898	1200.83
943.205	1206.03
943.511	1182.07
943.818	1176.88
944.125	1159.02
944.431	1174.39
944.738	1143.66
945.044	1173.03
945.35	1174.62
945.657	1158.35
945.963	1137.33
946.269	1135.3
946.575	1143.2
946.881	1129.42
947.187	1140.04
947.493	1117.22
947.799	1115.63
948.105	1125.35
948.41	1125.13
948.716	1103.88
949.022	1105.24
949.327	1120.15
949.633	1089.42
949.938	1114.5
950.244	1088.52
950.549	1074.05
950.854	1083.54
951.16	1088.06
951.465	1095.52
951.77	1094.84
952.075	1068.4
952.38	1094.62
952.685	1078.12
952.99	1070.89
953.294	1067.5
953.599	1054.85
953.904	1079.7
954.209	1056.2
954.513	1050.78
954.818	1031.79
955.122	1081.51
955.426	1043.32
955.731	1064.79
956.035	1030.21
956.339	1061.4
956.643	1015.52
956.948	1030.21
957.252	1012.59
957.556	1016.88
957.86	995.41
958.163	1020.95
958.467	1008.07
958.771	1002.87
959.075	1011.23
959.378	1016.2
959.682	988.41
959.985	1005.35
960.289	978.01
960.592	987.5
960.896	994.51
961.199	947.05
961.502	1000.38
961.805	964.68
962.108	955.41
962.411	975.98
962.714	961.74
963.017	959.71
963.32	975.53
963.623	970.1
963.926	964.23
964.228	960.16
964.531	945.24
964.833	966.71
965.136	964
965.438	922.87
965.741	929.2
966.043	928.97
966.345	949.76
966.648	892.82
966.95	919.71
967.252	907.73
967.554	933.49
967.856	917.45
968.158	912.48
968.46	928.52
968.761	899.37
969.063	914.06
969.365	907.5
969.666	918.35
969.968	900.05
970.269	901.18
970.571	919.48
970.872	900.95
971.174	895.53
971.475	892.59
971.776	885.36
972.077	877.67
972.378	890.1
972.679	866.83
972.98	882.19
973.281	876.77
973.582	867.28
973.883	864.34
974.183	888.75
974.484	883.32
974.785	867.28
975.085	843.55
975.386	861.18
975.686	830.67
975.986	858.69
976.287	844.46
976.587	852.59
976.887	835.87
977.187	818.02
977.487	825.92
977.787	871.35
978.087	836.09
978.387	844.68
978.687	833.38
978.987	830.22
979.286	820.5
979.586	818.24
979.885	807.62
980.185	835.87
980.484	841.97
980.784	828.41
981.083	817.56
981.382	822.99
981.682	804.68
981.981	810.11
982.28	798.81
982.579	806.26
982.878	813.27
983.177	765.59
983.475	791.35
983.774	786.38
984.073	801.07
984.372	801.29
984.67	776.21
984.969	784.57
985.267	766.27
985.566	760.39
985.864	784.57
986.162	766.49
986.461	768.07
986.759	768.07
987.057	775.08
987.355	756.32
987.653	738.92
987.951	761.29
988.249	745.25
988.547	716.32
988.844	748.86
989.142	783.21
989.44	753.16
989.737	739.37
990.035	756.32
990.332	740.73
990.63	729.43
990.927	722.42
991.224	729.43
991.521	738.02
991.819	710.45
992.116	712.93
992.413	732.37
992.71	700.5
993.006	727.85
993.303	736.66
993.6	724.23
993.897	723.78
994.193	715.87
994.49	706.38
994.787	686.49
995.083	680.39
995.379	696.44
995.676	703.44
995.972	683.33
996.268	699.83
996.565	710.45
996.861	714.06
997.157	682.65
997.453	681.75
997.749	668.19
998.044	681.75
998.34	681.07
998.636	686.95
998.932	678.36
999.227	670
999.523	654.18
999.818	647.17
1000.114	675.19
1000.409	668.19
1000.704	646.95
1001	662.99
1001.295	641.75
1001.59	674.29
1001.885	672.71
1002.18	652.6
1002.475	641.75
1002.77	649.43
1003.065	641.3
1003.359	618.02
1003.654	657.34
1003.949	649.88
1004.243	641.75
1004.538	637.45
1004.832	621.86
1005.127	642.65
1005.421	618.7
1005.715	635.42
1006.009	619.15
1006.304	615.76
1006.598	608.76
1006.892	627.96
1007.186	621.41
1007.48	642.43
1007.773	590.22
1008.067	610.11
1008.361	616.89
1008.655	608.53
1008.948	591.81
1009.242	610.11
1009.535	588.64
1009.829	600.17
1010.122	602.43
1010.415	610.34
1010.708	572.6
1011.001	608.53
1011.295	589.09
1011.588	582.32
1011.881	589.32
1012.173	592.71
1012.466	587.74
1012.759	577.57
1013.052	567.85
1013.344	578.93
1013.637	568.53
1013.93	587.06
1014.222	577.57
1014.514	591.35
1014.807	570.79
1015.099	537.34
1015.391	561.3
1015.683	551.58
1015.976	553.84
1016.268	534.63
1016.56	559.72
1016.851	574.18
1017.143	565.14
1017.435	545.03
1017.727	529.44
1018.018	553.62
1018.31	550
1018.602	566.95
1018.893	565.14
1019.185	545.71
1019.476	566.95
1019.767	529.66
1020.058	542.09
1020.35	514.29
1020.641	528.53
1020.932	519.27
1021.223	539.38
1021.514	546.16
1021.804	517.46
1022.095	539.6
1022.386	527.85
1022.677	512.26
1022.967	534.41
1023.258	503.67
1023.548	516.1
1023.839	505.26
1024.129	519.94
1024.419	526.95
1024.709	508.64
1025	519.49
1025.29	506.61
1025.58	514.75
1025.87	497.35
1026.16	487.63
1026.449	505.48
1026.739	499.38
1027.029	490.79
1027.319	510.23
1027.608	480.85
1027.898	480.62
1028.187	491.02
1028.477	493.5
1028.766	465.48
1029.055	486.72
1029.344	493.5
1029.634	481.75
1029.923	460.51
1030.212	475.88
1030.501	466.61
1030.79	498.7
1031.078	477.23
1031.367	467.97
1031.656	477.91
1031.945	453.73
1032.233	486.05
1032.522	483.79
1032.81	473.62
1033.099	470.45
1033.387	460.28
1033.675	463.67
1033.963	456.22
1034.251	463.22
1034.54	444.24
1034.828	472.04
1035.116	449.21
1035.403	470.91
1035.691	455.31
1035.979	476.1
1036.267	427.29
1036.554	450.79
1036.842	440.62
1037.129	437.46
1037.417	453.51
1037.704	450.79
1037.992	423.22
1038.279	436.78
1038.566	446.73
1038.853	446.73
1039.14	446.73
