Data from blue_clamp_base_FLMS001491_00041.txt Node
Date: Wed Feb 08 15:16:03 GMT 2017
User: dcchb
Spectrometer: FLMS00149
Trigger mode: 0
Integration Time (sec): 2.000000E-2
Scans to average: 10
Electric dark correction enabled: true
Nonlinearity correction enabled: false
Boxcar width: 0
XAxis mode: Wavelengths
Number of Pixels in Spectrum: 2048
>>>>>Begin Spectral Data<<<<<
341.393	-6.82
341.776	-6.82
342.16	-6.82
342.543	-43.66
342.927	-67.16
343.31	-58.8
343.693	-70.1
344.077	-73.03
344.46	-61.28
344.843	-59.93
345.226	-33.26
345.61	-45.01
345.993	-14.28
346.376	-19.93
346.759	1.09
347.142	33.4
347.525	44.7
347.908	66.62
348.291	69.11
348.674	110.01
349.057	110.69
349.44	135.77
349.823	152.27
350.206	146.62
350.588	216.45
350.971	203.12
351.354	241.08
351.737	233.4
352.119	241.53
352.502	271.59
352.884	286.28
353.267	292.15
353.65	295.54
354.032	330.8
354.414	314.98
354.797	310.23
355.179	325.82
355.562	331.47
355.944	348.42
356.326	357.01
356.709	359.27
357.091	346.39
357.473	367.63
357.855	345.03
358.238	358.14
358.62	360.4
359.002	361.3
359.384	336.45
359.766	358.82
360.148	347.29
360.53	340.29
360.912	334.64
361.294	351.13
361.676	356.11
362.057	338.03
362.439	368.99
362.821	350.46
363.203	337.8
363.584	336.67
363.966	347.75
364.348	325.15
364.729	347.52
365.111	322.89
365.493	347.29
365.874	348.2
366.256	337.35
366.637	338.93
367.019	317.69
367.4	336.22
367.781	321.76
368.163	346.84
368.544	351.59
368.925	335.09
369.306	345.94
369.688	319.27
370.069	320.4
370.45	337.8
370.831	312.49
371.212	335.54
371.593	355.43
371.974	321.08
372.355	328.08
372.736	339.38
373.117	355.65
373.498	339.38
373.879	335.77
374.26	343.68
374.641	328.08
375.021	332.83
375.402	339.61
375.783	342.32
376.163	359.27
376.544	357.24
376.925	360.63
377.305	343.68
377.686	342.55
378.066	374.41
378.447	381.64
378.827	371.02
379.208	373.28
379.588	363.11
379.968	356.56
380.349	353.85
380.729	382.09
381.109	378.48
381.489	386.61
381.87	372.83
382.25	390
382.63	380.29
383.01	386.84
383.39	388.87
383.77	394.98
384.15	401.98
384.53	394.75
384.91	414.86
385.29	389.33
385.67	407.86
386.049	407.86
386.429	400.63
386.809	406.73
387.189	399.04
387.568	444.01
387.948	404.01
388.328	417.57
388.707	440.17
389.087	439.27
389.466	448.99
389.846	439.04
390.225	464.8
390.605	435.43
390.984	413.05
391.363	447.4
391.743	430.91
392.122	448.08
392.501	453.05
392.881	456.89
393.26	460.51
393.639	473.62
394.018	483.11
394.397	477.91
394.776	471.81
395.155	485.14
395.534	505.93
395.913	509.32
396.292	499.38
396.671	522.88
397.05	513.62
397.429	502.09
397.808	533.5
398.186	510.9
398.565	536.67
398.944	541.41
399.323	538.02
399.701	547.51
400.08	552.26
400.458	529.44
400.837	570.56
401.215	554.75
401.594	575.99
401.972	594.07
402.351	579.38
402.729	569.66
403.107	603.78
403.486	599.04
403.864	603.78
404.242	609.66
404.62	620.73
404.999	625.25
405.377	630.22
405.755	629.09
406.133	651.47
406.511	631.81
406.889	654.63
407.267	697.57
407.645	702.76
408.023	684.23
408.401	696.89
408.779	710.45
409.156	714.52
409.534	749.54
409.912	760.16
410.29	760.62
410.667	765.81
411.045	735.76
411.422	779.82
411.8	775.3
412.178	782.08
412.555	771.91
412.933	821.18
413.31	820.5
413.687	852.59
414.065	844
414.442	860.95
414.819	837.68
415.197	858.01
415.574	881.29
415.951	873.61
416.328	907.28
416.705	912.7
417.082	910.22
417.46	907.5
417.837	914.96
418.214	917
418.591	934.62
418.967	951.8
419.344	961.29
419.721	940.72
420.098	949.54
420.475	998.58
420.852	992.7
421.228	1014.39
421.605	1036.31
421.982	1019.37
422.358	1032.92
422.735	1057.78
423.111	1064.34
423.488	1074.28
423.864	1060.72
424.241	1095.75
424.617	1107.73
424.994	1128.29
425.37	1130.78
425.746	1116.54
426.123	1147.95
426.499	1156.99
426.875	1147.95
427.251	1190.21
427.627	1199.93
428.003	1243.09
428.379	1226.59
428.756	1254.84
429.132	1283.54
429.507	1295.97
429.883	1294.16
430.259	1326.48
430.635	1350.43
431.011	1350.2
431.387	1389.53
431.763	1409.86
432.138	1381.84
432.514	1432.91
432.89	1456.19
433.265	1464.55
433.641	1464.1
434.016	1500.71
434.392	1504.32
434.767	1556.53
435.143	1532.35
435.518	1552.23
435.894	1556.53
436.269	1621.84
436.644	1609.18
437.02	1630.88
437.395	1619.58
437.77	1689.63
438.145	1693.92
438.52	1716.07
438.895	1696.86
439.271	1711.55
439.646	1786.35
440.021	1778.22
440.395	1794.71
440.77	1789.29
441.145	1805.33
441.52	1829.51
441.895	1825.45
442.27	1911.55
442.645	1878.33
443.019	1898.44
443.394	1905.44
443.769	1905.44
444.143	1928.04
444.518	1949.28
444.892	1947.93
445.267	1959.45
445.641	2005.33
446.016	1982.28
446.39	2035.38
446.764	2021.83
447.139	2030.64
447.513	2084.87
447.887	2064.31
448.262	2097.08
448.636	2077.19
449.01	2121.71
449.384	2143.63
449.758	2163.52
450.132	2160.35
450.506	2214.59
450.88	2205.1
451.254	2196.74
451.628	2231.09
452.002	2295.49
452.376	2308.82
452.75	2339.33
453.123	2343.85
453.497	2369.39
453.871	2418.88
454.244	2394.02
454.618	2436.05
454.992	2472.43
455.365	2471.76
455.739	2564.64
456.112	2567.57
456.486	2577.97
456.859	2635.37
457.232	2641.7
457.606	2612.32
457.979	2673.79
458.352	2749.04
458.725	2747.91
459.099	2775.48
459.472	2828.58
459.845	2866.1
460.218	2926.43
460.591	2912.42
460.964	2956.04
461.337	2978.41
461.71	3030.39
462.083	3016.83
462.456	3027.22
462.829	3091.63
463.201	3087.56
463.574	3132.98
463.947	3193.77
464.32	3249.36
464.692	3260.44
465.065	3283.71
465.438	3317.84
465.81	3349.47
466.183	3381.56
466.555	3414.33
466.928	3438.51
467.3	3488.23
467.672	3512.18
468.045	3592.86
468.417	3566.87
468.789	3616.36
469.161	3630.6
469.534	3717.37
469.906	3860.2
470.278	3797.6
470.65	3805.51
471.022	3878.5
471.394	3944.49
471.766	4055.9
472.138	4023.35
472.51	4157.59
472.882	4149
473.253	4216.34
473.625	4241.43
473.997	4310.8
474.369	4375.66
474.74	4432.61
475.112	4453.63
475.484	4559.39
475.855	4601.64
476.227	4626.5
476.598	4700.85
476.97	4819.94
477.341	4882.32
477.713	4911.92
478.084	4913.95
478.455	5015.64
478.827	5092.71
479.198	5222.19
479.569	5199.37
479.94	5358.01
480.311	5352.36
480.682	5400.72
481.053	5569.98
481.424	5637.78
481.795	5692.24
482.166	5701.95
482.537	5791.22
482.908	5935.17
483.279	5900.82
483.65	6040.25
484.021	6085.67
484.391	6139.68
484.762	6129.51
485.133	6273.24
485.503	6300.81
485.874	6404.76
486.244	6440.01
486.615	6570.18
486.985	6544.42
487.356	6717.07
487.726	6735.37
488.097	6774.47
488.467	6805.65
488.837	6922.49
489.207	6987.8
489.578	7064.4
489.948	7134.23
490.318	7208.36
490.688	7213.55
491.058	7233.44
491.428	7365.64
491.798	7379.2
492.168	7464.17
492.538	7477.95
492.908	7512.75
493.278	7630.49
493.648	7625.29
494.017	7692.86
494.387	7726.76
494.757	7781
495.126	7837.04
495.496	7849.69
495.866	7813.31
496.235	7991.16
496.605	7998.84
496.974	8045.4
497.344	8057.6
497.713	8089.46
498.082	8099.41
498.452	8208.56
498.821	8180.08
499.19	8192.96
499.559	8280.42
499.928	8295.11
500.298	8339.85
500.667	8372.84
501.036	8358.83
501.405	8378.95
501.774	8359.96
502.143	8421.21
502.512	8442.22
502.88	8545.04
503.249	8486.06
503.618	8521.32
503.987	8573.52
504.356	8518.15
504.724	8650.58
505.093	8674.31
505.462	8684.02
505.83	8677.47
506.199	8750.24
506.567	8806.51
506.936	8776.9
507.304	8889.22
507.672	8935.32
508.041	8929.21
508.409	8913.62
508.777	9044.47
509.145	9101.19
509.514	9020.06
509.882	9078.81
510.25	9059.15
510.618	9082.2
510.986	9147.97
511.354	9217.57
511.722	9222.31
512.09	9324.46
512.458	9245.36
512.826	9296.44
513.193	9370.11
513.561	9354.74
513.929	9455.75
514.297	9475.87
514.664	9475.87
515.032	9489.43
515.4	9594.51
515.767	9637.67
516.135	9624.56
516.502	9574.85
516.869	9669.53
517.237	9694.39
517.604	9696.65
517.972	9766.93
518.339	9798.57
518.706	9860.26
519.073	9876.31
519.44	9931.67
519.808	9938.23
520.175	9889.64
520.542	10043.31
520.909	10058
521.276	10085.57
521.643	10128.05
522.009	10148.17
522.376	10089.18
522.743	10298.9
523.11	10300.93
523.477	10387.71
523.843	10367.59
524.21	10406.92
524.577	10551.77
524.943	10514.26
525.31	10667.93
525.676	10675.61
526.043	10639.9
526.409	10737.98
526.776	10791.09
527.142	10830.86
527.508	10896.17
527.874	11046.22
528.241	11006.9
528.607	10966
528.973	11098.87
529.339	11058.88
529.705	11172.77
530.071	11283.95
530.437	11275.14
530.803	11304.97
531.169	11456.83
531.535	11286.21
531.901	11498.86
532.267	11472.88
532.632	11573.44
532.998	11602.59
533.364	11617.51
533.73	11605.08
534.095	11723.49
534.461	11712.19
534.826	11756.71
535.192	11710.61
535.557	11899.31
535.923	11946.99
536.288	11831.28
536.653	11940.21
537.019	11900.44
537.384	12001.9
537.749	12001.22
538.114	12028.34
538.479	12143.14
538.845	12179.3
539.21	12157.15
539.575	12161.67
539.94	12240.99
540.305	12236.25
540.67	12303.14
541.034	12301.33
541.399	12384.72
541.764	12385.17
542.129	12427.43
542.494	12482.12
542.858	12450.93
543.223	12528.22
543.587	12603.02
543.952	12548.33
544.316	12669
544.681	12654.77
545.045	12636.91
545.41	12709
545.774	12691.6
546.138	12718.72
546.503	12823.35
546.867	12819.96
547.231	12885.04
547.595	12863.35
547.959	12939.5
548.324	12868.32
548.688	12918.04
549.052	13005.94
549.416	12996.9
549.779	13032.16
550.143	13002.55
550.507	13174.07
550.871	13120.29
551.235	13217.24
551.599	13245.94
551.962	13265.82
552.326	13322.77
552.689	13390.57
553.053	13311.7
553.417	13338.14
553.78	13462.88
554.143	13436.44
554.507	13547.17
554.87	13536.32
555.234	13664.68
555.597	13592.59
555.96	13693.38
556.323	13596.89
556.686	13721.18
557.05	13779.03
557.413	13800.05
557.776	13801.85
558.139	13851.57
558.502	13917.78
558.865	13872.59
559.228	13941.29
559.59	14014.96
559.953	14120.72
560.316	14157.55
560.679	14216.53
561.041	14197.78
561.404	14285.23
561.767	14380.6
562.129	14382.4
562.492	14506.92
562.854	14445.45
563.217	14461.05
563.579	14520.93
563.941	14580.59
564.304	14630.99
564.666	14747.82
565.028	14736.07
565.39	14807.93
565.753	14956.63
566.115	14909.17
566.477	14910.53
566.839	15057.87
567.201	15033.91
567.563	15138.54
567.925	15158.43
568.287	15228.26
568.648	15238.43
569.01	15380.12
569.372	15481.36
569.734	15414.69
570.095	15503.05
570.457	15497.18
570.819	15569.94
571.18	15643.39
571.542	15702.6
571.903	15743.27
572.265	15764.51
572.626	15877.96
572.987	15827.34
573.349	15910.73
573.71	16003.15
574.071	16056.94
574.432	16035.24
574.794	16213.77
575.155	16239.53
575.516	16159.76
575.877	16176.03
576.238	16237.27
576.599	16360.21
576.96	16344.61
577.32	16437.49
577.681	16486.3
578.042	16543.25
578.403	16532.86
578.763	16495.12
579.124	16554.32
579.485	16649.69
579.845	16609.46
580.206	16670.71
580.566	16605.62
580.927	16680.65
581.287	16708.44
581.648	16667.99
582.008	16785.96
582.368	16678.62
582.728	16760.65
583.089	16801.78
583.449	16827.76
583.809	16845.39
584.169	16874.09
584.529	16797.48
584.889	16907.08
585.249	16789.57
585.609	16860.53
585.969	16825.05
586.329	16878.61
586.688	16873.41
587.048	16937.14
587.408	16907.31
587.768	16948.21
588.127	16920.87
588.487	16888.33
588.846	17053.75
589.206	16880.19
589.565	16919.29
589.925	17006.97
590.284	16979.85
590.643	16973.52
591.003	17049
591.362	17063.46
591.721	17141.88
592.08	17137.59
592.44	17129.9
592.799	17058.27
593.158	17056.23
593.517	17080.41
593.876	17126.51
594.235	17149.79
594.593	17124.25
594.952	17174.65
595.311	17200.18
595.67	17246.28
596.029	17266.85
596.387	17316.11
596.746	17349.78
597.104	17213.97
597.463	17281.99
597.822	17376.9
598.18	17246.74
598.538	17213.97
598.897	17335.1
599.255	17153.86
599.613	17414.87
599.972	17263.23
600.33	17327.41
600.688	17316.56
601.046	17351.82
601.404	17439.73
601.762	17382.55
602.12	17446.73
602.478	17420.97
602.836	17550
603.194	17392.27
603.552	17434.98
603.91	17270.46
604.268	17455.54
604.625	17462.1
604.983	17549.78
605.341	17417.13
605.698	17565.6
606.056	17561.3
606.413	17550.46
606.771	17625.93
607.128	17557.24
607.485	17528.31
607.843	17571.02
608.2	17519.5
608.557	17702.77
608.914	17636.56
609.272	17741.19
609.629	17736.44
609.986	17775.31
610.343	17689.21
610.7	17798.13
611.057	17733.95
611.414	17655.99
611.771	17773.28
612.127	17909.09
612.484	17841.75
612.841	17904.57
613.198	17861.63
613.554	17915.42
613.911	17928.75
614.267	17938.92
614.624	17916.55
614.98	18024.34
615.337	18123.77
615.693	18012.37
616.05	18096.88
616.406	18098.92
616.762	18078.58
617.118	18051.23
617.475	18077.9
617.831	18041.07
618.187	18209.2
618.543	18209.42
618.899	18300.72
619.255	18288.06
619.611	18242.64
619.967	18312.02
620.323	18265.69
620.678	18257.33
621.034	18305.92
621.39	18229.53
621.746	18362.64
622.101	18369.64
622.457	18378.46
622.812	18451.68
623.168	18439.25
623.523	18455.07
623.879	18424.56
624.234	18363.77
624.589	18453.03
624.945	18440.6
625.3	18486.93
625.655	18525.57
626.01	18533.93
626.365	18575.74
626.72	18594.5
627.075	18519.92
627.43	18532.58
627.785	18552.69
628.14	18543.42
628.495	18514.05
628.85	18543.88
629.205	18625.91
629.559	18659.81
629.914	18538.68
630.269	18643.31
630.623	18562.63
630.978	18508.4
631.332	18683.08
631.687	18673.82
632.041	18636.76
632.396	18601.73
632.75	18589.53
633.104	18678.11
633.459	18544.33
633.813	18661.39
634.167	18703.87
634.521	18688.51
634.875	18658.45
635.229	18668.17
635.583	18543.88
635.937	18672.91
636.291	18649.86
636.645	18670.43
636.999	18670.88
637.352	18728.28
637.706	18710.65
638.06	18758.56
638.413	18722.63
638.767	18682.86
639.121	18725.79
639.474	18592.46
639.828	18614.61
640.181	18634.5
640.534	18741.39
640.888	18660.03
641.241	18619.13
641.594	18768.28
641.947	18741.61
642.301	18744.32
642.654	18756.3
643.007	18701.39
643.36	18665.68
643.713	18712.23
644.066	18840.37
644.419	18803.98
644.771	18666.81
645.124	18324.67
645.477	18371
645.83	18277.9
646.182	18332.36
646.535	18300.27
646.888	18405.58
647.24	18335.29
647.593	18523.31
647.945	18387.27
648.298	18434.5
648.65	18293.94
649.002	18396.76
649.355	18472.01
649.707	18397.44
650.059	18588.4
650.411	18825.45
650.763	18766.47
651.115	18959.91
651.467	18920.82
651.819	18993.13
652.171	18983.41
652.523	18896.41
652.875	18967.14
653.227	18883.53
653.578	19097.08
653.93	19088.72
654.282	18965.56
654.633	19017.99
654.985	18907.71
655.337	19022.96
655.688	18972.34
656.039	19167.14
656.391	18977.76
656.742	19011.44
657.094	19011.89
657.445	19141.6
657.796	19085.11
658.147	19086.46
658.498	19060.93
658.849	19114.03
659.2	19111.32
659.551	19070.42
659.902	19142.05
660.253	19171.88
660.604	19174.37
660.955	19073.35
661.306	19144.76
661.656	19118.55
662.007	19103.86
662.358	19258.21
662.708	19168.04
663.059	19105.44
663.409	18944.54
663.76	19240.58
664.11	19180.92
664.461	19211.88
664.811	19188.83
665.161	19180.7
665.511	19161.49
665.862	19090.53
666.212	19217.76
666.562	19193.13
666.912	19312.44
667.262	19108.16
667.612	19163.75
667.962	19203.07
668.312	19096.86
668.662	19117.2
669.011	19255.04
669.361	19107.03
669.711	19138.21
670.06	19081.49
670.41	19010.31
670.76	19131.43
671.109	19115.84
671.459	18924.43
671.808	18895.28
672.157	19058.67
672.507	18867.03
672.856	18886.01
673.205	18840.37
673.554	18942.96
673.904	18848.28
674.253	18980.25
674.602	18715.4
674.951	18469.3
675.3	18469.08
675.649	18651.22
675.998	18680.14
676.346	18624.55
676.695	18648.96
677.044	18491
677.393	18513.6
677.741	18522.41
678.09	18452.81
678.438	18459.59
678.787	18485.8
679.135	18506.59
679.484	18278.57
679.832	18372.58
680.181	18242.64
680.529	18317.89
680.877	18245.35
681.225	18196.99
681.573	18269.53
681.922	18151.57
682.27	18113.15
682.618	18044.45
682.966	18012.59
683.314	18095.3
683.661	17981.18
684.009	17888.3
684.357	17940.73
684.705	17837
685.053	17840.62
685.4	17857.57
685.748	17766.5
686.095	17714.52
686.443	17651.92
686.79	17660.06
687.138	17658.48
687.485	17710.9
687.832	17634.3
688.18	17668.65
688.527	17493.96
688.874	17462.1
689.221	17512.27
689.568	17445.6
689.915	17421.19
690.262	17333.74
690.609	17398.6
690.956	17312.72
691.303	17442.21
691.65	17192.27
691.997	17270.92
692.344	17180.52
692.69	17161.31
693.037	17142.56
693.383	17061.66
693.73	17135.78
694.077	17049.45
694.423	17017.59
694.769	16997.02
695.116	16939.4
695.462	16976.69
695.808	16903.69
696.155	16941.43
696.501	16795.45
696.847	16761.55
697.193	16696.47
697.539	16855.33
697.885	16727.2
698.231	16604.27
698.577	16708.22
698.923	16703.7
699.269	16585.96
699.614	16552.52
699.96	16574.89
700.306	16468
700.651	16488.11
700.997	16504.38
701.342	16390.26
701.688	16438.85
702.033	16442.69
702.379	16458.73
702.724	16360.43
703.069	16405.18
703.415	16317.04
703.76	16239.3
704.105	16322.24
704.45	16270.94
704.795	16154.11
705.14	16120.44
705.485	16142.81
705.83	16169.48
706.175	16123.15
706.52	16118.86
706.865	16046.32
707.209	16085.18
707.554	15935.81
707.899	16020.33
708.243	15941.46
708.588	15995.92
708.932	15850.84
709.277	15868.01
709.621	15900.78
709.966	15813.55
710.31	15861.01
710.654	15794.34
710.998	15816.72
711.342	15864.4
711.687	15804.51
712.031	15667.79
712.375	15687.91
712.719	15675.25
713.063	15730.84
713.407	15751.86
713.75	15745.98
714.094	15714.35
714.438	15616.04
714.782	15706.66
715.125	15678.64
715.469	15665.76
715.812	15558.87
716.156	15597.74
716.499	15501.47
716.843	15530.17
717.186	15563.16
717.53	15632.31
717.873	15611.07
718.216	15465.54
718.559	15529.04
718.902	15359.33
719.246	15461.47
719.589	15376.05
719.932	15393.23
720.275	15415.6
720.617	15453.34
720.96	15440.23
721.303	15359.78
721.646	15342.61
721.989	15320.01
722.331	15436.39
722.674	15327.46
723.016	15379.44
723.359	15386.67
723.701	15389.84
724.044	15307.35
724.386	15143.29
724.729	15385.99
725.071	15308.71
725.413	15320.23
725.755	15295.37
726.097	15228.26
726.439	15169.28
726.782	15192.78
727.124	15235.04
727.465	15207.24
727.807	15211.54
728.149	15221.25
728.491	15077.53
728.833	15230.52
729.175	15131.76
729.516	15117.3
729.858	15151.42
730.199	15175.38
730.541	15117.98
730.882	15113.23
731.224	15197.3
731.565	15117.07
731.906	15189.84
732.248	15186.22
732.589	15134.47
732.93	15183.97
733.271	15164.08
733.612	15193.68
733.953	15186
734.294	15135.38
734.635	15191.42
734.976	15262.38
735.317	15091.76
735.658	15200.69
735.999	15130.41
736.339	15142.16
736.68	15320.23
737.021	15167.92
737.361	15155.27
737.702	15306.9
738.042	15280.69
738.383	15321.36
738.723	15391.42
739.063	15295.37
739.404	15320.01
739.744	15325.88
740.084	15363.4
740.424	15332.89
740.764	15400.23
741.104	15480.23
741.444	15397.29
741.784	15391.87
742.124	15403.85
742.464	15502.83
742.804	15514.35
743.143	15527.01
743.483	15513.22
743.823	15486.33
744.162	15517.52
744.502	15745.08
744.841	15445.43
745.181	15635.48
745.52	15669.38
745.86	15680.68
746.199	15633.9
746.538	15715.48
746.877	15895.58
747.216	15863.5
747.556	15778.3
747.895	15942.36
748.234	15909.37
748.573	15955.02
748.911	15961.8
749.25	15959.09
749.589	15930.39
749.928	15983.04
750.267	16032.53
750.605	16064.39
750.944	16070.95
751.283	16024.85
751.621	16165.41
751.96	16084.05
752.298	16140.78
752.636	16255.35
752.975	16125.41
753.313	16162.92
753.651	16292.64
753.989	16244.95
754.327	16242.02
754.666	16310.49
755.004	16419.86
755.342	16350.94
755.679	16387.55
756.017	16299.64
756.355	16344.84
756.693	16453.31
757.031	16412.41
757.368	16323.14
757.706	16443.14
758.044	16434.1
758.381	16519.98
758.719	16530.14
759.056	16523.59
759.394	16506.19
759.731	16475.68
760.068	16568.56
760.405	16525.85
760.743	16507.09
761.08	16643.36
761.417	16604.04
761.754	16576.7
762.091	16529.47
762.428	16595.68
762.765	16622.35
763.102	16694.43
763.438	16583.48
763.775	16602.68
764.112	16638.39
764.449	16693.53
764.785	16695.11
765.122	16622.12
765.458	16599.3
765.795	16547.09
766.131	16609.46
766.467	16684.26
766.804	16637.49
767.14	16619.86
767.476	16561.56
767.812	16664.6
768.148	16673.64
768.485	16573.76
768.821	16549.58
769.157	16549.58
769.492	16532.86
769.828	16525.85
770.164	16493.08
770.5	16460.99
770.836	16534.21
771.171	16477.49
771.507	16484.5
771.842	16340.54
772.178	16484.27
772.513	16418.06
772.849	16474.33
773.184	16425.97
773.519	16405.85
773.855	16415.8
774.19	16361.56
774.525	16344.84
774.86	16365.4
775.195	16404.5
775.53	16359.75
775.865	16316.36
776.2	16282.24
776.535	16223.03
776.87	16251.96
777.205	16235.69
777.539	16193.88
777.874	16253.54
778.209	16146.65
778.543	16157.05
778.878	16172.19
779.212	16192.3
779.547	16082.25
779.881	16179.87
780.215	16123.38
780.55	16083.15
780.884	16101.68
781.218	16105.52
781.552	16078.4
781.886	16054.22
782.22	16022.81
782.554	15948.92
782.888	15887.45
783.222	15772.88
783.556	15807.68
783.889	15809.49
784.223	15748.47
784.557	15678.19
784.89	15804.97
785.224	15671.64
785.557	15572.43
785.891	15682.03
786.224	15600.45
786.558	15736.49
786.891	15543.73
787.224	15644.29
787.557	15580.79
787.891	15606.33
788.224	15562.03
788.557	15527.46
788.89	15531.98
789.223	15519.1
789.556	15381.25
789.888	15503.5
790.221	15359.1
790.554	15287.69
790.887	15428.48
791.219	15329.95
791.552	15296.28
791.884	15248.14
792.217	15223.51
792.549	15116.4
792.882	15213.57
793.214	15135.38
793.546	15120.69
793.879	15064.42
794.211	15017.87
794.543	15071.2
794.875	14998.66
795.207	15148.26
795.539	14993.91
795.871	15000.69
796.203	14910.07
796.535	14911.2
796.867	14906.91
797.198	14824.43
797.53	14913.01
797.862	14783.75
798.193	14815.39
798.525	14782.17
798.856	14687.03
799.188	14608.39
799.519	14588.73
799.85	14600.7
800.182	14576.52
800.513	14559.57
800.844	14528.16
801.175	14550.08
801.506	14520.71
801.837	14549.41
802.168	14535.39
802.499	14510.54
802.83	14447.04
803.161	14351.44
803.491	14445.23
803.822	14393.25
804.153	14189.64
804.483	14219.02
804.814	14226.93
805.145	14181.96
805.475	14249.98
805.805	14119.13
806.136	14239.58
806.466	14249.98
806.796	14195.74
807.126	14067.84
807.457	14148.51
807.787	14024.22
808.117	14005.69
808.447	14004.79
808.777	14015.86
809.107	13973.38
809.436	13918.46
809.766	13882.76
810.096	13847.05
810.426	13826.03
810.755	13903.09
811.085	13842.31
811.414	13797.11
811.744	13689.77
812.073	13722.08
812.403	13719.82
812.732	13645.93
813.061	13601.18
813.39	13603.44
813.719	13560.73
814.049	13613.38
814.378	13485.7
814.707	13463.78
815.036	13558.25
815.365	13418.59
815.693	13436.44
816.022	13419.94
816.351	13376.1
816.68	13277.35
817.008	13386.95
817.337	13311.47
817.665	13239.16
817.994	13291.81
818.322	13259.04
818.651	13234.86
818.979	13186.05
819.307	13215.88
819.636	13116.45
819.964	13075.77
820.292	13228.31
820.62	13190.35
820.948	13102.21
821.276	13129.56
821.604	13049.78
821.932	13062.89
822.259	13161.65
822.587	13146.96
822.915	13090.46
823.243	13152.61
823.57	13136.79
823.898	13177.46
824.225	13057.69
824.553	13101.08
824.88	13110.8
825.207	13144.24
825.535	13088.88
825.862	13218.82
826.189	13039.16
826.516	13152.83
826.843	13201.42
827.17	13205.94
827.497	13189.44
827.824	13174.53
828.151	13190.35
828.478	13147.86
828.805	13282.32
829.131	13231.25
829.458	13177.01
829.785	13077.58
830.111	13178.82
830.438	13220.85
830.764	13222.89
831.09	13242.32
831.417	13179.27
831.743	13157.13
832.069	13233.73
832.395	13130.23
832.722	13233.96
833.048	13219.95
833.374	13233.73
833.7	13135.66
834.026	13139.73
834.351	13216.33
834.677	13193.28
835.003	13160.52
835.329	13242.77
835.654	13112.38
835.98	13038.94
836.306	13046.17
836.631	13019.5
836.956	13114.64
837.282	13082.55
837.607	12977.7
837.932	13000.07
838.258	13044.81
838.583	13006.17
838.908	12968.43
839.233	13030.12
839.558	12930.92
839.883	12877.36
840.208	12851.82
840.533	12970.01
840.858	12879.39
841.182	12849.11
841.507	12822.9
841.832	12729.34
842.156	12787.42
842.481	12801.65
842.805	12797.36
843.13	12740.87
843.454	12655.9
843.778	12656.12
844.103	12598.27
844.427	12594.2
844.751	12674.2
845.075	12530.48
845.399	12558.05
845.723	12429.91
846.047	12506.3
846.371	12390.82
846.695	12405.28
847.019	12270.14
847.343	12243.03
847.666	12242.57
847.99	12129.58
848.313	12173.65
848.637	12052.75
848.96	12081.9
849.284	12059.98
849.607	11985.63
849.931	11945.18
850.254	11769.59
850.577	11838.06
850.9	11665.87
851.223	11785.64
851.546	11643.27
851.869	11691.4
852.192	11650.27
852.515	11539.99
852.838	11542.93
853.161	11537.96
853.483	11441.46
853.806	11391.52
854.129	11407.34
854.451	11314.91
854.774	11312.2
855.096	11281.47
855.419	11162.83
855.741	11200.57
856.063	11173.68
856.385	11107.69
856.708	11111.3
857.03	11016.39
857.352	11038.99
857.674	10961.25
857.996	10943.85
858.318	10900.24
858.64	10906.79
858.961	10783.18
859.283	10805.32
859.605	10761.03
859.926	10879.45
860.248	10765.1
860.57	10729.17
860.891	10775.72
861.212	10722.84
861.534	10706.57
861.855	10672.9
862.176	10762.39
862.498	10651.2
862.819	10579.57
863.14	10620.02
863.461	10631.54
863.782	10567.14
864.103	10551.09
864.424	10534.82
864.745	10537.99
865.065	10494.82
865.386	10436.75
865.707	10443.3
866.027	10457.76
866.348	10421.83
866.668	10445.11
866.989	10392.9
867.309	10372.57
867.63	10374.15
867.95	10325.79
868.27	10253.02
868.59	10276.75
868.91	10203.76
869.23	10185.23
869.55	10212.8
869.87	10282.85
870.19	10235.62
870.51	10201.5
870.83	10302.29
871.15	10118.34
871.469	10126.7
871.789	10100.71
872.109	10114.27
872.428	10033.59
872.748	10044.67
873.067	10040.37
873.386	10035.4
873.706	10061.16
874.025	10047.83
874.344	9969.86
874.663	10037.66
874.982	10037.43
875.301	9988.62
875.62	9959.24
875.939	9907.95
876.258	9941.39
876.577	9915.86
876.896	9865.46
877.214	9843.99
877.533	9887.16
877.852	9835.63
878.17	9884.22
878.489	9879.7
878.807	9794.05
879.125	9808.97
879.444	9790.89
879.762	9725.35
880.08	9744.56
880.398	9723.54
880.716	9726.93
881.034	9683.09
881.352	9701.85
881.67	9604.68
881.988	9655.3
882.306	9559.25
882.624	9626.15
882.941	9500.95
883.259	9512.25
883.577	9512.48
883.894	9480.39
884.212	9480.61
884.529	9491.46
884.846	9433.83
885.164	9374.63
885.481	9399.71
885.798	9439.26
886.115	9288.53
886.432	9302.54
886.75	9295.08
887.067	9291.69
887.383	9276.1
887.7	9212.6
888.017	9163.11
888.334	9203.33
888.651	9229.77
888.967	9174.18
889.284	9142.54
889.6	9110
889.917	9041.3
890.233	9073.62
890.55	8994.75
890.866	9067.52
891.182	9044.69
891.498	8907.07
891.815	8909.55
892.131	8902.1
892.447	8918.59
892.763	8867.52
893.079	8841.08
893.395	8847.18
893.71	8766.28
894.026	8734.19
894.342	8712.72
894.657	8684.7
894.973	8676.57
895.289	8678.15
895.604	8613.97
895.92	8593.86
896.235	8595.66
896.55	8521.77
896.865	8507.3
897.181	8512.05
897.496	8440.41
897.811	8461.2
898.126	8415.1
898.441	8337.82
898.756	8405.39
899.071	8298.27
899.386	8301.43
899.7	8248.78
900.015	8241.1
900.33	8144.83
900.644	8138.95
900.959	8183.02
901.273	8109.8
901.588	8061.44
901.902	7984.61
902.216	7998.62
902.531	8049.24
902.845	7989.35
903.159	7925.4
903.473	7858.73
903.787	7830.49
904.101	7851.95
904.415	7800.43
904.729	7795.91
905.042	7718.4
905.356	7787.78
905.67	7715.69
905.984	7652.86
906.297	7634.33
906.611	7578.74
906.924	7565.63
907.237	7571.51
907.551	7480.89
907.864	7547.1
908.177	7464.85
908.491	7488.35
908.804	7436.15
909.117	7398.63
909.43	7295.59
909.743	7294.46
910.056	7315.02
910.368	7265.53
910.681	7235.7
910.994	7190.5
911.307	7146.89
911.619	7072.54
911.932	7157.51
912.244	7095.36
912.557	7044.97
912.869	7038.42
913.181	6969.94
913.494	6936.72
913.806	6921.36
914.118	6938.08
914.43	6848.37
914.742	6865.77
915.054	6796.16
915.366	6780.57
915.678	6828.93
915.99	6738.54
916.302	6678.43
916.613	6680.69
916.925	6663.74
917.236	6663.06
917.548	6662.38
917.859	6611.99
918.171	6562.27
918.482	6539.45
918.794	6511.88
919.105	6507.81
919.416	6424.2
919.727	6441.6
920.038	6457.87
920.349	6360.24
920.66	6336.51
920.971	6370.64
921.282	6351.2
921.593	6249.74
921.903	6223.07
922.214	6219
922.525	6200.25
922.835	6205.67
923.146	6165.67
923.456	6114.6
923.767	6053.36
924.077	6067.59
924.387	6024.43
924.697	6042.96
925.008	5968.16
925.318	5929.29
925.628	5976.52
925.938	5947.15
926.248	5829.86
926.558	5845
926.867	5893.81
927.177	5834.61
927.487	5797.55
927.796	5762.97
928.106	5742.18
928.416	5694.27
928.725	5718.45
929.034	5659.24
929.344	5657.89
929.653	5663.76
929.962	5560.04
930.271	5572.47
930.581	5537.44
930.89	5503.54
931.199	5488.85
931.508	5447.95
931.817	5447.95
932.125	5473.94
932.434	5421.74
932.743	5434.17
933.051	5372.47
933.36	5318.69
933.669	5299.25
933.977	5294.06
934.286	5277.11
934.594	5253.38
934.902	5219.48
935.21	5191.01
935.519	5165.7
935.827	5163.89
936.135	5117.34
936.443	5113.04
936.751	5090.67
937.059	5038.02
937.367	5093.38
937.674	5075.08
937.982	4992.37
938.29	5023.55
938.597	4952.14
938.905	4939.49
939.213	4904.24
939.52	4898.13
939.827	4884.12
940.135	4883.45
940.442	4850.23
940.749	4790.11
941.056	4819.72
941.363	4782.43
941.67	4760.06
941.977	4726.84
942.284	4727.97
942.591	4680.06
942.898	4732.04
943.205	4637.35
943.511	4626.73
943.818	4664.47
944.125	4598.03
944.431	4589.44
944.738	4569.33
945.044	4534.75
945.35	4498.37
945.657	4507.41
945.963	4489.33
946.269	4487.3
946.575	4478.26
946.881	4444.59
947.187	4453.17
947.493	4399.39
947.799	4386.73
948.105	4335.66
948.41	4318.71
948.716	4317.36
949.022	4278.94
949.327	4282.33
949.633	4204.82
949.938	4244.14
950.244	4251.6
950.549	4159.17
950.854	4184.71
951.16	4155.55
951.465	4112.62
951.77	4107.87
952.075	4100.41
952.38	4097.03
952.685	4118.04
952.99	4021.32
953.294	4051.6
953.599	4010.25
953.904	3988.78
954.209	3993.3
954.513	3977.25
954.818	3951.49
955.122	3949.46
955.426	3942.23
955.731	3900.65
956.035	3864.94
956.339	3865.17
956.643	3847.99
956.948	3829.91
957.252	3823.59
957.556	3832.85
957.86	3771.84
958.163	3786.52
958.467	3735.9
958.771	3734.55
959.075	3702.23
959.378	3713.08
959.682	3662.23
959.985	3688.67
960.289	3648
960.592	3607.55
960.896	3643.25
961.199	3560.99
961.502	3614.1
961.805	3589.02
962.108	3536.36
962.411	3557.15
962.714	3517.61
963.017	3504.72
963.32	3517.38
963.623	3509.24
963.926	3481.45
964.228	3486.65
964.531	3461.34
964.833	3397.83
965.136	3416.14
965.438	3403.48
965.741	3410.72
966.043	3378.63
966.345	3349.47
966.648	3321
966.95	3334.11
967.252	3305.63
967.554	3298.63
967.856	3308.57
968.158	3270.61
968.46	3268.12
968.761	3248.46
969.063	3194.9
969.365	3221.57
969.666	3173.66
969.968	3206.65
970.269	3166.2
970.571	3155.35
970.872	3152.87
971.174	3130.27
971.475	3131.63
971.776	3129.37
972.077	3065.19
972.378	3069.03
972.679	3046.21
972.98	3053.21
973.281	3027
973.582	3051.4
973.883	3006.43
974.183	3002.59
974.484	3010.73
974.785	2978.64
975.085	2928.47
975.386	2939.54
975.686	2926.21
975.986	2917.4
976.287	2909.03
976.587	2888.47
976.887	2899.99
977.187	2854.8
977.487	2872.2
977.787	2853.44
978.087	2806.89
978.387	2823.39
978.687	2819.32
978.987	2820.9
979.286	2752.43
979.586	2792.43
979.885	2801.24
980.185	2748.59
980.484	2735.03
980.784	2717.17
981.083	2708.14
981.382	2712.88
981.682	2689.15
981.981	2659.1
982.28	2683.28
982.579	2675.37
982.878	2649.61
983.177	2666.78
983.475	2654.13
983.774	2641.7
984.073	2586.1
984.372	2562.6
984.67	2578.42
984.969	2549.5
985.267	2549.27
985.566	2551.75
985.864	2523.73
986.162	2526.22
986.461	2490.06
986.759	2454.36
987.057	2481.7
987.355	2476.73
987.653	2486.45
987.951	2453.68
988.249	2435.15
988.547	2416.39
988.844	2416.84
989.142	2413.23
989.44	2358.31
989.737	2372.55
990.035	2351.08
990.332	2388.82
990.63	2335.49
990.927	2344.98
991.224	2304.08
991.521	2310.86
991.819	2302.04
992.116	2298.65
992.413	2300.91
992.71	2267.47
993.006	2276.73
993.303	2255.49
993.6	2256.85
993.897	2263.63
994.193	2215.94
994.49	2216.85
994.787	2210.97
995.083	2173.46
995.379	2179.56
995.676	2161.93
995.972	2177.3
996.268	2149.05
996.565	2129.39
996.861	2106.79
997.157	2124.65
997.453	2127.13
997.749	2086.46
998.044	2095.5
998.34	2064.54
998.636	2069.06
998.932	2073.12
999.227	2055.27
999.523	2052.56
999.818	2023.63
1000.114	1980.24
1000.409	2012.11
1000.704	1973.47
1001	2003.75
1001.295	1981.6
1001.59	1980.02
1001.885	1975.27
1002.18	1931.88
1002.475	1925.56
1002.77	1917.87
1003.065	1910.87
1003.359	1886.46
1003.654	1896.86
1003.949	1865.22
1004.243	1880.59
1004.538	1876.74
1004.832	1841.94
1005.127	1849.63
1005.421	1820.25
1005.715	1831.1
1006.009	1834.26
1006.304	1801.27
1006.598	1781.15
1006.892	1769.63
1007.186	1777.99
1007.48	1779.35
1007.773	1746.13
1008.067	1767.37
1008.361	1767.14
1008.655	1716.52
1008.948	1693.7
1009.242	1698.9
1009.535	1690.08
1009.829	1694.6
1010.122	1667.94
1010.415	1696.18
1010.708	1628.84
1011.001	1659.35
1011.295	1626.81
1011.588	1620.93
1011.881	1628.84
1012.173	1626.58
1012.466	1599.01
1012.759	1569.63
1013.052	1589.29
1013.344	1575.06
1013.637	1550.43
1013.93	1535.74
1014.222	1535.28
1014.514	1546.81
1014.807	1534.38
1015.099	1523.76
1015.391	1519.47
1015.683	1494.61
1015.976	1497.09
1016.268	1478.34
1016.56	1473.59
1016.851	1463.65
1017.143	1469.07
1017.435	1444.44
1017.727	1405.8
1018.018	1441.5
1018.31	1417.55
1018.602	1427.04
1018.893	1420.71
1019.185	1403.31
1019.476	1382.75
1019.767	1371.22
1020.058	1368.74
1020.35	1398.11
1020.641	1330.09
1020.932	1308.85
1021.223	1320.6
1021.514	1332.13
1021.804	1313.14
1022.095	1296.19
1022.386	1303.88
1022.677	1278.12
1022.967	1273.82
1023.258	1246.93
1023.548	1265.69
1023.839	1223.65
1024.129	1251.45
1024.419	1251
1024.709	1234.95
1025	1222.98
1025.29	1183.66
1025.58	1199.7
1025.87	1209.42
1026.16	1212.36
1026.449	1192.47
1026.739	1174.16
1027.029	1189.53
1027.319	1151.79
1027.608	1170.77
1027.898	1156.31
1028.187	1153.15
1028.477	1125.35
1028.766	1172.58
1029.055	1150.89
1029.344	1137.78
1029.634	1093.71
1029.923	1122.41
1030.212	1079.25
1030.501	1083.32
1030.79	1054.62
1031.078	1076.54
1031.367	1069.76
1031.656	1069.76
1031.945	1060.27
1032.233	1015.98
1032.522	1024.34
1032.81	1029.54
1033.099	1017.78
1033.387	1033.38
1033.675	1000.61
1033.963	1011.23
1034.251	997.22
1034.54	983.43
1034.828	1013.04
1035.116	1012.81
1035.403	969.42
1035.691	982.3
1035.979	967.39
1036.267	955.41
1036.554	954.73
1036.842	939.59
1037.129	945.47
1037.417	933.72
1037.704	926.94
1037.992	919.03
1038.279	904.79
1038.566	916.09
1038.853	916.09
1039.14	916.09
