Data from blue_shiny_book_FLMS001491_00005.txt Node
Date: Wed Feb 08 15:26:27 GMT 2017
User: dcchb
Spectrometer: FLMS00149
Trigger mode: 0
Integration Time (sec): 2.000000E-2
Scans to average: 10
Electric dark correction enabled: true
Nonlinearity correction enabled: false
Boxcar width: 0
XAxis mode: Wavelengths
Number of Pixels in Spectrum: 2048
>>>>>Begin Spectral Data<<<<<
341.393	-28.87
341.776	-28.87
342.16	-28.87
342.543	-69.09
342.927	-73.84
343.31	-68.64
343.693	-81.98
344.077	-60.28
344.46	-77.46
344.843	-32.26
345.226	-50.56
345.61	-36.1
345.993	-21.41
346.376	8.87
346.759	5.48
347.142	33.05
347.525	41.19
347.908	66.72
348.291	63.78
348.674	97.91
349.057	111.69
349.44	105.82
349.823	165.25
350.206	173.39
350.588	205.47
350.971	213.16
351.354	233.27
351.737	265.13
352.119	256.32
352.502	277.34
352.884	291.57
353.267	313.04
353.65	312.82
354.032	324.12
354.414	308.52
354.797	315.98
355.179	338.8
355.562	331.8
355.944	348.07
356.326	341.74
356.709	359.14
357.091	353.95
357.473	339.48
357.855	367.28
358.238	364.57
358.62	371.57
359.002	351.23
359.384	347.84
359.766	368.86
360.148	354.62
360.53	351.69
360.912	335.41
361.294	352.14
361.676	349.88
362.057	373.38
362.439	334.28
362.821	356.43
363.203	343.32
363.584	356.66
363.966	335.87
364.348	345.13
364.729	355.75
365.111	351.23
365.493	361.4
365.874	367.28
366.256	356.43
366.637	369.31
367.019	355.98
367.4	365.7
367.781	352.36
368.163	345.13
368.544	350.78
368.925	359.37
369.306	360.05
369.688	335.41
370.069	375.87
370.45	348.3
370.831	347.17
371.212	351.69
371.593	356.66
371.974	382.87
372.355	341.29
372.736	358.69
373.117	367.28
373.498	367.28
373.879	337.9
374.26	344
374.641	362.53
375.021	351.23
375.402	379.93
375.783	372.93
376.163	387.39
376.544	409.76
376.925	383.1
377.305	356.21
377.686	374.96
378.066	379.93
378.447	392.36
378.827	385.81
379.208	370.89
379.588	400.05
379.968	415.86
380.349	408.41
380.729	412.48
381.109	404.57
381.489	408.18
381.87	397.79
382.25	421.06
382.63	426.71
383.01	410.89
383.39	444.34
383.77	427.62
384.15	423.77
384.53	450.89
384.91	477.11
385.29	452.02
385.67	421.51
386.049	450.89
386.429	468.07
386.809	472.59
387.189	471.68
387.568	482.53
387.948	480.72
388.328	466.48
388.707	467.16
389.087	488.18
389.466	507.84
389.846	495.86
390.225	509.87
390.605	524.34
390.984	506.03
391.363	521.85
391.743	523.43
392.122	537.22
392.501	518.46
392.881	535.64
393.26	558.23
393.639	568.18
394.018	572.47
394.397	547.16
394.776	554.62
395.155	555.3
395.534	589.65
395.913	580.61
396.292	581.96
396.671	585.8
397.05	604.56
397.429	593.04
397.808	617.89
398.186	574.5
398.565	623.09
398.944	617.89
399.323	635.52
399.701	637.78
400.08	649.76
400.458	656.08
400.837	662.19
401.215	652.02
401.594	667.61
401.972	690.43
402.351	676.65
402.729	714.61
403.107	705.8
403.486	701.28
403.864	736.08
404.242	704.22
404.62	727.49
404.999	740.83
405.377	738.79
405.755	757.1
406.133	758.68
406.511	765.23
406.889	780.15
407.267	791.67
407.645	799.81
408.023	806.81
408.401	836.19
408.779	853.37
409.156	857.21
409.534	871.67
409.912	871.9
410.29	921.61
410.667	899.47
411.045	923.65
411.422	922.29
411.8	912.12
412.178	955.51
412.555	960.03
412.933	970.2
413.31	1016.07
413.687	1017.43
414.065	1026.47
414.442	1035.06
414.819	1038.67
415.197	1059.69
415.574	1088.62
415.951	1074.83
416.328	1119.8
416.705	1104.21
417.082	1126.81
417.46	1138.11
417.837	1134.49
418.214	1162.29
418.591	1153.47
418.967	1190.99
419.344	1183.75
419.721	1206.35
420.098	1204.32
420.475	1238.44
420.852	1248.39
421.228	1237.54
421.605	1282.96
421.982	1281.15
422.358	1297.2
422.735	1318.21
423.111	1309.63
423.488	1371.32
423.864	1351.89
424.241	1382.84
424.617	1406.8
424.994	1407.48
425.37	1411.77
425.746	1414.71
426.123	1428.95
426.499	1456.74
426.875	1485.44
427.251	1513.91
427.627	1540.81
428.003	1571.77
428.379	1590.52
428.756	1622.84
429.132	1678.43
429.507	1649.28
429.883	1679.56
430.259	1716.17
430.635	1677.98
431.011	1737.64
431.387	1730.86
431.763	1793.23
432.138	1819.67
432.514	1865.54
432.89	1869.84
433.265	1905.32
433.641	1935.6
434.016	1960.23
434.392	2010.85
434.767	1994.58
435.143	2070.06
435.518	2034.58
435.894	2072.54
436.269	2109.61
436.644	2130.17
437.02	2146.44
437.395	2170.17
437.77	2220.34
438.145	2237.74
438.52	2311.86
438.895	2336.72
439.271	2309.15
439.646	2365.19
440.021	2406.09
440.395	2398.64
440.77	2392.08
441.145	2421.69
441.52	2434.79
441.895	2445.87
442.27	2484.74
442.645	2495.81
443.019	2578.52
443.394	2580.1
443.769	2597.05
444.143	2574.45
444.518	2650.83
444.892	2597.5
445.267	2641.34
445.641	2676.37
446.016	2687.44
446.39	2674.56
446.764	2759.31
447.139	2723.15
447.513	2756.82
447.887	2765.86
448.262	2798.63
448.636	2863.48
449.01	2884.5
449.384	2959.53
449.758	2951.62
450.132	2948.45
450.506	3007.89
450.88	2989.58
451.254	2971.28
451.628	3066.87
452.002	3087.21
452.376	3111.61
452.75	3134.44
453.123	3162.23
453.497	3264.38
453.871	3311.16
454.244	3392.28
454.618	3416.92
454.992	3448.1
455.365	3445.62
455.739	3515.22
456.112	3529.91
456.486	3560.41
456.859	3595.67
457.232	3660.53
457.606	3687.42
457.979	3729
458.352	3796.57
458.725	3907.52
459.099	3926.96
459.472	4056.45
459.845	4065.94
460.218	4104.58
460.591	4101.64
460.964	4133.28
461.337	4235.2
461.71	4260.51
462.083	4348.19
462.456	4344.58
462.829	4375.99
463.201	4461.63
463.574	4491.01
463.947	4555.42
464.32	4701.63
464.692	4789.76
465.065	4817.78
465.438	4907.72
465.81	4941.17
466.183	4990.89
466.555	5126.93
466.928	5103.43
467.3	5112.01
467.672	5221.39
468.045	5293.48
468.417	5302.29
468.789	5317.66
469.161	5414.83
469.534	5533.24
469.906	5706.57
470.278	5756.29
470.65	5845.1
471.022	5970.52
471.394	6018.66
471.766	6109.05
472.138	6233.79
472.51	6324.64
472.882	6404.18
473.253	6421.13
473.625	6553.33
473.997	6640.56
474.369	6678.07
474.74	6812.31
475.112	6942.92
475.484	7091.62
475.855	7174.78
476.227	7289.81
476.598	7486.19
476.97	7594.21
477.341	7829.46
477.713	7918.27
478.084	7925.72
478.455	8139.5
478.827	8198.03
479.198	8400.06
479.569	8436.44
479.94	8605.25
480.311	8711.69
480.682	8986.26
481.053	9145.8
481.424	9322.75
481.795	9421.96
482.166	9570.65
482.537	9773.36
482.908	9933.13
483.279	10074.59
483.65	10324.53
484.021	10470.06
484.391	10635.71
484.762	10690.62
485.133	10759.77
485.503	10856.95
485.874	11155.7
486.244	11212.42
486.615	11388.91
486.985	11604.95
487.356	11873.19
487.726	11968.78
488.097	12349.79
488.467	12387.53
488.837	12643.79
489.207	12776.44
489.578	13001.07
489.948	13117.23
490.318	13331.01
490.688	13278.58
491.058	13518.57
491.428	13779.36
491.798	13868.62
492.168	14118.78
492.538	14146.13
492.908	14251.66
493.278	14552.22
493.648	14622.5
494.017	14857.74
494.387	15069.49
494.757	15147.91
495.126	15335.02
495.496	15427.67
495.866	15603.94
496.235	15810.94
496.605	15956.93
496.974	16000.99
497.344	16058.62
497.713	16138.84
498.082	16223.36
498.452	16514.2
498.821	16498.83
499.19	16599.62
499.559	16889.33
499.928	16999.84
500.298	17070.57
500.667	17272.37
501.036	17332.48
501.405	17559.14
501.774	17527.96
502.143	17846.59
502.512	17901.51
502.88	18160.03
503.249	18062.18
503.618	18252.68
503.987	18302.17
504.356	18412
504.724	18496.07
505.093	18669.85
505.462	18716.17
505.83	18898.09
506.199	19041.14
506.567	19214.69
506.936	19244.75
507.304	19570.16
507.672	19672.99
508.041	19834.11
508.409	20069.81
508.777	20142.35
509.145	20395.23
509.514	20283.14
509.882	20475.9
510.25	20565.39
510.618	20776.91
510.986	20679.74
511.354	20978.26
511.722	21098.94
512.09	21352.26
512.458	21307.74
512.826	21616.66
513.193	21554.74
513.561	21801.29
513.929	21990.44
514.297	22322.63
514.664	22457.09
515.032	22375.74
515.4	22603.3
515.767	22748.16
516.135	23028.83
516.502	22850.98
516.869	23240.58
517.237	23382.49
517.604	23300.46
517.972	23629.94
518.339	23750.84
518.706	23786.1
519.073	23974.34
519.44	24189.7
519.808	24426.08
520.175	24557.83
520.542	24938.38
520.909	25037.59
521.276	25098.83
521.643	25279.62
522.009	25600.06
522.376	25614.07
522.743	25832.82
523.11	26045.47
523.477	26348.06
523.843	26415.86
524.21	26790.09
524.577	26978.1
524.943	26969.29
525.31	27254.03
525.676	27451.09
526.043	27602.49
526.409	27737.86
526.776	28157.51
527.142	28280.67
527.508	28423.94
527.874	28748.45
528.241	28856.92
528.607	28998.62
528.973	29322
529.339	29180.08
529.705	29438.6
530.071	29780.52
530.437	29795.66
530.803	29980.96
531.169	30207.62
531.535	30206.04
531.901	30300.5
532.267	30455.75
532.632	30772.35
532.998	30882.86
533.364	31218.67
533.73	31291.89
534.095	31577.31
534.461	31550.87
534.826	31842.16
535.192	32080.12
535.557	32260.68
535.923	32274.01
536.288	32320.34
536.653	32621.12
537.019	32448.24
537.384	32575.7
537.749	32718.29
538.114	32732.3
538.479	32738.86
538.845	33120.32
539.21	32981.11
539.575	33232.85
539.94	33398.27
540.305	33679.85
540.67	33597.59
541.034	33731.6
541.399	34084.36
541.764	34186.73
542.129	34181.3
542.494	34442.31
542.858	34420.85
543.223	34544.23
543.587	34852.02
543.952	34875.07
544.316	34863.32
544.681	34943.32
545.045	35002.07
545.41	35113.48
545.774	35259.92
546.138	35016.99
546.503	35191.67
546.867	35286.81
547.231	35560.25
547.595	35640.93
547.959	35838.89
548.324	35814.03
548.688	36115.49
549.052	36347.58
549.416	36407.91
549.779	36374.24
550.143	36532.66
550.507	36804.74
550.871	36938.07
551.235	36921.8
551.599	37156.59
551.962	37286.53
552.326	37419.41
552.689	37390.49
553.053	37265.74
553.417	37370.83
553.78	37796.58
554.143	37598.39
554.507	37734.43
554.87	37860.76
555.234	38220.29
555.597	38072.05
555.96	38320.4
556.323	38625.93
556.686	38545.71
557.05	38967.17
557.413	39032.02
557.776	39274.05
558.139	39571.45
558.502	39414.39
558.865	39826.81
559.228	39844.66
559.59	40050.53
559.953	39992.9
560.316	40294.82
560.679	40223.18
561.041	40419.11
561.404	40474.02
561.767	40620.01
562.129	40429.5
562.492	40896.61
562.854	40921.24
563.217	41033.78
563.579	41108.81
563.941	41384.96
564.304	41644.16
564.666	41893.42
565.028	41950.82
565.39	42189.68
565.753	42459.05
566.115	42646.84
566.477	42836.67
566.839	43008.42
567.201	43261.74
567.563	43290.22
567.925	43616.54
568.287	43475.3
568.648	43638.46
569.01	43741.51
569.372	43785.12
569.734	43618.12
570.095	43750.54
570.457	43939.47
570.819	43839.36
571.18	43921.39
571.542	44088.84
571.903	44262.62
572.265	44355.5
572.626	44603.4
572.987	44784.64
573.349	44924.3
573.71	45139.21
574.071	45319.77
574.432	45422.59
574.794	45883.6
575.155	45888.57
575.516	45891.28
575.877	45939.19
576.238	46057.6
576.599	46230.71
576.96	46200.88
577.32	46164.72
577.681	46371.94
578.042	46211.04
578.403	46293.08
578.763	46213.98
579.124	46163.59
579.485	46322
579.845	46289.46
580.206	46270.03
580.566	46266.86
580.927	46168.11
581.287	46497.36
581.648	46386.63
582.008	46726.29
582.368	46785.72
582.728	46999.72
583.089	47041.53
583.449	47041.76
583.809	47048.99
584.169	47300.28
584.529	47374.4
584.889	47557.45
585.249	47408.75
585.609	47471.8
585.969	47687.39
586.329	47555.19
586.688	47501.63
587.048	47276.78
587.408	47147.97
587.768	47127.63
588.127	46922.66
588.487	46885.38
588.846	47100.29
589.206	46752.05
589.565	46962.21
589.925	46999.72
590.284	46991.59
590.643	47133.73
591.003	47253.5
591.362	47369.66
591.721	47358.13
592.08	47513.84
592.44	47729.2
592.799	47717.9
593.158	47724.68
593.517	47924.22
593.876	48068.85
594.235	47993.6
594.593	48084.89
594.952	48176.42
595.311	47895.97
595.67	48035.86
596.029	48011
596.387	48030.66
596.746	47992.01
597.104	47775.98
597.463	47612.59
597.822	47648.97
598.18	47525.36
598.538	47515.64
598.897	47687.84
599.255	47250.34
599.613	47802.64
599.972	47671.8
600.33	47738.01
600.688	47637.45
601.046	47851
601.404	48113.14
601.762	48130.77
602.12	48400.82
602.478	48335.06
602.836	48582.06
603.194	48361.5
603.552	48553.81
603.91	48497.99
604.268	48703.63
604.625	48512
604.983	48632.68
605.341	48340.25
605.698	48545.45
606.056	48614.37
606.413	48571.89
606.771	48648.04
607.128	48639.23
607.485	48322.63
607.843	48290.31
608.2	48456.86
608.557	48570.53
608.914	48373.47
609.272	48577.08
609.629	48608.95
609.986	48779.79
610.343	48556.29
610.7	48843.97
611.057	48928.71
611.414	48956.28
611.771	49066.56
612.127	49354.46
612.484	49337.97
612.841	49679.88
613.198	49409.15
613.554	49592.65
613.911	49757.39
614.267	49667.9
614.624	49727.34
614.98	49799.2
615.337	49935.01
615.693	49826.09
616.05	49832.87
616.406	50024.05
616.762	49607.57
617.118	49558.3
617.475	49593.1
617.831	49669.03
618.187	49501.81
618.543	49504.52
618.899	49699.99
619.255	49554.69
619.611	49456.38
619.967	49599.88
620.323	49705.42
620.678	49528.02
621.034	49589.49
621.39	49706.32
621.746	49552.65
622.101	50000.55
622.457	49796.49
622.812	49959.42
623.168	50111.96
623.523	50311.5
623.879	50406.87
624.234	50176.14
624.589	50416.81
624.945	50424.04
625.3	50323.25
625.655	50393.53
626.01	50309.02
626.365	50314.89
626.72	50239.19
627.075	50183.37
627.43	50060.21
627.785	49917.84
628.14	49998.29
628.495	49854.56
628.85	49865.19
629.205	49692.99
629.559	49804.85
629.914	49612.31
630.269	49657.06
630.623	49575.93
630.978	49465.42
631.332	49754.68
631.687	49726.43
632.041	49803.72
632.396	49886.43
632.75	49762.14
633.104	49906.09
633.459	49654.34
633.813	49798.07
634.167	49757.39
634.521	49918.29
634.875	49837.16
635.229	49828.8
635.583	49724.17
635.937	49625.42
636.291	49728.24
636.645	49690.05
636.999	49597.85
637.352	49693.89
637.706	49394.46
638.06	49508.81
638.413	49293.68
638.767	49021.82
639.121	49077.86
639.474	48824.31
639.828	48839.9
640.181	48811.43
640.534	48749.74
640.888	48536.18
641.241	48365.79
641.594	48528.05
641.947	48455.96
642.301	48571.66
642.654	48472.45
643.007	48475.39
643.36	48410.99
643.713	48250.54
644.066	48574.6
644.419	48580.47
644.771	48526.46
645.124	48442.4
645.477	48405.79
645.83	48196.08
646.182	47907.5
646.535	47611.91
646.888	47458.7
647.24	47201.08
647.593	47609.2
647.945	47418.92
648.298	47306.16
648.65	47117.69
649.002	47016
649.355	47083.56
649.707	47109.33
650.059	47304.58
650.411	47784.79
650.763	47799.7
651.115	48001.05
651.467	47722.42
651.819	47722.19
652.171	47513.16
652.523	47499.82
652.875	47486.72
653.227	47294.63
653.578	47698.01
653.93	47438.36
654.282	47357
654.633	47239.04
654.985	47358.13
655.337	47443.1
655.688	47336.89
656.039	47444.23
656.391	47144.13
656.742	47321.3
657.094	47457.79
657.445	47734.85
657.796	47672.93
658.147	47654.85
658.498	47686.49
658.849	47836.76
659.2	47709.76
659.551	47695.07
659.902	47661.18
660.253	47635.87
660.604	47735.07
660.955	47376.89
661.306	47506.6
661.656	47385.7
662.007	47384.8
662.358	47267.06
662.708	47190.68
663.059	47211.92
663.409	46985.04
663.76	47166.73
664.11	46915.43
664.461	46830.46
664.811	46726.29
665.161	46720.41
665.511	46643.12
665.862	46710.47
666.212	46865.49
666.562	46891.48
666.912	46788.43
667.262	46698.72
667.612	46839.05
667.962	46979.61
668.312	46927.64
668.662	47071.59
669.011	47065.26
669.361	47032.72
669.711	47049.21
670.06	46987.97
670.41	47137.35
670.76	47076.78
671.109	47174.18
671.459	47159.72
671.808	47091.93
672.157	47267.74
672.507	47064.58
672.856	47118.37
673.205	47096.67
673.554	47139.83
673.904	46840.18
674.253	47127.4
674.602	46880.63
674.951	46213.3
675.3	45935.8
675.649	46505.73
675.998	46308.9
676.346	46190.03
676.695	46275.9
677.044	45863.26
677.393	45963.14
677.741	45949.81
678.09	45723.6
678.438	45774.45
678.787	45873.88
679.135	45710.94
679.484	45533.77
679.832	45802.02
680.181	45605.19
680.529	45690.15
680.877	45642.25
681.225	45768.8
681.573	45866.42
681.922	45721.11
682.27	45645.86
682.618	45782.58
682.966	45734
683.314	45753.88
683.661	45795.01
684.009	45601.12
684.357	45408.13
684.705	45450.39
685.053	45659.19
685.4	45467.79
685.748	45087.01
686.095	45279.77
686.443	45057.63
686.79	44901.25
687.138	44828.26
687.485	44761.14
687.832	44470.98
688.18	44520.69
688.527	44219.01
688.874	44126.13
689.221	43944.44
689.568	43832.12
689.915	43703.99
690.262	43681.62
690.609	43526.6
690.956	43230.78
691.303	43142.88
691.65	42990.79
691.997	43013.39
692.344	42614.53
692.69	42642.1
693.037	42668.54
693.383	42424.93
693.73	42541.31
694.077	42414.31
694.423	42484.59
694.769	42307.87
695.116	42476.91
695.462	42311.94
695.808	42483.46
696.155	42479.39
696.501	42208.44
696.847	42201.21
697.193	41938.61
697.539	42157.37
697.885	41975.45
698.231	41685.51
698.577	41740.2
698.923	41718.06
699.269	41489.59
699.614	41253.89
699.96	41056.83
700.306	41161.91
700.651	40945.65
700.997	40736.16
701.342	40461.14
701.688	40274.25
702.033	40236.51
702.379	40119.23
702.724	39890.53
703.069	39908.84
703.415	39263.66
703.76	39329.64
704.105	39140.04
704.45	39122.64
704.795	38837.45
705.14	38776.21
705.485	38641.75
705.83	38718.36
706.175	38761.75
706.52	38451.47
706.865	38586.16
707.209	38491.47
707.554	38435.43
707.899	38372.15
708.243	38232.95
708.588	38367.86
708.932	38238.6
709.277	38274.3
709.621	38295.09
709.966	38160.41
710.31	38367.18
710.654	38130.81
710.998	38137.58
711.342	38148.43
711.687	38094.65
712.031	37967.65
712.375	37822.56
712.719	37879.51
713.063	37752.96
713.407	37841.77
713.75	37479.07
714.094	37432.52
714.438	37235.24
714.782	37253.99
715.125	37140.77
715.469	36982.59
715.812	36577.4
716.156	36445.65
716.499	36500.34
716.843	36384.64
717.186	36093.34
717.53	36170.63
717.873	36153.23
718.216	35842.73
718.559	35730.64
718.902	35537.43
719.246	35606.13
719.589	35468.73
719.932	35481.84
720.275	35527.94
720.617	35465.56
720.96	35415.17
721.303	35375.17
721.646	35359.8
721.989	35341.73
722.331	35547.37
722.674	35476.64
723.016	35579.46
723.359	35611.1
723.701	35675.28
724.044	35473.7
724.386	35487.03
724.729	35594.6
725.071	35551.66
725.413	35503.08
725.755	35559.35
726.097	35472.12
726.439	35287.26
726.782	35271.45
727.124	35409.29
727.465	35163.2
727.807	35168.17
728.149	35035.29
728.491	34879.14
728.833	35017.67
729.175	34697.68
729.516	34652.7
729.858	34572.03
730.199	34656.77
730.541	34594.63
730.882	34232.15
731.224	34489.55
731.565	34133.62
731.906	34045.71
732.248	34177.69
732.589	33958.03
732.93	33749.23
733.271	33941.99
733.612	33849.34
733.953	33830.13
734.294	33669.45
734.635	33572.73
734.976	33711.26
735.317	33586.07
735.658	33711.71
735.999	33872.61
736.339	33776.12
736.68	33960.07
737.021	33835.33
737.361	33865.61
737.702	33977.02
738.042	34019.95
738.383	33966.85
738.723	34226.73
739.063	34144.02
739.404	34376.1
739.744	34232.15
740.084	34222.43
740.424	34471.24
740.764	34336.78
741.104	34306.95
741.444	34210
741.784	34134.07
742.124	34199.16
742.464	34185.15
742.804	34121.65
743.143	34041.65
743.483	33979.95
743.823	33836
744.162	33773.63
744.502	33983.8
744.841	33727.76
745.181	33836.45
745.52	33676.46
745.86	33694.76
746.199	33473.07
746.538	33379.97
746.877	33534.54
747.216	33509.91
747.556	33357.82
747.895	33296.81
748.234	33193.76
748.573	33252.74
748.911	33155.57
749.25	33244.83
749.589	33186.98
749.928	33254.1
750.267	33230.37
750.605	33276.92
750.944	33297.94
751.283	33158.73
751.621	33298.84
751.96	33215.91
752.298	33316.24
752.636	33400.99
752.975	33418.16
753.313	33371.61
753.651	33581.77
753.989	33446.18
754.327	33642.11
754.666	33471.27
755.004	33678.49
755.342	33645.05
755.679	33680.98
756.017	33631.71
756.355	33599.17
756.693	33641.88
757.031	33693.18
757.368	33560.53
757.706	33492.28
758.044	33579.96
758.381	33666.74
758.719	33497.93
759.056	33602.79
759.394	33511.04
759.731	33402.57
760.068	33310.14
760.405	33205.96
760.743	33113.76
761.08	33130.26
761.417	32813.43
761.754	32849.36
762.091	32871.96
762.428	32698.63
762.765	32560.1
763.102	32714.45
763.438	32438.07
763.775	32467.45
764.112	32430.84
764.449	32532.76
764.785	32182.71
765.122	32107.01
765.458	31910.63
765.795	32055.03
766.131	32025.43
766.467	31985.2
766.804	31893.46
767.14	31817.3
767.476	31875.38
767.812	31866.56
768.148	31914.92
768.485	31731.43
768.821	31686
769.157	31659.56
769.492	31592.9
769.828	31637.87
770.164	31493.24
770.5	31441.49
770.836	31546.35
771.171	31271.32
771.507	31250.31
771.842	31196.07
772.178	31227.03
772.513	31215.96
772.849	31088.05
773.184	30952.01
773.519	30898.23
773.855	30762.41
774.19	30633.83
774.525	30540.72
774.86	30520.16
775.195	30531.23
775.53	30429.31
775.865	30194.06
776.2	30053.96
776.535	29948.42
776.87	29776.45
777.205	29798.14
777.539	29547.53
777.874	29472.5
778.209	29219.63
778.543	29200.87
778.878	28842.46
779.212	29028.67
779.547	28777.83
779.881	28800.43
780.215	28578.06
780.55	28613.09
780.884	28379.65
781.218	28226.66
781.552	28356.15
781.886	28157.73
782.22	27990.96
782.554	27955.71
782.888	27756.61
783.222	27677.97
783.556	27592.33
783.889	27499.22
784.223	27472.55
784.557	27445.44
784.89	27387.58
785.224	27137.87
785.557	27072.56
785.891	27115.05
786.224	27122.28
786.558	27058.78
786.891	26924.32
787.224	26674.84
787.557	26604.33
787.891	26798.9
788.224	26792.8
788.557	26722.97
788.89	26667.83
789.223	26521.17
789.556	26435.97
789.888	26367.05
790.221	26274.62
790.554	26147.62
790.887	26147.84
791.219	26064
791.552	25885.48
791.884	25723.45
792.217	25770
792.549	25587.63
792.882	25364.14
793.214	25329.33
793.546	25405.49
793.879	25204.82
794.211	24988.55
794.543	25084.82
794.875	24983.35
795.207	24912.85
795.539	24800.08
795.871	24769.57
796.203	24481.45
796.535	24343.6
796.867	24213.88
797.198	24114.68
797.53	24122.81
797.862	24036.26
798.193	24023.15
798.525	23747.91
798.856	23839.66
799.188	23597.4
799.519	23506.78
799.85	23415.26
800.182	23420.23
800.513	23467.69
800.844	23127.81
801.175	23282.16
801.506	23234.93
801.837	23129.84
802.168	23071.77
802.499	23115.83
802.83	22997.64
803.161	23004.88
803.491	22937.31
803.822	22956.52
804.153	22927.82
804.483	22780.93
804.814	22734.83
805.145	22717.88
805.475	22675.62
805.805	22569.86
806.136	22585.9
806.466	22690.76
806.796	22642.62
807.126	22342.75
807.457	22227.04
807.787	22432.46
808.117	22255.52
808.447	22164.9
808.777	22263.65
809.107	22128.74
809.436	22112.47
809.766	22092.58
810.096	22045.58
810.426	21875.87
810.755	21860.05
811.085	21787.73
811.414	21752.25
811.744	21503.9
812.073	21488.31
812.403	21420.51
812.732	21251.25
813.061	21348.87
813.39	21086.73
813.719	21138.94
814.049	21195.21
814.378	21070.91
814.707	20987.3
815.036	20894.2
815.365	20867.98
815.693	20624.15
816.022	20761.09
816.351	20613.75
816.68	20430.03
817.008	20478.16
817.337	20352.74
817.665	20392.29
817.994	20438.39
818.322	20277.49
818.651	20203.37
818.979	20087.44
819.307	20209.24
819.636	20042.24
819.964	19966.76
820.292	20077.72
820.62	20086.76
820.948	20002.69
821.276	20043.6
821.604	20077.04
821.932	20110.26
822.259	20061.22
822.587	20030.49
822.915	20110.71
823.243	20133.76
823.57	20132.86
823.898	20125.63
824.225	19942.81
824.553	19979.64
824.88	20110.71
825.207	20209.92
825.535	20166.31
825.862	20158.4
826.189	20042.47
826.516	20234.33
826.843	20188.9
827.17	20233.87
827.497	20286.75
827.824	20243.14
828.151	20345.28
828.478	20236.81
828.805	20274.78
829.131	20220.77
829.458	20062.13
829.785	20055.35
830.111	20191.39
830.438	20130.6
830.764	20168.57
831.09	20182.35
831.417	20077.72
831.743	19987.1
832.069	20174.67
832.395	20026.87
832.722	20094.67
833.048	19886.09
833.374	19941.23
833.7	19786.2
834.026	19917.72
834.351	19941.68
834.677	19879.99
835.003	19903.94
835.329	19856.71
835.654	19774.45
835.98	19705.08
836.306	19686.77
836.631	19556.6
836.956	19576.94
837.282	19498.07
837.607	19356.84
837.932	19289.04
838.258	19270.74
838.583	19266.22
838.908	19223.96
839.233	19214.24
839.558	19080.68
839.883	19031.19
840.208	18971.31
840.533	19039.1
840.858	19117.75
841.182	19195.26
841.507	19162.72
841.832	18930.18
842.156	19045.88
842.481	18896.96
842.805	18923.85
843.13	19010.86
843.454	18927.24
843.778	18906.9
844.103	18801.37
844.427	18708.27
844.751	18743.29
845.075	18625.33
845.399	18670.07
845.723	18582.62
846.047	18529.96
846.371	18404.77
846.695	18447.93
847.019	18353.47
847.343	18200.71
847.666	18170.2
847.99	18054.27
848.313	18117.09
848.637	18032.12
848.96	18023.76
849.284	17935.4
849.607	17786.93
849.931	17766.14
850.254	17581.97
850.577	17475.08
850.9	17497
851.223	17373.61
851.546	17311.24
851.869	17158.25
852.192	17304.46
852.515	17059.49
852.838	17061.75
853.161	17024.02
853.483	17015.88
853.806	16870.35
854.129	16743.12
854.451	16757.58
854.774	16665.38
855.096	16553.97
855.419	16572.05
855.741	16548.77
856.063	16434.88
856.385	16381.32
856.708	16231.04
857.03	16237.6
857.352	16233.08
857.674	16144.94
857.996	16053.42
858.318	15990.82
858.64	15976.59
858.961	15876.7
859.283	15849.81
859.605	15775.69
859.926	15797.61
860.248	15692.75
860.57	15625.41
860.891	15662.02
861.212	15570.27
861.534	15553.55
861.855	15529.59
862.176	15567.1
862.498	15615.92
862.819	15542.47
863.14	15384.51
863.461	15421.35
863.782	15350.84
864.103	15484.85
864.424	15363.04
864.745	15407.56
865.065	15328.02
865.386	15234.68
865.707	15234.46
866.027	15243.27
866.348	15222.03
866.668	15222.71
866.989	15197.17
867.309	15159.43
867.63	15234.46
867.95	15211.18
868.27	15062.94
868.59	15156.04
868.91	15103.16
869.23	15086.44
869.55	15018.19
869.87	15097.96
870.19	15159.66
870.51	15088.47
870.83	15068.81
871.15	14938.65
871.469	14977.06
871.789	15052.77
872.109	14831.08
872.428	14789.5
872.748	14866.33
873.067	14779.33
873.386	14729.84
873.706	14754.24
874.025	14699.56
874.344	14586.79
874.663	14676.51
874.982	14577.07
875.301	14462.5
875.62	14478.32
875.939	14450.07
876.258	14366.91
876.577	14421.6
876.896	14354.03
877.214	14272
877.533	14303.86
877.852	14280.36
878.17	14208.27
878.489	14205.78
878.807	14119.91
879.125	14055.96
879.444	14072.68
879.762	14048.95
880.08	14004.21
880.398	13847.15
880.716	13941.16
881.034	13889.86
881.352	13913.36
881.67	13866.13
881.988	13794.72
882.306	13723.76
882.624	13677.89
882.941	13724.22
883.259	13625.01
883.577	13665.23
883.894	13634.05
884.212	13582.3
884.529	13517.44
884.846	13500.04
885.164	13583.2
885.481	13551.56
885.798	13620.26
886.115	13463.43
886.432	13498.46
886.75	13485.13
887.067	13472.24
887.383	13446.26
887.7	13480.83
888.017	13377.11
888.334	13380.5
888.651	13287.16
888.967	13362.87
889.284	13271.57
889.6	13267.5
889.917	13136.21
890.233	13174.4
890.55	13153.83
890.866	13121.07
891.182	13092.59
891.498	13125.36
891.815	13088.53
892.131	13015.08
892.447	13017.57
892.763	12905.71
893.079	12865.03
893.395	12857.12
893.71	12818.93
894.026	12798.82
894.342	12774.86
894.657	12716.11
894.973	12678.59
895.289	12731.47
895.604	12637.92
895.92	12512.72
896.235	12441.09
896.55	12360.86
896.865	12406.96
897.181	12252.62
897.496	12260.98
897.811	12202.67
898.126	12189.34
898.441	12116.57
898.756	12058.72
899.071	12063.47
899.386	12039.06
899.7	11946.86
900.015	11821.44
900.33	11718.84
900.644	11717.94
900.959	11813.53
901.273	11697.15
901.588	11642.69
901.902	11611.73
902.216	11531.28
902.531	11486.08
902.845	11442.24
903.159	11385.07
903.473	11274.56
903.787	11303.49
904.101	11144.85
904.415	11210.38
904.729	11133.1
905.042	10969.94
905.356	11014.91
905.67	11019.43
905.984	11002.71
906.297	11038.86
906.611	10906.44
906.924	10911.86
907.237	10846.32
907.551	10886.55
907.864	10773.56
908.177	10820.34
908.491	10755.48
908.804	10642.94
909.117	10602.49
909.43	10589.61
909.743	10610.17
910.056	10595.94
910.368	10528.82
910.681	10466.45
910.994	10474.81
911.307	10432.55
911.619	10412.21
911.932	10369.73
912.244	10352.33
912.557	10319.79
912.869	10240.69
913.181	10247.24
913.494	10207.92
913.806	10146.91
914.118	10181.26
914.43	10144.2
914.742	10006.35
915.054	9967.25
915.366	9932.68
915.678	9994.6
915.99	9893.36
916.302	9872.57
916.613	9757.54
916.925	9800.93
917.236	9769.29
917.548	9679.58
917.859	9694.04
918.171	9626.7
918.482	9500.6
918.794	9506.7
919.105	9513.93
919.416	9408.17
919.727	9420.37
920.038	9331.34
920.349	9254.95
920.66	9235.97
920.971	9230.77
921.282	9128.18
921.593	9146.26
921.903	9012.7
922.214	9021.06
922.525	8975.41
922.835	8941.74
923.146	8861.97
923.456	8788.98
923.767	8769.54
924.077	8787.62
924.387	8715.76
924.697	8642.99
925.008	8591.02
925.318	8537.91
925.628	8533.17
925.938	8448.2
926.248	8409.33
926.558	8386.5
926.867	8368.88
927.177	8368.42
927.487	8306.05
927.796	8181.54
928.106	8159.39
928.416	8120.97
928.725	8141.76
929.034	8057.47
929.344	8134.31
929.653	8037.59
929.962	8032.16
930.271	7969.56
930.581	7899.28
930.89	7908.55
931.199	7910.58
931.508	7893.86
931.817	7835.1
932.125	7835.78
932.434	7852.73
932.743	7755.56
933.051	7721.89
933.36	7684.37
933.669	7678.95
933.977	7664.94
934.286	7659.74
934.594	7642.34
934.902	7544.26
935.21	7543.36
935.519	7525.51
935.827	7574.55
936.135	7510.37
936.443	7445.28
936.751	7423.82
937.059	7532.51
937.367	7438.28
937.674	7436.7
937.982	7339.98
938.29	7369.58
938.597	7315.12
938.905	7219.75
939.213	7219.53
939.52	7161.22
939.827	7224.05
940.135	7185.4
940.442	7104.95
940.749	7077.61
941.056	7115.8
941.363	6917.16
941.67	6991.74
941.977	6943.15
942.284	6895.69
942.591	6866.99
942.898	6860.22
943.205	6794.45
943.511	6683.72
943.818	6738.64
944.125	6711.74
944.431	6667.9
944.738	6673.1
945.044	6612.54
945.35	6536.16
945.657	6499.55
945.963	6501.35
946.269	6439.66
946.575	6417.97
946.881	6395.37
947.187	6325.77
947.493	6317.4
947.799	6277.63
948.105	6228.14
948.41	6186.79
948.716	6275.82
949.022	6211.42
949.327	6159.22
949.633	6068.15
949.938	6105.88
950.244	6044.64
950.549	6046.23
950.854	6006.9
951.16	5945.89
951.465	5935.04
951.77	5932.1
952.075	5893.23
952.38	5800.81
952.685	5790.86
952.99	5827.7
953.294	5768.94
953.599	5738.21
953.904	5705.44
954.209	5713.35
954.513	5698.44
954.818	5673.35
955.122	5645.33
955.426	5651.66
955.731	5640.36
956.035	5526.92
956.339	5579.57
956.643	5550.19
956.948	5528.95
957.252	5554.71
957.556	5474.94
957.86	5457.54
958.163	5474.49
958.467	5459.8
958.771	5413.25
959.075	5453.25
959.378	5425.9
959.682	5381.38
959.985	5324.21
960.289	5312.46
960.592	5302.97
960.896	5255.74
961.199	5326.7
961.502	5229.98
961.805	5234.72
962.108	5237.88
962.411	5207.38
962.714	5131.45
963.017	5164.21
963.32	5143.88
963.623	5129.87
963.926	5112.92
964.228	5072.47
964.531	5077.66
964.833	5038.57
965.136	5013.26
965.438	5043.77
965.741	5013.03
966.043	4961.51
966.345	4915.18
966.648	4853.71
966.95	4944.33
967.252	4873.6
967.554	4818.91
967.856	4832.92
968.158	4765.13
968.46	4772.36
968.761	4753.38
969.063	4675.87
969.365	4694.17
969.666	4641.52
969.968	4594.74
970.269	4582.08
970.571	4614.62
970.872	4523.55
971.174	4512.48
971.475	4545.47
971.776	4465.25
972.077	4493.72
972.378	4460.5
972.679	4376.44
972.98	4385.93
973.281	4364.24
973.582	4373.05
973.883	4331.92
974.183	4290.79
974.484	4250.34
974.785	4213.96
975.085	4234.75
975.386	4241.07
975.686	4206.95
975.986	4195.88
976.287	4121.08
976.587	4151.36
976.887	4124.47
977.187	4096.67
977.487	4085.37
977.787	4017.35
978.087	3994.3
978.387	3993.85
978.687	3985.49
978.987	3950.91
979.286	3943.91
979.586	3934.87
979.885	3907.98
980.185	3929.9
980.484	3890.12
980.784	3924.93
981.083	3858.94
981.382	3844.7
981.682	3847.41
981.981	3855.32
982.28	3817.81
982.579	3778.26
982.878	3808.32
983.177	3742.56
983.475	3772.84
983.774	3703.24
984.073	3680.19
984.372	3692.84
984.67	3753.63
984.969	3732.84
985.267	3715.67
985.566	3672.5
985.864	3646.51
986.162	3696.91
986.461	3702.78
986.759	3643.58
987.057	3616.01
987.355	3606.29
987.653	3566.74
987.951	3535.33
988.249	3541.21
988.547	3557.25
988.844	3544.37
989.142	3514.31
989.44	3530.13
989.737	3510.47
990.035	3476.8
990.332	3490.59
990.63	3427.09
990.927	3452.4
991.224	3412.4
991.521	3402.45
991.819	3392.51
992.116	3403.36
992.413	3368.78
992.71	3324.71
993.006	3317.26
993.303	3290.82
993.6	3268.45
993.897	3272.29
994.193	3230.03
994.49	3236.58
994.787	3188.45
995.083	3168.56
995.379	3158.17
995.676	3148.9
995.972	3155.45
996.268	3084.5
996.565	3100.77
996.861	3057.6
997.157	3049.92
997.453	3057.38
997.749	2985.06
998.044	2970.37
998.34	2980.77
998.636	2934.89
998.932	2935.12
999.227	2889.7
999.523	2933.76
999.818	2848.8
1000.114	2870.94
1000.409	2842.47
1000.704	2813.99
1001	2820.32
1001.295	2816.25
1001.59	2783.49
1001.885	2793.2
1002.18	2753.88
1002.475	2760.44
1002.77	2724.73
1003.065	2655.81
1003.359	2683.83
1003.654	2671.62
1003.949	2640.67
1004.243	2625.07
1004.538	2626.65
1004.832	2628.69
1005.127	2594.11
1005.421	2581.46
1005.715	2560.44
1006.009	2545.07
1006.304	2514.11
1006.598	2528.8
1006.892	2523.15
1007.186	2485.64
1007.48	2450.39
1007.773	2450.39
1008.067	2444.74
1008.361	2462.59
1008.655	2378.98
1008.948	2404.74
1009.242	2400.9
1009.535	2406.09
1009.829	2381.46
1010.122	2350.28
1010.415	2388.24
1010.708	2364.06
1011.001	2302.37
1011.295	2336.72
1011.588	2328.13
1011.881	2290.39
1012.173	2305.31
1012.466	2302.37
1012.759	2272.31
1013.052	2256.49
1013.344	2261.69
1013.637	2246.1
1013.93	2220.56
1014.222	2190.51
1014.514	2203.84
1014.807	2185.99
1015.099	2172.88
1015.391	2211.98
1015.683	2131.98
1015.976	2137.63
1016.268	2128.81
1016.56	2126.78
1016.851	2126.1
1017.143	2102.6
1017.435	2095.59
1017.727	2065.76
1018.018	2064.18
1018.31	2075.93
1018.602	2040.23
1018.893	2044.52
1019.185	2027.35
1019.476	1985.77
1019.767	2023.73
1020.058	1997.07
1020.35	1993.68
1020.641	1939.89
1020.932	1927.24
1021.223	1880.69
1021.514	1910.29
1021.804	1896.28
1022.095	1904.64
1022.386	1856.5
1022.677	1847.92
1022.967	1847.69
1023.258	1823.74
1023.548	1783.74
1023.839	1814.92
1024.129	1794.36
1024.419	1824.42
1024.709	1750.07
1025	1755.94
1025.29	1714.36
1025.58	1695.83
1025.87	1710.75
1026.16	1715.94
1026.449	1675.72
1026.739	1666.45
1027.029	1624.42
1027.319	1638.88
1027.608	1590.75
1027.898	1598.21
1028.187	1586.91
1028.477	1601.14
1028.766	1561.37
1029.055	1570.86
1029.344	1549.62
1029.634	1541.71
1029.923	1523.86
1030.212	1523.63
1030.501	1516.17
1030.79	1494.03
1031.078	1508.27
1031.367	1455.16
1031.656	1469.4
1031.945	1472.33
1032.233	1470.07
1032.522	1462.62
1032.81	1420.13
1033.099	1415.39
1033.387	1432.34
1033.675	1415.61
1033.963	1342.85
1034.251	1368.38
1034.54	1366.57
1034.828	1358.44
1035.116	1346.01
1035.403	1330.64
1035.691	1333.58
1035.979	1337.42
1036.267	1308.72
1036.554	1328.38
1036.842	1284.99
1037.129	1291.55
1037.417	1301.04
1037.704	1306.01
1037.992	1271.44
1038.279	1267.82
1038.566	1243.19
1038.853	1243.19
1039.14	1243.19
