Data from blue_surface_keyboard_FLMS001491_093.txt Node
Date: Tue Feb 07 11:13:54 GMT 2017
User: dcchb
Spectrometer: FLMS00149
Trigger mode: 0
Integration Time (sec): 2.000000E-2
Scans to average: 10
Electric dark correction enabled: true
Nonlinearity correction enabled: false
Boxcar width: 0
XAxis mode: Wavelengths
Number of Pixels in Spectrum: 2048
>>>>>Begin Spectral Data<<<<<
341.393	-29.45
341.776	-29.45
342.16	-29.45
342.543	-65.61
342.927	-63.12
343.31	-63.8
343.693	-74.64
344.077	-71.48
344.46	-59.96
344.843	-45.72
345.226	-43.46
345.61	-19.28
345.993	-35.55
346.376	9.65
346.759	16.88
347.142	28.4
347.525	32.02
347.908	80.38
348.291	66.59
348.674	93.03
349.057	86.93
349.44	136.87
349.823	149.08
350.206	154.73
350.588	189.3
350.971	175.74
351.354	203.77
351.737	209.42
352.119	202.86
352.502	229.3
352.884	253.71
353.267	253.03
353.65	268.4
354.032	296.42
354.414	288.51
354.797	277.66
355.179	288.74
355.562	275.85
355.944	303.42
356.326	308.85
356.709	320.15
357.091	316.76
357.473	331.9
357.855	315.63
358.238	319.47
358.62	301.84
359.002	310.43
359.384	315.4
359.766	317.44
360.148	298.45
360.53	295.51
360.912	307.49
361.294	301.84
361.676	311.33
362.057	301.62
362.439	315.18
362.821	316.08
363.203	305.68
363.584	307.72
363.966	291
364.348	302.75
364.729	297.55
365.111	294.61
365.493	306.59
365.874	296.87
366.256	291.45
366.637	292.8
367.019	267.27
367.4	269.53
367.781	273.37
368.163	279.47
368.544	307.04
368.925	276.53
369.306	276.08
369.688	281.73
370.069	289.64
370.45	287.38
370.831	285.8
371.212	290.32
371.593	282.86
371.974	270.88
372.355	291.22
372.736	290.77
373.117	313.82
373.498	282.41
373.879	277.21
374.26	294.84
374.641	269.3
375.021	275.85
375.402	264.56
375.783	277.21
376.163	275.63
376.544	297.32
376.925	300.49
377.305	268.85
377.686	282.18
378.066	291
378.447	274.72
378.827	291.45
379.208	293.71
379.588	275.85
379.968	280.6
380.349	292.8
380.729	299.58
381.109	296.64
381.489	315.85
381.87	294.38
382.25	301.84
382.63	294.61
383.01	294.61
383.39	289.19
383.77	314.95
384.15	294.38
384.53	312.92
384.91	297.1
385.29	327.38
385.67	308.62
386.049	291.22
386.429	313.14
386.809	332.12
387.189	314.72
387.568	313.14
387.948	300.71
388.328	310.88
388.707	301.84
389.087	330.54
389.466	331.45
389.846	300.03
390.225	329.19
390.605	332.35
390.984	319.92
391.363	321.95
391.743	309.98
392.122	300.49
392.501	329.19
392.881	335.97
393.26	321.05
393.639	334.84
394.018	337.77
394.397	340.26
394.776	329.64
395.155	329.86
395.534	338.45
395.913	334.38
396.292	325.12
396.671	349.98
397.05	326.25
397.429	330.77
397.808	347.72
398.186	319.92
398.565	328.96
398.944	319.02
399.323	323.08
399.701	311.33
400.08	320.6
400.458	341.16
400.837	342.97
401.215	359.47
401.594	337.32
401.972	325.12
402.351	323.54
402.729	360.82
403.107	342.75
403.486	347.26
403.864	347.04
404.242	364.89
404.62	358.11
404.999	357.21
405.377	348.85
405.755	346.36
406.133	355.17
406.511	345.68
406.889	348.39
407.267	365.34
407.645	387.26
408.023	368.73
408.401	360.82
408.779	374.61
409.156	361.5
409.534	360.6
409.912	342.29
410.29	370.32
410.667	366.7
411.045	364.21
411.422	348.39
411.8	361.73
412.178	375.29
412.555	386.36
412.933	382.74
413.31	374.38
413.687	366.7
414.065	385
414.442	378.45
414.819	395.4
415.197	387.49
415.574	368.96
415.951	386.36
416.328	385.91
416.705	371.9
417.082	399.92
417.46	409.41
417.837	412.8
418.214	392.91
418.591	382.52
418.967	406.02
419.344	396.08
419.721	400.6
420.098	378.68
420.475	392.46
420.852	388.17
421.228	388.85
421.605	403.08
421.982	409.18
422.358	403.99
422.735	413.48
423.111	415.51
423.488	402.4
423.864	424.33
424.241	402.63
424.617	415.06
424.994	420.94
425.37	408.96
425.746	413.93
426.123	399.69
426.499	401.95
426.875	406.47
427.251	424.33
427.627	425.23
428.003	432.01
428.379	416.87
428.756	446.92
429.132	449.41
429.507	427.71
429.883	434.49
430.259	425
430.635	439.01
431.011	461.39
431.387	445.57
431.763	433.59
432.138	444.21
432.514	448.96
432.89	468.62
433.265	474.27
433.641	457.32
434.016	477.88
434.392	469.97
434.767	467.94
435.143	495.51
435.518	476.08
435.894	481.05
436.269	478.79
436.644	476.53
437.02	493.93
437.395	474.27
437.77	479.46
438.145	505.9
438.52	483.98
438.895	488.5
439.271	514.04
439.646	512.23
440.021	521.05
440.395	506.58
440.77	487.83
441.145	497.32
441.52	516.75
441.895	517.66
442.27	521.27
442.645	504.1
443.019	514.94
443.394	491.22
443.769	528.05
444.143	515.62
444.518	514.27
444.892	534.15
445.267	542.51
445.641	525.57
446.016	534.83
446.39	527.6
446.764	509.07
447.139	540.48
447.513	523.31
447.887	530.31
448.262	533.25
448.636	534.83
449.01	543.64
449.384	562.4
449.758	545.23
450.132	562.17
450.506	575.73
450.88	557.2
451.254	542.74
451.628	556.98
452.002	559.46
452.376	571.89
452.75	563.98
453.123	577.77
453.497	561.95
453.871	577.99
454.244	585.45
454.618	591.1
454.992	585
455.365	599.46
455.739	620.7
456.112	601.04
456.486	597.88
456.859	623.87
457.232	617.54
457.606	609.86
457.979	614.6
458.352	629.07
458.725	630.2
459.099	603.53
459.472	648.05
459.845	641.49
460.218	631.33
460.591	632.46
460.964	616.18
461.337	640.59
461.71	656.18
462.083	648.05
462.456	656.64
462.829	629.74
463.201	667.71
463.574	658.44
463.947	665.9
464.32	688.5
464.692	687.59
465.065	694.15
465.438	678.56
465.81	697.54
466.183	712.45
466.555	717.88
466.928	698.67
467.3	708.84
467.672	695.05
468.045	756.07
468.417	727.37
468.789	727.82
469.161	730.76
469.534	760.81
469.906	738.22
470.278	764.43
470.65	773.02
471.022	791.1
471.394	772.56
471.766	784.54
472.138	769.17
472.51	783.64
472.882	818.66
473.253	799.23
473.625	814.82
473.997	821.15
474.369	801.94
474.74	824.77
475.112	816.86
475.484	841.04
475.855	883.75
476.227	829.74
476.598	871.32
476.97	901.37
477.341	856.4
477.713	917.42
478.084	912
478.455	897.31
478.827	914.26
479.198	916.06
479.569	938.21
479.94	950.19
480.311	954.71
480.682	967.36
481.053	980.92
481.424	987.25
481.795	996.51
482.166	989.51
482.537	1043.52
482.908	1014.14
483.279	1025.67
483.65	1033.8
484.021	1044.65
484.391	1064.08
484.762	1082.39
485.133	1062.05
485.503	1082.84
485.874	1083.29
486.244	1079.45
486.615	1106.11
486.985	1136.17
487.356	1121.26
487.726	1131.88
488.097	1136.85
488.467	1155.38
488.837	1187.47
489.207	1165.55
489.578	1198.99
489.948	1177.07
490.318	1204.42
490.688	1177.98
491.058	1193.12
491.428	1187.24
491.798	1229.95
492.168	1224.53
492.538	1255.04
492.908	1235.83
493.278	1267.01
493.648	1249.39
494.017	1269.05
494.387	1246.68
494.757	1273.34
495.126	1285.77
495.496	1314.47
495.866	1258.65
496.235	1263.4
496.605	1297.3
496.974	1295.26
497.344	1300.46
497.713	1308.14
498.082	1274.02
498.452	1303.4
498.821	1301.36
499.19	1328.48
499.559	1326.45
499.928	1313.34
500.298	1334.81
500.667	1329.16
501.036	1332.78
501.405	1335.94
501.774	1336.17
502.143	1339.33
502.512	1356.73
502.88	1334.58
503.249	1336.84
503.618	1353.57
503.987	1326.22
504.356	1380.01
504.724	1355.83
505.093	1367.13
505.462	1377.97
505.83	1358.54
506.199	1378.42
506.567	1403.51
506.936	1400.12
507.304	1405.32
507.672	1371.64
508.041	1408.03
508.409	1399.21
508.777	1397.86
509.145	1398.31
509.514	1416.16
509.882	1417.97
510.25	1403.96
510.618	1402.38
510.986	1427.01
511.354	1395.37
511.722	1440.34
512.09	1448.25
512.458	1414.81
512.826	1432.21
513.193	1449.61
513.561	1449.16
513.929	1411.87
514.297	1437.18
514.664	1434.24
515.032	1452.55
515.4	1472.66
515.767	1468.14
516.135	1448.7
516.502	1434.24
516.869	1466.56
517.237	1457.74
517.604	1474.92
517.972	1467.24
518.339	1448.25
518.706	1474.01
519.073	1456.16
519.44	1475.14
519.808	1481.02
520.175	1477.86
520.542	1496.39
520.909	1528.93
521.276	1461.13
521.643	1498.2
522.009	1507.69
522.376	1466.33
522.743	1504.07
523.11	1510.4
523.477	1537.29
523.843	1504.52
524.21	1499.32
524.577	1516.27
524.943	1545.43
525.31	1551.53
525.676	1533.45
526.043	1528.7
526.409	1565.09
526.776	1570.96
527.142	1537.74
527.508	1547.23
527.874	1534.58
528.241	1576.39
528.607	1554.69
528.973	1556.05
529.339	1606.21
529.705	1581.81
530.071	1562.37
530.437	1579.32
530.803	1577.29
531.169	1594.46
531.535	1565.09
531.901	1595.82
532.267	1608.7
532.632	1571.64
532.998	1599.21
533.364	1584.29
533.73	1601.7
534.095	1577.29
534.461	1623.39
534.826	1591.75
535.192	1594.01
535.557	1612.32
535.923	1627.68
536.288	1612.77
536.653	1637.17
537.019	1619.55
537.384	1625.65
537.749	1607.12
538.114	1608.93
538.479	1641.69
538.845	1606.67
539.21	1620.68
539.575	1600.11
539.94	1591.3
540.305	1625.88
540.67	1614.12
541.034	1599.21
541.399	1602.15
541.764	1607.8
542.129	1604.63
542.494	1614.12
542.858	1611.64
543.223	1606.21
543.587	1617.29
543.952	1584.75
544.316	1634.46
544.681	1611.19
545.045	1639.21
545.41	1635.82
545.774	1622.26
546.138	1631.3
546.503	1621.36
546.867	1647.8
547.231	1621.13
547.595	1606.67
547.959	1644.18
548.324	1637.17
548.688	1641.92
549.052	1638.53
549.416	1659.77
549.779	1641.02
550.143	1652.77
550.507	1645.76
550.871	1640.79
551.235	1604.18
551.599	1635.59
551.962	1637.17
552.326	1652.99
552.689	1645.31
553.053	1616.38
553.417	1634.69
553.78	1645.76
554.143	1661.58
554.507	1667.68
554.87	1632.65
555.234	1675.59
555.597	1647.12
555.96	1651.41
556.323	1656.16
556.686	1648.7
557.05	1634.91
557.413	1681.69
557.776	1668.13
558.139	1642.15
558.502	1655.48
558.865	1677.85
559.228	1670.17
559.59	1660.68
559.953	1652.32
560.316	1691.18
560.679	1691.41
561.041	1670.85
561.404	1652.54
561.767	1680.34
562.129	1677.63
562.492	1686.66
562.854	1680.34
563.217	1700.68
563.579	1679.21
563.941	1695.48
564.304	1703.39
564.666	1691.41
565.028	1701.35
565.39	1685.99
565.753	1697.06
566.115	1708.81
566.477	1716.04
566.839	1745.65
567.201	1743.61
567.563	1743.84
567.925	1723.95
568.287	1731.64
568.648	1730.96
569.01	1729.15
569.372	1752.88
569.734	1740.67
570.095	1754.91
570.457	1749.71
570.819	1735.48
571.18	1745.87
571.542	1761.46
571.903	1756.49
572.265	1741.35
572.626	1787
572.987	1778.87
573.349	1781.35
573.71	1755.14
574.071	1761.01
574.432	1764.63
574.794	1756.49
575.155	1782.93
575.516	1805.31
575.877	1785.19
576.238	1775.93
576.599	1784.97
576.96	1790.39
577.32	1770.73
577.681	1779.54
578.042	1787.9
578.403	1763.05
578.763	1765.08
579.124	1836.27
579.485	1801.92
579.845	1794.01
580.206	1788.81
580.566	1798.07
580.927	1819.32
581.287	1831.52
581.648	1816.15
582.008	1842.37
582.368	1799.2
582.728	1810.5
583.089	1835.59
583.449	1808.7
583.809	1792.2
584.169	1798.53
584.529	1829.03
584.889	1833.78
585.249	1846.89
585.609	1806.44
585.969	1853.67
586.329	1826.32
586.688	1830.84
587.048	1860.67
587.408	1827.23
587.768	1805.98
588.127	1809.6
588.487	1840.56
588.846	1842.59
589.206	1811.18
589.565	1806.44
589.925	1811.86
590.284	1854.57
590.643	1838.75
591.003	1858.86
591.362	1860.22
591.721	1838.3
592.08	1852.54
592.44	1849.82
592.799	1848.47
593.158	1862.93
593.517	1845.3
593.876	1832.65
594.235	1836.04
594.593	1848.92
594.952	1864.51
595.311	1846.21
595.67	1890.05
596.029	1854.8
596.387	1883.5
596.746	1871.97
597.104	1885.3
597.463	1882.59
597.822	1871.97
598.18	1871.97
598.538	1873.55
598.897	1860.67
599.255	1875.36
599.613	1878.3
599.972	1909.03
600.33	1859.32
600.688	1867.68
601.046	1868.35
601.404	1875.13
601.762	1885.53
602.12	1888.02
602.478	1902.25
602.836	1899.77
603.194	1889.37
603.552	1894.57
603.91	1872.65
604.268	1897.96
604.625	1901.8
604.983	1884.85
605.341	1895.47
605.698	1902.25
606.056	1892.53
606.413	1892.31
606.771	1902.25
607.128	1921.91
607.485	1913.78
607.843	1887.79
608.2	1935.02
608.557	1914.23
608.914	1943.38
609.272	1952.87
609.629	1948.58
609.986	1940.9
610.343	1933.44
610.7	1949.03
611.057	1948.8
611.414	1937.51
611.771	1924.4
612.127	1947.9
612.484	1953.32
612.841	1939.77
613.198	1981.57
613.554	1980.44
613.911	1984.51
614.267	1956.04
614.624	1937.96
614.98	1990.39
615.337	1991.97
615.693	1978.63
616.05	1975.92
616.406	1967.34
616.762	1968.69
617.118	1959.88
617.475	1983.15
617.831	1977.05
618.187	1976.83
618.543	1999.42
618.899	2005.98
619.255	1958.75
619.611	1990.61
619.967	1984.06
620.323	2002.14
620.678	1985.41
621.034	2000.1
621.39	2023.38
621.746	2003.49
622.101	2039.88
622.457	2042.81
622.812	2042.36
623.168	2015.92
623.523	2038.29
623.879	2022.02
624.234	2024.06
624.589	2026.99
624.945	2051.63
625.3	2045.53
625.655	2068.8
626.01	2069.71
626.365	2060.89
626.72	2057.73
627.075	2047.79
627.43	2053.89
627.785	2046.2
628.14	2052.76
628.495	2061.57
628.85	2090.95
629.205	2074.9
629.559	2078.52
629.914	2061.34
630.269	2130.49
630.623	2084.85
630.978	2080.78
631.332	2093.43
631.687	2102.02
632.041	2114.68
632.396	2125.07
632.75	2104.05
633.104	2100.44
633.459	2101.8
633.813	2096.15
634.167	2104.73
634.521	2127.11
634.875	2108.12
635.229	2150.61
635.583	2131.62
635.937	2138.18
636.291	2147.22
636.645	2160.32
636.999	2140.44
637.352	2138.4
637.706	2184.5
638.06	2192.87
638.413	2167.56
638.767	2206.43
639.121	2177.05
639.474	2166.2
639.828	2159.87
640.181	2155.35
640.534	2194.45
640.888	2197.16
641.241	2194.45
641.594	2171.4
641.947	2231.51
642.301	2222.7
642.654	2227.89
643.007	2266.31
643.36	2249.81
643.713	2222.02
644.066	2265.41
644.419	2250.49
644.771	2204.17
645.124	2209.36
645.477	2235.12
645.83	2216.82
646.182	2236.93
646.535	2264.95
646.888	2262.47
647.24	2259.76
647.593	2251.62
647.945	2267.44
648.298	2262.69
648.65	2235.58
649.002	2269.47
649.355	2295.01
649.707	2328
650.059	2306.08
650.411	2337.95
650.763	2348.34
651.115	2399.41
651.467	2403.03
651.819	2429.7
652.171	2438.96
652.523	2406.42
652.875	2383.14
653.227	2426.53
653.578	2456.36
653.93	2464.5
654.282	2450.03
654.633	2445.51
654.985	2444.38
655.337	2474.67
655.688	2527.77
656.039	2521.67
656.391	2491.39
656.742	2505.4
657.094	2527.55
657.445	2539.75
657.796	2565.74
658.147	2602.8
658.498	2588.79
658.849	2599.86
659.2	2610.03
659.551	2633.53
659.902	2638.73
660.253	2608.45
660.604	2615.91
660.955	2636.47
661.306	2683.47
661.656	2665.62
662.007	2678.28
662.358	2719.86
662.708	2711.04
663.059	2709.69
663.409	2719.41
663.76	2755.11
664.11	2728.9
664.461	2766.64
664.811	2798.5
665.161	2793.98
665.511	2807.77
665.862	2853.87
666.212	2842.57
666.562	2869.68
666.912	2852.28
667.262	2864.94
667.612	2882.57
667.962	2873.75
668.312	2927.76
668.662	2925.5
669.011	2907.88
669.361	2933.64
669.711	2956.91
670.06	3006.18
670.41	3036.91
670.76	2986.29
671.109	2984.71
671.459	3029.23
671.808	3040.08
672.157	3076.68
672.507	3056.12
672.856	3028.55
673.205	3088.66
673.554	3059.06
673.904	3061.32
674.253	3109.45
674.602	3115.1
674.951	3117.36
675.3	3121.43
675.649	3193.29
675.998	3198.94
676.346	3177.25
676.695	3236.68
677.044	3225.61
677.393	3244.82
677.741	3233.52
678.09	3268.32
678.438	3243.23
678.787	3242.1
679.135	3292.95
679.484	3290.24
679.832	3314.87
680.181	3302.22
680.529	3325.27
680.877	3301.31
681.225	3304.93
681.573	3360.97
681.922	3348.54
682.27	3333.18
682.618	3335.43
682.966	3374.08
683.314	3353.51
683.661	3384.47
684.009	3379.05
684.357	3387.86
684.705	3377.92
685.053	3421.99
685.4	3440.29
685.748	3427.86
686.095	3423.34
686.443	3435.77
686.79	3450.46
687.138	3465.6
687.485	3483.23
687.832	3462.21
688.18	3508.31
688.527	3458.82
688.874	3467.41
689.221	3477.8
689.568	3470.35
689.915	3537.24
690.262	3468.54
690.609	3468.09
690.956	3474.19
691.303	3470.8
691.65	3495.43
691.997	3536.56
692.344	3508.76
692.69	3489.1
693.037	3452.95
693.383	3484.36
693.73	3495.88
694.077	3513.51
694.423	3534.3
694.769	3525.94
695.116	3521.19
695.462	3551.02
695.808	3507.86
696.155	3551.93
696.501	3504.7
696.847	3512.83
697.193	3479.39
697.539	3547.18
697.885	3516.45
698.231	3545.15
698.577	3481.19
698.923	3502.21
699.269	3473.96
699.614	3488.2
699.96	3482.78
700.306	3489.56
700.651	3507.18
700.997	3499.95
701.342	3499.95
701.688	3490.91
702.033	3487.52
702.379	3463.57
702.724	3487.75
703.069	3499.05
703.415	3471.02
703.76	3487.3
704.105	3465.83
704.45	3449.33
704.795	3464.47
705.14	3449.33
705.485	3464.7
705.83	3493.85
706.175	3459.73
706.52	3431.48
706.865	3444.13
707.209	3431.93
707.554	3441.65
707.899	3427.86
708.243	3414.98
708.588	3458.37
708.932	3438.48
709.277	3406.85
709.621	3430.12
709.966	3448.65
710.31	3456.56
710.654	3377.24
710.998	3417.47
711.342	3412.72
711.687	3411.59
712.031	3374.76
712.375	3372.72
712.719	3421.08
713.063	3407.75
713.407	3431.7
713.75	3394.64
714.094	3414.75
714.438	3409.11
714.782	3394.87
715.125	3384.93
715.469	3377.47
715.812	3411.59
716.156	3373.85
716.499	3350.12
716.843	3385.15
717.186	3390.8
717.53	3394.87
717.873	3384.7
718.216	3419.95
718.559	3400.52
718.902	3366.17
719.246	3405.49
719.589	3384.47
719.932	3360.07
720.275	3321.88
720.617	3366.62
720.96	3377.69
721.303	3351.48
721.646	3397.13
721.989	3390.12
722.331	3403.46
722.674	3384.25
723.016	3395.09
723.359	3373.4
723.701	3389.44
724.044	3374.98
724.386	3344.25
724.729	3397.58
725.071	3381.54
725.413	3374.76
725.755	3377.24
726.097	3371.82
726.439	3374.76
726.782	3386.06
727.124	3390.8
727.465	3332.05
727.807	3367.52
728.149	3366.39
728.491	3358.49
728.833	3407.98
729.175	3405.26
729.516	3403.91
729.858	3415.43
730.199	3417.47
730.541	3374.76
730.882	3433.74
731.224	3430.12
731.565	3390.35
731.906	3400.29
732.248	3406.85
732.589	3399.39
732.93	3402.1
733.271	3424.47
733.612	3400.29
733.953	3457.92
734.294	3431.48
734.635	3464.25
734.976	3457.69
735.317	3414.53
735.658	3452.04
735.999	3438.71
736.339	3458.14
736.68	3472.83
737.021	3436.9
737.361	3444.13
737.702	3419.05
738.042	3451.36
738.383	3491.14
738.723	3483.23
739.063	3504.7
739.404	3451.59
739.744	3503.34
740.084	3478.26
740.424	3535.2
740.764	3520.29
741.104	3549.21
741.444	3550.8
741.784	3582.89
742.124	3535.43
742.464	3576.56
742.804	3522.77
743.143	3570.01
743.483	3592.15
743.823	3638.93
744.162	3617.01
744.502	3573.17
744.841	3625.6
745.181	3654.52
745.52	3643.22
745.86	3651.36
746.199	3618.82
746.538	3692.49
746.877	3694.07
747.216	3709.89
747.556	3750.11
747.895	3746.27
748.234	3757.8
748.573	3778.81
748.911	3752.83
749.25	3753.73
749.589	3813.39
749.928	3826.27
750.267	3838.47
750.605	3816.55
750.944	3898.36
751.283	3875.99
751.621	3918.92
751.96	3917.57
752.298	3951.69
752.636	3942.42
752.975	3970.9
753.313	3933.39
753.651	4049.54
753.989	4004.34
754.327	4069.2
754.666	4059.26
755.004	4056.55
755.342	4130.67
755.679	4148.07
756.017	4131.57
756.355	4179.03
756.693	4204.11
757.031	4195.3
757.368	4212.93
757.706	4241.85
758.044	4234.85
758.381	4292.92
758.719	4262.87
759.056	4283.88
759.394	4270.33
759.731	4328.63
760.068	4301.29
760.405	4349.65
760.743	4339.02
761.08	4390.77
761.417	4381.74
761.754	4393.26
762.091	4405.92
762.428	4377.44
762.765	4420.15
763.102	4444.33
763.438	4431
763.775	4413.37
764.112	4482.52
764.449	4487.95
764.785	4440.94
765.122	4461.06
765.458	4458.34
765.795	4490.66
766.131	4506.25
766.467	4408.63
766.804	4478.46
767.14	4506.25
767.476	4460.6
767.812	4429.87
768.148	4479.36
768.485	4487.95
768.821	4476.65
769.157	4466.7
769.492	4480.94
769.828	4469.64
770.164	4471.9
770.5	4543.99
770.836	4474.61
771.171	4475.74
771.507	4471.9
771.842	4470.32
772.178	4473.03
772.513	4470.09
772.849	4464.67
773.184	4402.53
773.519	4431.9
773.855	4420.6
774.19	4399.81
774.525	4388.06
774.86	4414.28
775.195	4391
775.53	4391
775.865	4393.71
776.2	4353.49
776.535	4315.3
776.87	4334.5
777.205	4294.73
777.539	4297.44
777.874	4331.79
778.209	4293.15
778.543	4290.66
778.878	4274.85
779.212	4309.65
779.547	4250.67
779.881	4277.78
780.215	4281.62
780.55	4254.28
780.884	4226.03
781.218	4202.08
781.552	4198.24
781.886	4185.58
782.22	4145.81
782.554	4150.1
782.888	4151.01
783.222	4129.76
783.556	4113.72
783.889	4102.19
784.223	4092.93
784.557	4094.74
784.89	4112.14
785.224	4068.07
785.557	4020.84
785.891	4009.77
786.224	4029.65
786.558	4072.36
786.891	3993.72
787.224	4020.39
787.557	3998.47
787.891	4009.77
788.224	3973.84
788.557	3946.04
788.89	3967.73
789.223	3962.99
789.556	3946.27
789.888	3943.1
790.221	3932.26
790.554	3919.15
790.887	3897
791.219	3907.17
791.552	3850.9
791.884	3847.06
792.217	3890
792.549	3866.04
792.882	3833.27
793.214	3780.85
793.546	3813.16
793.879	3798.7
794.211	3772.71
794.543	3781.75
794.875	3751.02
795.207	3728.42
795.539	3780.17
795.871	3775.2
796.203	3723.67
796.535	3720.96
796.867	3697.23
797.198	3675.09
797.53	3717.35
797.862	3661.3
798.193	3661.75
798.525	3680.96
798.856	3654.97
799.188	3632.15
799.519	3641.42
799.85	3559.38
800.182	3624.01
800.513	3617.24
800.844	3574.98
801.175	3614.98
801.506	3575.88
801.837	3578.82
802.168	3580.17
802.499	3536.11
802.83	3530.91
803.161	3521.87
803.491	3507.86
803.822	3502.21
804.153	3492.04
804.483	3443.23
804.814	3429.44
805.145	3480.29
805.475	3500.63
805.805	3463.57
806.136	3442.55
806.466	3431.03
806.796	3459.05
807.126	3447.3
807.457	3356.68
807.787	3402.55
808.117	3364.59
808.447	3377.92
808.777	3431.03
809.107	3371.82
809.436	3389.67
809.766	3375.21
810.096	3351.71
810.426	3322.78
810.755	3337.47
811.085	3349.22
811.414	3325.94
811.744	3278.94
812.073	3301.99
812.403	3299.28
812.732	3291.59
813.061	3288.2
813.39	3265.61
813.719	3269
814.049	3319.62
814.378	3295.89
814.707	3246.17
815.036	3266.74
815.365	3253.63
815.693	3185.38
816.022	3217.47
816.351	3177.7
816.68	3157.36
817.008	3209.11
817.337	3175.21
817.665	3140.64
817.994	3172.5
818.322	3186.06
818.651	3142.9
818.979	3165.27
819.307	3185.16
819.636	3161.88
819.964	3158.26
820.292	3113.29
820.62	3144.93
820.948	3137.02
821.276	3161.65
821.604	3160.52
821.932	3136.8
822.259	3147.87
822.587	3157.13
822.915	3138.15
823.243	3132.05
823.57	3115.33
823.898	3116.68
824.225	3140.86
824.553	3089.34
824.88	3109
825.207	3125.27
825.535	3095.44
825.862	3136.12
826.189	3149.68
826.516	3165.04
826.843	3177.25
827.17	3125.04
827.497	3119.85
827.824	3114.2
828.151	3179.96
828.478	3137.47
828.805	3146.74
829.131	3143.58
829.458	3128.21
829.785	3095.67
830.111	3109.9
830.438	3099.96
830.764	3120.53
831.09	3143.12
831.417	3080.75
831.743	3108.77
832.069	3096.35
832.395	3106.06
832.722	3140.41
833.048	3124.82
833.374	3145.61
833.7	3078.27
834.026	3109.45
834.351	3113.75
834.677	3081.43
835.003	3094.76
835.329	3085.72
835.654	3079.17
835.98	3069.23
836.306	3091.6
836.631	3062.67
836.956	3088.66
837.282	3057.25
837.607	3026.52
837.932	3049.34
838.258	3047.31
838.583	3052.73
838.908	3011.83
839.233	3060.87
839.558	3045.27
839.883	3051.15
840.208	3031.26
840.533	3047.76
840.858	2991.26
841.182	3007.76
841.507	3038.72
841.832	3012.28
842.156	2969.12
842.481	2999.62
842.805	2962.56
843.13	2938.84
843.454	2955.78
843.778	2967.76
844.103	3006.86
844.427	2998.27
844.751	2983.81
845.075	2949.46
845.399	2973.41
845.723	2931.83
846.047	2911.04
846.371	2912.4
846.695	2931.15
847.019	2873.07
847.343	2901.32
847.666	2845.28
847.99	2861.55
848.313	2869.01
848.637	2831.49
848.96	2831.72
849.284	2825.39
849.607	2819.06
849.931	2790.82
850.254	2765.05
850.577	2780.42
850.9	2754.43
851.223	2766.64
851.546	2761.89
851.869	2707.88
852.192	2732.06
852.515	2726.19
852.838	2719.41
853.161	2731.16
853.483	2643.02
853.806	2681.67
854.129	2711.27
854.451	2702.91
854.774	2641.22
855.096	2660.88
855.419	2688.9
855.741	2669.46
856.063	2633.98
856.385	2619.75
856.708	2636.47
857.03	2640.54
857.352	2631.95
857.674	2614.32
857.996	2581.78
858.318	2589.92
858.64	2586.98
858.961	2598.28
859.283	2597.15
859.605	2589.24
859.926	2560.99
860.248	2533.2
860.57	2520.09
860.891	2535.68
861.212	2567.55
861.534	2554.66
861.855	2537.94
862.176	2513.99
862.498	2544.95
862.819	2515.8
863.14	2506.76
863.461	2467.21
863.782	2505.63
864.103	2477.38
864.424	2494.78
864.745	2485.74
865.065	2464.95
865.386	2490.26
865.707	2466.08
866.027	2457.04
866.348	2459.07
866.668	2497.49
866.989	2509.92
867.309	2439.41
867.63	2460.88
867.95	2442.8
868.27	2442.8
868.59	2445.74
868.91	2445.06
869.23	2436.25
869.55	2441.22
869.87	2450.94
870.19	2459.53
870.51	2439.19
870.83	2461.56
871.15	2376.36
871.469	2409.36
871.789	2422.01
872.109	2416.81
872.428	2431.96
872.748	2422.69
873.067	2398.74
873.386	2372.75
873.706	2388.34
874.025	2407.55
874.344	2411.84
874.663	2385.86
874.982	2381.56
875.301	2406.42
875.62	2373.88
875.939	2375.01
876.258	2368
876.577	2374.1
876.896	2351.96
877.214	2364.84
877.533	2364.84
877.852	2368.91
878.17	2386.31
878.489	2341.11
878.807	2351.28
879.125	2333.2
879.444	2328
879.762	2339.08
880.08	2336.59
880.398	2310.38
880.716	2325.29
881.034	2325.07
881.352	2322.35
881.67	2296.14
881.988	2293.43
882.306	2321.22
882.624	2317.83
882.941	2285.29
883.259	2284.62
883.577	2283.03
883.894	2297.72
884.212	2290.04
884.529	2280.77
884.846	2253.66
885.164	2279.42
885.481	2252.3
885.798	2257.95
886.115	2217.5
886.432	2256.14
886.75	2255.69
887.067	2273.99
887.383	2220.89
887.7	2255.01
888.017	2234.22
888.334	2243.26
888.651	2229.7
888.967	2201
889.284	2208.01
889.6	2202.81
889.917	2204.62
890.233	2163.04
890.55	2177.05
890.866	2175.01
891.182	2187.44
891.498	2183.83
891.815	2145.64
892.131	2171.4
892.447	2143.15
892.763	2150.61
893.079	2139.08
893.395	2138.4
893.71	2121.91
894.026	2167.1
894.342	2131.85
894.657	2130.72
894.973	2100.67
895.289	2117.16
895.604	2106.09
895.92	2103.6
896.235	2068.58
896.55	2102.7
896.865	2064.96
897.181	2071.51
897.496	2074.9
897.811	2064.28
898.126	2066.32
898.441	2036.94
898.756	2026.54
899.071	2049.82
899.386	1997.62
899.7	2031.97
900.015	2030.84
900.33	2006.43
900.644	2005.53
900.959	2012.53
901.273	1999.2
901.588	1987
901.902	1987.67
902.216	1961.23
902.531	1965.3
902.845	1966.21
903.159	1951.29
903.473	1959.43
903.787	1906.09
904.101	1939.54
904.415	1951.29
904.729	1918.75
905.042	1924.62
905.356	1926.21
905.67	1909.26
905.984	1913.33
906.297	1916.26
906.611	1890.95
906.924	1876.04
907.237	1883.95
907.551	1855.47
907.864	1861.8
908.177	1867.45
908.491	1867
908.804	1855.25
909.117	1849.82
909.43	1827.23
909.743	1827
910.056	1810.05
910.368	1793.78
910.681	1853.44
910.994	1834.91
911.307	1806.44
911.619	1765.76
911.932	1791.07
912.244	1806.66
912.557	1789.26
912.869	1763.95
913.181	1796.04
913.494	1749.26
913.806	1747.45
914.118	1770.5
914.43	1749.26
914.742	1737.06
915.054	1733.44
915.366	1718.53
915.678	1746.55
915.99	1722.82
916.302	1707.46
916.613	1709.04
916.925	1696.16
917.236	1710.17
917.548	1691.86
917.859	1710.17
918.171	1678.53
918.482	1681.69
918.794	1674.01
919.105	1634.46
919.416	1640.56
919.727	1637.4
920.038	1629.49
920.349	1653.9
920.66	1630.85
920.971	1634.46
921.282	1641.47
921.593	1644.18
921.903	1612.09
922.214	1589.04
922.525	1606.67
922.835	1587.46
923.146	1580.23
923.456	1609.38
923.767	1571.41
924.077	1571.87
924.387	1553.79
924.697	1571.87
925.008	1524.86
925.318	1553.11
925.628	1584.52
925.938	1558.98
926.248	1515.37
926.558	1522.15
926.867	1534.35
927.177	1534.13
927.487	1510.62
927.796	1530.28
928.106	1524.64
928.416	1480.79
928.725	1536.84
929.034	1468.37
929.344	1448.93
929.653	1481.7
929.962	1483.96
930.271	1473.79
930.581	1462.26
930.89	1448.25
931.199	1463.39
931.508	1454.81
931.817	1461.59
932.125	1444.19
932.434	1448.03
932.743	1418.88
933.051	1419.78
933.36	1405.99
933.669	1412.55
933.977	1402.15
934.286	1417.07
934.594	1429.04
934.902	1397.41
935.21	1392.44
935.519	1392.21
935.827	1393.57
936.135	1369.16
936.443	1375.26
936.751	1347.46
937.059	1374.36
937.367	1369.38
937.674	1357.63
937.982	1358.99
938.29	1354.24
938.597	1347.46
938.905	1342.04
939.213	1312.89
939.52	1346.11
939.827	1363.06
940.135	1342.72
940.442	1342.72
940.749	1315.15
941.056	1341.14
941.363	1327.13
941.67	1323.06
941.977	1302.27
942.284	1295.04
942.591	1308.14
942.898	1299.56
943.205	1274.7
943.511	1273.57
943.818	1264.3
944.125	1262.27
944.431	1243.96
944.738	1274.92
945.044	1276.51
945.35	1277.86
945.657	1246.68
945.963	1245.32
946.269	1245.09
946.575	1241.25
946.881	1215.26
947.187	1220.91
947.493	1220.69
947.799	1243.96
948.105	1218.2
948.41	1219.56
948.716	1200.35
949.022	1186.79
949.327	1194.93
949.633	1188.15
949.938	1192.67
950.244	1217.75
950.549	1156.06
950.854	1177.53
951.16	1177.07
951.465	1202.38
951.77	1162.61
952.075	1168.26
952.38	1123.74
952.685	1163.74
952.99	1135.04
953.294	1128.94
953.599	1138.66
953.904	1143.18
954.209	1133.68
954.513	1144.53
954.818	1094.14
955.122	1101.14
955.426	1107.02
955.731	1102.95
956.035	1114.7
956.339	1111.76
956.643	1103.18
956.948	1094.82
957.252	1099.11
957.556	1110.18
957.86	1081.48
958.163	1082.16
958.467	1081.03
958.771	1104.31
959.075	1106.34
959.378	1069.96
959.682	1075.38
959.985	1051.88
960.289	1084.42
960.592	1054.36
960.896	1071.77
961.199	1047.59
961.502	1038.77
961.805	1008.26
962.108	1035.83
962.411	1031.99
962.714	1048.04
963.017	1013.01
963.32	1048.26
963.623	1048.04
963.926	1020.92
964.228	1024.31
964.531	1023.86
964.833	1036.06
965.136	1010.75
965.438	1012.56
965.741	999.9
966.043	992.22
966.345	996.51
966.648	1015.27
966.95	1012.78
967.252	992.22
967.554	984.76
967.856	980.02
968.158	972.79
968.46	972.33
968.761	973.92
969.063	977.53
969.365	963.07
969.666	963.29
969.968	969.4
970.269	977.98
970.571	947.48
970.872	951.32
971.174	946.57
971.475	964.2
971.776	953.58
972.077	928.27
972.378	934.14
972.679	940.47
972.98	924.88
973.281	929.17
973.582	943.41
973.883	920.36
974.183	927.14
974.484	948.38
974.785	928.27
975.085	913.13
975.386	912.67
975.686	911.77
975.986	888.72
976.287	887.36
976.587	902.05
976.887	898.89
977.187	903.86
977.487	872.22
977.787	854.82
978.087	897.98
978.387	872.22
978.687	891.88
978.987	860.7
979.286	862.73
979.586	906.8
979.885	879
980.185	872.9
980.484	868.16
980.784	862.51
981.083	867.25
981.382	838.1
981.682	877.19
981.981	847.36
982.28	845.78
982.579	832.45
982.878	846.91
983.177	838.1
983.475	862.51
983.774	838.55
984.073	839.68
984.372	811.89
984.67	832.45
984.969	827.48
985.267	823.86
985.566	824.54
985.864	825.22
986.162	848.27
986.461	814.6
986.759	795.16
987.057	787.93
987.355	815.05
987.653	800.13
987.951	799.23
988.249	815.5
988.547	814.37
988.844	792.68
989.142	794.48
989.44	815.73
989.737	779.12
990.035	777.08
990.332	777.08
990.63	793.35
990.927	794.03
991.224	798.78
991.521	793.58
991.819	765.33
992.116	762.62
992.413	748.38
992.71	753.81
993.006	756.52
993.303	767.59
993.6	751.77
993.897	736.63
994.193	722.17
994.49	759.68
994.787	724.88
995.083	723.75
995.379	725.56
995.676	733.7
995.972	729.85
996.268	717.2
996.565	714.26
996.861	723.75
997.157	735.96
997.453	720.14
997.749	711.78
998.044	743.19
998.34	720.59
998.636	697.31
998.932	714.49
999.227	721.49
999.523	721.94
999.818	693.47
1000.114	716.52
1000.409	689.63
1000.704	685.34
1001	688.95
1001.295	700.48
1001.59	708.39
1001.885	720.59
1002.18	675.39
1002.475	689.4
1002.77	687.59
1003.065	668.84
1003.359	695.73
1003.654	665.45
1003.949	655.73
1004.243	669.97
1004.538	667.03
1004.832	643.98
1005.127	681.04
1005.421	672.23
1005.715	672.45
1006.009	648.27
1006.304	648.27
1006.598	671.55
1006.892	635.62
1007.186	654.83
1007.48	648.95
1007.773	648.05
1008.067	658.44
1008.361	624.09
1008.655	636.97
1008.948	642.62
1009.242	643.08
1009.535	650.08
1009.829	627.26
1010.122	614.6
1010.415	626.35
1010.708	613.25
1011.001	644.66
1011.295	629.07
1011.588	621.61
1011.881	614.83
1012.173	595.62
1012.466	613.02
1012.759	619.12
1013.052	610.08
1013.344	599.24
1013.637	606.24
1013.93	582.06
1014.222	602.17
1014.514	613.25
1014.807	593.36
1015.099	594.94
1015.391	582.06
1015.683	585.22
1015.976	592
1016.268	586.13
1016.56	586.58
1016.851	573.25
1017.143	580.71
1017.435	580.03
1017.727	572.12
1018.018	581.38
1018.31	571.67
1018.602	573.02
1018.893	554.04
1019.185	585
1019.476	561.27
1019.767	573.25
1020.058	548.84
1020.35	539.12
1020.641	559.69
1020.932	536.19
1021.223	544.1
1021.514	552.23
1021.804	553.14
1022.095	543.19
1022.386	532.12
1022.677	535.96
1022.967	559.91
1023.258	539.35
1023.548	525.11
1023.839	532.57
1024.129	522.63
1024.419	507.26
1024.709	526.7
1025	530.08
1025.29	529.41
1025.58	510.88
1025.87	513.81
1026.16	500.48
1026.449	521.95
1026.739	511.55
1027.029	502.06
1027.319	512.46
1027.608	493.93
1027.898	533.02
1028.187	515.4
1028.477	507.94
1028.766	530.76
1029.055	500.26
1029.344	492.57
1029.634	488.96
1029.923	498
1030.212	483.31
1030.501	487.6
1030.79	485.11
1031.078	484.44
1031.367	474.72
1031.656	513.36
1031.945	479.92
1032.233	477.2
1032.522	483.53
1032.81	494.15
1033.099	497.54
1033.387	473.82
1033.675	482.18
1033.963	459.58
1034.251	465.68
1034.54	492.35
1034.828	447.83
1035.116	490.76
1035.403	468.39
1035.691	444.66
1035.979	461.61
1036.267	480.37
1036.554	445.34
1036.842	470.43
1037.129	478.79
1037.417	464.78
1037.704	462.06
1037.992	454.38
1038.279	451.89
1038.566	471.56
1038.853	471.56
1039.14	471.56
