Data from blue_surface_keyboard_FLMS001491_060.txt Node
Date: Tue Feb 07 11:13:21 GMT 2017
User: dcchb
Spectrometer: FLMS00149
Trigger mode: 0
Integration Time (sec): 2.000000E-2
Scans to average: 10
Electric dark correction enabled: true
Nonlinearity correction enabled: false
Boxcar width: 0
XAxis mode: Wavelengths
Number of Pixels in Spectrum: 2048
>>>>>Begin Spectral Data<<<<<
341.393	0.58
341.776	0.58
342.16	0.58
342.543	-57.95
342.927	-57.27
343.31	-48.01
343.693	-62.02
344.077	-73.32
344.46	-55.46
344.843	-56.14
345.226	-51.4
345.61	-32.64
345.993	-47.33
346.376	-4.17
346.759	-11.62
347.142	24.53
347.525	40.35
347.908	65.44
348.291	89.62
348.674	92.33
349.057	129.84
349.44	111.31
349.823	115.38
350.206	130.52
350.588	161.7
350.971	186.34
351.354	199.67
351.737	208.03
352.119	227.24
352.502	219.33
352.884	255.94
353.267	275.6
353.65	264.07
354.032	288.03
354.414	283.96
354.797	272.66
355.179	290.74
355.562	309.5
355.944	316.5
356.326	295.26
356.709	335.71
357.091	312.66
357.473	290.29
357.855	323.96
358.238	300.01
358.62	309.27
359.002	330.06
359.384	334.36
359.766	312.66
360.148	304.75
360.53	309.27
360.912	306.11
361.294	315.83
361.676	329.84
362.057	331.19
362.439	291.87
362.821	279.89
363.203	301.81
363.584	297.29
363.966	298.88
364.348	302.27
364.729	290.97
365.111	293.23
365.493	294.81
365.874	290.97
366.256	282.83
366.637	283.74
367.019	288.26
367.4	280.8
367.781	284.19
368.163	275.37
368.544	284.19
368.925	306.11
369.306	277.63
369.688	290.74
370.069	286.22
370.45	285.77
370.831	273.34
371.212	281.25
371.593	281.02
371.974	300.01
372.355	289.16
372.736	283.28
373.117	285.54
373.498	283.51
373.879	276.28
374.26	283.28
374.641	287.8
375.021	275.37
375.402	296.39
375.783	268.14
376.163	281.48
376.544	287.13
376.925	302.49
377.305	264.53
377.686	287.8
378.066	296.62
378.447	299.55
378.827	295.49
379.208	272.66
379.588	296.84
379.968	307.01
380.349	289.16
380.729	291.19
381.109	299.1
381.489	282.38
381.87	297.07
382.25	296.16
382.63	307.69
383.01	297.97
383.39	306.79
383.77	283.74
384.15	305.2
384.53	317.86
384.91	311.98
385.29	330.74
385.67	330.06
386.049	311.08
386.429	303.62
386.809	295.26
387.189	296.84
387.568	309.5
387.948	323.51
388.328	305.2
388.707	320.12
389.087	321.02
389.466	324.64
389.846	318.54
390.225	326.67
390.605	310.18
390.984	312.21
391.363	320.8
391.743	290.29
392.122	323.51
392.501	326.22
392.881	331.42
393.26	317.41
393.639	315.15
394.018	330.74
394.397	327.58
394.776	323.51
395.155	326.22
395.534	329.61
395.913	321.25
396.292	317.41
396.671	320.12
397.05	324.64
397.429	322.38
397.808	333
398.186	351.76
398.565	340.91
398.944	356.5
399.323	324.41
399.701	330.74
400.08	328.03
400.458	339.33
400.837	341.59
401.215	334.36
401.594	346.78
401.972	344.98
402.351	323.73
402.729	334.13
403.107	341.36
403.486	342.04
403.864	343.62
404.242	356.05
404.62	353.11
404.999	336.16
405.377	341.36
405.755	356.05
406.133	352.21
406.511	342.94
406.889	338.88
407.267	333
407.645	358.99
408.023	347.69
408.401	358.31
408.779	368.7
409.156	352.43
409.534	360.57
409.912	382.04
410.29	363.06
410.667	363.51
411.045	382.26
411.422	382.72
411.8	356.73
412.178	384.07
412.555	357.18
412.933	390.17
413.31	384.3
413.687	387.01
414.065	371.19
414.442	381.59
414.819	393.79
415.197	368.7
415.574	382.49
415.951	387.91
416.328	388.37
416.705	393.56
417.082	384.3
417.46	383.85
417.837	391.3
418.214	398.31
418.591	384.75
418.967	384.75
419.344	398.76
419.721	408.25
420.098	394.47
420.475	394.92
420.852	394.24
421.228	408.03
421.605	408.7
421.982	371.42
422.358	387.24
422.735	396.73
423.111	412.55
423.488	427.23
423.864	418.87
424.241	417.07
424.617	402.38
424.994	424.07
425.37	427.46
425.746	411.19
426.123	435.14
426.499	399.89
426.875	426.1
427.251	426.33
427.627	453.22
428.003	447.8
428.379	445.77
428.756	459.78
429.132	442.38
429.507	441.02
429.883	443.96
430.259	458.42
430.635	441.92
431.011	449.83
431.387	462.26
431.763	435.82
432.138	446.44
432.514	485.76
432.89	471.3
433.265	446.22
433.641	450.96
434.016	473.79
434.392	469.27
434.767	478.98
435.143	473.56
435.518	488.25
435.894	480.79
436.269	488.93
436.644	482.6
437.02	485.54
437.395	499.77
437.77	484.18
438.145	492.09
438.52	504.97
438.895	498.42
439.271	505.65
439.646	515.82
440.021	505.88
440.395	512.66
440.77	502.49
441.145	511.3
441.52	499.1
441.895	497.52
442.27	543.84
442.645	516.5
443.019	553.11
443.394	525.76
443.769	536.84
444.143	535.03
444.518	513.33
444.892	538.87
445.267	542.94
445.641	562.15
446.016	536.16
446.39	532.54
446.764	533.9
447.139	537.97
447.513	554.46
447.887	549.94
448.262	540.68
448.636	565.54
449.01	550.17
449.384	540.45
449.758	564.41
450.132	558.98
450.506	552.2
450.88	562.82
451.254	555.37
451.628	575.25
452.002	565.31
452.376	587.46
452.75	584.52
453.123	575.93
453.497	566.89
453.871	572.54
454.244	581.13
454.618	610.51
454.992	596.27
455.365	605.99
455.739	630.17
456.112	623.84
456.486	633.1
456.859	633.33
457.232	593.11
457.606	629.26
457.979	622.94
458.352	622.94
458.725	652.09
459.099	644.63
459.472	640.34
459.845	629.94
460.218	661.8
460.591	656.61
460.964	663.16
461.337	645.08
461.71	682.6
462.083	673.56
462.456	688.47
462.829	682.14
463.201	684.4
463.574	688.24
463.947	722.82
464.32	714.01
464.692	716.72
465.065	691.41
465.438	703.61
465.81	705.19
466.183	704.97
466.555	728.02
466.928	712.42
467.3	726.66
467.672	745.42
468.045	728.47
468.417	732.99
468.789	765.08
469.161	772.54
469.534	738.41
469.906	777.51
470.278	771.41
470.65	783.61
471.022	784.51
471.394	798.52
471.766	804.63
472.138	780.45
472.51	796.04
472.882	826.09
473.253	819.99
473.625	828.35
473.997	865.19
474.369	863.61
474.74	838.75
475.112	885.75
475.484	869.93
475.855	891.4
476.227	881.01
476.598	906.54
476.97	888.24
477.341	919.88
477.713	935.92
478.084	911.29
478.455	941.12
478.827	953.55
479.198	946.54
479.569	933.66
479.94	996.26
480.311	982.47
480.682	974.11
481.053	975.02
481.424	1000.33
481.795	1025.18
482.166	1031.96
482.537	1028.8
482.908	1045.3
483.279	1035.13
483.65	1078.29
484.021	1071.29
484.391	1085.75
484.762	1104.96
485.133	1112.64
485.503	1129.81
485.874	1129.36
486.244	1151.06
486.615	1114
486.985	1129.36
487.356	1166.42
487.726	1177.5
488.097	1181.11
488.467	1190.6
488.837	1205.52
489.207	1190.83
489.578	1228.57
489.948	1217.5
490.318	1219.76
490.688	1231.06
491.058	1245.74
491.428	1230.15
491.798	1243.48
492.168	1262.47
492.538	1265.4
492.908	1263.6
493.278	1287.78
493.648	1286.87
494.017	1268.57
494.387	1297.04
494.757	1292.97
495.126	1298.85
495.496	1317.83
495.866	1329.36
496.235	1332.07
496.605	1342.01
496.974	1346.76
497.344	1350.15
497.713	1352.18
498.082	1350.15
498.452	1358.96
498.821	1351.05
499.19	1394.89
499.559	1349.92
499.928	1351.05
500.298	1367.1
500.667	1398.28
501.036	1387.21
501.405	1380.66
501.774	1366.42
502.143	1384.27
502.512	1376.36
502.88	1379.98
503.249	1391.95
503.618	1389.7
503.987	1390.83
504.356	1380.88
504.724	1404.38
505.093	1421.11
505.462	1396.02
505.83	1398.51
506.199	1409.81
506.567	1468.11
506.936	1423.37
507.304	1445.29
507.672	1460.2
508.041	1447.55
508.409	1430.6
508.777	1463.37
509.145	1452.07
509.514	1450.71
509.882	1456.81
510.25	1451.84
510.618	1473.08
510.986	1474.21
511.354	1487.32
511.722	1475.79
512.09	1456.59
512.458	1461.33
512.826	1485.29
513.193	1502.69
513.561	1475.79
513.929	1523.48
514.297	1493.65
514.664	1526.87
515.032	1516.7
515.4	1479.41
515.767	1518.28
516.135	1499.3
516.502	1503.82
516.869	1529.8
517.237	1527.54
517.604	1501.56
517.972	1508.34
518.339	1517.83
518.706	1529.58
519.073	1522.35
519.44	1506.08
519.808	1554.66
520.175	1514.44
520.542	1531.39
520.909	1548.79
521.276	1552.85
521.643	1564.15
522.009	1558.5
522.376	1556.47
522.743	1555.11
523.11	1575.9
523.477	1555.34
523.843	1573.65
524.21	1541.78
524.577	1588.11
524.943	1632.63
525.31	1597.83
525.676	1597.15
526.043	1598.73
526.409	1601.89
526.776	1603.47
527.142	1604.83
527.508	1617.49
527.874	1615.9
528.241	1605.51
528.607	1607.99
528.973	1648.22
529.339	1622.91
529.705	1628.11
530.071	1656.58
530.437	1621.55
530.803	1636.92
531.169	1684.15
531.535	1615.45
531.901	1640.99
532.267	1627.65
532.632	1655.68
532.998	1666.98
533.364	1682.12
533.73	1660.42
534.095	1688.9
534.461	1681.66
534.826	1684.38
535.192	1644.38
535.557	1704.94
535.923	1693.64
536.288	1660.65
536.653	1682.57
537.019	1684.15
537.384	1691.38
537.749	1679.18
538.114	1676.02
538.479	1694.77
538.845	1693.19
539.21	1673.53
539.575	1639.41
539.94	1686.18
540.305	1700.65
540.67	1661.78
541.034	1685.51
541.399	1679.18
541.764	1698.16
542.129	1722.57
542.494	1687.99
542.858	1706.52
543.223	1692.74
543.587	1699.97
543.952	1702.68
544.316	1712.85
544.681	1709.91
545.045	1695.68
545.41	1729.57
545.774	1756.01
546.138	1725.51
546.503	1703.13
546.867	1723.7
547.231	1722.12
547.595	1724.38
547.959	1701.33
548.324	1716.01
548.688	1699.07
549.052	1721.66
549.416	1718.95
549.779	1748.33
550.143	1727.77
550.507	1726.18
550.871	1733.87
551.235	1711.95
551.599	1724.83
551.962	1737.03
552.326	1745.62
552.689	1767.99
553.053	1750.59
553.417	1730.93
553.78	1778.84
554.143	1725.51
554.507	1753.75
554.87	1724.38
555.234	1760.98
555.597	1720.53
555.96	1760.98
556.323	1746.52
556.686	1760.76
557.05	1734.54
557.413	1776.8
557.776	1729.12
558.139	1724.38
558.502	1741.32
558.865	1760.31
559.228	1751.72
559.59	1715.56
559.953	1746.3
560.316	1786.75
560.679	1766.86
561.041	1770.25
561.404	1798.95
561.767	1789.68
562.129	1788.55
562.492	1798.05
562.854	1768.22
563.217	1780.87
563.579	1798.05
563.941	1804.15
564.304	1828.55
564.666	1794.2
565.028	1828.78
565.39	1803.24
565.753	1805.96
566.115	1794.43
566.477	1813.86
566.839	1824.94
567.201	1837.82
567.563	1806.41
567.925	1839.85
568.287	1824.26
568.648	1837.82
569.01	1814.09
569.372	1831.72
569.734	1840.53
570.095	1858.61
570.457	1857.48
570.819	1864.48
571.18	1855.67
571.542	1865.61
571.903	1840.53
572.265	1842.79
572.626	1879.85
572.987	1851.38
573.349	1888.21
573.71	1885.05
574.071	1830.81
574.432	1873.52
574.794	1898.16
575.155	1876.91
575.516	1864.48
575.877	1871.49
576.238	1912.62
576.599	1879.4
576.96	1901.77
577.32	1888.44
577.681	1913.52
578.042	1896.12
578.403	1904.48
578.763	1873.75
579.124	1933.18
579.485	1907.65
579.845	1888.67
580.206	1908.78
580.566	1925.5
580.927	1927.99
581.287	1935.9
581.648	1920.53
582.008	1928.21
582.368	1907.87
582.728	1943.35
583.089	1895.9
583.449	1888.67
583.809	1945.61
584.169	1935.22
584.529	1886.41
584.889	1918.49
585.249	1941.32
585.609	1942.22
585.969	1911.49
586.329	1925.05
586.688	1951.94
587.048	1941.54
587.408	1916.69
587.768	1922.56
588.127	1943.8
588.487	1939.51
588.846	1944.26
589.206	1937.48
589.565	1956.01
589.925	1929.12
590.284	1919.85
590.643	1937.7
591.003	1948.1
591.362	1938.61
591.721	1927.53
592.08	1909.46
592.44	1931.15
592.799	1923.47
593.158	1949
593.517	1953.07
593.876	1932.73
594.235	1911.26
594.593	1909.23
594.952	1909.23
595.311	1983.35
595.67	1942.45
596.029	1946.52
596.387	1979.74
596.746	1974.09
597.104	1942
597.463	1967.98
597.822	1990.13
598.18	1942
598.538	1962.11
598.897	1981.32
599.255	1965.73
599.613	1961.66
599.972	1973.41
600.33	1963.92
600.688	1985.84
601.046	1965.73
601.404	1997.36
601.762	1970.24
602.12	2004.14
602.478	1971.83
602.836	1971.83
603.194	1954.88
603.552	1968.44
603.91	1986.06
604.268	1992.62
604.625	1976.8
604.983	2016.57
605.341	1989
605.698	2002.33
606.056	2014.31
606.413	2040.53
606.771	2011.83
607.128	2015.89
607.485	2013.86
607.843	2014.09
608.2	2018.38
608.557	2049.34
608.914	2037.81
609.272	2033.29
609.629	2033.52
609.986	2037.36
610.343	2029.45
610.7	2017.25
611.057	2050.92
611.414	2062.45
611.771	2038.94
612.127	2065.16
612.484	2031.71
612.841	2063.8
613.198	2085.72
613.554	2055.67
613.911	2060.41
614.267	2064.48
614.624	2084.37
614.98	2054.31
615.337	2063.58
615.693	2086.17
616.05	2076.91
616.406	2111.71
616.762	2072.84
617.118	2083.46
617.475	2114.2
617.831	2104.25
618.187	2097.25
618.543	2139.05
618.899	2120.98
619.255	2127.3
619.611	2134.08
619.967	2129.34
620.323	2136.79
620.678	2123.69
621.034	2114.42
621.39	2120.52
621.746	2115.33
622.101	2133.63
622.457	2135.66
622.812	2146.51
623.168	2172.95
623.523	2148.09
623.879	2173.4
624.234	2119.39
624.589	2160.07
624.945	2142.9
625.3	2181.31
625.655	2179.96
626.01	2187.19
626.365	2157.58
626.72	2181.09
627.075	2173.18
627.43	2186.51
627.785	2192.61
628.14	2198.71
628.495	2191.03
628.85	2176.12
629.205	2178.83
629.559	2203.46
629.914	2203.46
630.269	2208.43
630.623	2157.58
630.978	2194.19
631.332	2174.99
631.687	2201.2
632.041	2196.23
632.396	2245.94
632.75	2203.01
633.104	2231.71
633.459	2208.2
633.813	2209.11
634.167	2229.67
634.521	2213.4
634.875	2241.65
635.229	2263.8
635.583	2239.62
635.937	2254.08
636.291	2262.89
636.645	2251.37
636.999	2229.45
637.352	2270.8
637.706	2249.11
638.06	2259.5
638.413	2253.18
638.767	2259.5
639.121	2309.44
639.474	2305.6
639.828	2318.26
640.181	2294.98
640.534	2290.46
640.888	2336.79
641.241	2310.57
641.594	2302.44
641.947	2339.05
642.301	2343.57
642.654	2326.62
643.007	2339.5
643.36	2354.64
643.713	2381.53
644.066	2360.97
644.419	2380.86
644.771	2361.65
645.124	2325.04
645.477	2327.07
645.83	2336.34
646.182	2341.53
646.535	2340.63
646.888	2374.3
647.24	2352.38
647.593	2370.91
647.945	2378.14
648.298	2389.67
648.65	2396.22
649.002	2388.31
649.355	2397.35
649.707	2372.27
650.059	2405.26
650.411	2455.66
650.763	2448.65
651.115	2485.49
651.467	2481.42
651.819	2516.22
652.171	2532.72
652.523	2538.59
652.875	2529.78
653.227	2539.95
653.578	2569.33
653.93	2532.94
654.282	2592.38
654.633	2588.76
654.985	2576.56
655.337	2593.28
655.688	2598.02
656.039	2650.45
656.391	2577.46
656.742	2626.95
657.094	2644.8
657.445	2671.92
657.796	2649.1
658.147	2671.92
658.498	2679.6
658.849	2727.29
659.2	2694.97
659.551	2734.07
659.902	2717.34
660.253	2753.05
660.604	2776.33
660.955	2755.53
661.306	2777.23
661.656	2797.12
662.007	2807.96
662.358	2812.03
662.708	2826.72
663.059	2852.71
663.409	2875.53
663.76	2883.67
664.11	2893.84
664.461	2918.69
664.811	2902.2
665.161	2924.57
665.511	2929.09
665.862	2941.29
666.212	2978.35
666.562	3007.73
666.912	2996.43
667.262	3020.16
667.612	2994.17
667.962	3024.68
668.312	3067.17
668.662	3078.92
669.011	3062.19
669.361	3057.45
669.711	3119.82
670.06	3087.28
670.41	3110.55
670.76	3102.64
671.109	3129.54
671.459	3160.95
671.808	3162.3
672.157	3219.93
672.507	3183.55
672.856	3204.34
673.205	3230.1
673.554	3225.35
673.904	3208.86
674.253	3226.93
674.602	3292.47
674.951	3260.15
675.3	3233.71
675.649	3273.26
675.998	3279.36
676.346	3300.38
676.695	3309.64
677.044	3356.88
677.393	3332.47
677.741	3379.93
678.09	3371.79
678.438	3410.88
678.787	3379.02
679.135	3421.05
679.484	3421.73
679.832	3442.07
680.181	3419.47
680.529	3443.43
680.877	3434.16
681.225	3465.8
681.573	3552.8
681.922	3481.84
682.27	3508.28
682.618	3480.71
682.966	3488.17
683.314	3531.33
683.661	3567.49
684.009	3514.16
684.357	3529.53
684.705	3530.43
685.053	3548.28
685.4	3579.24
685.748	3598.45
686.095	3590.99
686.443	3585.8
686.79	3597.09
687.138	3615.63
687.485	3628.05
687.832	3603.2
688.18	3617.89
688.527	3641.61
688.874	3626.25
689.221	3650.43
689.568	3624.44
689.915	3608.85
690.262	3631.22
690.609	3621.95
690.956	3629.64
691.303	3641.39
691.65	3642.07
691.997	3637.77
692.344	3645
692.69	3653.36
693.037	3660.82
693.383	3662.4
693.73	3693.14
694.077	3661.05
694.423	3657.66
694.769	3670.99
695.116	3662.86
695.462	3651.1
695.808	3661.73
696.155	3678.45
696.501	3709.63
696.847	3666.25
697.193	3658.56
697.539	3666.02
697.885	3663.76
698.231	3675.51
698.577	3687.94
698.923	3655.17
699.269	3675.96
699.614	3632.8
699.96	3663.08
700.306	3660.37
700.651	3669.41
700.997	3695.4
701.342	3646.36
701.688	3633.93
702.033	3638.9
702.379	3636.42
702.724	3629.64
703.069	3629.41
703.415	3618.56
703.76	3616.76
704.105	3621.73
704.45	3577.21
704.795	3630.99
705.14	3582.41
705.485	3607.72
705.83	3588.73
706.175	3607.72
706.52	3645
706.865	3593.93
707.209	3602.52
707.554	3595.96
707.899	3576.08
708.243	3577.66
708.588	3558.45
708.932	3567.72
709.277	3567.49
709.621	3558.68
709.966	3576.76
710.31	3533.59
710.654	3550.99
710.998	3554.84
711.342	3570.2
711.687	3556.42
712.031	3505.12
712.375	3546.7
712.719	3521.62
713.063	3522.75
713.407	3530.43
713.75	3530.2
714.094	3503.76
714.438	3536.31
714.782	3551.22
715.125	3559.81
715.469	3547.15
715.812	3571.33
716.156	3515.74
716.499	3531.79
716.843	3572.91
717.186	3518.68
717.53	3538.34
717.873	3551.45
718.216	3534.27
718.559	3527.27
718.902	3471.45
719.246	3505.35
719.589	3522.52
719.932	3508.51
720.275	3503.99
720.617	3489.98
720.96	3513.48
721.303	3541.5
721.646	3524.78
721.989	3504.44
722.331	3485.23
722.674	3544.67
723.016	3536.53
723.359	3576.08
723.701	3548.96
724.044	3495.85
724.386	3484.78
724.729	3521.39
725.071	3537.66
725.413	3532.69
725.755	3541.73
726.097	3540.37
726.439	3474.61
726.782	3502.18
727.124	3533.14
727.465	3503.99
727.807	3544.67
728.149	3535.18
728.491	3530.2
728.833	3558.68
729.175	3520.71
729.516	3530.2
729.858	3482.52
730.199	3537.44
730.541	3531.56
730.882	3545.57
731.224	3545.8
731.565	3531.11
731.906	3537.89
732.248	3542.86
732.589	3541.73
732.93	3521.16
733.271	3552.8
733.612	3531.11
733.953	3545.8
734.294	3587.38
734.635	3554.16
734.976	3553.25
735.317	3584.44
735.658	3558.45
735.999	3568.62
736.339	3550.54
736.68	3598.9
737.021	3584.89
737.361	3574.72
737.702	3648.62
738.042	3604.33
738.383	3612.69
738.723	3628.05
739.063	3621.5
739.404	3621.95
739.744	3637.09
740.084	3615.4
740.424	3638.22
740.764	3614.72
741.104	3656.53
741.444	3630.77
741.784	3675.96
742.124	3702.4
742.464	3657.43
742.804	3695.4
743.143	3710.31
743.483	3727.71
743.823	3708.28
744.162	3723.87
744.502	3733.59
744.841	3748.28
745.181	3754.38
745.52	3747.15
745.86	3803.19
746.199	3796.64
746.538	3797.77
746.877	3864.88
747.216	3829.4
747.556	3845.45
747.895	3858.33
748.234	3902.4
748.573	3853.81
748.911	3856.3
749.25	3887.48
749.589	3933.58
749.928	3922.06
750.267	3936.97
750.605	3975.16
750.944	3976.97
751.283	4003.64
751.621	4045.44
751.96	4071.66
752.298	4025.78
752.636	4074.14
752.975	4048.16
753.313	4072.79
753.651	4140.13
753.989	4088.38
754.327	4152.79
754.666	4151.43
755.004	4155.5
755.342	4214.71
755.679	4222.39
756.017	4189.85
756.355	4188.49
756.693	4230.3
757.031	4259.9
757.368	4262.16
757.706	4281.14
758.044	4298.55
758.381	4362.05
758.719	4393.23
759.056	4341.71
759.394	4366.11
759.731	4426.9
760.068	4404.08
760.405	4415.15
760.743	4407.47
761.08	4449.5
761.417	4460.8
761.754	4425.1
762.091	4474.81
762.428	4435.72
762.765	4503.74
763.102	4515.49
763.438	4456.73
763.775	4533.12
764.112	4531.53
764.449	4499.22
764.785	4558.88
765.122	4513
765.458	4521.14
765.795	4497.41
766.131	4528.14
766.467	4555.94
766.804	4521.82
767.14	4484.53
767.476	4489.73
767.812	4513
768.148	4526.79
768.485	4498.54
768.821	4539.89
769.157	4531.76
769.492	4565.2
769.828	4537.41
770.164	4501.93
770.5	4535.83
770.836	4485.43
771.171	4461.7
771.507	4530.18
771.842	4471.65
772.178	4507.81
772.513	4471.65
772.849	4478.2
773.184	4469.84
773.519	4489.95
773.855	4488.82
774.19	4463.51
774.525	4443.4
774.86	4414.02
775.195	4455.15
775.53	4420.8
775.865	4371.09
776.2	4372.44
776.535	4341.48
776.87	4420.35
777.205	4375.61
777.539	4332.44
777.874	4349.62
778.209	4353.68
778.543	4350.97
778.878	4298.32
779.212	4336.28
779.547	4266
779.881	4249.51
780.215	4271.65
780.55	4289.96
780.884	4258.09
781.218	4214.71
781.552	4274.59
781.886	4226.68
782.22	4183.07
782.554	4185.78
782.888	4188.27
783.222	4170.19
783.556	4112.79
783.889	4151.43
784.223	4123.18
784.557	4157.53
784.89	4122.28
785.224	4092.67
785.557	4126.57
785.891	4077.53
786.224	4084.09
786.558	4066.01
786.891	4051.32
787.224	4031.89
787.557	3988.04
787.891	4025.56
788.224	4009.74
788.557	3982.62
788.89	4047.25
789.223	4027.14
789.556	3988.95
789.888	3958.89
790.221	3953.7
790.554	3882.96
790.887	3895.17
791.219	3911.89
791.552	3923.41
791.884	3946.46
792.217	3864.88
792.549	3900.59
792.882	3823.76
793.214	3856.52
793.546	3830.76
793.879	3760.71
794.211	3802.74
794.543	3820.59
794.875	3798.9
795.207	3762.06
795.539	3793.7
795.871	3770.2
796.203	3782.4
796.535	3703.98
796.867	3753.93
797.198	3706.24
797.53	3707.6
797.862	3681.84
798.193	3729.52
798.525	3670.54
798.856	3672.8
799.188	3612.69
799.519	3631.9
799.85	3571.56
800.182	3629.86
800.513	3591.45
800.844	3577.89
801.175	3565.68
801.506	3600.26
801.837	3580.6
802.168	3549.41
802.499	3512.13
802.83	3498.34
803.161	3577.43
803.491	3548.28
803.822	3547.6
804.153	3531.11
804.483	3511.9
804.814	3533.82
805.145	3457.66
805.475	3459.02
805.805	3452.01
806.136	3490.88
806.466	3491.56
806.796	3437.32
807.126	3453.82
807.457	3418.12
807.787	3444.1
808.117	3381.06
808.447	3368.4
808.777	3410.66
809.107	3402.75
809.436	3348.06
809.766	3394.16
810.096	3366.14
810.426	3369.76
810.755	3347.16
811.085	3353.49
811.414	3346.93
811.744	3338.8
812.073	3303.09
812.403	3307.61
812.732	3316.42
813.061	3287.95
813.39	3305.8
813.719	3288.4
814.049	3332.92
814.378	3279.36
814.707	3255.63
815.036	3240.95
815.365	3248.63
815.693	3219.25
816.022	3255.86
816.351	3236.88
816.68	3239.14
817.008	3238.46
817.337	3224.22
817.665	3186.71
817.994	3202.08
818.322	3174.51
818.651	3166.15
818.979	3194.62
819.307	3193.72
819.636	3148.74
819.964	3148.07
820.292	3152.59
820.62	3184
820.948	3148.29
821.276	3133.15
821.604	3108.29
821.932	3153.94
822.259	3131.34
822.587	3153.26
822.915	3127.28
823.243	3123.43
823.57	3147.39
823.898	3122.98
824.225	3160.72
824.553	3170.44
824.88	3118.46
825.207	3152.59
825.535	3119.82
825.862	3128.18
826.189	3103.32
826.516	3134.96
826.843	3144
827.17	3135.64
827.497	3125.24
827.824	3117.11
828.151	3175.64
828.478	3136.99
828.805	3158.01
829.131	3139.48
829.458	3165.02
829.785	3130.89
830.111	3154.62
830.438	3124.56
830.764	3117.11
831.09	3131.8
831.417	3124.11
831.743	3137.45
832.069	3147.84
832.395	3106.26
832.722	3130.67
833.048	3142.64
833.374	3121.63
833.7	3106.49
834.026	3116.2
834.351	3146.71
834.677	3087.96
835.003	3151.23
835.329	3132.25
835.654	3095.41
835.98	3086.6
836.306	3134.73
836.631	3066.94
836.956	3083.21
837.282	3080.27
837.607	3096.99
837.932	3082.08
838.258	3050.44
838.583	3053.83
838.908	3061.06
839.233	3097.9
839.558	3082.08
839.883	3027.17
840.208	3050.89
840.533	3072.36
840.858	3047.28
841.182	3047.73
841.507	3027.39
841.832	3042.98
842.156	3012.93
842.481	3020.39
842.805	2978.13
843.13	3024
843.454	2980.84
843.778	2928.64
844.103	2989.88
844.427	2978.13
844.751	2994.4
845.075	2976.32
845.399	2972.03
845.723	2922.99
846.047	2988.07
846.371	2887.96
846.695	2941.52
847.019	2917.79
847.343	2894.29
847.666	2876.89
847.99	2859.26
848.313	2884.8
848.637	2855.19
848.96	2880.96
849.284	2831.47
849.607	2832.14
849.931	2814.97
850.254	2803.67
850.577	2777
850.9	2763.44
851.223	2786.49
851.546	2779.49
851.869	2758.47
852.192	2763.22
852.515	2710.56
852.838	2725.71
853.161	2737
853.483	2713.5
853.806	2726.16
854.129	2689.32
854.451	2694.97
854.774	2708.08
855.096	2684.8
855.419	2679.15
855.741	2695.42
856.063	2665.14
856.385	2636.22
856.708	2624.92
857.03	2637.12
857.352	2608.42
857.674	2614.97
857.996	2640.28
858.318	2550.34
858.64	2573.62
858.961	2603.67
859.283	2614.75
859.605	2558.25
859.926	2563.68
860.248	2589.66
860.57	2581.3
860.891	2555.31
861.212	2549.66
861.534	2572.04
861.855	2530.46
862.176	2525.94
862.498	2551.7
862.819	2569.78
863.14	2538.37
863.461	2534.52
863.782	2515.09
864.103	2489.33
864.424	2507.18
864.745	2478.93
865.065	2505.15
865.386	2522.55
865.707	2463.79
866.027	2507.86
866.348	2480.51
866.668	2493.39
866.989	2494.52
867.309	2518.03
867.63	2475.77
867.95	2460.63
868.27	2442.55
868.59	2447.97
868.91	2466.28
869.23	2475.99
869.55	2467.63
869.87	2454.07
870.19	2446.62
870.51	2443.23
870.83	2449.1
871.15	2432.61
871.469	2419.05
871.789	2434.19
872.109	2471.25
872.428	2440.06
872.748	2419.5
873.067	2421.53
873.386	2413.85
873.706	2428.09
874.025	2413.62
874.344	2396.22
874.663	2380.86
874.982	2416.11
875.301	2412.49
875.62	2370.69
875.939	2400.97
876.258	2428.76
876.577	2374.3
876.896	2388.99
877.214	2355.55
877.533	2407.07
877.852	2388.09
878.17	2377.69
878.489	2377.92
878.807	2362.78
879.125	2335.43
879.444	2370.23
879.762	2327.75
880.08	2325.26
880.398	2338.82
880.716	2315.77
881.034	2340.4
881.352	2327.52
881.67	2325.94
881.988	2313.74
882.306	2319.84
882.624	2332.27
882.941	2329.11
883.259	2323.91
883.577	2279.16
883.894	2271.25
884.212	2297.69
884.529	2240.97
884.846	2254.31
885.164	2251.59
885.481	2256.79
885.798	2272.84
886.115	2267.19
886.432	2263.8
886.75	2247.3
887.067	2262.21
887.383	2244.59
887.7	2217.02
888.017	2241.88
888.334	2256.11
888.651	2252.27
888.967	2207.75
889.284	2216.34
889.6	2210.01
889.917	2193.29
890.233	2192.84
890.55	2175.44
890.866	2206.85
891.182	2215.89
891.498	2199.84
891.815	2184.02
892.131	2159.39
892.447	2118.72
892.763	2158.04
893.079	2155.55
893.395	2149.22
893.71	2133.4
894.026	2151.26
894.342	2143.35
894.657	2086.63
894.973	2106.96
895.289	2097.25
895.604	2103.35
895.92	2115.78
896.235	2109.22
896.55	2091.82
896.865	2090.69
897.181	2084.82
897.496	2095.44
897.811	2074.87
898.126	2085.72
898.441	2053.18
898.756	2076
899.071	2059.96
899.386	2019.51
899.7	2041.2
900.015	2038.94
900.33	2017.25
900.644	2043.92
900.959	2013.63
901.273	2020.19
901.588	1990.58
901.902	1995.78
902.216	1977.25
902.531	1999.85
902.845	1981.09
903.159	1998.27
903.473	1967.08
903.787	1931.38
904.101	1948.78
904.415	1951.94
904.729	1943.8
905.042	1935.67
905.356	1926.86
905.67	1916.01
905.984	1920.3
906.297	1918.27
906.611	1906.74
906.924	1916.46
907.237	1891.38
907.551	1904.48
907.864	1890.47
908.177	1883.47
908.491	1857.48
908.804	1859.06
909.117	1891.38
909.43	1823.81
909.743	1855.9
910.056	1847.76
910.368	1853.19
910.681	1838.5
910.994	1817.03
911.307	1810.7
911.619	1827.88
911.932	1825.39
912.244	1795.79
912.557	1788.1
912.869	1765.73
913.181	1754.43
913.494	1770.02
913.806	1754.66
914.118	1767.76
914.43	1746.3
914.742	1771.83
915.054	1746.07
915.366	1758.05
915.678	1749.69
915.99	1709.01
916.302	1732.51
916.613	1725.51
916.925	1728.44
917.236	1694.77
917.548	1703.59
917.859	1696.58
918.171	1669.46
918.482	1700.42
918.794	1676.47
919.105	1690.7
919.416	1649.58
919.727	1667.65
920.038	1658.84
920.349	1622.46
920.66	1630.37
920.971	1624.49
921.282	1651.61
921.593	1603.47
921.903	1610.71
922.214	1626.07
922.525	1588.11
922.835	1604.83
923.146	1620.42
923.456	1573.87
923.767	1607.09
924.077	1590.14
924.387	1586.07
924.697	1561.22
925.008	1577.71
925.318	1549.69
925.628	1533.65
925.938	1543.36
926.248	1530.48
926.558	1514.21
926.867	1517.38
927.177	1532.52
927.487	1550.37
927.796	1519.86
928.106	1502.91
928.416	1489.81
928.725	1511.05
929.034	1498.84
929.344	1508.56
929.653	1480.99
929.962	1473.53
930.271	1472.63
930.581	1473.76
930.89	1461.11
931.199	1483.25
931.508	1472.18
931.817	1468.11
932.125	1469.47
932.434	1443.48
932.743	1438.51
933.051	1415.23
933.36	1433.54
933.669	1417.49
933.977	1413.42
934.286	1421.78
934.594	1399.86
934.902	1391.73
935.21	1410.03
935.519	1417.49
935.827	1392.86
936.135	1397.6
936.443	1372.75
936.751	1384.27
937.059	1368.23
937.367	1384.27
937.674	1352.86
937.982	1351.5
938.29	1402.12
938.597	1379.98
938.905	1335.23
939.213	1326.19
939.52	1322.13
939.827	1319.64
940.135	1335.46
940.442	1314.44
940.749	1312.41
941.056	1308.34
941.363	1306.08
941.67	1308.79
941.977	1295.69
942.284	1310.6
942.591	1318.51
942.898	1309.47
943.205	1289.36
943.511	1264.05
943.818	1300.21
944.125	1288.23
944.431	1251.62
944.738	1259.53
945.044	1271.51
945.35	1274.9
945.657	1245.97
945.963	1214.78
946.269	1255.91
946.575	1244.39
946.881	1227.67
947.187	1232.86
947.493	1212.07
947.799	1206.65
948.105	1222.24
948.41	1223.82
948.716	1227.44
949.022	1212.98
949.327	1200.1
949.633	1161.23
949.938	1189.93
950.244	1187.44
950.549	1182.02
950.854	1160.32
951.16	1178.4
951.465	1191.73
951.77	1199.42
952.075	1160.32
952.38	1170.49
952.685	1172.98
952.99	1115.8
953.294	1148.12
953.599	1137.27
953.904	1145.18
954.209	1123.26
954.513	1122.36
954.818	1147.22
955.122	1106.76
955.426	1118.06
955.731	1098.4
956.035	1127.78
956.339	1107.89
956.643	1106.76
956.948	1117.61
957.252	1100.44
957.556	1103.37
957.86	1101.34
958.163	1086.65
958.467	1078.97
958.771	1082.81
959.075	1076.03
959.378	1067.67
959.682	1047.78
959.985	1055.01
960.289	1072.87
960.592	1076.93
960.896	1061.12
961.199	1073.77
961.502	1062.7
961.805	1060.89
962.108	1030.16
962.411	1071.51
962.714	1041.91
963.017	1051.85
963.32	1023.38
963.623	1037.39
963.926	1025.64
964.228	1038.29
964.531	1000.55
964.833	994.45
965.136	1005.98
965.438	981.12
965.741	1001.23
966.043	1005.52
966.345	994
966.648	976.37
966.95	1011.17
967.252	1010.72
967.554	965.98
967.856	989.71
968.158	970.05
968.46	1003.49
968.761	978.18
969.063	967.79
969.365	984.28
969.666	969.82
969.968	961.01
970.269	983.38
970.571	969.82
970.872	970.72
971.174	933.89
971.475	973.89
971.776	939.31
972.077	947.22
972.378	944.96
972.679	933.21
972.98	935.7
973.281	914.23
973.582	918.52
973.883	908.8
974.183	910.61
974.484	917.62
974.785	911.06
975.085	930.5
975.386	915.36
975.686	890.27
975.986	896.37
976.287	919.42
976.587	890.73
976.887	896.6
977.187	884.85
977.487	900.44
977.787	857.96
978.087	859.54
978.387	867.45
978.687	870.16
978.987	874
979.286	890.05
979.586	887.79
979.885	872.65
980.185	853.89
980.484	855.7
980.784	843.72
981.083	861.35
981.382	848.24
981.682	884.4
981.981	851.4
982.28	859.99
982.579	890.5
982.878	867.22
983.177	855.47
983.475	862.93
983.774	823.16
984.073	817.28
984.372	851.63
984.67	836.04
984.969	827
985.267	819.31
985.566	820.22
985.864	822.93
986.162	805.3
986.461	820.22
986.759	800.78
987.057	791.74
987.355	790.39
987.653	789.71
987.951	794.68
988.249	784.97
988.547	811.63
988.844	792.65
989.142	810.05
989.44	784.97
989.737	787.23
990.035	775.93
990.332	781.58
990.63	791.52
990.927	777.28
991.224	784.74
991.521	788.81
991.819	772.54
992.116	773.21
992.413	763.72
992.71	785.87
993.006	765.98
993.303	737.06
993.6	749.71
993.897	764.17
994.193	752.2
994.49	735.93
994.787	761.46
995.083	739.99
995.379	729.15
995.676	698.87
995.972	751.52
996.268	742.93
996.565	736.83
996.861	725.53
997.157	716.49
997.453	721.24
997.749	718.98
998.044	731.63
998.34	713.33
998.636	735.02
998.932	725.98
999.227	711.97
999.523	712.2
999.818	700.45
1000.114	710.39
1000.409	695.93
1000.704	707
1001	700.22
1001.295	687.79
1001.59	682.82
1001.885	678.75
1002.18	665.42
1002.475	696.61
1002.77	688.47
1003.065	674.69
1003.359	663.16
1003.654	673.1
1003.949	647.34
1004.243	688.02
1004.538	676.72
1004.832	658.64
1005.127	689.83
1005.421	655.03
1005.715	670.17
1006.009	662.26
1006.304	670.84
1006.598	650.96
1006.892	635.82
1007.186	656.83
1007.48	641.47
1007.773	657.06
1008.067	658.64
1008.361	647.79
1008.655	642.37
1008.948	639.21
1009.242	622.03
1009.535	635.14
1009.829	624.07
1010.122	604.63
1010.415	605.76
1010.708	612.31
1011.001	644.4
1011.295	626.33
1011.588	617.29
1011.881	590.62
1012.173	618.87
1012.466	616.38
1012.759	607.34
1013.052	609.38
1013.344	610.28
1013.637	607.34
1013.93	606.89
1014.222	599.66
1014.514	588.81
1014.807	593.78
1015.099	602.6
1015.391	577.97
1015.683	578.87
1015.976	576.61
1016.268	585.87
1016.56	587.68
1016.851	592.43
1017.143	566.21
1017.435	549.94
1017.727	575.03
1018.018	580.22
1018.31	563.95
1018.602	562.82
1018.893	553.56
1019.185	570.73
1019.476	575.71
1019.767	577.74
1020.058	545.42
1020.35	563.28
1020.641	583.16
1020.932	545.88
1021.223	562.6
1021.514	551.07
1021.804	534.12
1022.095	534.58
1022.386	523.05
1022.677	550.62
1022.967	530.28
1023.258	523.28
1023.548	536.16
1023.839	520.34
1024.129	528.93
1024.419	519.66
1024.709	532.32
1025	531.41
1025.29	524.18
1025.58	525.54
1025.87	523.5
1026.16	518.53
1026.449	520.11
1026.739	516.27
1027.029	515.59
1027.319	507.91
1027.608	517.18
1027.898	525.99
1028.187	520.57
1028.477	514.69
1028.766	511.07
1029.055	483.28
1029.344	508.14
1029.634	482.37
1029.923	506.1
1030.212	487.12
1030.501	493.22
1030.79	459.78
1031.078	487.8
1031.367	476.5
1031.656	465.88
1031.945	494.35
1032.233	494.13
1032.522	474.69
1032.81	483.05
1033.099	481.7
1033.387	464.3
1033.675	469.04
1033.963	454.13
1034.251	465.88
1034.54	479.89
1034.828	481.02
1035.116	471.75
1035.403	470.17
1035.691	478.31
1035.979	475.59
1036.267	457.52
1036.554	459.78
1036.842	441.92
1037.129	456.61
1037.417	465.2
1037.704	431.53
1037.992	441.7
1038.279	469.27
1038.566	432.43
1038.853	432.43
1039.14	432.43
