Data from blue_shiny_book_FLMS001491_00057.txt Node
Date: Wed Feb 08 15:27:13 GMT 2017
User: dcchb
Spectrometer: FLMS00149
Trigger mode: 0
Integration Time (sec): 2.000000E-2
Scans to average: 10
Electric dark correction enabled: true
Nonlinearity correction enabled: false
Boxcar width: 0
XAxis mode: Wavelengths
Number of Pixels in Spectrum: 2048
>>>>>Begin Spectral Data<<<<<
341.393	11.65
341.776	11.65
342.16	11.65
342.543	-59.53
342.927	-55.24
343.31	-77.84
343.693	-86.42
344.077	-64.5
344.46	-70.15
344.843	-39.19
345.226	-38.97
345.61	-33.54
345.993	-3.04
346.376	11.43
346.759	9.17
347.142	53.69
347.525	30.41
347.908	43.97
348.291	72.67
348.674	88.49
349.057	103.85
349.44	145.89
349.823	129.84
350.206	180.24
350.588	208.94
350.971	224.98
351.354	253.45
351.737	262.49
352.119	268.82
352.502	285.09
352.884	305.66
353.267	296.39
353.65	294.13
354.032	313.34
354.414	325.09
354.797	333.9
355.179	336.62
355.562	342.04
355.944	340.46
356.326	368.48
356.709	357.63
357.091	359.67
357.473	360.12
357.855	366.22
358.238	362.83
358.62	347.69
359.002	374.58
359.384	372.77
359.766	358.08
360.148	365.54
360.53	367.58
360.912	357.63
361.294	343.85
361.676	377.97
362.057	369.38
362.439	364.86
362.821	356.5
363.203	361.25
363.584	366.9
363.966	365.09
364.348	351.98
364.729	353.79
365.111	361.93
365.493	365.54
365.874	344.75
366.256	355.82
366.637	352.21
367.019	353.79
367.4	358.31
367.781	342.27
368.163	363.06
368.544	379.78
368.925	362.38
369.306	373
369.688	349.04
370.069	353.11
370.45	375.26
370.831	351.98
371.212	350.17
371.593	363.51
371.974	363.28
372.355	378.42
372.736	346.11
373.117	391.53
373.498	370.29
373.879	387.01
374.26	372.09
374.641	376.39
375.021	369.61
375.402	372.09
375.783	378.2
376.163	398.76
376.544	428.36
376.925	411.64
377.305	376.84
377.686	390.63
378.066	413.22
378.447	398.99
378.827	404.18
379.208	415.71
379.588	412.09
379.968	408.7
380.349	428.14
380.729	417.97
381.109	443.28
381.489	451.41
381.87	425.43
382.25	451.41
382.63	444.86
383.01	452.32
383.39	440.57
383.77	453.45
384.15	479.21
384.53	470.85
384.91	466.33
385.29	470.62
385.67	461.81
386.049	485.76
386.429	485.76
386.809	495.03
387.189	496.84
387.568	512.43
387.948	513.11
388.328	515.82
388.707	525.09
389.087	488.7
389.466	508.36
389.846	529.15
390.225	540.45
390.605	536.16
390.984	547.68
391.363	561.24
391.743	548.81
392.122	575.48
392.501	580.22
392.881	578.64
393.26	556.72
393.639	589.94
394.018	584.07
394.397	606.66
394.776	596.95
395.155	609.15
395.534	622.26
395.913	622.94
396.292	622.48
396.671	630.62
397.05	644.18
397.429	629.72
397.808	636.27
398.186	633.33
398.565	667.91
398.944	662.03
399.323	692.54
399.701	694.8
400.08	680.79
400.458	682.37
400.837	711.97
401.215	708.81
401.594	740.67
401.972	716.27
402.351	736.83
402.729	736.6
403.107	765.08
403.486	775.47
403.864	749.26
404.242	789.94
404.62	773.67
404.999	791.74
405.377	769.82
405.755	816.83
406.133	841.01
406.511	852.99
406.889	860.44
407.267	857.05
407.645	885.98
408.023	885.75
408.401	891.18
408.779	910.16
409.156	934.79
409.534	938.86
409.912	967.79
410.29	963.49
410.667	978.63
411.045	1001.23
411.422	995.36
411.8	1029.48
412.178	1041.46
412.555	1046.43
412.933	1045.98
413.31	1104.73
413.687	1114.45
414.065	1099.53
414.442	1111.06
414.819	1139.08
415.197	1146.09
415.574	1161.9
415.951	1201.45
416.328	1190.6
416.705	1201.23
417.082	1216.14
417.46	1260.43
417.837	1241
418.214	1259.08
418.591	1258.17
418.967	1312.63
419.344	1276.03
419.721	1317.83
420.098	1312.41
420.475	1358.28
420.852	1363.26
421.228	1391.95
421.605	1410.26
421.982	1426.76
422.358	1424.04
422.735	1435.57
423.111	1442.12
423.488	1442.35
423.864	1499.07
424.241	1482.12
424.617	1552.85
424.994	1535.45
425.37	1541.1
425.746	1609.35
426.123	1631.72
426.499	1625.4
426.875	1655.22
427.251	1677.15
427.627	1694.32
428.003	1715.79
428.379	1741.78
428.756	1753.75
429.132	1780.19
429.507	1821.55
429.883	1829.23
430.259	1879.17
430.635	1874.43
431.011	1944.93
431.387	1979.74
431.763	1990.36
432.138	2036.46
432.514	2050.47
432.89	2066.29
433.265	2092.5
433.641	2134.08
434.016	2141.54
434.392	2174.08
434.767	2233.06
435.143	2242.1
435.518	2291.37
435.894	2299.95
436.269	2416.79
436.644	2381.99
437.02	2396.22
437.395	2371.36
437.77	2487.07
438.145	2456.11
438.52	2492.72
438.895	2551.92
439.271	2549.21
439.646	2612.26
440.021	2654.29
440.395	2669.66
440.77	2651.13
441.145	2726.38
441.52	2782.88
441.895	2784.69
442.27	2784.91
442.645	2790.34
443.019	2818.58
443.394	2788.08
443.769	2847.74
444.143	2853.84
444.518	2931.35
444.892	2902.42
445.267	2953.72
445.641	2986.04
446.016	3035.3
446.39	3050.67
446.764	3058.35
447.139	3055.64
447.513	3084.79
447.887	3119.37
448.262	3132.93
448.636	3133.83
449.01	3207.27
449.384	3206.6
449.758	3216.54
450.132	3328.18
450.506	3333.6
450.88	3390.09
451.254	3366.37
451.628	3414.73
452.002	3506.93
452.376	3541.73
452.75	3543.54
453.123	3564.33
453.497	3623.53
453.871	3688.62
454.244	3697.21
454.618	3740.37
454.992	3816.98
455.365	3845.45
455.739	3948.27
456.112	3952.11
456.486	4015.39
456.859	4051.77
457.232	4131.32
457.606	4143.75
457.979	4235.95
458.352	4307.58
458.725	4346.68
459.099	4411.76
459.472	4465.77
459.845	4570.63
460.218	4562.94
460.591	4625.54
460.964	4602.94
461.337	4743.51
461.71	4822.6
462.083	4911.64
462.456	4899.43
462.829	4904.63
463.201	5078.86
463.574	5038.64
463.947	5146.66
464.32	5299.42
464.692	5312.53
465.065	5342.36
465.438	5400.89
465.81	5524.95
466.183	5594.33
466.555	5717.94
466.928	5772.18
467.3	5776.7
467.672	5878.84
468.045	6058.95
468.417	6065.73
468.789	6110.02
469.161	6157.48
469.534	6308.89
469.906	6449.68
470.278	6432.95
470.65	6546.85
471.022	6703.45
471.394	6812.15
471.766	6846.5
472.138	6913.62
472.51	7053.05
472.882	7229.77
473.253	7264.12
473.625	7441.97
473.997	7544.34
474.369	7615.52
474.74	7709.53
475.112	7928.96
475.484	7971.22
475.855	8151.33
476.227	8170.99
476.598	8375.73
476.97	8497.76
477.341	8626.34
477.713	8854.13
478.084	8942.94
478.455	9217.74
478.827	9331.18
479.198	9535.92
479.569	9576.82
479.94	9862.92
480.311	9881
480.682	10123.7
481.053	10388.55
481.424	10511.72
481.795	10574.99
482.166	10826.96
482.537	10962.32
482.908	11208.87
483.279	11316.44
483.65	11527.51
484.021	11826.03
484.391	11959.36
484.762	12043.2
485.133	12137.89
485.503	12361.61
485.874	12625.56
486.244	12701.71
486.615	12932.44
486.985	13077.07
487.356	13342.6
487.726	13464.41
488.097	13788.92
488.467	13832.76
488.837	14182.81
489.207	14377.15
489.578	14607.43
489.948	14775.11
490.318	14927.64
490.688	14912.73
491.058	15302.55
491.428	15481.75
491.798	15705.25
492.168	16046.03
492.538	16068.63
492.908	16095.98
493.278	16321.05
493.648	16439.47
494.017	16667.49
494.387	16907.03
494.757	17053.24
495.126	17270.63
495.496	17383.62
495.866	17655.26
496.235	17785.42
496.605	17983.61
496.974	18145.41
497.344	18342.47
497.713	18410.94
498.082	18546.76
498.452	18652.29
498.821	18765.51
499.19	18857.48
499.559	18990.81
499.928	19090.47
500.298	19251.15
500.667	19429.45
501.036	19460.18
501.405	19707.41
501.774	19911.69
502.143	20134.96
502.512	20275.53
502.88	20405.92
503.249	20441.85
503.618	20601.39
503.987	20692.92
504.356	20803.2
504.724	20981.04
505.093	20982.4
505.462	21180.36
505.83	21295.16
506.199	21476.17
506.567	21603.4
506.936	21700.57
507.304	21972.66
507.672	22005.88
508.041	22276.15
508.409	22475.92
508.777	22697.16
509.145	23048.11
509.514	22989.13
509.882	23266.86
510.25	23336.46
510.618	23398.38
510.986	23625.04
511.354	23811.48
511.722	23984.13
512.09	24154.97
512.458	24087.4
512.826	24314.52
513.193	24481.52
513.561	24542.08
513.929	24871.34
514.297	25080.82
514.664	25294.83
515.032	25442.62
515.4	25700.02
515.767	25928.26
516.135	26009.61
516.502	26053.45
516.869	26500.9
517.237	26694.11
517.604	26596.26
517.972	26903.6
518.339	27091.39
518.706	27069.47
519.073	27051.39
519.44	27256.36
519.808	27536.58
520.175	27509.23
520.542	27810.7
520.909	28144.02
521.276	28122.1
521.643	28500.62
522.009	28688.19
522.376	28938.58
522.743	29205.01
523.11	29625.56
523.477	29929.74
523.843	30182.16
524.21	30458.31
524.577	30829.6
524.943	30902.37
525.31	30924.29
525.676	31197.95
526.043	31290.6
526.409	31511.61
526.776	31824.83
527.142	31823.02
527.508	31996.57
527.874	32216.91
528.241	32391.59
528.607	32562.66
528.973	32989.09
529.339	33173.94
529.705	33474.28
530.071	33847.37
530.437	34006.24
530.803	34452.33
531.169	34612.55
531.535	34671.76
531.901	34843.05
532.267	34871.3
532.632	35130.95
532.998	35293.89
533.364	35476.26
533.73	35425.64
534.095	35620.43
534.461	35730.94
534.826	35900.65
535.192	35868.56
535.557	36090.93
535.923	36137.26
536.288	36504.93
536.653	36638.94
537.019	36602.78
537.384	36970.45
537.749	37249.77
538.114	37487.05
538.479	37381.97
538.845	37690.44
539.21	37720.72
539.575	37844.33
539.94	38021.95
540.305	38152.57
540.67	37929.53
541.034	38093.81
541.399	38364.09
541.764	38307.82
542.129	38441.38
542.494	38498.32
542.858	38496.29
543.223	38483.18
543.587	38858.09
543.952	38958.88
544.316	39101.02
544.681	39282.94
545.045	39619.42
545.41	39848.57
545.774	39969.02
546.138	40154.78
546.503	40246.53
546.867	40364.26
547.231	40717.25
547.595	40846.96
547.959	40788.43
548.324	40894.19
548.688	40867.08
549.052	40969.45
549.416	40905.27
549.779	40964.02
550.143	40957.24
550.507	41227.52
550.871	41107.29
551.235	41151.81
551.599	41500.96
551.962	41487.17
552.326	41782.53
552.689	41942.08
553.053	41821.17
553.417	42146.36
553.78	42675.16
554.143	42607.59
554.507	42866.12
554.87	43016.62
555.234	43465.88
555.597	43172.1
555.96	43374.13
556.323	43433.34
556.686	43469.49
557.05	43723.95
557.413	43668.81
557.776	43623.61
558.139	43809.6
558.502	43871.52
558.865	43806.43
559.228	44046.2
559.59	44041.91
559.953	44291.17
560.316	44543.36
560.679	44816.58
561.041	45085.04
561.404	45349.9
561.767	45730.45
562.129	45734.52
562.492	46146.03
562.854	46165.92
563.217	46337.89
563.579	46562.52
563.941	46775.39
564.304	46960.7
564.666	47167.25
565.028	47121.15
565.39	47306
565.753	47444.3
566.115	47448.15
566.477	47667.35
566.839	47520.46
567.201	47715.71
567.563	47629.16
567.925	47951.18
568.287	48032.31
568.648	48049.94
569.01	48334
569.372	48554.1
569.734	48573.77
570.095	48758.17
570.457	49042.23
570.819	49143.47
571.18	49277.93
571.542	49562.89
571.903	49775.77
572.265	49763.79
572.626	49896.67
572.987	49898.02
573.349	50132.14
573.71	50195.42
574.071	50286.04
574.432	50169.43
574.794	50323.55
575.155	50221.18
575.516	50060.96
575.877	50177.34
576.238	50107.51
576.599	50145.7
576.96	50191.8
577.32	50175.76
577.681	50328.75
578.042	50558.12
578.403	50593.15
578.763	50646.71
579.124	50767.15
579.485	50905
579.845	51159.01
580.206	51069.52
580.566	51295.73
580.927	51420.47
581.287	51573.46
581.648	51310.87
582.008	51665.89
582.368	51541.6
582.728	51624.31
583.089	51643.29
583.449	51543.63
583.809	51479.68
584.169	51531.2
584.529	51396.97
584.889	51690.52
585.249	51402.17
585.609	51333.92
585.969	51449.4
586.329	51407.36
586.688	51452.56
587.048	51437.64
587.408	51435.61
587.768	51606.23
588.127	51507.47
588.487	51641.48
588.846	51979.1
589.206	51793.57
589.565	51858.88
589.925	51943.17
590.284	51936.61
590.643	52007.57
591.003	52143.39
591.362	52193.33
591.721	52098.19
592.08	52192.65
592.44	52175.7
592.799	52248.47
593.158	52036.95
593.517	51973.22
593.876	51978.2
594.235	51921.7
594.593	52012.09
594.952	52019.55
595.311	51810.97
595.67	51770.07
596.029	51970.51
596.387	51964.18
596.746	52003.73
597.104	51850.97
597.463	52021.36
597.822	52145.87
598.18	52052.77
598.538	52084.18
598.897	52312.42
599.255	51959.89
599.613	52502.48
599.972	52236.49
600.33	52387.9
600.688	52387.68
601.046	52548.12
601.404	52681.68
601.762	52570.95
602.12	52703.37
602.478	52671.28
602.836	52693.66
603.194	52556.49
603.552	52584.28
603.91	52380.9
604.268	52364.4
604.625	52288.47
604.983	52525.98
605.341	52235.82
605.698	52301.8
606.056	52422.48
606.413	52476.04
606.771	52616.82
607.128	52718.51
607.485	52487.11
607.843	52674.9
608.2	52844.39
608.557	52976.81
608.914	52924.61
609.272	53118.73
609.629	53210.71
609.986	53459.29
610.343	53275.56
610.7	53547.42
611.057	53516.46
611.414	53498.16
611.771	53487.99
612.127	53624.03
612.484	53592.62
612.841	53752.39
613.198	53507.19
613.554	53548.78
613.911	53577.02
614.267	53532.05
614.624	53390.36
614.98	53489.79
615.337	53640.52
615.693	53586.74
616.05	53467.42
616.406	53701.09
616.762	53478.72
617.118	53509.68
617.475	53534.31
617.831	53569.79
618.187	53558.49
618.543	53687.76
618.899	53818.15
619.255	53774.76
619.611	53783.35
619.967	53859.05
620.323	53968.43
620.678	53931.82
621.034	54012.04
621.39	53994.64
621.746	53978.82
622.101	54339.49
622.457	54002.1
622.812	54060.63
623.168	54042.55
623.523	54138.59
623.879	54193.73
624.234	53859.5
624.589	53996.45
624.945	54004.36
625.3	53854.08
625.655	53891.37
626.01	53832.38
626.365	53831.71
626.72	53720.52
627.075	53690.69
627.43	53725.95
627.785	53686.17
628.14	53661.77
628.495	53706.06
628.85	53734.53
629.205	53605.05
629.559	53798.94
629.914	53643.69
630.269	53762.56
630.623	53879.39
630.978	53798.94
631.332	54015.88
631.687	54162.54
632.041	53962.1
632.396	53993.96
632.75	53872.16
633.104	54030.8
633.459	53892.27
633.813	53998.93
634.167	53893.63
634.521	53834.64
634.875	53754.42
635.229	53655.67
635.583	53611.37
635.937	53626.74
636.291	53597.36
636.645	53522.79
636.999	53341.78
637.352	53359.85
637.706	53057.72
638.06	53249.12
638.413	53077.15
638.767	53029.92
639.121	53010.94
639.474	52819.3
639.828	52773.88
640.181	52916.48
640.534	52882.58
640.888	52897.72
641.241	52809.13
641.594	52861.79
641.947	52940.43
642.301	52771.85
642.654	52900.43
643.007	52972.52
643.36	52977.72
643.713	52895.23
644.066	53046.42
644.419	52945.18
644.771	52814.33
645.124	52828.79
645.477	52717.39
645.83	52354.91
646.182	51990.4
646.535	51715.6
646.888	51647.13
647.24	51337.76
647.593	51523.07
647.945	51328.04
648.298	51186.13
648.65	51082.17
649.002	50886.25
649.355	51008.05
649.707	51076.07
650.059	51189.52
650.411	51567.81
650.763	51750.18
651.115	51922.6
651.467	51757.18
651.819	51665.89
652.171	51708.6
652.523	51670.18
652.875	51768.03
653.227	51637.19
653.578	51951.98
653.93	51960.79
654.282	51940.23
654.633	51883.51
654.985	51909.72
655.337	51973.9
655.688	51964.41
656.039	52168.92
656.391	51936.61
656.742	51976.84
657.094	52068.36
657.445	52103.84
657.796	52066.55
658.147	51933.45
658.498	51928.48
658.849	51921.02
659.2	51949.5
659.551	51761.7
659.902	51829.95
660.253	51766.22
660.604	51775.04
660.955	51497.53
661.306	51520.35
661.656	51428.15
662.007	51377.99
662.358	51384.31
662.708	51311.32
663.059	51370.75
663.409	51066.81
663.76	51286.69
664.11	51200.36
664.461	51297.99
664.811	51314.26
665.161	51298.21
665.511	51329.17
665.862	51331.88
666.212	51554.03
666.562	51600.58
666.912	51639.67
667.262	51551.31
667.612	51661.82
667.962	51776.17
668.312	51612.1
668.662	51799.22
669.011	51671.08
669.361	51787.92
669.711	51684.42
670.06	51508.83
670.41	51358.1
670.76	51348.38
671.109	51355.39
671.459	51225.22
671.808	51139.57
672.157	51161.04
672.507	50923.99
672.856	51019.12
673.205	50811.9
673.554	50866.13
673.904	50677.66
674.253	50736.65
674.602	50739.58
674.951	50101.86
675.3	49826.84
675.649	50448.97
675.998	50290.1
676.346	50235.64
676.695	50429.76
677.044	50177.34
677.393	50357.22
677.741	50465.69
678.09	50435.86
678.438	50416.2
678.787	50390.44
679.135	50518.57
679.484	50184.12
679.832	50577.33
680.181	50493.49
680.529	50564.45
680.877	50469.08
681.225	50455.75
681.573	50672.02
681.922	50374.17
682.27	50360.84
682.618	50348.63
682.966	50303.44
683.314	50282.19
683.661	50227.73
684.009	49940.73
684.357	49951.58
684.705	49799.27
685.053	49817.12
685.4	49604.92
685.748	49476.34
686.095	49259.17
686.443	49085.62
686.79	48996.35
687.138	49081.1
687.485	49063.02
687.832	48767.43
688.18	48783.7
688.527	48523.82
688.874	48536.03
689.221	48439.08
689.568	48307.56
689.915	48342.36
690.262	48418.52
690.609	48343.94
690.956	48223.04
691.303	48246.32
691.65	48131.97
691.997	48164.06
692.344	47859.66
692.69	47924.97
693.037	47856.95
693.383	47699.44
693.73	47904.18
694.077	47776.5
694.423	47794.12
694.769	47513
695.116	47496.73
695.462	47331.09
695.808	47230.52
696.155	47299.67
696.501	47048.38
696.847	47003.41
697.193	46646.81
697.539	46818.56
697.885	46489.53
698.231	46169.99
698.577	46101.97
698.923	45945.59
699.269	45732.71
699.614	45508.76
699.96	45337.01
700.306	45155.55
700.651	45051.82
700.997	44750.81
701.342	44684.15
701.688	44624.94
702.033	44426.3
702.379	44431.28
702.724	44359.64
703.069	44499.07
703.415	43958.29
703.76	43966.43
704.105	43940.44
704.45	43966.2
704.795	43847.79
705.14	43813.89
705.485	43627.45
705.83	43490.51
706.175	43728.92
706.52	43611.41
706.865	43582.48
707.209	43633.1
707.554	43463.17
707.899	43460.23
708.243	43283.06
708.588	43233.79
708.932	43131.2
709.277	43199.67
709.621	43124.42
709.966	42893.69
710.31	42993.8
710.654	42446.92
710.998	42551.1
711.342	42472.23
711.687	42388.17
712.031	42153.37
712.375	41887.61
712.719	42098.46
713.063	41738.92
713.407	41829.31
713.75	41607.62
714.094	41425.7
714.438	41209.67
714.782	41377.57
715.125	41031.82
715.469	40924.93
715.812	40742.33
716.156	40578.27
716.499	40664.37
716.843	40742.33
717.186	40271.61
717.53	40593.18
717.873	40402.45
718.216	40529.68
718.559	40432.51
718.902	40171.73
719.246	40554.09
719.589	40450.14
719.932	40450.81
720.275	40405.84
720.617	40522.9
720.96	40485.39
721.303	40527.88
721.646	40468.22
721.989	40400.42
722.331	40544.15
722.674	40435
723.016	40599.74
723.359	40399.29
723.701	40359.52
724.044	40068
724.386	39934.44
724.729	40108.23
725.071	39969.02
725.413	40075.91
725.755	39866.2
726.097	39636.83
726.439	39558.18
726.782	39534
727.124	39470.28
727.465	39068.7
727.807	39122.26
728.149	38935.15
728.491	38863.51
728.833	38877.75
729.175	38590.75
729.516	38653.12
729.858	38591.2
730.199	38553.46
730.541	38463.3
730.882	38494.26
731.224	38661.71
731.565	38362.73
731.906	38230.31
732.248	38283.41
732.589	38149.63
732.93	38214.26
733.271	38204.09
733.612	38288.39
733.953	38296.75
734.294	38243.19
734.635	38258.78
734.976	38188.05
735.317	38349.85
735.658	38231.89
735.999	38277.54
736.339	38296.07
736.68	38481.83
737.021	38313.02
737.361	38172.68
737.702	38311.21
738.042	38249.97
738.383	38208.16
738.723	38330.64
739.063	38103.31
739.404	38258.1
739.744	38017.66
740.084	37956.42
740.424	38084.32
740.764	37828.96
741.104	38111.67
741.444	37776.08
741.784	37599.36
742.124	37723.2
742.464	37534.28
742.804	37522.3
743.143	37508.97
743.483	37550.33
743.823	37306.72
744.162	37249.32
744.502	37419.93
744.841	37236.66
745.181	37280.73
745.52	37150.56
745.86	37294.29
746.199	37082.99
746.538	37012.26
746.877	37268.98
747.216	37235.53
747.556	37342.42
747.895	37075.99
748.234	37074.18
748.573	37195.31
748.911	37282.76
749.25	37276.89
749.589	37250
749.928	37525.47
750.267	37424.45
750.605	37466.71
750.944	37598.91
751.283	37413.38
751.621	37667.61
751.96	37408.18
752.298	37610.44
752.636	37698.8
752.975	37546.26
753.313	37490.89
753.651	37696.09
753.989	37490.21
754.327	37547.61
754.666	37526.6
755.004	37541.06
755.342	37540.38
755.679	37599.59
756.017	37329.54
756.355	37414.96
756.693	37242.76
757.031	37431.46
757.368	37291.8
757.706	37251.35
758.044	36998.7
758.381	37084.12
758.719	37010.91
759.056	36979.72
759.394	36871.02
759.731	36730.01
760.068	36572.27
760.405	36572.5
760.743	36450.47
761.08	36671.25
761.417	36388.77
761.754	36341.54
762.091	36434.88
762.428	36292.73
762.765	36161.89
763.102	36362.33
763.438	36038.95
763.775	35923.02
764.112	36035.11
764.449	36109.23
764.785	35912.63
765.122	35811.16
765.458	35873.31
765.795	35796.47
766.131	35763.71
766.467	35782.24
766.804	35504.96
767.14	35656.82
767.476	35614.33
767.812	35536.59
768.148	35749.47
768.485	35390.83
768.821	35096.38
769.157	35331.18
769.492	35205.08
769.828	35276.71
770.164	34971.18
770.5	35006.89
770.836	34984.29
771.171	34754.24
771.507	34667.69
771.842	34477.19
772.178	34518.99
772.513	34342.95
772.849	34371.2
773.184	33996.52
773.519	34062.51
773.855	33847.15
774.19	33656.64
774.525	33574.61
774.86	33578.23
775.195	33469.53
775.53	33358.8
775.865	33164.23
776.2	33056.43
776.535	32927.4
776.87	32833.16
777.205	32682.21
777.539	32342.1
777.874	32408.99
778.209	32114.54
778.543	32010.13
778.878	31773.98
779.212	31796.81
779.547	31773.53
779.881	31774.43
780.215	31640.65
780.55	31590.71
780.884	31400.21
781.218	31251.06
781.552	31325.41
781.886	31222.13
782.22	30987.79
782.554	30994.57
782.888	30647.23
783.222	30583.73
783.556	30516.39
783.889	30607.91
784.223	30360.23
784.557	30280.01
784.89	30358.65
785.224	30174.93
785.557	30022.39
785.891	30131.54
786.224	30174.25
786.558	30029.62
786.891	29807.93
787.224	29771.1
787.557	29628.95
787.891	29645.68
788.224	29555.51
788.557	29642.29
788.89	29592.12
789.223	29519.8
789.556	29244.33
789.888	29211.56
790.221	29102.64
790.554	28866.71
790.887	28952.13
791.219	28731.12
791.552	28740.39
791.884	28391.7
792.217	28337.24
792.549	28049.56
792.882	28121.87
793.214	27891.15
793.546	28012.72
793.879	27880.98
794.211	27728.66
794.543	27820.41
794.875	27657.48
795.207	27605.73
795.539	27358.5
795.871	27268.34
796.203	26872.41
796.535	26788.12
796.867	26716.49
797.198	26715.36
797.53	26820.66
797.862	26594
798.193	26708.58
798.525	26372.77
798.856	26597.62
799.188	26309.04
799.519	26097.75
799.85	26119.89
800.182	26010.29
800.513	26153.11
800.844	25842.84
801.175	26111.08
801.506	25973.46
801.837	25825.66
802.168	25796.28
802.499	25649.62
802.83	25620.24
803.161	25566.01
803.491	25585.22
803.822	25497.31
804.153	25455.73
804.483	25286.02
804.814	25270.88
805.145	25227.49
805.475	25236.53
805.805	25162.4
806.136	25215.28
806.466	25148.84
806.796	25097.09
807.126	24832.02
807.457	24764.67
807.787	24832.24
808.117	24671.57
808.447	24599.71
808.777	24504.57
809.107	24466.83
809.436	24357.23
809.766	24336.89
810.096	24141.64
810.426	24181.86
810.755	24039.04
811.085	23904.13
811.414	23919.05
811.744	23673.18
812.073	23671.82
812.403	23650.13
812.732	23468.66
813.061	23397.48
813.39	23194.09
813.719	23151.61
814.049	23296.01
814.378	23129.91
814.707	23009.69
815.036	22936.02
815.365	22864.16
815.693	22582.58
816.022	22639.08
816.351	22559.99
816.68	22466.2
817.008	22531.51
817.337	22322.93
817.665	22272.08
817.994	22323.16
818.322	22273.21
818.651	22223.95
818.979	22096.04
819.307	22265.76
819.636	22143.27
819.964	21988.93
820.292	22151.41
820.62	22163.61
820.948	22214.46
821.276	22194.57
821.604	22089.49
821.932	22151.86
822.259	22105.99
822.587	22060.11
822.915	22154.12
823.243	22189.37
823.57	22187.57
823.898	22295.36
824.225	22057.4
824.553	22181.01
824.88	22301.24
825.207	22491.74
825.535	22369.71
825.862	22408.8
826.189	22313.44
826.516	22476.15
826.843	22379.43
827.17	22428.01
827.497	22375.58
827.824	22350.73
828.151	22395.92
828.478	22304.85
828.805	22393.66
829.131	22262.82
829.458	22153.67
829.785	22123.39
830.111	22185.76
830.438	22196.83
830.764	22190.73
831.09	22166.55
831.417	22011.75
831.743	22121.81
832.069	22047.91
832.395	21967.01
832.722	22118.19
833.048	21844.52
833.374	21851.08
833.7	21757.52
834.026	21634.36
834.351	21826.67
834.677	21767.01
835.003	21705.55
835.329	21649.73
835.654	21647.69
835.98	21537.19
836.306	21611.54
836.631	21503.52
836.956	21505.1
837.282	21461.48
837.607	21315.05
837.932	21284.99
838.258	21469.17
838.583	21367.93
838.908	21260.36
839.233	21337.19
839.558	21233.47
839.883	21205.9
840.208	21092.45
840.533	21211.09
840.858	21268.72
841.182	21367.25
841.507	21333.8
841.832	21141.72
842.156	21197.99
842.481	21136.97
842.805	21056.3
843.13	21030.31
843.454	21035.73
843.778	20959.58
844.103	20997.54
844.427	20937.43
844.751	20941.5
845.075	20814.04
845.399	20773.82
845.723	20745.8
846.047	20740.6
846.371	20441.62
846.695	20444.56
847.019	20295.41
847.343	20285.92
847.666	20193.27
847.99	20033.95
848.313	20075.08
848.637	19822.2
848.96	19814.3
849.284	19710.12
849.607	19548.77
849.931	19457.69
850.254	19347.87
850.577	19143.58
850.9	19050.02
851.223	19047.08
851.546	18836.92
851.869	18836.24
852.192	18910.82
852.515	18631.05
852.838	18543.37
853.161	18503.37
853.483	18336.82
853.806	18234.9
854.129	18207.56
854.451	18090.27
854.774	18019.54
855.096	17980.9
855.419	17887.79
855.741	17999.2
856.063	17766.44
856.385	17794.24
856.708	17718.98
857.03	17610.06
857.352	17675.37
857.674	17558.31
857.996	17575.71
858.318	17524.86
858.64	17493.68
858.961	17453.68
859.283	17437.63
859.605	17412.78
859.926	17410.74
860.248	17363.96
860.57	17240.35
860.891	17358.99
861.212	17271.76
861.534	17181.82
861.855	17232.44
862.176	17288.94
862.498	17248.49
862.819	17335.26
863.14	17106.34
863.461	17132.33
863.782	17137.76
864.103	17186.12
864.424	17040.13
864.745	17172.33
865.065	17084.88
865.386	17046.91
865.707	16990.87
866.027	17104.76
866.348	16928.04
866.668	17055.5
866.989	16934.37
867.309	16789.29
867.63	16810.31
867.95	16817.54
868.27	16832.23
868.59	16753.81
868.91	16862.96
869.23	16717.43
869.55	16650.76
869.87	16654.38
870.19	16610.31
870.51	16506.36
870.83	16547.94
871.15	16393.59
871.469	16259.59
871.789	16346.14
872.109	16268.17
872.428	16174.62
872.748	16146.82
873.067	16055.3
873.386	16107.73
873.706	16065.69
874.025	16104.11
874.344	15998.35
874.663	15932.14
874.982	15985.02
875.301	15887.62
875.62	15749.77
875.939	15785.25
876.258	15715.42
876.577	15686.49
876.896	15627.06
877.214	15640.39
877.533	15629.32
877.852	15571.47
878.17	15603.56
878.489	15634.52
878.807	15539.83
879.125	15540.74
879.444	15508.42
879.762	15536.89
880.08	15604.69
880.398	15416.22
880.716	15427.74
881.034	15413.06
881.352	15535.54
881.67	15420.96
881.988	15492.83
882.306	15371.93
882.624	15437.24
882.941	15294.64
883.259	15322.66
883.577	15336.67
883.894	15334.41
884.212	15306.84
884.529	15186.85
884.846	15270.23
885.164	15337.8
885.481	15283.57
885.798	15311.36
886.115	15077.24
886.432	15183.46
886.75	15120.41
887.067	15177.81
887.383	15132.38
887.7	15171.48
888.017	15001.31
888.334	15066.4
888.651	14929.9
888.967	14868.21
889.284	14893.75
889.6	14668.67
889.917	14639.06
890.233	14714.77
890.55	14628.22
890.866	14646.52
891.182	14508.67
891.498	14445.62
891.815	14413.76
892.131	14267.1
892.447	14267.77
892.763	14212.18
893.079	14141.9
893.395	14024.39
893.71	14009.48
894.026	14037.5
894.342	13870.95
894.657	13789.6
894.973	13877.5
895.289	13798.63
895.604	13697.17
895.92	13623.05
896.235	13503.5
896.55	13529.71
896.865	13418.53
897.181	13363.84
897.496	13322.94
897.811	13283.17
898.126	13148.26
898.441	13077.75
898.756	13121.14
899.071	12968.15
899.386	13081.59
899.7	12953.46
900.015	12990.97
900.33	12844.31
900.644	12837.08
900.959	12920.92
901.273	12800.47
901.588	12786.91
901.902	12778.55
902.216	12687.25
902.531	12682.96
902.845	12629.85
903.159	12561.15
903.473	12584.43
903.787	12588.04
904.101	12519.12
904.415	12486.8
904.729	12435.28
905.042	12275.96
905.356	12318.67
905.67	12346.7
905.984	12320.93
906.297	12273.93
906.611	12179.69
906.924	12296.07
907.237	12098.34
907.551	12035.74
907.864	12113.71
908.177	12074.84
908.491	12052.24
908.804	11930.21
909.117	11927.27
909.43	11795.52
909.743	11714.62
910.056	11755.75
910.368	11755.3
910.681	11702.19
910.994	11705.13
911.307	11685.24
911.619	11545.13
911.932	11522.54
912.244	11374.74
912.557	11432.59
912.869	11414.74
913.181	11292.03
913.494	11178.36
913.806	11165.94
914.118	11104.69
914.43	11069.44
914.742	11025.6
915.054	10947.18
915.366	10880.07
915.678	10791.26
915.99	10737.7
916.302	10696.34
916.613	10623.12
916.925	10612.5
917.236	10629.45
917.548	10487.76
917.859	10552.17
918.171	10348.33
918.482	10325.51
918.794	10270.14
919.105	10252.96
919.416	10128.22
919.727	10148.79
920.038	10092.52
920.349	10033.54
920.66	9944.95
920.971	9921
921.282	9904.95
921.593	9827.44
921.903	9745.63
922.214	9750.38
922.525	9681.91
922.835	9667.44
923.146	9625.41
923.456	9564.17
923.767	9548.8
924.077	9515.36
924.387	9619.99
924.697	9512.42
925.008	9452.08
925.318	9461.12
925.628	9499.99
925.938	9345.87
926.248	9298.19
926.558	9240.34
926.867	9307.9
927.177	9303.16
927.487	9214.35
927.796	9154.01
928.106	9130.06
928.416	9134.35
928.725	9081.92
929.034	9068.82
929.344	9042.6
929.653	8970.74
929.962	8963.28
930.271	8927.58
930.581	8900.91
930.89	8856.17
931.199	8831.31
931.508	8797.41
931.817	8849.61
932.125	8791.53
932.434	8782.5
932.743	8714.93
933.051	8686.68
933.36	8650.97
933.669	8604.19
933.977	8593.35
934.286	8547.92
934.594	8555.16
934.902	8488.94
935.21	8434.26
935.519	8430.41
935.827	8422.73
936.135	8394.48
936.443	8222.28
936.751	8253.24
937.059	8222.51
937.367	8214.37
937.674	8126.92
937.982	8102.51
938.29	8062.74
938.597	8095.96
938.905	7901.84
939.213	7892.35
939.52	7899.13
939.827	7842.63
940.135	7750.88
940.442	7763.54
940.749	7667.95
941.056	7677.67
941.363	7553.15
941.67	7592.7
941.977	7499.36
942.284	7493.72
942.591	7418.01
942.898	7374.85
943.205	7378.69
943.511	7300.27
943.818	7305.47
944.125	7159.49
944.431	7206.94
944.738	7219.15
945.044	7098.47
945.35	7065.93
945.657	7065.25
945.963	7055.76
946.269	7040.17
946.575	6938.25
946.881	6975.76
947.187	6983.45
947.493	6913.62
947.799	6883.11
948.105	6839.04
948.41	6851.25
948.716	6801.53
949.022	6793.85
949.327	6675.43
949.633	6654.19
949.938	6670.01
950.244	6694.87
950.549	6629.33
950.854	6607.41
951.16	6602.21
951.465	6566.28
951.77	6535.55
952.075	6516.57
952.38	6460.75
952.685	6502.33
952.99	6432.5
953.294	6455.55
953.599	6420.75
953.904	6309.79
954.209	6345.95
954.513	6379.62
954.818	6371.71
955.122	6323.58
955.426	6312.96
955.731	6298.27
956.035	6251.71
956.339	6258.49
956.643	6228.66
956.948	6189.79
957.252	6136.46
957.556	6211.72
957.86	6117.93
958.163	6118.61
958.467	6030.25
958.771	6017.82
959.075	5983.02
959.378	5979.86
959.682	5986.86
959.985	5867.77
960.289	5936.02
960.592	5838.39
960.896	5880.88
961.199	5809.69
961.502	5773.99
961.805	5717.72
962.108	5704.61
962.411	5700.09
962.714	5610.83
963.017	5602.01
963.32	5585.07
963.623	5539.87
963.926	5529.93
964.228	5466.42
964.531	5477.05
964.833	5431.62
965.136	5376.48
965.438	5397.27
965.741	5372.64
966.043	5352.53
966.345	5277.05
966.648	5277.28
966.95	5246.99
967.252	5221.91
967.554	5204.51
967.856	5180.33
968.158	5084.51
968.46	5072.54
968.761	5064.17
969.063	5038.86
969.365	5010.84
969.666	4993.89
969.968	4939.43
970.269	4931.07
970.571	4935.36
970.872	4895.59
971.174	4876.84
971.475	4859.89
971.776	4823.5
972.077	4801.13
972.378	4791.19
972.679	4774.24
972.98	4734.01
973.281	4742.6
973.582	4712.09
973.883	4660.34
974.183	4693.34
974.484	4669.16
974.785	4606.11
975.085	4602.49
975.386	4630.97
975.686	4576.28
975.986	4581.02
976.287	4519.1
976.587	4449.28
976.887	4506.9
977.187	4484.75
977.487	4491.31
977.787	4454.7
978.087	4451.99
978.387	4449.5
978.687	4447.24
978.987	4405.44
979.286	4425.32
979.586	4373.12
979.885	4402.5
980.185	4375.83
980.484	4321.82
980.784	4319.56
981.083	4320.01
981.382	4311.88
981.682	4287.47
981.981	4234.82
982.28	4283.4
982.579	4239.79
982.878	4235.72
983.177	4159.57
983.475	4193.46
983.774	4165.89
984.073	4129.74
984.372	4155.27
984.67	4162.05
984.969	4099.23
985.267	4080.7
985.566	4072.34
985.864	4056.29
986.162	4052
986.461	4063.52
986.759	4054.48
987.057	3946.92
987.355	3958.22
987.653	3976.29
987.951	3899.69
988.249	3902.85
988.547	3916.18
988.844	3855.84
989.142	3839.35
989.44	3818.33
989.737	3747.83
990.035	3758.45
990.332	3788.73
990.63	3747.37
990.927	3757.99
991.224	3704.21
991.521	3687.94
991.819	3652.46
992.116	3635.96
992.413	3640.71
992.71	3557.77
993.006	3586.25
993.303	3560.26
993.6	3511.67
993.897	3495.18
994.193	3475.29
994.49	3424.44
994.787	3405.91
995.083	3403.88
995.379	3367.27
995.676	3379.25
995.972	3380.15
996.268	3365.01
996.565	3326.14
996.861	3335.41
997.157	3304.9
997.453	3293.15
997.749	3258.35
998.044	3191.23
998.34	3216.99
998.636	3192.81
998.932	3185.35
999.227	3163.21
999.523	3130.89
999.818	3099.25
1000.114	3111.01
1000.409	3080.95
1000.704	3039.14
1001	3100.16
1001.295	3061.97
1001.59	3072.59
1001.885	2997.34
1002.18	3011.12
1002.475	3017.22
1002.77	2984.91
1003.065	2966.6
1003.359	2966.83
1003.654	2948.3
1003.949	2929.77
1004.243	2924.57
1004.538	2873.5
1004.832	2904.68
1005.127	2880.5
1005.421	2841.63
1005.715	2821.75
1006.009	2836.21
1006.304	2803.9
1006.598	2746.95
1006.892	2771.35
1007.186	2769.77
1007.48	2733.61
1007.773	2740.39
1008.067	2723.22
1008.361	2694.97
1008.655	2651.58
1008.948	2677.34
1009.242	2683.67
1009.535	2700.85
1009.829	2626.27
1010.122	2605.71
1010.415	2599.61
1010.708	2612.26
1011.001	2581.98
1011.295	2587.86
1011.588	2549.89
1011.881	2540.85
1012.173	2546.73
1012.466	2518.03
1012.759	2507.86
1013.052	2529.1
1013.344	2471.7
1013.637	2475.32
1013.93	2439.61
1014.222	2433.74
1014.514	2389.67
1014.807	2405.26
1015.099	2373.62
1015.391	2379.5
1015.683	2305.6
1015.976	2318.26
1016.268	2320.52
1016.56	2252.95
1016.851	2283.46
1017.143	2280.29
1017.435	2237.13
1017.727	2254.08
1018.018	2261.31
1018.31	2207.07
1018.602	2204.36
1018.893	2178.83
1019.185	2141.99
1019.476	2136.12
1019.767	2123.24
1020.058	2101.77
1020.35	2094.08
1020.641	2085.95
1020.932	2029.68
1021.223	2004.59
1021.514	2011.83
1021.804	1989
1022.095	2033.29
1022.386	1996.23
1022.677	1979.96
1022.967	1962.34
1023.258	1940.87
1023.548	1924.14
1023.839	1922.79
1024.129	1927.76
1024.419	1896.57
1024.709	1861.55
1025	1868.55
1025.29	1809.57
1025.58	1819.29
1025.87	1812.51
1026.16	1780.87
1026.449	1793.07
1026.739	1765.05
1027.029	1757.6
1027.319	1752.62
1027.608	1759.63
1027.898	1728.44
1028.187	1730.25
1028.477	1701.1
1028.766	1677.6
1029.055	1673.3
1029.344	1647.99
1029.634	1673.53
1029.923	1677.15
1030.212	1614.77
1030.501	1614.1
1030.79	1621.78
1031.078	1588.56
1031.367	1577.49
1031.656	1576.81
1031.945	1562.35
1032.233	1593.31
1032.522	1584.49
1032.81	1529.13
1033.099	1544.95
1033.387	1526.19
1033.675	1518.05
1033.963	1505.62
1034.251	1511.73
1034.54	1467.89
1034.828	1476.92
1035.116	1472.4
1035.403	1471.73
1035.691	1466.98
1035.979	1455.91
1036.267	1447.55
1036.554	1438.06
1036.842	1428.56
1037.129	1417.72
1037.417	1372.75
1037.704	1395.8
1037.992	1384.27
1038.279	1383.14
1038.566	1355.57
1038.853	1355.57
1039.14	1355.57
