Data from blue_surface_keyboard_FLMS001491_096.txt Node
Date: Tue Feb 07 11:13:55 GMT 2017
User: dcchb
Spectrometer: FLMS00149
Trigger mode: 0
Integration Time (sec): 2.000000E-2
Scans to average: 10
Electric dark correction enabled: true
Nonlinearity correction enabled: false
Boxcar width: 0
XAxis mode: Wavelengths
Number of Pixels in Spectrum: 2048
>>>>>Begin Spectral Data<<<<<
341.393	-11.33
341.776	-11.33
342.16	-11.33
342.543	-57.88
342.927	-54.72
343.31	-72.57
343.693	-81.61
344.077	-65.34
344.46	-51.1
344.843	-41.16
345.226	-33.7
345.61	-40.03
345.993	-34.83
346.376	-8.84
346.759	17.82
347.142	33.19
347.525	45.17
347.908	66.86
348.291	72.74
348.674	87.43
349.057	105.96
349.44	101.21
349.823	159.29
350.206	179.85
350.588	178.27
350.971	178.72
351.354	208.33
351.737	238.84
352.119	244.03
352.502	241.77
352.884	253.07
353.267	263.92
353.65	255.11
354.032	285.61
354.414	292.17
354.797	272.73
355.179	296.69
355.562	323.13
355.944	310.02
356.326	309.12
356.709	320.87
357.091	306.86
357.473	312.28
357.855	323.35
358.238	313.41
358.62	319.06
359.002	325.84
359.384	316.12
359.766	327.42
360.148	313.86
360.53	314.09
360.912	307.99
361.294	301.88
361.676	315.22
362.057	300.08
362.439	312.05
362.821	300.08
363.203	299.85
363.584	309.12
363.966	305.95
364.348	308.21
364.729	278.83
365.111	299.4
365.493	304.82
365.874	275.44
366.256	290.13
366.637	301.88
367.019	299.85
367.4	302.79
367.781	300.75
368.163	284.26
368.544	293.75
368.925	306.4
369.306	290.81
369.688	273.86
370.069	297.37
370.45	293.3
370.831	290.59
371.212	272.51
371.593	302.34
371.974	286.52
372.355	289.91
372.736	293.75
373.117	309.34
373.498	283.81
373.879	317.7
374.26	297.37
374.641	281.55
375.021	284.26
375.402	297.59
375.783	286.29
376.163	281.55
376.544	286.52
376.925	304.82
377.305	289.23
377.686	291.94
378.066	277.25
378.447	283.58
378.827	300.98
379.208	291.26
379.588	294.43
379.968	311.15
380.349	307.08
380.729	318.16
381.109	324.26
381.489	309.12
381.87	315.9
382.25	296.69
382.63	320.87
383.01	308.44
383.39	306.18
383.77	291.49
384.15	304.14
384.53	301.21
384.91	309.57
385.29	309.34
385.67	290.36
386.049	338.27
386.429	318.38
386.809	317.25
387.189	315.22
387.568	319.74
387.948	329.68
388.328	317.7
388.707	337.36
389.087	342.11
389.466	323.81
389.846	321.32
390.225	306.63
390.605	322.45
390.984	324.26
391.363	319.06
391.743	297.14
392.122	307.53
392.501	333.52
392.881	330.13
393.26	340.98
393.639	342.11
394.018	324.71
394.397	319.96
394.776	326.97
395.155	335.78
395.534	333.3
395.913	335.1
396.292	310.47
396.671	357.02
397.05	338.27
397.429	329.91
397.808	346.18
398.186	340.75
398.565	333.97
398.944	324.71
399.323	324.93
399.701	357.48
400.08	345.5
400.458	330.13
400.837	344.14
401.215	348.66
401.594	350.92
401.972	349.57
402.351	335.1
402.729	357.93
403.107	351.15
403.486	333.07
403.864	353.41
404.242	352.28
404.62	353.18
404.999	373.75
405.377	354.54
405.755	341.88
406.133	356.8
406.511	354.31
406.889	357.7
407.267	349.79
407.645	336.01
408.023	359.51
408.401	347.76
408.779	347.99
409.156	360.64
409.534	366.29
409.912	356.35
410.29	368.1
410.667	363.58
411.045	391.37
411.422	380.07
411.8	369.23
412.178	385.27
412.555	371.49
412.933	380.98
413.31	388.89
413.687	377.14
414.065	393.41
414.442	369.23
414.819	388.66
415.197	383.92
415.574	366.97
415.951	352.96
416.328	390.24
416.705	384.14
417.082	406.29
417.46	383.69
417.837	379.4
418.214	394.99
418.591	395.89
418.967	401.54
419.344	392.28
419.721	390.92
420.098	395.44
420.475	397.7
420.852	414.65
421.228	413.29
421.605	396.57
421.982	390.02
422.358	416.23
422.735	404.93
423.111	399.06
423.488	408.77
423.864	424.14
424.241	430.92
424.617	424.59
424.994	431.82
425.37	447.64
425.746	413.97
426.123	433.41
426.499	424.14
426.875	443.58
427.251	420.53
427.627	432.73
428.003	440.41
428.379	446.97
428.756	440.86
429.132	441.09
429.507	416.68
429.883	469.11
430.259	447.87
430.635	451.49
431.011	442.45
431.387	463.91
431.763	456
432.138	450.58
432.514	456.46
432.89	449
433.265	473.86
433.641	472.5
434.016	470.47
434.392	459.62
434.767	463.46
435.143	455.1
435.518	469.56
435.894	466.17
436.269	481.99
436.644	481.32
437.02	486.51
437.395	493.52
437.77	490.13
438.145	512.5
438.52	510.92
438.895	485.61
439.271	491.94
439.646	507.08
440.021	510.92
440.395	506.85
440.77	521.09
441.145	513.4
441.52	498.49
441.895	499.39
442.27	517.92
442.645	520.64
443.019	532.61
443.394	520.86
443.769	522.22
444.143	512.27
444.518	515.66
444.892	520.41
445.267	562.89
445.641	536.91
446.016	536.45
446.39	547.3
446.764	550.92
447.139	525.38
447.513	542.78
447.887	557.7
448.262	543.46
448.636	567.87
449.01	552.95
449.384	570.35
449.758	562.22
450.132	568.32
450.506	532.16
450.88	558.38
451.254	552.27
451.628	573.97
452.002	558.6
452.376	569.22
452.75	584.82
453.123	590.46
453.497	583.69
453.871	591.37
454.244	607.87
454.618	614.19
454.992	594.08
455.365	600.63
455.739	605.38
456.112	597.24
456.486	597.7
456.859	605.61
457.232	612.84
457.606	603.8
457.979	624.59
458.352	632.05
458.725	635.44
459.099	622.78
459.472	650.35
459.845	616
460.218	665.72
460.591	642.67
460.964	654.19
461.337	646.28
461.71	650.58
462.083	666.62
462.456	655.77
462.829	660.29
463.201	689.45
463.574	675.43
463.947	677.02
464.32	700.74
464.692	685.6
465.065	695.55
465.438	686.51
465.81	719.95
466.183	696.22
466.555	702.33
466.928	708.43
467.3	728.77
467.672	701.87
468.045	726.05
468.417	709.33
468.789	744.13
469.161	749.33
469.534	750.91
469.906	744.36
470.278	752.49
470.65	763.12
471.022	807.18
471.394	776.9
471.766	804.92
472.138	809.22
472.51	807.86
472.882	806.73
473.253	789.78
473.625	851.47
473.997	829.1
474.369	837.46
474.74	831.81
475.112	839.72
475.484	852.6
475.855	868.42
476.227	855.77
476.598	867.97
476.97	899.84
477.341	907.52
477.713	878.82
478.084	888.54
478.455	922.21
478.827	924.92
479.198	955.2
479.569	929.89
479.94	929.21
480.311	959.95
480.682	989.32
481.053	966.05
481.424	989.55
481.795	993.39
482.166	999.72
482.537	995.2
482.908	1027.74
483.279	1019.15
483.65	1052.15
484.021	1040.62
484.391	1068.42
484.762	1072.26
485.133	1064.35
485.503	1064.8
485.874	1088.08
486.244	1105.71
486.615	1138.92
486.985	1128.3
487.356	1105.93
487.726	1115.65
488.097	1161.52
488.467	1139.83
488.837	1167.85
489.207	1166.04
489.578	1183.22
489.948	1187.06
490.318	1190.9
490.688	1176.89
491.058	1190.67
491.428	1197.45
491.798	1222.76
492.168	1255.53
492.538	1254.85
492.908	1223.44
493.278	1246.49
493.648	1234.97
494.017	1276.1
494.387	1275.42
494.757	1267.06
495.126	1281.97
495.496	1247.85
495.866	1280.84
496.235	1283.1
496.605	1319.03
496.974	1279.49
497.344	1306.38
497.713	1291.92
498.082	1302.99
498.452	1325.36
498.821	1325.81
499.19	1302.31
499.559	1320.61
499.928	1332.82
500.298	1348.18
500.667	1345.7
501.036	1338.24
501.405	1330.78
501.774	1319.94
502.143	1342.76
502.512	1378.69
502.88	1361.52
503.249	1332.59
503.618	1356.55
503.987	1369.88
504.356	1361.29
504.724	1371.24
505.093	1364.68
505.462	1364.46
505.83	1357.45
506.199	1378.24
506.567	1402.19
506.936	1385.02
507.304	1397.45
507.672	1403.32
508.041	1387.96
508.409	1368.52
508.777	1409.65
509.145	1400.84
509.514	1389.77
509.882	1393.61
510.25	1390.9
510.618	1430.22
510.986	1418.92
511.354	1407.39
511.722	1430.67
512.09	1425.02
512.458	1422.76
512.826	1431.35
513.193	1448.52
513.561	1460.5
513.929	1466.15
514.297	1446.04
514.664	1476.54
515.032	1445.58
515.4	1464.34
515.767	1446.26
516.135	1462.53
516.502	1453.27
516.869	1470.89
517.237	1471.12
517.604	1446.49
517.972	1452.14
518.339	1446.04
518.706	1474.28
519.073	1459.59
519.44	1473.83
519.808	1489.88
520.175	1462.53
520.542	1507.5
520.909	1527.62
521.276	1487.62
521.643	1469.76
522.009	1477.67
522.376	1485.13
522.743	1506.82
523.11	1521.74
523.477	1538.01
523.843	1513.38
524.21	1524.9
524.577	1518.58
524.943	1541.17
525.31	1511.57
525.676	1547.73
526.043	1540.72
526.409	1526.26
526.776	1553.83
527.142	1592.7
527.508	1580.5
527.874	1546.15
528.241	1552.47
528.607	1552.02
528.973	1596.77
529.339	1546.6
529.705	1574.17
530.071	1594.51
530.437	1567.84
530.803	1596.99
531.169	1572.36
531.535	1612.36
531.901	1608.07
532.267	1566.26
532.632	1594.73
532.998	1580.5
533.364	1593.15
533.73	1587.73
534.095	1613.26
534.461	1588.18
534.826	1600.83
535.192	1626.82
535.557	1596.99
535.923	1611.45
536.288	1604.68
536.653	1634.51
537.019	1592.92
537.384	1629.08
537.749	1630.89
538.114	1642.64
538.479	1643.54
538.845	1604.9
539.21	1595.64
539.575	1617.56
539.94	1621.62
540.305	1637.44
540.67	1654.39
541.034	1637.67
541.399	1618.01
541.764	1624.34
542.129	1641.96
542.494	1608.29
542.858	1617.78
543.223	1627.27
543.587	1629.76
543.952	1608.07
544.316	1619.14
544.681	1629.53
545.045	1629.99
545.41	1619.14
545.774	1615.07
546.138	1637.22
546.503	1615.07
546.867	1608.97
547.231	1657.1
547.595	1636.09
547.959	1662.98
548.324	1640.15
548.688	1638.8
549.052	1628.86
549.416	1648.52
549.779	1644.22
550.143	1628.86
550.507	1652.81
550.871	1626.6
551.235	1624.34
551.599	1655.52
551.962	1614.84
552.326	1609.65
552.689	1638.35
553.053	1632.92
553.417	1648.52
553.78	1653.94
554.143	1644.45
554.507	1641.28
554.87	1642.41
555.234	1648.97
555.597	1656.88
555.96	1637.89
556.323	1679.02
556.686	1658.91
557.05	1657.33
557.413	1656.43
557.776	1647.16
558.139	1692.36
558.502	1675.86
558.865	1658.01
559.228	1667.5
559.59	1669.31
559.953	1655.3
560.316	1684.9
560.679	1707.72
561.041	1656.2
561.404	1681.96
561.767	1695.75
562.129	1685.35
562.492	1734.84
562.854	1698.46
563.217	1711.79
563.579	1720.15
563.941	1712.24
564.304	1693.03
564.666	1743.2
565.028	1708.63
565.39	1714.05
565.753	1718.12
566.115	1690.32
566.477	1725.35
566.839	1739.81
567.201	1728.51
567.563	1721.96
567.925	1762.41
568.287	1743.2
568.648	1727.61
569.01	1727.61
569.372	1766.25
569.734	1740.94
570.095	1747.72
570.457	1747.5
570.819	1759.7
571.18	1751.79
571.542	1763.54
571.903	1762.19
572.265	1756.31
572.626	1786.37
572.987	1774.16
573.349	1783.88
573.71	1784.78
574.071	1746.82
574.432	1771
574.794	1787.72
575.155	1792.47
575.516	1765.8
575.877	1776.42
576.238	1802.86
576.599	1782.07
576.96	1797.21
577.32	1780.04
577.681	1775.29
578.042	1794.27
578.403	1785.69
578.763	1803.77
579.124	1785.91
579.485	1792.02
579.845	1829.53
580.206	1816.65
580.566	1832.24
580.927	1829.53
581.287	1808.51
581.648	1815.07
582.008	1833.6
582.368	1801.51
582.728	1835.4
583.089	1813.94
583.449	1808.74
583.809	1818.91
584.169	1841.51
584.529	1827.49
584.889	1827.49
585.249	1806.93
585.609	1833.37
585.969	1841.73
586.329	1837.21
586.688	1818
587.048	1822.3
587.408	1829.3
587.768	1836.53
588.127	1848.28
588.487	1825.23
588.846	1832.01
589.206	1832.47
589.565	1842.41
589.925	1845.12
590.284	1829.08
590.643	1791.34
591.003	1829.53
591.362	1836.99
591.721	1839.92
592.08	1826.14
592.44	1837.21
592.799	1843.77
593.158	1829.53
593.517	1827.95
593.876	1843.09
594.235	1857.78
594.593	1827.95
594.952	1875.4
595.311	1863.88
595.67	1862.75
596.029	1883.31
596.387	1858.23
596.746	1860.94
597.104	1903.42
597.463	1860.49
597.822	1876.76
598.18	1862.97
598.538	1874.95
598.897	1878.79
599.255	1875.63
599.613	1847.15
599.972	1914.05
600.33	1862.07
600.688	1862.97
601.046	1893.71
601.404	1906.81
601.762	1893.26
602.12	1860.71
602.478	1896.19
602.836	1895.06
603.194	1892.8
603.552	1915.63
603.91	1878.34
604.268	1907.27
604.625	1881.73
604.983	1907.27
605.341	1875.85
605.698	1905.68
606.056	1909.07
606.413	1886.7
606.771	1911.33
607.128	1925.12
607.485	1904.1
607.843	1912.46
608.2	1928.28
608.557	1947.72
608.914	1921.96
609.272	1917.44
609.629	1913.37
609.986	1929.19
610.343	1937.1
610.7	1927.38
611.057	1954.5
611.414	1931.45
611.771	1957.21
612.127	1972.12
612.484	1944.1
612.841	1990.65
613.198	1977.32
613.554	1959.02
613.911	1947.27
614.267	1963.08
614.624	1971.45
614.98	1962.41
615.337	1977.77
615.693	1977.77
616.05	2002.4
616.406	1951.11
616.762	1973.48
617.118	1993.82
617.475	2003.31
617.831	1978.9
618.187	1984.1
618.543	2001.95
618.899	2006.47
619.255	1999.92
619.611	1995.63
619.967	2007.38
620.323	2009.64
620.678	2018.68
621.034	1989.98
621.39	1980.26
621.746	2010.54
622.101	2005.79
622.457	2012.57
622.812	2016.19
623.168	2043.76
623.523	2027.26
623.879	2045.57
624.234	2020.94
624.589	2016.19
624.945	2049.86
625.3	2054.61
625.655	2055.74
626.01	2070.88
626.365	2039.92
626.72	2059.8
627.075	2041.73
627.43	2065.68
627.785	2077.88
628.14	2087.6
628.495	2070.65
628.85	2061.39
629.205	2054.83
629.559	2084.66
629.914	2076.98
630.269	2095.74
630.623	2099.8
630.978	2147.94
631.332	2112.91
631.687	2126.7
632.041	2140.48
632.396	2121.05
632.75	2104.32
633.104	2124.66
633.459	2107.94
633.813	2114.27
634.167	2106.58
634.521	2087.83
634.875	2140.93
635.229	2158.79
635.583	2138.9
635.937	2146.81
636.291	2172.8
636.645	2114.27
636.999	2119.69
637.352	2185.45
637.706	2163.98
638.06	2182.97
638.413	2140.93
638.767	2160.14
639.121	2162.4
639.474	2163.53
639.828	2149.07
640.181	2217.09
640.534	2180.71
640.888	2208.95
641.241	2183.19
641.594	2201.72
641.947	2216.64
642.301	2202.4
642.654	2222.51
643.007	2210.08
643.36	2259.57
643.713	2241.95
644.066	2259.12
644.419	2267.03
644.771	2195.39
645.124	2250.99
645.477	2201.72
645.83	2217.99
646.182	2196.98
646.535	2262.96
646.888	2248.5
647.24	2231.55
647.593	2238.1
647.945	2271.78
648.298	2248.27
648.65	2246.69
649.002	2276.3
649.355	2303.19
649.707	2300.25
650.059	2330.31
650.411	2346.8
650.763	2350.19
651.115	2366.46
651.467	2376.18
651.819	2404.43
652.171	2455.05
652.523	2406.91
652.875	2438.55
653.227	2417.08
653.578	2456.18
653.93	2472.22
654.282	2429.29
654.633	2452.34
654.985	2476.29
655.337	2481.04
655.688	2468.61
656.039	2502.73
656.391	2476.06
656.742	2460.7
657.094	2527.36
657.445	2566.23
657.796	2531.43
658.147	2550.41
658.498	2553.12
658.849	2583.63
659.2	2610.75
659.551	2617.98
659.902	2660.47
660.253	2624.31
660.604	2668.38
660.955	2655.5
661.306	2647.81
661.656	2667.92
662.007	2674.48
662.358	2668.38
662.708	2710.18
663.059	2714.48
663.409	2753.12
663.76	2778.2
664.11	2749.5
664.461	2784.98
664.811	2776.4
665.161	2819.33
665.511	2810.29
665.862	2835.38
666.212	2850.74
666.562	2835.6
666.912	2862.72
667.262	2860.91
667.612	2900.46
667.962	2923.96
668.312	2907.92
668.662	2942.49
669.011	2925.32
669.361	2932.55
669.711	2946.56
670.06	2968.93
670.41	3028.14
670.76	2989.72
671.109	3044.86
671.459	2998.76
671.808	3061.13
672.157	3056.16
672.507	3023.85
672.856	3076.95
673.205	3047.35
673.554	3106.33
673.904	3104.97
674.253	3122.83
674.602	3142.04
674.951	3133.45
675.3	3103.62
675.649	3144.75
675.998	3190.17
676.346	3168.93
676.695	3198.31
677.044	3200.34
677.393	3230.4
677.741	3263.16
678.09	3259.1
678.438	3268.13
678.787	3267.46
679.135	3275.59
679.484	3271.52
679.832	3322.6
680.181	3276.72
680.529	3335.7
680.877	3304.29
681.225	3357.62
681.573	3363.27
681.922	3338.87
682.27	3368.24
682.618	3365.08
682.966	3375.25
683.314	3371.41
683.661	3358.53
684.009	3358.08
684.357	3406.89
684.705	3376.61
685.053	3427.9
685.4	3469.26
685.748	3416.61
686.095	3439.43
686.443	3435.81
686.79	3448.02
687.138	3456.15
687.485	3480.33
687.832	3462.93
688.18	3467.23
688.527	3470.61
688.874	3511.52
689.221	3513.78
689.568	3532.99
689.915	3494.57
690.262	3493.44
690.609	3476.04
690.956	3499.31
691.303	3487.34
691.65	3538.64
691.997	3517.62
692.344	3518.3
692.69	3484.63
693.037	3547.68
693.383	3516.26
693.73	3476.49
694.077	3470.84
694.423	3509.48
694.769	3522.37
695.116	3540.67
695.462	3531.4
695.808	3495.47
696.155	3518.98
696.501	3480.56
696.847	3525.53
697.193	3519.2
697.539	3530.73
697.885	3494.34
698.231	3511.97
698.577	3545.64
698.923	3511.74
699.269	3507.22
699.614	3506.32
699.96	3479.2
700.306	3462.93
700.651	3482.37
700.997	3486.43
701.342	3486.21
701.688	3501.12
702.033	3506.55
702.379	3531.18
702.724	3469.71
703.069	3482.37
703.415	3493.21
703.76	3481.69
704.105	3452.08
704.45	3489.15
704.795	3468.36
705.14	3437.4
705.485	3463.16
705.83	3388.58
706.175	3459.54
706.52	3451.18
706.865	3447.11
707.209	3415.25
707.554	3452.31
707.899	3458.19
708.243	3412.09
708.588	3437.85
708.932	3428.58
709.277	3430.39
709.621	3442.14
709.966	3424.06
710.31	3418.19
710.654	3380.67
710.998	3363.27
711.342	3414.12
711.687	3425.64
712.031	3411.63
712.375	3372.99
712.719	3413.22
713.063	3387.45
713.407	3402.82
713.75	3428.81
714.094	3430.84
714.438	3386.55
714.782	3423.84
715.125	3426.77
715.469	3412.76
715.812	3435.14
716.156	3396.72
716.499	3384.29
716.843	3409.6
717.186	3421.8
717.53	3393.55
717.873	3405.31
718.216	3371.86
718.559	3404.18
718.902	3371.86
719.246	3393.33
719.589	3366.89
719.932	3385.42
720.275	3414.57
720.617	3386.1
720.96	3389.04
721.303	3390.17
721.646	3384.97
721.989	3380.9
722.331	3388.58
722.674	3392.65
723.016	3413.44
723.359	3378.64
723.701	3404.63
724.044	3358.75
724.386	3395.14
724.729	3407.79
725.071	3404.63
725.413	3410.05
725.755	3390.62
726.097	3371.18
726.439	3382.26
726.782	3417.28
727.124	3381.58
727.465	3377.28
727.807	3379.09
728.149	3364.4
728.491	3385.42
728.833	3429.26
729.175	3380.67
729.516	3356.49
729.858	3402.37
730.199	3381.35
730.541	3406.66
730.882	3445.53
731.224	3400.11
731.565	3390.39
731.906	3426.77
732.248	3426.1
732.589	3397.85
732.93	3406.21
733.271	3393.55
733.612	3419.32
733.953	3434.91
734.294	3414.35
734.635	3410.28
734.976	3500.67
735.317	3455.25
735.658	3397.62
735.999	3465.87
736.339	3454.57
736.68	3441.46
737.021	3455.47
737.361	3438.53
737.702	3471.07
738.042	3484.85
738.383	3453.89
738.723	3460.67
739.063	3492.54
739.404	3488.69
739.744	3490.5
740.084	3462.93
740.424	3502.7
740.764	3483.95
741.104	3513.1
741.444	3527.56
741.784	3549.48
742.124	3562.14
742.464	3527.11
742.804	3562.82
743.143	3563.04
743.483	3581.57
743.823	3588.58
744.162	3573.89
744.502	3607.79
744.841	3626.09
745.181	3627
745.52	3614.11
745.86	3665.19
746.199	3649.82
746.538	3701.34
746.877	3701.34
747.216	3724.39
747.556	3740.44
747.895	3740.66
748.234	3748.12
748.573	3788.57
748.911	3781.34
749.25	3770.49
749.589	3787.89
749.928	3841
750.267	3820.44
750.605	3879.42
750.944	3880.55
751.283	3894.78
751.621	3894.33
751.96	3915.12
752.298	3941.79
752.636	3984.95
752.975	3967.1
753.313	3984.5
753.651	4042.8
753.989	4001
754.327	4042.13
754.666	4042.13
755.004	4114.21
755.342	4104.5
755.679	4147.66
756.017	4126.87
756.355	4140.65
756.693	4162.12
757.031	4202.35
757.368	4208.9
757.706	4208.22
758.044	4222.23
758.381	4299.97
758.719	4243.48
759.056	4282.57
759.394	4309.91
759.731	4283.02
760.068	4329.8
760.405	4343.13
760.743	4372.29
761.08	4351.72
761.417	4371.61
761.754	4405.73
762.091	4400.76
762.428	4396.69
762.765	4388.78
763.102	4452.74
763.438	4425.84
763.775	4410.48
764.112	4435.34
764.449	4446.18
764.785	4452.06
765.122	4440.31
765.458	4408.22
765.795	4451.38
766.131	4469.23
766.467	4484.83
766.804	4502.23
767.14	4509.68
767.476	4516.01
767.812	4493.86
768.148	4466.29
768.485	4453.19
768.821	4496.8
769.157	4515.33
769.492	4511.49
769.828	4503.81
770.164	4444.6
770.5	4490.02
770.836	4487.99
771.171	4476.46
771.507	4399.86
771.842	4446.18
772.178	4452.96
772.513	4453.87
772.849	4433.98
773.184	4440.53
773.519	4398.27
773.855	4404.83
774.19	4407.99
774.525	4393.53
774.86	4435.34
775.195	4402.57
775.53	4391.49
775.865	4347.2
776.2	4388.56
776.535	4309.46
776.87	4308.33
777.205	4348.33
777.539	4331.61
777.874	4338.39
778.209	4292.97
778.543	4344.26
778.878	4293.19
779.212	4291.38
779.547	4249.13
779.881	4280.99
780.215	4188.11
780.55	4244.83
780.884	4293.42
781.218	4220.88
781.552	4244.15
781.886	4180.65
782.22	4180.65
782.554	4206.64
782.888	4161.67
783.222	4106.3
783.556	4110.37
783.889	4092.97
784.223	4097.27
784.557	4092.75
784.89	4103.14
785.224	4073.99
785.557	4045.52
785.891	4054.78
786.224	4066.98
786.558	4097.04
786.891	4028.34
787.224	3969.36
787.557	3991.28
787.891	3964.16
788.224	4007.55
788.557	3972.3
788.89	3967.33
789.223	3961.45
789.556	3941.79
789.888	3907.44
790.221	3940.89
790.554	3885.07
790.887	3915.12
791.219	3902.02
791.552	3879.87
791.884	3837.84
792.217	3876.03
792.549	3882.81
792.882	3855.69
793.214	3813.88
793.546	3852.53
793.879	3790.38
794.211	3792.41
794.543	3784.51
794.875	3784.05
795.207	3802.13
795.539	3808.69
795.871	3755.58
796.203	3732.98
796.535	3695.47
796.867	3736.82
797.198	3698.41
797.53	3669.93
797.862	3701.57
798.193	3653.44
798.525	3671.51
798.856	3669.03
799.188	3663.83
799.519	3631.97
799.85	3608.46
800.182	3603.49
800.513	3662.7
800.844	3576.15
801.175	3604.85
801.506	3588.13
801.837	3589.03
802.168	3550.39
802.499	3537.96
802.83	3515.81
803.161	3500.22
803.491	3508.81
803.822	3547.45
804.153	3496.38
804.483	3468.81
804.814	3528.01
805.145	3462.25
805.475	3481.01
805.805	3485.08
806.136	3473.55
806.466	3440.11
806.796	3467.9
807.126	3429.26
807.457	3427.23
807.787	3441.01
808.117	3402.37
808.447	3407.57
808.777	3367.34
809.107	3402.37
809.436	3350.39
809.766	3375.02
810.096	3352.88
810.426	3329.38
810.755	3344.97
811.085	3373.67
811.414	3325.53
811.744	3295.7
812.073	3298.64
812.403	3278.53
812.732	3300
813.061	3290.05
813.39	3259.32
813.719	3285.31
814.049	3280.11
814.378	3277.4
814.707	3236.95
815.036	3234.24
815.365	3227.46
815.693	3184.52
816.022	3206.89
816.351	3222.71
816.68	3202.15
817.008	3184.75
817.337	3160.11
817.665	3151.53
817.994	3171.87
818.322	3175.71
818.651	3170.96
818.979	3137.29
819.307	3121.02
819.636	3111.98
819.964	3152.43
820.292	3125.09
820.62	3136.16
820.948	3149.27
821.276	3157.63
821.604	3130.06
821.932	3149.95
822.259	3161.47
822.587	3137.06
822.915	3096.61
823.243	3142.94
823.57	3130.28
823.898	3120.57
824.225	3082.6
824.553	3125.31
824.88	3117.4
825.207	3135.26
825.535	3095.94
825.862	3132.32
826.189	3123.05
826.516	3164.41
826.843	3144.3
827.17	3157.85
827.497	3125.54
827.824	3153.79
828.151	3117.4
828.478	3130.06
828.805	3114.47
829.131	3143.39
829.458	3095.48
829.785	3094.13
830.111	3144.07
830.438	3106.1
830.764	3136.39
831.09	3123.73
831.417	3109.04
831.743	3115.6
832.069	3118.76
832.395	3113.11
832.722	3095.71
833.048	3102.49
833.374	3066.78
833.7	3101.81
834.026	3095.94
834.351	3105.65
834.677	3110.17
835.003	3090.74
835.329	3105.43
835.654	3080.34
835.98	3080.34
836.306	3110.85
836.631	3054.35
836.956	3055.94
837.282	3059.33
837.607	3031.76
837.932	3053.45
838.258	3050.96
838.583	3020.46
838.908	3015.71
839.233	3038.31
839.558	3025.2
839.883	3041.02
840.208	3016.62
840.533	3013.68
840.858	2990.18
841.182	3025.43
841.507	3037.86
841.832	2999.67
842.156	3022.72
842.481	3003.73
842.805	2999.89
843.13	3013.45
843.454	2978.65
843.778	2958.54
844.103	2937.07
844.427	2950.18
844.751	2963.74
845.075	2947.24
845.399	2958.54
845.723	2955.6
846.047	2926.9
846.371	2915.38
846.695	2923.74
847.019	2876.51
847.343	2880.12
847.666	2864.53
847.99	2862.72
848.313	2834.25
848.637	2838.32
848.96	2816.39
849.284	2797.86
849.607	2808.94
849.931	2833.34
850.254	2775.94
850.577	2799.9
850.9	2800.35
851.223	2783.85
851.546	2753.57
851.869	2762.38
852.192	2744.31
852.515	2728.04
852.838	2743.18
853.161	2701.14
853.483	2704.99
853.806	2737.07
854.129	2663.4
854.451	2691.2
854.774	2667.7
855.096	2633.57
855.419	2662.05
855.741	2665.44
856.063	2622.73
856.385	2629.51
856.708	2624.31
857.03	2613.24
857.352	2620.47
857.674	2588.6
857.996	2609.39
858.318	2590.19
858.64	2615.95
858.961	2575.5
859.283	2610.98
859.605	2582.5
859.926	2611.43
860.248	2561.26
860.57	2556.51
860.891	2540.02
861.212	2564.42
861.534	2537.76
861.855	2532.79
862.176	2535.27
862.498	2520.13
862.819	2537.53
863.14	2533.92
863.461	2509.51
863.782	2508.61
864.103	2523.97
864.424	2471.09
864.745	2480.13
865.065	2481.71
865.386	2476.97
865.707	2471.77
866.027	2469.74
866.348	2496.86
866.668	2475.16
866.989	2484.88
867.309	2435.84
867.63	2447.82
867.95	2441.72
868.27	2427.25
868.59	2456.4
868.91	2443.07
869.23	2440.13
869.55	2445.78
869.87	2441.49
870.19	2469.74
870.51	2413.92
870.83	2394.71
871.15	2404.2
871.469	2418.67
871.789	2425.44
872.109	2446.01
872.428	2425.44
872.748	2408.5
873.067	2396.29
873.386	2392.9
873.706	2393.58
874.025	2413.47
874.344	2398.33
874.663	2405.33
874.982	2348.84
875.301	2361.27
875.62	2390.64
875.939	2360.36
876.258	2365.56
876.577	2375.95
876.896	2369.63
877.214	2369.17
877.533	2334.83
877.852	2328.5
878.17	2382.51
878.489	2366.92
878.807	2360.81
879.125	2356.97
879.444	2326.01
879.762	2338.89
880.08	2363.53
880.398	2337.31
880.716	2330.98
881.034	2311.1
881.352	2337.76
881.67	2310.19
881.988	2325.56
882.306	2282.17
882.624	2288.73
882.941	2276.07
883.259	2304.54
883.577	2288.27
883.894	2287.37
884.212	2293.92
884.529	2332.79
884.846	2239.23
885.164	2278.78
885.481	2253.25
885.798	2256.18
886.115	2277.43
886.432	2248.5
886.75	2226.35
887.067	2253.02
887.383	2244.66
887.7	2234.49
888.017	2217.09
888.334	2196.3
888.651	2226.13
888.967	2222.96
889.284	2201.72
889.6	2201.04
889.917	2201.04
890.233	2219.12
890.55	2203.08
890.866	2126.24
891.182	2170.76
891.498	2184.32
891.815	2181.61
892.131	2135.96
892.447	2168.28
892.763	2126.92
893.079	2166.02
893.395	2115.17
893.71	2124.89
894.026	2126.7
894.342	2107.94
894.657	2127.15
894.973	2129.63
895.289	2070.65
895.604	2118.33
895.92	2094.15
896.235	2063.42
896.55	2063.65
896.865	2090.76
897.181	2060.48
897.496	2080.37
897.811	2043.31
898.126	2072.91
898.441	2066.36
898.756	2045.12
899.071	2043.08
899.386	2030.65
899.7	2024.1
900.015	2003.08
900.33	2032.91
900.644	2010.77
900.959	1988.39
901.273	1999.24
901.588	1996.08
901.902	1973.71
902.216	1970.09
902.531	1965.12
902.845	1956.98
903.159	1949.53
903.473	1958.56
903.787	1929.41
904.101	1949.75
904.415	1953.14
904.729	1923.76
905.042	1922.18
905.356	1942.29
905.67	1893.48
905.984	1940.49
906.297	1874.95
906.611	1873.82
906.924	1878.34
907.237	1885.8
907.551	1887.83
907.864	1852.13
908.177	1881.05
908.491	1889.64
908.804	1800.15
909.117	1838.12
909.43	1821.84
909.743	1823.43
910.056	1842.64
910.368	1813.26
910.681	1830.66
910.994	1821.84
911.307	1783.2
911.619	1825.91
911.932	1767.38
912.244	1780.94
912.557	1789.08
912.869	1782.07
913.181	1790.43
913.494	1770.77
913.806	1759.93
914.118	1740.26
914.43	1734.84
914.742	1756.99
915.054	1759.47
915.366	1752.47
915.678	1726.71
915.99	1747.5
916.302	1701.4
916.613	1726.03
916.925	1721.73
917.236	1724.45
917.548	1682.41
917.859	1681.96
918.171	1687.16
918.482	1702.53
918.794	1667.72
919.105	1645.35
919.416	1656.88
919.727	1669.08
920.038	1637.22
920.349	1650.1
920.66	1611
920.971	1604.68
921.282	1617.1
921.593	1616.2
921.903	1583.66
922.214	1613.71
922.525	1611
922.835	1613.94
923.146	1586.6
923.456	1591.79
923.767	1590.66
924.077	1591.12
924.387	1583.21
924.697	1567.16
925.008	1546.15
925.318	1525.36
925.628	1548.86
925.938	1554.73
926.248	1545.02
926.558	1548.18
926.867	1554.96
927.177	1539.59
927.487	1510.44
927.796	1509.31
928.106	1508.41
928.416	1509.99
928.725	1525.36
929.034	1484.68
929.344	1491.01
929.653	1499.37
929.962	1487.62
930.271	1472.02
930.581	1474.28
930.89	1441.97
931.199	1450.1
931.508	1477.22
931.817	1460.72
932.125	1474.06
932.434	1449.88
932.743	1442.42
933.051	1430.89
933.36	1407.39
933.669	1419.14
933.977	1426.15
934.286	1415.08
934.594	1393.16
934.902	1412.14
935.21	1404.91
935.519	1391.57
935.827	1386.15
936.135	1374.17
936.443	1363.1
936.751	1397.45
937.059	1393.16
937.367	1346.83
937.674	1361.52
937.982	1378.92
938.29	1328.75
938.597	1360.84
938.905	1342.99
939.213	1364.91
939.52	1360.84
939.827	1335.53
940.135	1326.72
940.442	1336.89
940.749	1325.59
941.056	1302.31
941.363	1295.76
941.67	1313.61
941.977	1296.21
942.284	1287.62
942.591	1298.92
942.898	1288.75
943.205	1301.41
943.511	1244.46
943.818	1291.46
944.125	1269.32
944.431	1268.64
944.738	1286.72
945.044	1251.69
945.35	1280.84
945.657	1269.54
945.963	1240.84
946.269	1241.75
946.575	1259.15
946.881	1222.54
947.187	1228.19
947.493	1200.17
947.799	1237.23
948.105	1193.84
948.41	1198.13
948.716	1193.61
949.022	1213.27
949.327	1245.14
949.633	1198.58
949.938	1208.98
950.244	1201.75
950.549	1188.87
950.854	1185.25
951.16	1194.06
951.465	1181.86
951.77	1139.15
952.075	1165.82
952.38	1155.87
952.685	1153.61
952.99	1132.15
953.294	1145.03
953.599	1131.69
953.904	1122.43
954.209	1104.58
954.513	1159.26
954.818	1105.25
955.122	1108.19
955.426	1117.68
955.731	1106.16
956.035	1124.69
956.339	1097.12
956.643	1106.84
956.948	1089.43
957.252	1094.18
957.556	1103.22
957.86	1077.68
958.163	1090.56
958.467	1093.05
958.771	1088.3
959.075	1090.56
959.378	1076.33
959.682	1067.06
959.985	1073.16
960.289	1077.01
960.592	1066.61
960.896	1070.23
961.199	1069.55
961.502	1039.72
961.805	1048.31
962.108	1048.76
962.411	1032.94
962.714	1052.6
963.017	1028.19
963.32	1044.92
963.623	1019.83
963.926	1006.05
964.228	1012.15
964.531	1028.87
964.833	1028.87
965.136	993.39
965.438	991.13
965.741	1002.66
966.043	999.95
966.345	998.14
966.648	985.71
966.95	1010.57
967.252	987.29
967.554	980.28
967.856	976.22
968.158	974.86
968.46	963.11
968.761	982.77
969.063	994.07
969.365	987.52
969.666	960.4
969.968	969.89
970.269	952.72
970.571	953.39
970.872	948.65
971.174	967.86
971.475	964.47
971.776	973.51
972.077	935.99
972.378	943.45
972.679	940.51
972.98	958.59
973.281	938.25
973.582	936.9
973.883	931.7
974.183	925.82
974.484	921.76
974.785	924.24
975.085	905.03
975.386	912.94
975.686	898.48
975.986	899.16
976.287	916.11
976.587	904.35
976.887	870.68
977.187	911.59
977.487	899.61
977.787	887.18
978.087	872.72
978.387	870.68
978.687	873.62
978.987	886.28
979.286	884.24
979.586	863.9
979.885	839.72
980.185	850.34
980.484	870.01
980.784	860.97
981.083	852.83
981.382	863.23
981.682	863.9
981.981	864.13
982.28	849.44
982.579	848.54
982.878	849.44
983.177	829.1
983.475	829.55
983.774	850.8
984.073	829.78
984.372	816.67
984.67	836.79
984.969	822.77
985.267	823.23
985.566	832.72
985.864	809.67
986.162	836.56
986.461	804.7
986.759	806.5
987.057	810.35
987.355	810.57
987.653	799.5
987.951	810.57
988.249	812.61
988.547	791.59
988.844	790.91
989.142	802.89
989.44	798.14
989.737	791.59
990.035	787.07
990.332	776.67
990.63	778.71
990.927	782.32
991.224	779.39
991.521	776
991.819	796.33
992.116	773.96
992.413	745.49
992.71	763.79
993.006	754.53
993.303	752.27
993.6	756.34
993.897	751.82
994.193	752.04
994.49	758.37
994.787	756.56
995.083	758.82
995.379	752.49
995.676	724.02
995.972	756.56
996.268	733.51
996.565	720.63
996.861	723.57
997.157	741.2
997.453	713.17
997.749	723.79
998.044	730.12
998.34	707.52
998.636	716.56
998.932	716.34
999.227	688.54
999.523	712.04
999.818	698.03
1000.114	706.85
1000.409	731.03
1000.704	710.01
1001	718.14
1001.295	716.34
1001.59	694.87
1001.885	680.41
1002.18	690.8
1002.475	689.9
1002.77	707.52
1003.065	683.8
1003.359	678.15
1003.654	685.38
1003.949	677.02
1004.243	674.3
1004.538	661.2
1004.832	662.55
1005.127	695.77
1005.421	659.39
1005.715	657.36
1006.009	659.62
1006.304	651.71
1006.598	661.65
1006.892	658.26
1007.186	665.26
1007.48	647.41
1007.773	667.52
1008.067	649.9
1008.361	648.99
1008.655	645.38
1008.948	623.91
1009.242	642.89
1009.535	620.97
1009.829	646.06
1010.122	620.29
1010.415	626.17
1010.708	616.9
1011.001	617.36
1011.295	613.06
1011.588	624.59
1011.881	617.58
1012.173	625.04
1012.466	619.39
1012.759	600.41
1013.052	596.57
1013.344	599.05
1013.637	581.88
1013.93	590.69
1014.222	593.85
1014.514	610.35
1014.807	623.23
1015.099	589.11
1015.391	617.36
1015.683	594.31
1015.976	596.79
1016.268	585.49
1016.56	586.85
1016.851	598.83
1017.143	578.04
1017.435	577.58
1017.727	590.46
1018.018	575.1
1018.31	575.32
1018.602	578.94
1018.893	585.27
1019.185	576
1019.476	569.67
1019.767	570.58
1020.058	573.74
1020.35	571.03
1020.641	555.89
1020.932	542.56
1021.223	554.31
1021.514	567.64
1021.804	551.37
1022.095	554.76
1022.386	564.7
1022.677	554.08
1022.967	562.22
1023.258	556.79
1023.548	527.87
1023.839	536.91
1024.129	531.48
1024.419	538.26
1024.709	516.79
1025	521.99
1025.29	526.06
1025.58	530.58
1025.87	519.28
1026.16	522.9
1026.449	538.49
1026.739	500.07
1027.029	503.46
1027.319	520.41
1027.608	509.56
1027.898	535.78
1028.187	523.35
1028.477	495.55
1028.766	509.79
1029.055	511.82
1029.344	490.35
1029.634	502.11
1029.923	517.25
1030.212	494.65
1030.501	502.33
1030.79	487.87
1031.078	498.49
1031.367	480.64
1031.656	482.9
1031.945	492.16
1032.233	472.95
1032.522	488.32
1032.81	501.65
1033.099	462.78
1033.387	498.72
1033.675	461.65
1033.963	496.91
1034.251	492.16
1034.54	481.77
1034.828	461.65
1035.116	497.59
1035.403	474.08
1035.691	449.68
1035.979	481.99
1036.267	460.3
1036.554	467.76
1036.842	457.36
1037.129	448.1
1037.417	456.91
1037.704	460.75
1037.992	469.34
1038.279	459.39
1038.566	449.45
1038.853	449.45
1039.14	449.45
