Data from blue_clamp_base_FLMS001491_00040.txt Node
Date: Wed Feb 08 15:15:56 GMT 2017
User: dcchb
Spectrometer: FLMS00149
Trigger mode: 0
Integration Time (sec): 2.000000E-2
Scans to average: 10
Electric dark correction enabled: true
Nonlinearity correction enabled: false
Boxcar width: 0
XAxis mode: Wavelengths
Number of Pixels in Spectrum: 2048
>>>>>Begin Spectral Data<<<<<
341.393	-14.22
341.776	-14.22
342.16	-14.22
342.543	-48.8
342.927	-72.98
343.31	-62.81
343.693	-58.06
344.077	-57.84
344.46	-59.65
344.843	-65.75
345.226	-46.09
345.61	-26.65
345.993	-28.46
346.376	9.51
346.759	16.51
347.142	25.55
347.525	49.05
347.908	59
348.291	71.88
348.674	70.52
349.057	103.29
349.44	137.86
349.823	141.48
350.206	192.1
350.588	191.2
350.971	218.54
351.354	209.05
351.737	248.6
352.119	256.05
352.502	254.7
352.884	275.26
353.267	292.44
353.65	297.86
354.032	299.22
354.414	332.89
354.797	302.38
355.179	329.72
355.562	328.82
355.944	325.66
356.326	333.11
356.709	343.73
357.091	322.49
357.473	336.28
357.855	323.62
358.238	353.45
358.62	351.87
359.002	336.73
359.384	357.74
359.766	342.83
360.148	348.03
360.53	341.7
360.912	353.9
361.294	311.87
361.676	339.67
362.057	327.92
362.439	324.07
362.821	355.49
363.203	331.76
363.584	338.76
363.966	323.62
364.348	338.31
364.729	340.57
365.111	316.84
365.493	325.43
365.874	331.3
366.256	332.43
366.637	324.75
367.019	313
367.4	324.98
367.781	324.3
368.163	291.08
368.544	311.87
368.925	313.9
369.306	342.83
369.688	319.1
370.069	317.07
370.45	318.88
370.831	325.88
371.212	329.95
371.593	321.59
371.974	325.2
372.355	318.42
372.736	336.05
373.117	308.25
373.498	322.27
373.879	336.95
374.26	333.34
374.641	336.05
375.021	326.11
375.402	326.11
375.783	336.05
376.163	340.34
376.544	340.57
376.925	343.96
377.305	341.7
377.686	350.51
378.066	325.43
378.447	323.17
378.827	341.7
379.208	351.64
379.588	339.21
379.968	369.27
380.349	348.25
380.729	332.43
381.109	343.96
381.489	355.94
381.87	347.35
382.25	367.01
382.63	364.98
383.01	354.13
383.39	356.61
383.77	364.75
384.15	358.42
384.53	372.66
384.91	394.13
385.29	386.22
385.67	363.85
386.049	373.34
386.429	378.31
386.809	379.21
387.189	375.37
387.568	394.13
387.948	382.15
388.328	403.62
388.707	387.57
389.087	401.81
389.466	384.18
389.846	404.98
390.225	420.79
390.605	412.66
390.984	420.34
391.363	415.37
391.743	424.41
392.122	417.4
392.501	407.01
392.881	426.44
393.26	423.96
393.639	444.97
394.018	441.81
394.397	435.26
394.776	463.05
395.155	463.28
395.534	459.89
395.913	455.14
396.292	474.35
396.671	452.66
397.05	470.74
397.429	468.02
397.808	493.56
398.186	457.63
398.565	494.46
398.944	483.17
399.323	469.61
399.701	491.75
400.08	492.66
400.458	516.84
400.837	495.14
401.215	505.09
401.594	496.95
401.972	522.03
402.351	543.73
402.729	525.2
403.107	536.05
403.486	552.09
403.864	544.86
404.242	530.4
404.62	529.04
404.999	563.16
405.377	584.63
405.755	567.23
406.133	594.57
406.511	593.9
406.889	590.96
407.267	581.24
407.645	625.31
408.023	618.75
408.401	612.88
408.779	622.14
409.156	651.97
409.534	639.32
409.912	656.27
410.29	643.39
410.667	668.7
411.045	696.27
411.422	698.75
411.8	693.1
412.178	680.9
412.555	703.5
412.933	726.32
413.31	720.22
413.687	738.98
414.065	758.64
414.442	748.24
414.819	759.09
415.197	783.5
415.574	758.64
415.951	776.26
416.328	784.4
416.705	781.01
417.082	807.68
417.46	813.33
417.837	830.95
418.214	807.9
418.591	815.81
418.967	837.05
419.344	832.31
419.721	866.66
420.098	862.36
420.475	857.39
420.852	884.74
421.228	893.78
421.605	886.77
421.982	877.05
422.358	914.11
422.735	911.18
423.111	911.4
423.488	897.17
423.864	935.13
424.241	970.84
424.617	961.34
424.994	969.71
425.37	973.32
425.746	1010.61
426.123	998.63
426.499	1008.58
426.875	1018.07
427.251	1031.63
427.627	1052.19
428.003	1066.43
428.379	1047.67
428.756	1081.34
429.132	1079.76
429.507	1095.8
429.883	1145.29
430.259	1129.93
430.635	1144.84
431.011	1185.97
431.387	1188.23
431.763	1197.95
432.138	1236.59
432.514	1248.12
432.89	1239.3
433.265	1248.57
433.641	1267.1
434.016	1320.66
434.392	1305.74
434.767	1306.65
435.143	1318.62
435.518	1324.73
435.894	1359.3
436.269	1396.59
436.644	1375.57
437.02	1417.15
437.395	1408.11
437.77	1422.12
438.145	1441.56
438.52	1455.34
438.895	1484.49
439.271	1489.24
439.646	1521.78
440.021	1517.04
440.395	1529.01
440.77	1559.97
441.145	1565.4
441.52	1569.92
441.895	1576.47
442.27	1608.11
442.645	1592.51
443.019	1649.46
443.394	1625.06
443.769	1685.39
444.143	1654.89
444.518	1703.7
444.892	1680.65
445.267	1693.53
445.641	1718.61
446.016	1724.26
446.39	1766.75
446.764	1771.49
447.139	1722.91
447.513	1795.45
447.887	1805.16
448.262	1778.95
448.636	1815.56
449.01	1818.05
449.384	1856.69
449.758	1860.98
450.132	1872.73
450.506	1892.17
450.88	1909.57
451.254	1924.71
451.628	1953.18
452.002	1975.33
452.376	1985.95
452.75	1985.05
453.123	2027.31
453.497	2022.79
453.871	2060.98
454.244	2088.77
454.618	2106.17
454.992	2141.43
455.365	2136
455.739	2202.22
456.112	2209.9
456.486	2191.14
456.859	2218.03
457.232	2290.35
457.606	2281.54
457.979	2293.97
458.352	2350.69
458.725	2382.1
459.099	2373.06
459.472	2415.32
459.845	2465.94
460.218	2471.14
460.591	2495.09
460.964	2516.78
461.337	2574.86
461.71	2586.84
462.083	2619.61
462.456	2610.57
462.829	2612.6
463.201	2702.32
463.574	2669.55
463.947	2745.48
464.32	2760.85
464.692	2792.71
465.065	2806.72
465.438	2847.85
465.81	2871.8
466.183	2879.03
466.555	2956.55
466.928	2980.5
467.3	2959.48
467.672	3025.47
468.045	3112.47
468.417	3102.76
468.789	3120.61
469.161	3155.86
469.534	3231.79
469.906	3234.73
470.278	3270.66
470.65	3335.97
471.022	3408.74
471.394	3402.86
471.766	3399.47
472.138	3427.27
472.51	3527.83
472.882	3542.75
473.253	3620.03
473.625	3650.31
473.997	3751.33
474.369	3717.88
474.74	3762.4
475.112	3826.13
475.484	3890.53
475.855	3964.88
476.227	4005.33
476.598	4045.11
476.97	4077.42
477.341	4157.64
477.713	4234.71
478.084	4276.29
478.455	4394.47
478.827	4354.93
479.198	4472.21
479.569	4472.89
479.94	4573.23
480.311	4629.04
480.682	4674.92
481.053	4769.15
481.424	4807.35
481.795	4860
482.166	4931.64
482.537	4964.63
482.908	5086.43
483.279	5092.54
483.65	5199.43
484.021	5265.86
484.391	5301.8
484.762	5321.46
485.133	5342.7
485.503	5372.08
485.874	5485.75
486.244	5551.96
486.615	5626.08
486.985	5660.88
487.356	5768.22
487.726	5804.38
488.097	5885.96
488.467	5858.84
488.837	5960.99
489.207	6012.74
489.578	6077.37
489.948	6113.53
490.318	6193.52
490.688	6153.07
491.058	6296.35
491.428	6296.8
491.798	6317.36
492.168	6429.68
492.538	6409.79
492.908	6475.78
493.278	6535.44
493.648	6593.06
494.017	6606.17
494.387	6654.75
494.757	6702.21
495.126	6746.28
495.496	6773.85
495.866	6709.67
496.235	6832.38
496.605	6855.65
496.974	6917.12
497.344	6879.61
497.713	6912.15
498.082	6955.09
498.452	7000.51
498.821	7088.87
499.19	7054.52
499.559	7073.95
499.928	7140.84
500.298	7124.8
500.667	7184.91
501.036	7161.63
501.405	7282.08
501.774	7212.71
502.143	7284.57
502.512	7240.95
502.88	7322.08
503.249	7339.93
503.618	7368.18
503.987	7355.98
504.356	7401.18
504.724	7407.73
505.093	7433.94
505.462	7432.36
505.83	7482.3
506.199	7501.29
506.567	7630.77
506.936	7548.29
507.304	7645.46
507.672	7571.11
508.041	7667.61
508.409	7752.35
508.777	7767.72
509.145	7784.67
509.514	7787.83
509.882	7788.51
510.25	7756.19
510.618	7871.45
510.986	7919.35
511.354	7957.55
511.722	8016.3
512.09	8040.03
512.458	8070.54
512.826	8052.01
513.193	8066.92
513.561	8153.02
513.929	8179.69
514.297	8200.48
514.664	8209.06
515.032	8222.17
515.4	8253.36
515.767	8290.87
516.135	8316.18
516.502	8263.53
516.869	8400.25
517.237	8397.53
517.604	8419
517.972	8431.88
518.339	8423.75
518.706	8533.12
519.073	8511.2
519.44	8545.1
519.808	8621.48
520.175	8602.73
520.542	8718.43
520.909	8724.76
521.276	8681.59
521.643	8785.09
522.009	8775.6
522.376	8854.7
522.743	8909.61
523.11	8910.06
523.477	8953.45
523.843	9020.79
524.21	9092.2
524.577	9082.94
524.943	9202.48
525.31	9178.53
525.676	9247.68
526.043	9276.61
526.409	9302.82
526.776	9413.33
527.142	9367.23
527.508	9477.51
527.874	9473.44
528.241	9464.85
528.607	9530.39
528.973	9625.3
529.339	9574.23
529.705	9698.52
530.071	9773.54
530.437	9737.61
530.803	9830.49
531.169	9882.47
531.535	9871.62
531.901	9857.83
532.267	9995.68
532.632	9990.49
532.998	10138.5
533.364	10115.91
533.73	10112.52
534.095	10125.4
534.461	10205.4
534.826	10251.27
535.192	10254.43
535.557	10300.08
535.923	10297.14
536.288	10394.77
536.653	10355.45
537.019	10327.88
537.384	10317.93
537.749	10513.18
538.114	10524.48
538.479	10447.42
538.845	10522.68
539.21	10501.88
539.575	10605.61
539.94	10586.18
540.305	10582.11
540.67	10676.8
541.034	10705.72
541.399	10704.82
541.764	10752.73
542.129	10823.23
542.494	10787.53
542.858	10894.19
543.223	10870.46
543.587	10994.3
543.952	10850.12
544.316	10875.43
544.681	10952.72
545.045	10988.2
545.41	10932.61
545.774	11017.13
546.138	11019.84
546.503	11114.98
546.867	11071.36
547.231	11176.67
547.595	11148.2
547.959	11244.24
548.324	11233.39
548.688	11250.11
549.052	11310.23
549.416	11297.57
549.779	11329.89
550.143	11315.42
550.507	11372.37
550.871	11427.96
551.235	11364.91
551.599	11522.2
551.962	11508.19
552.326	11540.95
552.689	11588.41
553.053	11516.77
553.417	11637.45
553.78	11743.66
554.143	11616.43
554.507	11722.87
554.87	11790.89
555.234	11841.96
555.597	11763.55
555.96	11865.69
556.323	11879.25
556.686	11848.06
557.05	11946.82
557.413	12035.86
557.776	11905.92
558.139	12106.59
558.502	12060.04
558.865	12143.88
559.228	12139.58
559.59	12080.83
559.953	12159.92
560.316	12297.77
560.679	12451.89
561.041	12406.92
561.404	12401.72
561.767	12456.86
562.129	12423.42
562.492	12507.71
562.854	12512.45
563.217	12560.14
563.579	12627.03
563.941	12693.24
564.304	12686.46
564.666	12798.32
565.028	12761.94
565.39	12846.91
565.753	12895.04
566.115	12952.22
566.477	12912.89
566.839	13028.15
567.201	13016.17
567.563	13120.57
567.925	13197.63
568.287	13119.67
568.648	13128.26
569.01	13300.68
569.372	13287.8
569.734	13283.73
570.095	13403.73
570.457	13387.01
570.819	13464.07
571.18	13518.08
571.542	13509.26
571.903	13615.02
572.265	13674.91
572.626	13697.28
572.987	13656.15
573.349	13713.1
573.71	13803.04
574.071	13859.08
574.432	13899.76
574.794	13998.06
575.155	13925.3
575.516	13903.6
575.877	14027.67
576.238	14022.7
576.599	14078.74
576.96	14122.13
577.32	14095.91
577.681	14137.5
578.042	14171.39
578.403	14227.21
578.763	14276.7
579.124	14142.92
579.485	14295.01
579.845	14470.14
580.206	14349.92
580.566	14385.17
580.927	14354.89
581.287	14421.56
581.648	14433.98
582.008	14489.58
582.368	14511.27
582.728	14450.48
583.089	14478.5
583.449	14481.67
583.809	14534.1
584.169	14589.24
584.529	14525.51
584.889	14598.05
585.249	14475.57
585.609	14551.5
585.969	14589.46
586.329	14540.87
586.688	14521.21
587.048	14628.33
587.408	14583.59
587.768	14594.43
588.127	14551.95
588.487	14554.89
588.846	14739.06
589.206	14666.52
589.565	14693.41
589.925	14696.58
590.284	14692.28
590.643	14671.04
591.003	14752.39
591.362	14740.19
591.721	14674.88
592.08	14699.29
592.44	14741.77
592.799	14876.69
593.158	14730.7
593.517	14805.27
593.876	14798.72
594.235	14748.78
594.593	14744.94
594.952	14834.88
595.311	14665.62
595.67	14803.24
596.029	14883.24
596.387	14919.62
596.746	14898.15
597.104	14863.13
597.463	14744.26
597.822	14843.47
598.18	14796.46
598.538	14781.32
598.897	14918.27
599.255	14752.17
599.613	14980.64
599.972	14902
600.33	14939.06
600.688	14744.71
601.046	14951.71
601.404	14935.44
601.762	14875.33
602.12	15066.74
602.478	14981.99
602.836	15051.37
603.194	14937.47
603.552	14925.72
603.91	14896.35
604.268	14994.42
604.625	14966.85
604.983	14998.72
605.341	14978.6
605.698	15120.07
606.056	15113.52
606.413	15076.23
606.771	15158.26
607.128	15176.11
607.485	15101.54
607.843	15126.4
608.2	15192.16
608.557	15311.7
608.914	15202.78
609.272	15266.96
609.629	15304.92
609.986	15257.69
610.343	15273.28
610.7	15327.29
611.057	15307.63
611.414	15349.89
611.771	15370.01
612.127	15420.17
612.484	15339.27
612.841	15456.1
613.198	15429.66
613.554	15366.84
613.911	15468.99
614.267	15459.04
614.624	15524.35
614.98	15424.47
615.337	15578.81
615.693	15525.71
616.05	15548.31
616.406	15637.12
616.762	15527.29
617.118	15548.31
617.475	15626.27
617.831	15628.76
618.187	15676.89
618.543	15632.37
618.899	15840.28
619.255	15762.09
619.611	15765.25
619.967	15830.11
620.323	15759.37
620.678	15828.52
621.034	15746.49
621.39	15721.18
621.746	15723.22
622.101	15858.13
622.457	15799.15
622.812	15832.14
623.168	15911.91
623.523	15928.63
623.879	15947.17
624.234	15771.8
624.589	15848.41
624.945	15927.28
625.3	16013.6
625.655	16014.28
626.01	16021.06
626.365	15989.88
626.72	16036.65
627.075	15941.97
627.43	15965.7
627.785	15911.69
628.14	16085.01
628.495	16014.51
628.85	16037.11
629.205	15968.18
629.559	16090.44
629.914	16054.28
630.269	15986.26
630.623	16052.02
630.978	15980.61
631.332	16056.32
631.687	16082.98
632.041	16106.26
632.396	16199.14
632.75	16009.54
633.104	16061.06
633.459	16033.94
633.813	16084.79
634.167	16091.57
634.521	16163.43
634.875	16133.38
635.229	15986.26
635.583	16093.83
635.937	16049.08
636.291	16093.15
636.645	16120.49
636.999	16137.22
637.352	16199.81
637.706	16019.03
638.06	16151.91
638.413	16109.87
638.767	16092.25
639.121	16185.35
639.474	16074.39
639.828	16090.44
640.181	16158.23
640.534	16138.57
640.888	16055.19
641.241	16046.37
641.594	16150.78
641.947	16143.54
642.301	16035.07
642.654	16222.19
643.007	16221.96
643.36	16184.9
643.713	16159.82
644.066	16307.16
644.419	16178.57
644.771	16061.51
645.124	15930.89
645.477	15973.15
645.83	15823.55
646.182	15772.71
646.535	15734.74
646.888	15878.47
647.24	15829.88
647.593	15936.77
647.945	15889.77
648.298	15924.12
648.65	15811.58
649.002	15756.66
649.355	15756.44
649.707	15849.31
650.059	15886.6
650.411	16142.41
650.763	16221.73
651.115	16405.23
651.467	16297.89
651.819	16292.69
652.171	16358.45
652.523	16363.65
652.875	16410.2
653.227	16376.76
653.578	16369.98
653.93	16401.39
654.282	16386.25
654.633	16330.66
654.985	16350.54
655.337	16378.34
655.688	16427.6
656.039	16473.03
656.391	16387.83
656.742	16441.84
657.094	16398.23
657.445	16532.23
657.796	16468.51
658.147	16494.04
658.498	16496.76
658.849	16484.33
659.2	16427.15
659.551	16481.39
659.902	16515.51
660.253	16540.82
660.604	16498.56
660.955	16478.9
661.306	16612.91
661.656	16548.05
662.007	16502.18
662.358	16516.19
662.708	16511.9
663.059	16515.51
663.409	16415.63
663.76	16518.45
664.11	16502.63
664.461	16557.09
664.811	16503.76
665.161	16559.8
665.511	16507.15
665.862	16578.56
666.212	16631.22
666.562	16668.05
666.912	16460.6
667.262	16524.78
667.612	16473.71
667.962	16480.26
668.312	16461.05
668.662	16599.35
669.011	16501.5
669.361	16445.01
669.711	16470.32
670.06	16433.93
670.41	16416.76
670.76	16330.66
671.109	16400.26
671.459	16403.88
671.808	16274.16
672.157	16423.99
672.507	16261.96
672.856	16368.17
673.205	16228.06
673.554	16307.61
673.904	16228.29
674.253	16257.21
674.602	16123.88
674.951	15983.55
675.3	15829.65
675.649	16063.09
675.998	16129.31
676.346	16094.51
676.695	16081.85
677.044	15966.83
677.393	15997.11
677.741	15996.2
678.09	15954.62
678.438	15979.25
678.787	15897.22
679.135	15894.51
679.484	15801.18
679.832	15814.97
680.181	15680.96
680.529	15710.34
680.877	15692.93
681.225	15616.78
681.573	15780.16
681.922	15595.76
682.27	15586.72
682.618	15589.43
682.966	15513.73
683.314	15541.07
683.661	15486.39
684.009	15399.84
684.357	15401.87
684.705	15411.36
685.053	15407.74
685.4	15330.46
685.748	15235.77
686.095	15283.45
686.443	15192.38
686.79	15127.75
687.138	15189.67
687.485	15179.28
687.832	15104.02
688.18	15167.98
688.527	15075.32
688.874	15053.63
689.221	15032.61
689.568	15048.21
689.915	15071.48
690.262	14941.54
690.609	14978.38
690.956	14925.27
691.303	14915.78
691.65	14858.83
691.997	14875.56
692.344	14751.26
692.69	14834.65
693.037	14885.95
693.383	14705.39
693.73	14726.86
694.077	14774.09
694.423	14607.54
694.769	14675.11
695.116	14596.24
695.462	14575.68
695.808	14549.24
696.155	14570.48
696.501	14562.57
696.847	14577.48
697.193	14510.37
697.539	14518.73
697.885	14434.21
698.231	14375.91
698.577	14387.66
698.923	14367.55
699.269	14353.76
699.614	14298.85
699.96	14209.36
700.306	14342.91
700.651	14286.19
700.997	14138.63
701.342	14189.25
701.688	14210.94
702.033	14111.51
702.379	14104.73
702.724	14143.6
703.069	14206.87
703.415	14075.8
703.76	14042.58
704.105	14013.66
704.45	14092.98
704.795	13914.22
705.14	13927.33
705.485	14108.12
705.83	13920.78
706.175	13914.22
706.52	13965.07
706.865	13905.64
707.209	13849.82
707.554	13846.43
707.899	13810.27
708.243	13838.29
708.588	13837.62
708.932	13755.58
709.277	13691.18
709.621	13774.12
709.966	13718.98
710.31	13766.43
710.654	13664.29
710.998	13714
711.342	13694.34
711.687	13626.1
712.031	13650.73
712.375	13583.39
712.719	13650.28
713.063	13621.58
713.407	13607.11
713.75	13640.79
714.094	13637.4
714.438	13505.42
714.782	13551.97
715.125	13548.36
715.469	13479.43
715.812	13493.67
716.156	13421.81
716.499	13435.59
716.843	13542.03
717.186	13392.88
717.53	13593.78
717.873	13556.49
718.216	13483.05
718.559	13477.63
718.902	13355.37
719.246	13363.05
719.589	13406.67
719.932	13358.98
720.275	13378.87
720.617	13322.38
720.96	13311.53
721.303	13271.08
721.646	13309.95
721.989	13296.84
722.331	13384.75
722.674	13318.99
723.016	13315.14
723.359	13321.7
723.701	13282.83
724.044	13187.92
724.386	13285.09
724.729	13282.83
725.071	13158.99
725.413	13194.24
725.755	13157.41
726.097	13196.96
726.439	13102.04
726.782	13148.37
727.124	13350.62
727.465	13122.83
727.807	13134.58
728.149	13139.33
728.491	13176.62
728.833	13133
729.175	13081.03
729.516	13105.43
729.858	13113.12
730.199	13135.04
730.541	13099.56
730.882	13120.35
731.224	13202.38
731.565	13099.1
731.906	13075.83
732.248	13191.98
732.589	13070.4
732.93	13036.06
733.271	13133.91
733.612	13101.59
733.953	13106.56
734.294	13093.91
734.635	13115.15
734.976	13190.63
735.317	13162.38
735.658	13116.73
735.999	13182.49
736.339	13119.44
736.68	13243.51
737.021	13132.55
737.361	13135.49
737.702	13247.35
738.042	13230.85
738.383	13215.49
738.723	13355.6
739.063	13228.59
739.404	13311.98
739.744	13340.68
740.084	13297.52
740.424	13377.74
740.764	13443.95
741.104	13411.64
741.444	13442.37
741.784	13367.57
742.124	13380
742.464	13425.2
742.804	13399.21
743.143	13415.03
743.483	13481.24
743.823	13469.04
744.162	13528.02
744.502	13547.45
744.841	13540.22
745.181	13588.13
745.52	13546.1
745.86	13607.34
746.199	13643.27
746.538	13592.88
746.877	13704.29
747.216	13719.88
747.556	13682.14
747.895	13730.95
748.234	13764.85
748.573	13649.6
748.911	13824.28
749.25	13843.72
749.589	13759.65
749.928	13812.08
750.267	13864.06
750.605	13849.82
750.944	13869.03
751.283	13773.44
751.621	13908.8
751.96	13832.64
752.298	13871.51
752.636	13951.29
752.975	13942.25
753.313	13983.6
753.651	14040.77
753.989	14049.59
754.327	13980.44
754.666	14073.99
755.004	14126.87
755.342	14078.29
755.679	14149.47
756.017	14095.01
756.355	14174.33
756.693	14131.39
757.031	14195.57
757.368	14147.89
757.706	14304.27
758.044	14297.27
758.381	14266.76
758.719	14211.84
759.056	14266.98
759.394	14312.63
759.731	14303.37
760.068	14279.86
760.405	14237.61
760.743	14275.34
761.08	14361.67
761.417	14380.88
761.754	14352.18
762.091	14433.31
762.428	14357.15
762.765	14349.24
763.102	14439.86
763.438	14411.16
763.775	14327.1
764.112	14333.2
764.449	14359.64
764.785	14453.19
765.122	14349.24
765.458	14375.23
765.795	14402.35
766.131	14413.42
766.467	14402.35
766.804	14423.36
767.14	14389.01
767.476	14369.13
767.812	14371.16
768.148	14443.48
768.485	14327.77
768.821	14383.36
769.157	14359.86
769.492	14391.27
769.828	14299.53
770.164	14264.72
770.5	14307.66
770.836	14349.24
771.171	14293.88
771.507	14296.59
771.842	14215.69
772.178	14372.07
772.513	14288.23
772.849	14237.15
773.184	14320.32
773.519	14320.09
773.855	14314.67
774.19	14245.29
774.525	14213.43
774.86	14211.84
775.195	14243.93
775.53	14257.04
775.865	14202.8
776.2	14029.48
776.535	14107.67
776.87	14090.72
777.205	14044.62
777.539	14091.17
777.874	14124.84
778.209	13977.5
778.543	13995.35
778.878	14027.89
779.212	14070.83
779.547	13996.93
779.881	14134.11
780.215	13962.36
780.55	13991.74
780.884	13948.8
781.218	13963.71
781.552	13979.31
781.886	13842.81
782.22	13924.85
782.554	13870.84
782.888	13755.81
783.222	13793.55
783.556	13788.8
783.889	13759.43
784.223	13693.67
784.557	13767.56
784.89	13767.11
785.224	13745.42
785.557	13680.33
785.891	13657.96
786.224	13603.05
786.558	13712.87
786.891	13569.6
787.224	13599.66
787.557	13609.15
787.891	13551.52
788.224	13581.58
788.557	13535.48
788.89	13494.12
789.223	13620.22
789.556	13494.8
789.888	13531.41
790.221	13467.46
790.554	13377.06
790.887	13452.54
791.219	13433.33
791.552	13426.1
791.884	13371.41
792.217	13326.22
792.549	13290.74
792.882	13165.77
793.214	13209.84
793.546	13271.53
793.879	13237.63
794.211	13194.02
794.543	13187.69
794.875	13125.32
795.207	13185.66
795.539	13149.5
795.871	13159.44
796.203	13135.49
796.535	13040.8
796.867	13045.09
797.198	13031.31
797.53	13058.2
797.862	12986.11
798.193	12922.39
798.525	12964.87
798.856	12913.8
799.188	12798.1
799.519	12830.86
799.85	12795.38
800.182	12990.41
800.513	12855.95
800.844	12764.2
801.175	12828.6
801.506	12776.63
801.837	12774.59
802.168	12748.83
802.499	12672.9
802.83	12643.07
803.161	12672.9
803.491	12682.62
803.822	12664.77
804.153	12584.54
804.483	12437.43
804.814	12527.82
805.145	12486.69
805.475	12505.9
805.805	12511.1
806.136	12505.45
806.466	12574.15
806.796	12487.14
807.126	12320.59
807.457	12481.72
807.787	12362.85
808.117	12234.72
808.447	12361.72
808.777	12293.7
809.107	12303.87
809.436	12327.6
809.766	12257.54
810.096	12264.1
810.426	12193.14
810.755	12246.25
811.085	12198.11
811.414	12169.86
811.744	12105.68
812.073	12087.83
812.403	12091.67
812.732	12047.83
813.061	12091.45
813.39	12012.13
813.719	12027.27
814.049	12076.53
814.378	11958.12
814.707	11873.83
815.036	12034.5
815.365	11915.18
815.693	11789.31
816.022	11825.69
816.351	11799.93
816.68	11724.68
817.008	11840.61
817.337	11755.64
817.665	11697.56
817.994	11709.54
818.322	11644.91
818.651	11672.7
818.979	11657.56
819.307	11681.51
819.636	11686.49
819.964	11634.51
820.292	11728.07
820.62	11626.83
820.948	11607.17
821.276	11606.04
821.604	11598.58
821.932	11618.47
822.259	11608.75
822.587	11684.23
822.915	11607.84
823.243	11667.05
823.57	11625.92
823.898	11644
824.225	11625.92
824.553	11731.68
824.88	11636.77
825.207	11714.96
825.535	11677.45
825.862	11677.45
826.189	11679.26
826.516	11700.5
826.843	11753.15
827.17	11777.78
827.497	11758.35
827.824	11780.95
828.151	11761.74
828.478	11693.72
828.805	11813.26
829.131	11719.03
829.458	11715.41
829.785	11625.25
830.111	11720.61
830.438	11782.3
830.764	11822.08
831.09	11778.69
831.417	11672.02
831.743	11758.8
832.069	11754.73
832.395	11745.69
832.722	11718.58
833.048	11665.24
833.374	11728.07
833.7	11702.76
834.026	11724.68
834.351	11733.49
834.677	11723.1
835.003	11655.98
835.329	11682.64
835.654	11649.88
835.98	11629.76
836.306	11720.16
836.631	11691.91
836.956	11673.83
837.282	11700.27
837.607	11597.9
837.932	11607.17
838.258	11588.18
838.583	11545.93
838.908	11562.65
839.233	11531.01
839.558	11513.84
839.883	11541.41
840.208	11461.41
840.533	11440.62
840.858	11498.47
841.182	11504.57
841.507	11445.59
841.832	11408.98
842.156	11374.18
842.481	11382.09
842.805	11353.39
843.13	11310
843.454	11360.17
843.778	11308.19
844.103	11324.24
844.427	11272.94
844.751	11273.39
845.075	11202.21
845.399	11131.92
845.723	11121.98
846.047	11213.05
846.371	11134.86
846.695	11145.03
847.019	10998.14
847.343	10971.93
847.666	10914.98
847.99	10921.31
848.313	10858.26
848.637	10845.38
848.96	10807.87
849.284	10744.82
849.607	10771.93
849.931	10740.07
850.254	10615.33
850.577	10601.54
850.9	10469.34
851.223	10465.95
851.546	10431.83
851.869	10349.12
852.192	10448.1
852.515	10330.59
852.838	10370.36
853.161	10397.48
853.483	10286.98
853.806	10255.56
854.129	10159.52
854.451	10146.41
854.774	10140.31
855.096	10074.78
855.419	10030.26
855.741	10026.42
856.063	9926.08
856.385	9952.75
856.708	9874.78
857.03	9890.38
857.352	9951.62
857.674	9849.7
857.996	9806.31
858.318	9812.41
858.64	9780.77
858.961	9798.63
859.283	9741.45
859.605	9659.42
859.926	9751.17
860.248	9647.67
860.57	9692.64
860.891	9672.53
861.212	9648.8
861.534	9561.8
861.855	9512.98
862.176	9505.53
862.498	9540.55
862.819	9577.16
863.14	9491.29
863.461	9487.9
863.782	9533.55
864.103	9484.51
864.424	9495.13
864.745	9478.86
865.065	9463.72
865.386	9428.47
865.707	9392.99
866.027	9381.46
866.348	9388.24
866.668	9359.99
866.989	9364.74
867.309	9251.52
867.63	9310.73
867.95	9241.81
868.27	9247
868.59	9253.33
868.91	9225.08
869.23	9244.97
869.55	9216.49
869.87	9222.82
870.19	9229.83
870.51	9250.17
870.83	9135.37
871.15	9143.28
871.469	9146.89
871.789	9175.37
872.109	9139.21
872.428	9085.65
872.748	9071.41
873.067	9084.52
873.386	9110.74
873.706	9055.14
874.025	9044.75
874.344	8958.65
874.663	8990.96
874.982	9029.38
875.301	8970.17
875.62	8929.04
875.939	8853.11
876.258	8967.24
876.577	8939.67
876.896	8918.65
877.214	8929.27
877.533	8889.5
877.852	8895.83
878.17	8926.56
878.489	8913.9
878.807	8866.45
879.125	8803.4
879.444	8828.03
879.762	8784.87
880.08	8874.36
880.398	8770.18
880.716	8764.53
881.034	8751.87
881.352	8745.77
881.67	8736.96
881.988	8691.76
882.306	8683.85
882.624	8667.36
882.941	8621.71
883.259	8602.5
883.577	8592.56
883.894	8664.19
884.212	8594.14
884.529	8572.9
884.846	8589.84
885.164	8514.59
885.481	8452.67
885.798	8476.63
886.115	8385.1
886.432	8424.65
886.75	8460.58
887.067	8416.06
887.383	8434.59
887.7	8467.14
888.017	8345.11
888.334	8291.32
888.651	8341.49
888.967	8378.55
889.284	8252.9
889.6	8217.65
889.917	8214.94
890.233	8214.04
890.55	8238.67
890.866	8175.62
891.182	8090.42
891.498	8160.48
891.815	8108.95
892.131	8071.67
892.447	8076.64
892.763	8050.65
893.079	8037.99
893.395	8012.46
893.71	7925
894.026	7896.98
894.342	7944.21
894.657	7859.47
894.973	7832.58
895.289	7822.18
895.604	7803.65
895.92	7804.1
896.235	7716.87
896.55	7766.59
896.865	7772.92
897.181	7696.53
897.496	7701.73
897.811	7663.54
898.126	7639.36
898.441	7570.44
898.756	7611.34
899.071	7530.44
899.386	7514.62
899.7	7488.18
900.015	7462.19
900.33	7426.71
900.644	7418.58
900.959	7400.05
901.273	7353.95
901.588	7298.35
901.902	7285.02
902.216	7285.7
902.531	7318.92
902.845	7233.27
903.159	7174.06
903.473	7149.66
903.787	7102.65
904.101	7080.96
904.415	7057.68
904.729	7092.26
905.042	7022.88
905.356	7022.43
905.67	7002.99
905.984	6984.24
906.297	6976.33
906.611	6919.38
906.924	6869.89
907.237	6888.19
907.551	6889.32
907.864	6848.87
908.177	6847.29
908.491	6811.59
908.804	6754.86
909.117	6716.67
909.43	6732.27
909.743	6706.05
910.056	6633.06
910.368	6579.5
910.681	6587.41
910.994	6581.99
911.307	6556.9
911.619	6475.78
911.932	6462.44
912.244	6455.44
912.557	6477.36
912.869	6437.58
913.181	6426.96
913.494	6402.11
913.806	6317.59
914.118	6353.29
914.43	6280.75
914.742	6279.4
915.054	6171.38
915.366	6205.95
915.678	6184.71
915.99	6146.75
916.302	6112.62
916.613	6121.89
916.925	6093.87
917.236	6146.29
917.548	6044.83
917.859	6055
918.171	5973.19
918.482	5953.3
918.794	5922.34
919.105	5941.33
919.416	5879.86
919.727	5929.35
920.038	5843.48
920.349	5839.63
920.66	5837.83
920.971	5798.73
921.282	5812.97
921.593	5759.64
921.903	5695.46
922.214	5680.09
922.525	5674.67
922.835	5615.91
923.146	5562.58
923.456	5587.66
923.767	5528.46
924.077	5587.44
924.387	5596.93
924.697	5516.25
925.008	5456.59
925.318	5497.95
925.628	5445.52
925.938	5493.43
926.248	5371.85
926.558	5379.53
926.867	5352.87
927.177	5378.4
927.487	5320.78
927.796	5263.6
928.106	5265.86
928.416	5259.08
928.725	5290.04
929.034	5174.57
929.344	5233.32
929.653	5113.1
929.962	5162.82
930.271	5149.03
930.581	5090.28
930.89	5067.45
931.199	5046.44
931.508	5057.06
931.817	5055.47
932.125	5050.28
932.434	4993.1
932.743	4940.22
933.051	4950.39
933.36	4860.9
933.669	4856.84
933.977	4889.6
934.286	4864.52
934.594	4849.83
934.902	4778.65
935.21	4780.23
935.519	4787.91
935.827	4740.23
936.135	4713.56
936.443	4692.09
936.751	4622.27
937.059	4704.75
937.367	4631.98
937.674	4663.85
937.982	4640.8
938.29	4605.32
938.597	4586.79
938.905	4541.14
939.213	4516.28
939.52	4485.77
939.827	4526.45
940.135	4489.61
940.442	4436.28
940.749	4433.12
941.056	4374.59
941.363	4387.02
941.67	4417.75
941.977	4329.62
942.284	4335.72
942.591	4346.57
942.898	4306.12
943.205	4299.11
943.511	4268.38
943.818	4280.35
944.125	4241.71
944.431	4249.85
944.738	4228.38
945.044	4188.38
945.35	4204.88
945.657	4195.38
945.963	4135.5
946.269	4071.09
946.575	4130.75
946.881	4112
947.187	4086.91
947.493	4054.82
947.799	4054.82
948.105	4000.36
948.41	3973.69
948.716	4017.31
949.022	3975.73
949.327	4017.31
949.633	3932.57
949.938	3895.05
950.244	3901.83
950.549	3852.57
950.854	3891.89
951.16	3845.79
951.465	3842.17
951.77	3849.4
952.075	3792.23
952.38	3780.25
952.685	3770.31
952.99	3779.35
953.294	3751.78
953.599	3760.82
953.904	3719.69
954.209	3676.75
954.513	3677.43
954.818	3658.9
955.122	3658.9
955.426	3628.39
955.731	3612.35
956.035	3617.77
956.339	3611.44
956.643	3593.82
956.948	3580.71
957.252	3592.69
957.556	3554.72
957.86	3526.7
958.163	3525.35
958.467	3477.44
958.771	3492.13
959.075	3447.16
959.378	3427.27
959.682	3486.7
959.985	3415.07
960.289	3378.91
960.592	3373.94
960.896	3345.46
961.199	3378.23
961.502	3359.25
961.805	3307.72
962.108	3288.74
962.411	3290.32
962.714	3292.13
963.017	3306.37
963.32	3285.8
963.623	3209.42
963.926	3278.8
964.228	3214.62
964.531	3217.33
964.833	3218.91
965.136	3150.67
965.438	3163.09
965.741	3161.06
966.043	3114.51
966.345	3149.31
966.648	3086.49
966.95	3107.73
967.252	3107.96
967.554	3078.35
967.856	3058.69
968.158	3046.04
968.46	3015.75
968.761	2979.82
969.063	2988.64
969.365	2995.42
969.666	2950.9
969.968	2979.37
970.269	2966.72
970.571	2926.49
970.872	2982.31
971.174	2952.03
971.475	2881.52
971.776	2865.7
972.077	2874.51
972.378	2860.05
972.679	2884.01
972.98	2876.55
973.281	2814.86
973.582	2808.53
973.883	2843.1
974.183	2826.61
974.484	2789.32
974.785	2753.39
975.085	2783.44
975.386	2781.64
975.686	2717.23
975.986	2743.9
976.287	2711.81
976.587	2714.75
976.887	2701.64
977.187	2705.93
977.487	2685.82
977.787	2677.23
978.087	2669.1
978.387	2632.71
978.687	2600.4
978.987	2627.52
979.286	2604.01
979.586	2613.5
979.885	2564.92
980.185	2556.78
980.484	2552.72
980.784	2527.86
981.083	2536.67
981.382	2553.85
981.682	2552.94
981.981	2537.35
982.28	2483.56
982.579	2455.77
982.878	2474.75
983.177	2431.36
983.475	2481.08
983.774	2434.3
984.073	2446.05
984.372	2390.01
984.67	2418.26
984.969	2387.52
985.267	2349.78
985.566	2388.2
985.864	2348.2
986.162	2357.01
986.461	2354.08
986.759	2342.78
987.057	2307.52
987.355	2307.75
987.653	2308.88
987.951	2306.17
988.249	2311.14
988.547	2267.3
988.844	2254.19
989.142	2273.4
989.44	2238.83
989.737	2242.89
990.035	2245.38
990.332	2225.72
990.63	2212.61
990.927	2201.76
991.224	2218.94
991.521	2165.15
991.819	2150.01
992.116	2140.3
992.413	2154.08
992.71	2126.51
993.006	2103.69
993.303	2130.13
993.6	2100.07
993.897	2107.3
994.193	2072.73
994.49	2070.47
994.787	2068.89
995.083	2057.36
995.379	2044.71
995.676	2076.12
995.972	2005.84
996.268	2019.85
996.565	2027.08
996.861	2011.26
997.157	1987.31
997.453	1997.48
997.749	2007.19
998.044	1943.01
998.34	1928.78
998.636	1945.73
998.932	1928.33
999.227	1925.39
999.523	1914.09
999.818	1925.39
1000.114	1893.07
1000.409	1893.3
1000.704	1869.8
1001	1873.19
1001.295	1871.6
1001.59	1858.95
1001.885	1835.45
1002.18	1863.47
1002.475	1837.25
1002.77	1779.4
1003.065	1777.82
1003.359	1799.74
1003.654	1772.62
1003.949	1773.75
1004.243	1799.29
1004.538	1734.66
1004.832	1751.83
1005.127	1775.33
1005.421	1738.05
1005.715	1724.94
1006.009	1686.3
1006.304	1688.78
1006.598	1695.11
1006.892	1683.59
1007.186	1708.44
1007.48	1675.9
1007.773	1653.76
1008.067	1661.44
1008.361	1664.38
1008.655	1598.16
1008.948	1594.1
1009.242	1590.03
1009.535	1596.13
1009.829	1592.29
1010.122	1570.14
1010.415	1600.88
1010.708	1567.43
1011.001	1542.57
1011.295	1542.8
1011.588	1519.52
1011.881	1526.08
1012.173	1501.22
1012.466	1535.34
1012.759	1501.9
1013.052	1520.88
1013.344	1467.09
1013.637	1495.34
1013.93	1482.69
1014.222	1455.34
1014.514	1465.74
1014.807	1441.11
1015.099	1478.85
1015.391	1437.26
1015.683	1434.33
1015.976	1428.45
1016.268	1430.48
1016.56	1382.12
1016.851	1405.4
1017.143	1401.56
1017.435	1364.05
1017.727	1361.11
1018.018	1354.55
1018.31	1348.45
1018.602	1355.46
1018.893	1347.32
1019.185	1332.18
1019.476	1297.38
1019.767	1314.33
1020.058	1305.52
1020.35	1291.96
1020.641	1298.51
1020.932	1266.2
1021.223	1281.79
1021.514	1250.15
1021.804	1265.52
1022.095	1247.89
1022.386	1267.55
1022.677	1220.77
1022.967	1231.39
1023.258	1208.57
1023.548	1223.48
1023.839	1204.95
1024.129	1205.86
1024.419	1183.26
1024.709	1169.93
1025	1175.8
1025.29	1158.4
1025.58	1157.5
1025.87	1141.91
1026.16	1171.51
1026.449	1134
1026.739	1136.26
1027.029	1102.81
1027.319	1139.42
1027.608	1115.69
1027.898	1098.29
1028.187	1091.74
1028.477	1077.95
1028.766	1094
1029.055	1077.95
1029.344	1078.18
1029.634	1061.91
1029.923	1063.94
1030.212	1045.18
1030.501	1023.26
1030.79	1033.66
1031.078	1019.42
1031.367	1013.55
1031.656	1019.2
1031.945	990.5
1032.233	990.72
1032.522	1003.38
1032.81	973.1
1033.099	987.78
1033.387	962.7
1033.675	958.18
1033.963	969.71
1034.251	978.52
1034.54	979.65
1034.828	965.64
1035.116	937.62
1035.403	948.46
1035.691	918.18
1035.979	922.48
1036.267	917.5
1036.554	896.26
1036.842	921.35
1037.129	910.72
1037.417	907.11
1037.704	900.56
1037.992	894.91
1038.279	894.45
1038.566	871.63
1038.853	871.63
1039.14	871.63
