Data from blue_surface_keyboard_FLMS001491_003.txt Node
Date: Tue Feb 07 11:12:32 GMT 2017
User: dcchb
Spectrometer: FLMS00149
Trigger mode: 0
Integration Time (sec): 2.000000E-2
Scans to average: 10
Electric dark correction enabled: true
Nonlinearity correction enabled: false
Boxcar width: 0
XAxis mode: Wavelengths
Number of Pixels in Spectrum: 2048
>>>>>Begin Spectral Data<<<<<
341.393	-32.44
341.776	-32.44
342.16	-32.44
342.543	-64.31
342.927	-65.44
343.31	-50.3
343.693	-70.63
344.077	-82.84
344.46	-60.69
344.843	-54.14
345.226	-22.73
345.61	-36.74
345.993	-32.44
346.376	-16.62
346.759	11.4
347.142	15.69
347.525	65.18
347.908	65.41
348.291	73.77
348.674	82.58
349.057	113.09
349.44	137.27
349.823	155.58
350.206	152.64
350.588	176.37
350.971	172.52
351.354	193.09
351.737	226.76
352.119	218.4
352.502	246.19
352.884	248.68
353.267	256.59
353.65	259.53
354.032	288
354.414	290.26
354.797	282.8
355.179	304.05
355.562	312.63
355.944	313.76
356.326	293.65
356.709	307.21
357.091	298.62
357.473	305.85
357.855	328.45
358.238	299.53
358.62	306.31
359.002	328.45
359.384	333.88
359.766	297.72
360.148	307.21
360.53	321.22
360.912	304.5
361.294	311.28
361.676	309.02
362.057	313.54
362.439	297.04
362.821	304.5
363.203	309.92
363.584	300.43
363.966	281
364.348	309.02
364.729	287.55
365.111	274.89
365.493	291.84
365.874	276.25
366.256	304.72
366.637	292.52
367.019	292.97
367.4	263.14
367.781	299.3
368.163	272.18
368.544	283.93
368.925	283.03
369.306	286.19
369.688	273.09
370.069	288
370.45	299.3
370.831	289.13
371.212	276.7
371.593	303.37
371.974	298.17
372.355	283.03
372.736	281.67
373.117	294.55
373.498	288.68
373.879	278.96
374.26	292.52
374.641	296.59
375.021	274.22
375.402	306.08
375.783	276.7
376.163	276.7
376.544	270.83
376.925	277.61
377.305	294.33
377.686	265.4
378.066	264.95
378.447	290.71
378.827	286.65
379.208	296.81
379.588	297.49
379.968	287.1
380.349	288.9
380.729	280.77
381.109	305.18
381.489	283.93
381.87	292.29
382.25	293.42
382.63	294.1
383.01	295.46
383.39	296.81
383.77	314.21
384.15	297.49
384.53	317.6
384.91	306.08
385.29	304.27
385.67	308.79
386.049	264.05
386.429	286.19
386.809	325.51
387.189	320.09
387.568	304.5
387.948	299.3
388.328	313.76
388.707	294.55
389.087	308.34
389.466	303.37
389.846	327.32
390.225	316.25
390.605	335.01
390.984	315.34
391.363	312.86
391.743	324.38
392.122	311.28
392.501	325.29
392.881	330.94
393.26	330.94
393.639	314.21
394.018	304.5
394.397	330.49
394.776	325.97
395.155	335.46
395.534	333.65
395.913	282.8
396.292	318.73
396.671	326.42
397.05	338.17
397.429	343.14
397.808	320.09
398.186	326.64
398.565	322.12
398.944	338.17
399.323	341.11
399.701	337.94
400.08	337.04
400.458	344.04
400.837	337.94
401.215	341.56
401.594	323.03
401.972	348.79
402.351	344.72
402.729	345.85
403.107	335.91
403.486	347.43
403.864	341.33
404.242	312.63
404.62	345.4
404.999	353.08
405.377	338.85
405.755	353.99
406.133	358.06
406.511	358.73
406.889	383.59
407.267	337.27
407.645	346.76
408.023	353.08
408.401	363.25
408.779	336.14
409.156	371.16
409.534	348.56
409.912	337.49
410.29	372.97
410.667	377.04
411.045	366.42
411.422	387.66
411.8	375.68
412.178	368.9
412.555	375.91
412.933	381.78
413.31	390.6
413.687	377.94
414.065	367.09
414.442	372.07
414.819	374.78
415.197	379.07
415.574	398.28
415.951	391.28
416.328	403.93
416.705	378.17
417.082	374.1
417.46	401.9
417.837	401.22
418.214	398.28
418.591	395.57
418.967	393.31
419.344	386.98
419.721	389.02
420.098	380.2
420.475	384.04
420.852	380.2
421.228	409.35
421.605	411.84
421.982	412.07
422.358	413.87
422.735	392.86
423.111	412.74
423.488	399.41
423.864	400.54
424.241	418.39
424.617	418.62
424.994	413.42
425.37	426.75
425.746	394.44
426.123	385.63
426.499	422.91
426.875	411.84
427.251	415.68
427.627	419.07
428.003	435.57
428.379	435.79
428.756	433.31
429.132	436.47
429.507	442.8
429.883	432.86
430.259	464.04
430.635	431.27
431.011	433.99
431.387	445.51
431.763	425.85
432.138	453.42
432.514	458.17
432.89	430.6
433.265	467.66
433.641	446.41
434.016	469.01
434.392	481.22
434.767	476.24
435.143	471.27
435.518	483.48
435.894	463.59
436.269	483.93
436.644	478.96
437.02	511.05
437.395	477.83
437.77	495.68
438.145	489.58
438.52	495.91
438.895	515.11
439.271	508.33
439.646	500.42
440.021	484.15
440.395	495
440.77	504.49
441.145	508.79
441.52	515.57
441.895	524.38
442.27	500.88
442.645	510.82
443.019	510.82
443.394	528.45
443.769	518.05
444.143	516.7
444.518	522.12
444.892	503.59
445.267	523.47
445.641	542.23
446.016	527.09
446.39	549.91
446.764	527.09
447.139	537.03
447.513	543.14
447.887	526.64
448.262	567.09
448.636	543.59
449.01	559.18
449.384	563.47
449.758	549.46
450.132	548.79
450.506	558.05
450.88	568.45
451.254	561.89
451.628	549.24
452.002	580.42
452.376	572.74
452.75	577.26
453.123	576.81
453.497	565.96
453.871	582
454.244	607.54
454.618	592.85
454.992	582.91
455.365	612.96
455.739	614.32
456.112	616.13
456.486	613.19
456.859	608.44
457.232	613.42
457.606	602.57
457.979	596.24
458.352	607.54
458.725	622.91
459.099	630.14
459.472	648.67
459.845	633.08
460.218	659.74
460.591	643.25
460.964	622.46
461.337	660.87
461.71	638.73
462.083	673.75
462.456	651.83
462.829	668.33
463.201	661.78
463.574	669.91
463.947	658.39
464.32	677.82
464.692	684.15
465.065	684.37
465.438	706.97
465.81	701.32
466.183	716.92
466.555	719.18
466.928	710.14
467.3	709.68
467.672	717.37
468.045	745.16
468.417	752.85
468.789	727.76
469.161	727.54
469.534	755.11
469.906	741.32
470.278	760.98
470.65	749.46
471.022	766.41
471.394	763.24
471.766	767.99
472.138	780.19
472.51	808.89
472.882	800.76
473.253	806.63
473.625	789.91
473.997	827.2
474.369	805.5
474.74	840.3
475.112	831.49
475.484	862.45
475.855	838.49
476.227	862.22
476.598	874.88
476.97	865.61
477.341	887.76
477.713	896.35
478.084	907.65
478.455	909
478.827	911.04
479.198	949
479.569	939.74
479.94	966.4
480.311	967.53
480.682	1000.75
481.053	969.79
481.424	988.32
481.795	985.84
482.166	995.1
482.537	998.72
482.908	1030.81
483.279	1041.2
483.65	1037.81
484.021	1047.3
484.391	1037.81
484.762	1082.33
485.133	1047.3
485.503	1088.66
485.874	1079.62
486.244	1095.21
486.615	1084.36
486.985	1126.17
487.356	1137.92
487.726	1108.77
488.097	1140.63
488.467	1141.31
488.837	1167.07
489.207	1181.76
489.578	1177.47
489.948	1192.84
490.318	1197.36
490.688	1194.19
491.058	1222.89
491.428	1204.59
491.798	1217.92
492.168	1233.29
492.538	1221.54
492.908	1261.31
493.278	1260.18
493.648	1263.12
494.017	1287.75
494.387	1273.74
494.757	1267.64
495.126	1250.24
495.496	1313.28
495.866	1302.21
496.235	1285.04
496.605	1284.36
496.974	1289.1
497.344	1299.95
497.713	1313.51
498.082	1299.05
498.452	1324.58
498.821	1310.35
499.19	1318.71
499.559	1327.97
499.928	1344.92
500.298	1332.04
500.667	1340.4
501.036	1320.29
501.405	1342.66
501.774	1323.45
502.143	1366.16
502.512	1312.61
502.88	1374.53
503.249	1346.5
503.618	1353.96
503.987	1357.58
504.356	1375.43
504.724	1362.32
505.093	1390.8
505.462	1374.98
505.83	1365.71
506.199	1380.85
506.567	1380.18
506.936	1362.77
507.304	1389.67
507.672	1365.26
508.041	1389.67
508.409	1404.13
508.777	1402.32
509.145	1411.81
509.514	1397.35
509.882	1412.27
510.25	1399.61
510.618	1422.66
510.986	1406.16
511.354	1427.18
511.722	1421.3
512.09	1420.4
512.458	1407.07
512.826	1448.42
513.193	1443.45
513.561	1445.94
513.929	1440.29
514.297	1447.29
514.664	1457.91
515.032	1465.15
515.4	1466.05
515.767	1440.51
516.135	1478.7
516.502	1448.2
516.869	1458.14
517.237	1493.84
517.604	1465.37
517.972	1457.69
518.339	1474.41
518.706	1467.18
519.073	1483.22
519.44	1469.44
519.808	1487.07
520.175	1474.18
520.542	1503.11
520.909	1468.53
521.276	1511.02
521.643	1517.8
522.009	1499.72
522.376	1522.54
522.743	1506.27
523.11	1521.87
523.477	1529.78
523.843	1516.22
524.21	1543.11
524.577	1532.49
524.943	1548.53
525.31	1551.02
525.676	1550.34
526.043	1525.48
526.409	1552.6
526.776	1562.54
527.142	1536.1
527.508	1567.06
527.874	1558.48
528.241	1588.31
528.607	1557.8
528.973	1558.93
529.339	1575.88
529.705	1560.96
530.071	1589.21
530.437	1575.88
530.803	1583.11
531.169	1591.47
531.535	1587.4
531.901	1605.03
532.267	1607.74
532.632	1568.87
532.998	1575.88
533.364	1608.42
533.73	1591.24
534.095	1601.86
534.461	1602.09
534.826	1582.88
535.192	1602.99
535.557	1597.8
535.923	1589.66
536.288	1602.54
536.653	1602.09
537.019	1607.29
537.384	1583.11
537.749	1588.31
538.114	1603.22
538.479	1591.92
538.845	1602.32
539.21	1633.05
539.575	1608.87
539.94	1602.54
540.305	1622.2
540.67	1632.6
541.034	1610.23
541.399	1616.55
541.764	1612.94
542.129	1625.14
542.494	1629.89
542.858	1624.24
543.223	1617.46
543.587	1625.14
543.952	1638.93
544.316	1633.5
544.681	1615.2
545.045	1610.9
545.41	1657.91
545.774	1631.92
546.138	1625.82
546.503	1619.72
546.867	1637.12
547.231	1616.33
547.595	1633.73
547.959	1618.36
548.324	1619.49
548.688	1619.27
549.052	1640.28
549.416	1633.28
549.779	1634.63
550.143	1633.05
550.507	1644.58
550.871	1632.6
551.235	1632.6
551.599	1666.27
551.962	1619.27
552.326	1629.66
552.689	1643.45
553.053	1685.48
553.417	1646.61
553.78	1673.28
554.143	1614.97
554.507	1678.47
554.87	1655.42
555.234	1647.51
555.597	1639.83
555.96	1651.35
556.323	1617.23
556.686	1647.51
557.05	1646.38
557.413	1642.77
557.776	1676.89
558.139	1668.3
558.502	1679.6
558.865	1666.72
559.228	1666.5
559.59	1642.09
559.953	1641.41
560.316	1686.16
560.679	1676.21
561.041	1679.83
561.404	1684.35
561.767	1657
562.129	1674.18
562.492	1678.92
562.854	1701.98
563.217	1714.4
563.579	1711.47
563.941	1711.69
564.304	1710.79
564.666	1729.32
565.028	1727.06
565.39	1682.54
565.753	1704.91
566.115	1687.06
566.477	1695.2
566.839	1711.47
567.201	1702.65
567.563	1708.98
567.925	1740.62
568.287	1730
568.648	1745.82
569.01	1759.15
569.372	1728.42
569.734	1739.04
570.095	1742.2
570.457	1717.12
570.819	1729.54
571.18	1745.14
571.542	1776.32
571.903	1761.18
572.265	1756.89
572.626	1737.23
572.987	1768.19
573.349	1762.09
573.71	1750.11
574.071	1747.17
574.432	1754.63
574.794	1780.17
575.155	1772.48
575.516	1741.75
575.877	1742.2
576.238	1778.36
576.599	1794.18
576.96	1765.02
577.32	1781.97
577.681	1818.81
578.042	1799.15
578.403	1784.91
578.763	1776.78
579.124	1781.97
579.485	1808.86
579.845	1811.58
580.206	1777.23
580.566	1806.38
580.927	1782.42
581.287	1790.56
581.648	1779.26
582.008	1817.23
582.368	1781.97
582.728	1800.05
583.089	1826.49
583.449	1818.58
583.809	1801.63
584.169	1807.96
584.529	1788.98
584.889	1819.03
585.249	1777.23
585.609	1814.06
585.969	1814.51
586.329	1791.46
586.688	1803.44
587.048	1805.25
587.408	1761.86
587.768	1787.17
588.127	1795.98
588.487	1792.37
588.846	1813.61
589.206	1815.42
589.565	1787.62
589.925	1819.26
590.284	1826.94
590.643	1781.29
591.003	1818.13
591.362	1822.42
591.721	1823.55
592.08	1809.77
592.44	1801.86
592.799	1826.27
593.158	1831.92
593.517	1830.33
593.876	1825.59
594.235	1818.13
594.593	1829.88
594.952	1794.63
595.311	1814.51
595.67	1836.89
596.029	1819.03
596.387	1814.06
596.746	1863.78
597.104	1813.84
597.463	1844.34
597.822	1854.74
598.18	1859.26
598.538	1825.14
598.897	1845.7
599.255	1868.07
599.613	1881.86
599.972	1853.38
600.33	1853.38
600.688	1866.26
601.046	1854.06
601.404	1863.55
601.762	1836.66
602.12	1899.48
602.478	1853.16
602.836	1874.63
603.194	1837.79
603.552	1891.8
603.91	1883.89
604.268	1835.53
604.625	1881.41
604.983	1894.96
605.341	1859.94
605.698	1869.43
606.056	1871.46
606.413	1934.74
606.771	1902.87
607.128	1875.98
607.485	1869.2
607.843	1871.69
608.2	1907.62
608.557	1906.26
608.914	1905.81
609.272	1904
609.629	1908.98
609.986	1943.32
610.343	1909.65
610.7	1939.03
611.057	1894.51
611.414	1927.51
611.771	1936.09
612.127	1925.02
612.484	1925.47
612.841	1958.69
613.198	1931.35
613.554	1929.31
613.911	1941.74
614.267	1965.47
614.624	1925.02
614.98	1934.96
615.337	1934.06
615.693	1985.58
616.05	1929.54
616.406	1944.45
616.762	1986.26
617.118	1957.56
617.475	1973.83
617.831	1987.84
618.187	2002.98
618.543	1974.96
618.899	2007.73
619.255	2009.31
619.611	1980.39
619.967	2007.5
620.323	1977.22
620.678	1997.79
621.034	1981.52
621.39	1983.1
621.746	1981.74
622.101	2049.08
622.457	2021.97
622.812	2007.73
623.168	2021.51
623.523	2031.23
623.879	2046.6
624.234	2045.24
624.589	2011.57
624.945	2031.68
625.3	2033.04
625.655	2058.58
626.01	2011.57
626.365	2056.32
626.72	2045.69
627.075	2041.18
627.43	2054.73
627.785	2058.58
628.14	2066.94
628.495	2100.61
628.85	2050.89
629.205	2044.34
629.559	2058.58
629.914	2078.01
630.269	2059.25
630.623	2062.64
630.978	2070.1
631.332	2094.73
631.687	2094.96
632.041	2082.53
632.396	2099.7
632.75	2080.5
633.104	2124.34
633.459	2103.09
633.813	2112.36
634.167	2139.93
634.521	2129.53
634.875	2109.65
635.229	2126.82
635.583	2120.5
635.937	2124.34
636.291	2118.69
636.645	2142.42
636.999	2144.22
637.352	2165.01
637.706	2120.27
638.06	2156.88
638.413	2169.53
638.767	2158.01
639.121	2166.14
639.474	2177.89
639.828	2167.5
640.181	2184.9
640.534	2149.19
640.888	2206.82
641.241	2151.68
641.594	2203.2
641.947	2214.05
642.301	2221.28
642.654	2228.29
643.007	2215.18
643.36	2238.23
643.713	2225.8
644.066	2245.92
644.419	2230.32
644.771	2237.33
645.124	2247.5
645.477	2237.78
645.83	2242.75
646.182	2202.53
646.535	2225.8
646.888	2233.49
647.24	2242.53
647.593	2247.72
647.945	2245.69
648.298	2242.98
648.65	2267.16
649.002	2265.12
649.355	2284.11
649.707	2259.47
650.059	2315.07
650.411	2325.69
650.763	2343.77
651.115	2387.61
651.467	2348.74
651.819	2377.44
652.171	2426.93
652.523	2403.43
652.875	2388.96
653.227	2419.24
653.578	2442.52
653.93	2430.09
654.282	2447.27
654.633	2413.82
654.985	2444.1
655.337	2466.25
655.688	2463.76
656.039	2499.92
656.391	2526.13
656.742	2507.15
657.094	2506.25
657.445	2566.81
657.796	2542.18
658.147	2559.58
658.498	2586.02
658.849	2557.09
659.2	2599.35
659.551	2589.18
659.902	2637.77
660.253	2638.67
660.604	2656.53
660.955	2663.53
661.306	2666.47
661.656	2635.51
662.007	2693.81
662.358	2706.69
662.708	2685.68
663.059	2687.03
663.409	2734.72
663.76	2764.09
664.11	2756.86
664.461	2786.47
664.811	2767.03
665.161	2783.3
665.511	2816.07
665.862	2838.44
666.212	2833.7
666.562	2889.97
666.912	2834.83
667.262	2857.42
667.612	2862.62
667.962	2901.27
668.312	2925.67
668.662	2899.91
669.011	2901.94
669.361	2938.55
669.711	2946.46
670.06	3001.6
670.41	3012
670.76	2981.72
671.109	3016.52
671.459	2993.69
671.808	3019.91
672.157	3059.23
672.507	3026.69
672.856	3052
673.205	3057.42
673.554	3101.94
673.904	3107.59
674.253	3130.19
674.602	3107.36
674.951	3102.62
675.3	3151.88
675.649	3167.93
675.998	3185.1
676.346	3212.44
676.695	3223.29
677.044	3223.29
677.393	3228.49
677.741	3274.82
678.09	3248.15
678.438	3271.43
678.787	3271.43
679.135	3251.76
679.484	3267.58
679.832	3271.2
680.181	3245.66
680.529	3306.23
680.877	3303.06
681.225	3348.94
681.573	3315.27
681.922	3359.56
682.27	3325.66
682.618	3387.58
682.966	3384.42
683.314	3415.15
683.661	3428.03
684.009	3407.47
684.357	3376.06
684.705	3371.54
685.053	3412.21
685.4	3409.73
685.748	3399.33
686.095	3404.3
686.443	3442.04
686.79	3416.51
687.138	3457.86
687.485	3450.63
687.832	3483.17
688.18	3486.33
688.527	3446.56
688.874	3485.43
689.221	3498.76
689.568	3500.57
689.915	3483.62
690.262	3517.29
690.609	3522.72
690.956	3538.54
691.303	3552.77
691.65	3538.99
691.997	3558.2
692.344	3524.53
692.69	3525.2
693.037	3508.48
693.383	3518.88
693.73	3510.29
694.077	3545.99
694.423	3538.99
694.769	3544.19
695.116	3544.41
695.462	3533.34
695.808	3547.58
696.155	3587.35
696.501	3527.69
696.847	3526.11
697.193	3524.75
697.539	3543.51
697.885	3526.33
698.231	3515.94
698.577	3498.99
698.923	3475.04
699.269	3500.57
699.614	3536.05
699.96	3507.13
700.306	3526.11
700.651	3499.22
700.997	3486.79
701.342	3491.08
701.688	3521.81
702.033	3498.09
702.379	3494.24
702.724	3474.58
703.069	3491.31
703.415	3463.74
703.76	3447.24
704.105	3463.74
704.45	3450.63
704.795	3453.34
705.14	3452.21
705.485	3405.43
705.83	3415.83
706.175	3470.52
706.52	3440.69
706.865	3468.03
707.209	3458.09
707.554	3429.16
707.899	3436.17
708.243	3396.85
708.588	3473
708.932	3426.22
709.277	3416.51
709.621	3429.16
709.966	3430.52
710.31	3424.87
710.654	3377.64
710.998	3405.43
711.342	3374.7
711.687	3391.2
712.031	3374.47
712.375	3386
712.719	3414.92
713.063	3409.27
713.407	3412.89
713.75	3394.59
714.094	3383.06
714.438	3394.59
714.782	3362.95
715.125	3376.96
715.469	3390.52
715.812	3355.26
716.156	3430.97
716.499	3397.98
716.843	3406.79
717.186	3369.5
717.53	3366.56
717.873	3415.83
718.216	3358.65
718.559	3389.16
718.902	3345.55
719.246	3382.61
719.589	3403.17
719.932	3341.03
720.275	3346.68
720.617	3374.93
720.96	3340.8
721.303	3391.65
721.646	3383.51
721.989	3362.5
722.331	3378.54
722.674	3375.15
723.016	3397.52
723.359	3379.9
723.701	3341.71
724.044	3361.59
724.386	3366.34
724.729	3380.35
725.071	3345.32
725.413	3364.98
725.755	3374.02
726.097	3363.17
726.439	3314.14
726.782	3357.3
727.124	3363.63
727.465	3352.33
727.807	3408.6
728.149	3337.19
728.491	3366.11
728.833	3381.93
729.175	3331.08
729.516	3346
729.858	3384.87
730.199	3367.02
730.541	3388.26
730.882	3355.94
731.224	3349.62
731.565	3373.8
731.906	3393
732.248	3418.54
732.589	3370.86
732.93	3347.36
733.271	3404.76
733.612	3365.21
733.953	3412.66
734.294	3424.64
734.635	3409.27
734.976	3438.88
735.317	3386.45
735.658	3368.37
735.999	3410.4
736.339	3413.34
736.68	3430.74
737.021	3397.3
737.361	3414.47
737.702	3409.95
738.042	3442.49
738.383	3444.98
738.723	3435.26
739.063	3462.15
739.404	3485.66
739.744	3458.76
740.084	3499.89
740.424	3503.74
740.764	3495.83
741.104	3504.41
741.444	3476.84
741.784	3496.05
742.124	3508.93
742.464	3506.9
742.804	3467.35
743.143	3548.25
743.483	3545.77
743.823	3531.98
744.162	3531.76
744.502	3512.77
744.841	3564.07
745.181	3600.91
745.52	3614.47
745.86	3604.75
746.199	3609.95
746.538	3634.13
746.877	3694.01
747.216	3660.57
747.556	3708.25
747.895	3730.17
748.234	3681.81
748.573	3722.94
748.911	3702.37
749.25	3752.54
749.589	3695.37
749.928	3764.29
750.267	3789.15
750.605	3820.11
750.944	3822.82
751.283	3858.98
751.621	3884.97
751.96	3845.42
752.298	3857.62
752.636	3899.66
752.975	3905.98
753.313	3896.49
753.651	3960.22
753.989	3969.49
754.327	3981.24
754.666	4009.48
755.004	4037.05
755.342	4036.6
755.679	4045.19
756.017	4063.95
756.355	4045.42
756.693	4151.18
757.031	4128.8
757.368	4106.21
757.706	4161.8
758.044	4152.31
758.381	4144.85
758.719	4185.98
759.056	4215.36
759.394	4260.78
759.731	4232.76
760.068	4202.7
760.405	4251.74
760.743	4241.8
761.08	4288.8
761.417	4280.89
761.754	4302.13
762.091	4333.09
762.428	4314.79
762.765	4314.34
763.102	4329.93
763.438	4320.21
763.775	4341.45
764.112	4359.08
764.449	4392.07
764.785	4346.43
765.122	4370.83
765.458	4384.16
765.795	4364.05
766.131	4359.53
766.467	4397.05
766.804	4407.44
767.14	4370.83
767.476	4367.89
767.812	4434.78
768.148	4422.13
768.485	4392.98
768.821	4391.17
769.157	4404.28
769.492	4394.11
769.828	4446.99
770.164	4329.48
770.5	4404.95
770.836	4361.11
771.171	4422.58
771.507	4385.75
771.842	4367.44
772.178	4399.53
772.513	4406.76
772.849	4316.6
773.184	4339.42
773.519	4360.66
773.855	4307.1
774.19	4347.56
774.525	4321.79
774.86	4295.81
775.195	4321.57
775.53	4289.93
775.865	4275.01
776.2	4261.91
776.535	4294
776.87	4218.07
777.205	4277.73
777.539	4255.58
777.874	4284.28
778.209	4218.29
778.543	4181.23
778.878	4163.38
779.212	4168.58
779.547	4175.81
779.881	4197.73
780.215	4195.47
780.55	4196.15
780.884	4151.4
781.218	4156.37
781.552	4128.8
781.886	4098.52
782.22	4118.41
782.554	4096.49
782.888	4049.03
783.222	4042.93
783.556	4028.92
783.889	4033.89
784.223	3976.94
784.557	4016.26
784.89	3992.31
785.224	4010.61
785.557	3992.08
785.891	3943.27
786.224	3988.47
786.558	3972.42
786.891	3981.92
787.224	3944.4
787.557	3943.27
787.891	3913.67
788.224	3904.85
788.557	3906.66
788.89	3872.99
789.223	3872.54
789.556	3845.87
789.888	3870.96
790.221	3851.07
790.554	3847.23
790.887	3799.55
791.219	3818.53
791.552	3783.95
791.884	3792.09
792.217	3807.46
792.549	3758.87
792.882	3748.02
793.214	3705.09
793.546	3720.68
793.879	3696.5
794.211	3694.24
794.543	3721.36
794.875	3676.61
795.207	3685.43
795.539	3692.43
795.871	3674.13
796.203	3663.28
796.535	3657.63
796.867	3630.51
797.198	3624.64
797.53	3639.55
797.862	3622.6
798.193	3617.63
798.525	3594.13
798.856	3544.41
799.188	3539.67
799.519	3550.97
799.85	3547.35
800.182	3524.3
800.513	3528.82
800.844	3480.46
801.175	3534.47
801.506	3536.28
801.837	3486.79
802.168	3515.49
802.499	3466
802.83	3435.94
803.161	3455.15
803.491	3504.19
803.822	3456.73
804.153	3461.93
804.483	3404.53
804.814	3424.64
805.145	3428.03
805.475	3395.49
805.805	3366.11
806.136	3372.21
806.466	3350.75
806.796	3418.09
807.126	3321.82
807.457	3331.54
807.787	3342.38
808.117	3340.12
808.447	3329.95
808.777	3331.76
809.107	3303.06
809.436	3311.2
809.766	3314.59
810.096	3309.16
810.426	3255.38
810.755	3280.24
811.085	3241.6
811.414	3265.1
811.744	3257.64
812.073	3219.9
812.403	3243.4
812.732	3225.32
813.061	3240.01
813.39	3204.76
813.719	3204.53
814.049	3210.86
814.378	3207.92
814.707	3199.79
815.036	3185.78
815.365	3147.81
815.693	3196.62
816.022	3170.41
816.351	3110.53
816.68	3122.5
817.008	3118.21
817.337	3138.77
817.665	3127.02
817.994	3078.44
818.322	3160.92
818.651	3101.71
818.979	3084.31
819.307	3147.59
819.636	3100.13
819.964	3080.92
820.292	3089.51
820.62	3088.15
820.948	3086.57
821.276	3089.51
821.604	3078.44
821.932	3071.43
822.259	3072.33
822.587	3096.06
822.915	3072.11
823.243	3087.02
823.57	3048.83
823.898	3063.07
824.225	3069.17
824.553	3048.38
824.88	3077.98
825.207	3093.35
825.535	3072.56
825.862	3073.01
826.189	3046.35
826.516	3088.61
826.843	3084.09
827.17	3097.19
827.497	3086.35
827.824	3076.4
828.151	3076.85
828.478	3089.28
828.805	3044.31
829.131	3051.09
829.458	3078.89
829.785	3072.56
830.111	3087.25
830.438	3075.95
830.764	3082.28
831.09	3035.05
831.417	3046.12
831.743	3095.16
832.069	3067.59
832.395	3056.52
832.722	3031.21
833.048	3021.49
833.374	3057.65
833.7	3052.9
834.026	3065.1
834.351	3042.5
834.677	3026.46
835.003	3060.36
835.329	3027.82
835.654	3004.54
835.98	3023.3
836.306	3041.37
836.631	3015.16
836.956	3052.45
837.282	3050.41
837.607	2974.26
837.932	2992.34
838.258	3014.93
838.583	2997.08
838.908	2963.41
839.233	2992.56
839.558	3003.41
839.883	2993.24
840.208	2987.14
840.533	2966.57
840.858	2975.84
841.182	2949.85
841.507	2952.11
841.832	2946.24
842.156	2943.07
842.481	2954.82
842.805	2961.6
843.13	2930.64
843.454	2887.25
843.778	2948.5
844.103	2909.17
844.427	2927.93
844.751	2906.46
845.075	2905.33
845.399	2950.3
845.723	2884.77
846.047	2866.92
846.371	2870.76
846.695	2862.4
847.019	2843.87
847.343	2808.16
847.666	2828.27
847.99	2837.31
848.313	2799.35
848.637	2795.05
848.96	2795.73
849.284	2810.87
849.607	2764.32
849.931	2730.42
850.254	2731.55
850.577	2743.76
850.9	2671.67
851.223	2701.72
851.546	2673.47
851.869	2682.51
852.192	2683.19
852.515	2700.37
852.838	2630.99
853.161	2654.94
853.483	2633.25
853.806	2670.54
854.129	2630.54
854.451	2630.31
854.774	2613.14
855.096	2646.13
855.419	2579.69
855.741	2605.91
856.063	2572.23
856.385	2577.88
856.708	2597.09
857.03	2559.81
857.352	2577.43
857.674	2592.8
857.996	2565
858.318	2549.64
858.64	2532.24
858.961	2542.86
859.283	2546.47
859.605	2509.19
859.926	2536.98
860.248	2509.64
860.57	2511.45
860.891	2507.38
861.212	2477.77
861.534	2492.91
861.855	2488.62
862.176	2454.05
862.498	2458.34
862.819	2457.44
863.14	2457.66
863.461	2466.47
863.782	2446.36
864.103	2480.26
864.424	2466.93
864.745	2483.42
865.065	2436.42
865.386	2451.33
865.707	2438
866.027	2442.07
866.348	2436.64
866.668	2448.85
866.989	2435.29
867.309	2419.7
867.63	2393.71
867.95	2398
868.27	2423.76
868.59	2419.02
868.91	2388.06
869.23	2374.95
869.55	2378.57
869.87	2427.61
870.19	2386.93
870.51	2387.83
870.83	2403.88
871.15	2396.42
871.469	2391.45
871.789	2380.15
872.109	2362.97
872.428	2367.72
872.748	2362.75
873.067	2364.56
873.386	2366.36
873.706	2376.08
874.025	2366.14
874.344	2312.13
874.663	2356.2
874.982	2363.65
875.301	2316.87
875.62	2358.45
875.939	2323.2
876.258	2318.23
876.577	2336.53
876.896	2301.28
877.214	2312.58
877.533	2291.79
877.852	2296.76
878.17	2312.81
878.489	2339.92
878.807	2296.31
879.125	2261.73
879.444	2285.46
879.762	2302.64
880.08	2304.9
880.398	2268.51
880.716	2287.72
881.034	2299.47
881.352	2311.45
881.67	2248.63
881.988	2275.52
882.306	2267.38
882.624	2279.36
882.941	2243.43
883.259	2249.98
883.577	2249.76
883.894	2236.65
884.212	2236.65
884.529	2235.07
884.846	2216.54
885.164	2231.23
885.481	2210.44
885.798	2218.35
886.115	2206.14
886.432	2218.57
886.75	2187.16
887.067	2188.29
887.383	2214.5
887.7	2201.62
888.017	2190.32
888.334	2185.35
888.651	2192.36
888.967	2161.4
889.284	2170.66
889.6	2160.49
889.917	2138.35
890.233	2168.86
890.55	2171.12
890.866	2162.3
891.182	2161.62
891.498	2120.5
891.815	2089.31
892.131	2136.99
892.447	2131.79
892.763	2105.81
893.079	2115.98
893.395	2085.92
893.71	2095.41
894.026	2100.61
894.342	2108.07
894.657	2087.28
894.973	2070.78
895.289	2042.76
895.604	2051.8
895.92	2029.88
896.235	2038.24
896.55	2034.62
896.865	2043.89
897.181	2052.47
897.496	2034.62
897.811	2017.67
898.126	2012.25
898.441	1994.17
898.756	1999.37
899.071	1994.85
899.386	2028.97
899.7	1991.68
900.015	1969.09
900.33	1951.91
900.644	1988.3
900.959	1970.67
901.273	1944.91
901.588	1935.42
901.902	1935.42
902.216	1960.05
902.531	1949.65
902.845	1929.31
903.159	1912.36
903.473	1925.92
903.787	1914.17
904.101	1894.06
904.415	1916.43
904.729	1870.78
905.042	1894.29
905.356	1901.29
905.67	1868.75
905.984	1867.85
906.297	1859.03
906.611	1894.29
906.924	1859.94
907.237	1819.49
907.551	1830.79
907.864	1834.85
908.177	1840.73
908.491	1835.08
908.804	1805.25
909.117	1796.89
909.43	1833.05
909.743	1822.65
910.056	1770.22
910.368	1782.88
910.681	1784.68
910.994	1786.04
911.307	1763.67
911.619	1758.24
911.932	1747.17
912.244	1760.73
912.557	1759.37
912.869	1738.58
913.181	1739.94
913.494	1725.03
913.806	1762.99
914.118	1727.74
914.43	1715.08
914.742	1715.99
915.054	1707.62
915.366	1701.52
915.678	1712.37
915.99	1686.83
916.302	1685.25
916.613	1654.97
916.925	1663.78
917.236	1643.45
917.548	1639.83
917.859	1673.73
918.171	1670.79
918.482	1652.71
918.794	1643.9
919.105	1637.34
919.416	1625.59
919.727	1633.05
920.038	1618.59
920.349	1617.68
920.66	1610
920.971	1627.63
921.282	1609.55
921.593	1605.03
921.903	1581.3
922.214	1565.71
922.525	1599.6
922.835	1595.99
923.146	1555.76
923.456	1560.74
923.767	1548.98
924.077	1579.94
924.387	1540.17
924.697	1553.96
925.008	1548.76
925.318	1527.06
925.628	1495.2
925.938	1526.84
926.248	1522.32
926.558	1491.59
926.867	1518.93
927.177	1496.33
927.487	1454.52
927.796	1458.14
928.106	1492.04
928.416	1490.23
928.725	1463.34
929.034	1476.67
929.344	1467.63
929.653	1436.22
929.962	1440.51
930.271	1439.16
930.581	1441.42
930.89	1426.28
931.199	1408.65
931.508	1447.74
931.817	1416.56
932.125	1408.88
932.434	1432.38
932.743	1410.46
933.051	1433.51
933.36	1378.14
933.669	1369.33
933.977	1403.68
934.286	1365.49
934.594	1346.73
934.902	1386.5
935.21	1349.67
935.519	1367.07
935.827	1351.93
936.135	1369.1
936.443	1352.38
936.751	1302.66
937.059	1346.96
937.367	1340.85
937.674	1340.85
937.982	1336.79
938.29	1306.73
938.597	1315.09
938.905	1309.67
939.213	1319.39
939.52	1317.8
939.827	1330.46
940.135	1295.88
940.442	1308.99
940.749	1284.13
941.056	1274.19
941.363	1274.64
941.67	1277.81
941.977	1298.14
942.284	1276.9
942.591	1276.22
942.898	1258.82
943.205	1252.72
943.511	1264.25
943.818	1246.62
944.125	1246.85
944.431	1270.8
944.738	1235.09
945.044	1246.39
945.35	1247.98
945.657	1225.83
945.963	1232.61
946.269	1219.05
946.575	1211.82
946.881	1191.93
947.187	1221.08
947.493	1209.33
947.799	1209.11
948.105	1193.29
948.41	1174.76
948.716	1205.94
949.022	1195.1
949.327	1194.87
949.633	1144.93
949.938	1158.71
950.244	1165.49
950.549	1146.28
950.854	1168.43
951.16	1180.41
951.465	1159.16
951.77	1141.76
952.075	1135.66
952.38	1112.16
952.685	1141.54
952.99	1114.19
953.294	1153.51
953.599	1119.62
953.904	1134.76
954.209	1108.09
954.513	1080.3
954.818	1109
955.122	1123.01
955.426	1110.13
955.731	1117.36
956.035	1067.42
956.339	1085.72
956.643	1107.64
956.948	1082.56
957.252	1093.4
957.556	1086.4
957.86	1083.46
958.163	1085.95
958.467	1055.44
958.771	1087.08
959.075	1071.71
959.378	1029.45
959.682	1039.85
959.985	1036.23
960.289	1061.54
960.592	1010.47
960.896	1048.88
961.199	1051.37
961.502	1007.98
961.805	1026.06
962.108	1021.99
962.411	1038.49
962.714	1020.19
963.017	1007.98
963.32	1023.57
963.623	1027.19
963.926	1034.65
964.228	1017.02
964.531	998.49
964.833	977.93
965.136	1013.63
965.438	989
965.741	974.76
966.043	996.91
966.345	984.25
966.648	993.75
966.95	973.18
967.252	1001.65
967.554	979.51
967.856	967.98
968.158	956.68
968.46	953.52
968.761	974.54
969.063	968.43
969.365	946.06
969.666	944.25
969.968	928.89
970.269	932.28
970.571	946.06
970.872	959.4
971.174	936.35
971.475	910.13
971.776	950.81
972.077	929.34
972.378	943.35
972.679	941.54
972.98	914.65
973.281	904.93
973.582	927.76
973.883	921.88
974.183	881.66
974.484	902.45
974.785	905.61
975.085	906.52
975.386	882.56
975.686	885.05
975.986	899.74
976.287	914.43
976.587	892.05
976.887	912.39
977.187	899.06
977.487	897.48
977.787	889.57
978.087	869
978.387	850.7
978.687	876.23
978.987	868.55
979.286	884.82
979.586	854.99
979.885	849.79
980.185	846.4
980.484	854.31
980.784	840.08
981.083	866.52
981.382	849.79
981.682	841.21
981.981	832.62
982.28	848.66
982.579	831.72
982.878	830.59
983.177	835.11
983.475	827.2
983.774	836.24
984.073	830.81
984.372	805.73
984.67	820.19
984.969	797.14
985.267	793.07
985.566	812.28
985.864	802.11
986.162	805.05
986.461	785.39
986.759	775.22
987.057	782.23
987.355	804.82
987.653	807.99
987.951	785.16
988.249	795.33
988.547	781.55
988.844	774.54
989.142	754.43
989.44	756.46
989.737	781.55
990.035	752.17
990.332	760.08
990.63	771.38
990.927	760.08
991.224	760.53
991.521	775.9
991.819	750.81
992.116	752.85
992.413	758.5
992.71	739.29
993.006	735.67
993.303	762.79
993.6	750.59
993.897	735.45
994.193	741.1
994.49	738.38
994.787	744.03
995.083	709.91
995.379	731.15
995.676	750.59
995.972	734.32
996.268	709.46
996.565	736.8
996.861	712.85
997.157	715.79
997.453	716.69
997.749	716.92
998.044	707.42
998.34	699.06
998.636	706.52
998.932	696.8
999.227	714.43
999.523	713.3
999.818	699.52
1000.114	686.18
1000.409	690.48
1000.704	691.61
1001	687.09
1001.295	656.35
1001.59	685.28
1001.885	700.65
1002.18	668.78
1002.475	670.82
1002.77	681.21
1003.065	657.48
1003.359	672.4
1003.654	670.82
1003.949	660.65
1004.243	659.06
1004.538	658.84
1004.832	647.77
1005.127	648.67
1005.421	652.06
1005.715	669.01
1006.009	628.78
1006.304	636.92
1006.598	657.03
1006.892	638.05
1007.186	662.91
1007.48	639.63
1007.773	657.03
1008.067	635.56
1008.361	621.55
1008.655	622.23
1008.948	644.6
1009.242	621.1
1009.535	638.27
1009.829	653.42
1010.122	631.95
1010.415	609.35
1010.708	626.75
1011.001	625.85
1011.295	617.26
1011.588	618.84
1011.881	593.98
1012.173	591.72
1012.466	580.42
1012.759	587.43
1013.052	582.46
1013.344	591.04
1013.637	603.7
1013.93	572.06
1014.222	589.91
1014.514	563.47
1014.807	582.23
1015.099	591.72
1015.391	585.85
1015.683	567.32
1015.976	581.1
1016.268	573.42
1016.56	568.22
1016.851	575
1017.143	583.13
1017.435	579.74
1017.727	576.58
1018.018	583.36
1018.31	550.37
1018.602	556.69
1018.893	556.47
1019.185	550.82
1019.476	557.15
1019.767	572.51
1020.058	556.92
1020.35	553.3
1020.641	549.01
1020.932	540.65
1021.223	538.16
1021.514	520.76
1021.804	536.36
1022.095	514.89
1022.386	560.76
1022.677	544.04
1022.967	516.24
1023.258	523.25
1023.548	529.12
1023.839	527.77
1024.129	512.4
1024.419	500.2
1024.709	532.51
1025	504.94
1025.29	509.24
1025.58	519.86
1025.87	522.12
1026.16	530.03
1026.449	504.27
1026.739	516.02
1027.029	526.64
1027.319	517.15
1027.608	524.6
1027.898	502.46
1028.187	513.31
1028.477	518.73
1028.766	494.78
1029.055	509.46
1029.344	464.27
1029.634	500.42
1029.923	481.44
1030.212	494.32
1030.501	513.53
1030.79	479.63
1031.078	485.74
1031.367	474.89
1031.656	466.08
1031.945	469.69
1032.233	483.25
1032.522	482.8
1032.81	479.41
1033.099	475.79
1033.387	478.96
1033.675	484.83
1033.963	471.5
1034.251	483.02
1034.54	463.59
1034.828	471.05
1035.116	453.42
1035.403	463.59
1035.691	448.67
1035.979	464.04
1036.267	460.65
1036.554	450.03
1036.842	444.83
1037.129	462.91
1037.417	438.51
1037.704	452.29
1037.992	438.51
1038.279	466.75
1038.566	464.95
1038.853	464.95
1039.14	464.95
