Data from blue_chair_FLMS001491_00069.txt Node
Date: Wed Feb 08 10:31:34 GMT 2017
User: dcchb
Spectrometer: FLMS00149
Trigger mode: 0
Integration Time (sec): 2.000000E-2
Scans to average: 10
Electric dark correction enabled: true
Nonlinearity correction enabled: false
Boxcar width: 0
XAxis mode: Wavelengths
Number of Pixels in Spectrum: 2048
>>>>>Begin Spectral Data<<<<<
341.393	-33.5
341.776	-33.5
342.16	-33.5
342.543	-52.71
342.927	-59.04
343.31	-66.04
343.693	-51.58
344.077	-50.9
344.46	-73.5
344.843	-32.15
345.226	-29.21
345.61	-44.12
345.993	-45.48
346.376	0.17
346.759	6.72
347.142	35.87
347.525	35.87
347.908	67.51
348.291	68.64
348.674	89.21
349.057	88.98
349.44	139.6
349.823	160.39
350.206	162.43
350.588	200.16
350.971	200.84
351.354	179.6
351.737	227.28
352.119	212.59
352.502	243.1
352.884	256.43
353.267	258.92
353.65	270.22
354.032	278.81
354.414	291.24
354.797	284.23
355.179	294.85
355.562	305.47
355.944	303.21
356.326	308.86
356.709	321.52
357.091	317.68
357.473	319.26
357.855	320.39
358.238	316.55
358.62	320.16
359.002	323.1
359.384	303.44
359.766	318.13
360.148	316.32
360.53	324
360.912	317.9
361.294	303.44
361.676	321.52
362.057	309.99
362.439	305.25
362.821	310.67
363.203	295.98
363.584	306.15
363.966	308.86
364.348	293.27
364.729	289.65
365.111	286.72
365.493	311.8
365.874	301.4
366.256	293.5
366.637	321.52
367.019	288.3
367.4	292.37
367.781	292.82
368.163	295.75
368.544	294.17
368.925	291.69
369.306	282.65
369.688	283.55
370.069	281.74
370.45	267.28
370.831	272.93
371.212	285.13
371.593	280.16
371.974	289.2
372.355	282.42
372.736	304.57
373.117	280.84
373.498	267.96
373.879	303.21
374.26	294.17
374.641	299.6
375.021	294.4
375.402	284.68
375.783	286.26
376.163	282.65
376.544	291.69
376.925	291.46
377.305	286.26
377.686	315.42
378.066	299.37
378.447	300.95
378.827	286.49
379.208	312.48
379.588	295.3
379.968	309.31
380.349	285.13
380.729	295.53
381.109	281.97
381.489	279.94
381.87	305.02
382.25	295.98
382.63	316.09
383.01	309.54
383.39	295.75
383.77	298.24
384.15	316.09
384.53	298.69
384.91	323.32
385.29	302.99
385.67	317.68
386.049	292.14
386.429	316.09
386.809	329.65
387.189	334.4
387.568	329.43
387.948	277.68
388.328	325.13
388.707	305.25
389.087	315.19
389.466	304.79
389.846	314.74
390.225	295.98
390.605	321.29
390.984	330.78
391.363	320.39
391.743	306.6
392.122	310.67
392.501	317.9
392.881	330.56
393.26	328.3
393.639	318.58
394.018	324
394.397	325.81
394.776	331.69
395.155	326.04
395.534	343.21
395.913	315.64
396.292	347.05
396.671	317.9
397.05	327.39
397.429	323.1
397.808	342.99
398.186	353.38
398.565	335.53
398.944	321.52
399.323	341.86
399.701	328.97
400.08	349.54
400.458	349.09
400.837	341.4
401.215	371.91
401.594	352.48
401.972	350.44
402.351	361.29
402.729	348.63
403.107	352.93
403.486	377.11
403.864	348.63
404.242	367.17
404.62	352.25
404.999	372.82
405.377	367.39
405.755	365.13
406.133	373.94
406.511	366.71
406.889	358.13
407.267	393.83
407.645	387.5
408.023	366.26
408.401	386.83
408.779	381.4
409.156	384.79
409.534	390.22
409.912	391.57
410.29	397.67
410.667	378.01
411.045	394.74
411.422	406.94
411.8	407.16
412.178	395.41
412.555	423.21
412.933	393.61
413.31	429.08
413.687	413.72
414.065	419.59
414.442	424.11
414.819	436.32
415.197	430.44
415.574	429.31
415.951	436.54
416.328	405.81
416.705	411.46
417.082	452.59
417.46	439.71
417.837	424.57
418.214	442.64
418.591	433.6
418.967	458.24
419.344	459.59
419.721	450.33
420.098	454.39
420.475	461.63
420.852	449.65
421.228	453.26
421.605	446.71
421.982	477.67
422.358	458.91
422.735	460.5
423.111	510.66
423.488	479.48
423.864	486.94
424.241	474.28
424.617	483.32
424.994	486.03
425.37	503.21
425.746	495.75
426.123	485.81
426.499	478.57
426.875	492.36
427.251	495.98
427.627	525.35
428.003	503.89
428.379	532.13
428.756	540.27
429.132	532.58
429.507	532.13
429.883	545.47
430.259	531.91
430.635	548.4
431.011	545.69
431.387	582.53
431.763	561.51
432.138	560.61
432.514	575.97
432.89	579.59
433.265	596.09
433.641	573.49
434.016	585.92
434.392	579.59
434.767	621.62
435.143	604.9
435.518	617.1
435.894	626.59
436.269	637.44
436.644	639.02
437.02	648.97
437.395	660.04
437.77	658.91
438.145	672.69
438.52	655.97
438.895	677.89
439.271	675.41
439.646	666.14
440.021	669.3
440.395	680.15
440.77	701.62
441.145	728.96
441.52	721.51
441.895	717.89
442.27	745.23
442.645	727.38
443.019	740.49
443.394	759.25
443.769	745.23
444.143	752.92
444.518	762.86
444.892	762.18
445.267	799.7
445.641	780.94
446.016	770.09
446.39	763.99
446.764	804.44
447.139	788.17
447.513	802.18
447.887	804.67
448.262	797.66
448.636	794.27
449.01	811
449.384	817.55
449.758	831.79
450.132	823.42
450.506	822.52
450.88	831.11
451.254	836.53
451.628	877.21
452.002	879.69
452.376	881.95
452.75	893.93
453.123	860.71
453.497	900.94
453.871	861.84
454.244	894.16
454.618	906.13
454.992	912.91
455.365	902.07
455.739	942.97
456.112	921.73
456.486	945.46
456.859	956.53
457.232	957.21
457.606	973.93
457.979	962.63
458.352	987.26
458.725	994.27
459.099	976.87
459.472	1009.18
459.845	1016.41
460.218	1015.28
460.591	1032.46
460.964	1043.08
461.337	1036.3
461.71	1059.8
462.083	1062.51
462.456	1055.73
462.829	1055.96
463.201	1082.85
463.574	1073.59
463.947	1084.43
464.32	1095.73
464.692	1137.09
465.065	1126.69
465.438	1135.96
465.81	1123.98
466.183	1148.16
466.555	1157.65
466.928	1154.26
467.3	1148.16
467.672	1169.86
468.045	1203.08
468.417	1202.17
468.789	1174.83
469.161	1230.19
469.534	1239.01
469.906	1232.23
470.278	1230.65
470.65	1246.92
471.022	1263.41
471.394	1286.69
471.766	1276.97
472.138	1298.89
472.51	1300.93
472.882	1317.2
473.253	1320.81
473.625	1332.34
473.997	1353.13
474.369	1358.78
474.74	1366.69
475.112	1426.8
475.484	1396.52
475.855	1423.18
476.227	1416.86
476.598	1435.16
476.97	1468.83
477.341	1477.87
477.713	1493.92
478.084	1498.66
478.455	1489.17
478.827	1509.28
479.198	1535.27
479.569	1529.39
479.94	1573.01
480.311	1561.71
480.682	1596.51
481.053	1629.28
481.424	1643.52
481.795	1661.14
482.166	1672.89
482.537	1652.78
482.908	1705.66
483.279	1690.75
483.65	1712.21
484.021	1722.84
484.391	1753.12
484.762	1701.82
485.133	1739.11
485.503	1774.36
485.874	1788.37
486.244	1774.36
486.615	1815.49
486.985	1811.87
487.356	1820.91
487.726	1824.08
488.097	1853
488.467	1841.03
488.837	1887.13
489.207	1881.25
489.578	1879.22
489.948	1914.92
490.318	1872.66
490.688	1866.34
491.058	1874.47
491.428	1933.68
491.798	1888.03
492.168	1927.58
492.538	1952.89
492.908	1944.3
493.278	1948.37
493.648	1959.21
494.017	1988.82
494.387	1959.21
494.757	1961.93
495.126	1974.13
495.496	1973.68
495.866	1952.89
496.235	1949.27
496.605	1967.12
496.974	1971.64
497.344	1975.26
497.713	1958.08
498.082	1968.48
498.452	1974.13
498.821	1966.22
499.19	1930.06
499.559	1955.15
499.928	1969.61
500.298	1945.88
500.667	1959.44
501.036	1934.58
501.405	1938.42
501.774	1964.19
502.143	1949.5
502.512	1968.71
502.88	1956.95
503.249	1943.17
503.618	1945.2
503.987	1962.83
504.356	1944.75
504.724	1954.02
505.093	1915.15
505.462	1953.56
505.83	1962.83
506.199	1945.66
506.567	1939.1
506.936	1929.38
507.304	1962.83
507.672	1922.15
508.041	1935.03
508.409	1916.73
508.777	1930.51
509.145	1960.8
509.514	1941.36
509.882	1931.87
510.25	1927.58
510.618	1925.32
510.986	1892.32
511.354	1940.68
511.722	1890.97
512.09	1910.4
512.458	1868.14
512.826	1891.19
513.193	1904.3
513.561	1889.39
513.929	1889.39
514.297	1904.3
514.664	1879.67
515.032	1886.9
515.4	1917.18
515.767	1867.69
516.135	1873.57
516.502	1834.47
516.869	1860.91
517.237	1852.55
517.604	1814.81
517.972	1842.61
518.339	1859.1
518.706	1836.05
519.073	1791.31
519.44	1811.42
519.808	1813.23
520.175	1819.56
520.542	1840.12
520.909	1832.44
521.276	1833.34
521.643	1816.84
522.009	1813.68
522.376	1823.62
522.743	1785.43
523.11	1782.72
523.477	1791.31
523.843	1761.03
524.21	1790.86
524.577	1773.91
524.943	1809.61
525.31	1817.52
525.676	1823.4
526.043	1808.48
526.409	1799.9
526.776	1799.22
527.142	1787.24
527.508	1775.04
527.874	1807.58
528.241	1792.66
528.607	1806.22
528.973	1802.61
529.339	1804.87
529.705	1808.94
530.071	1789.95
530.437	1798.09
530.803	1802.61
531.169	1787.69
531.535	1803.06
531.901	1770.74
532.267	1791.08
532.632	1806.68
532.998	1803.06
533.364	1822.27
533.73	1776.39
534.095	1780.91
534.461	1799.22
534.826	1803.96
535.192	1785.66
535.557	1820.46
535.923	1763.74
536.288	1742.27
536.653	1757.64
537.019	1764.87
537.384	1797.86
537.749	1777.07
538.114	1795.6
538.479	1787.02
538.845	1791.08
539.21	1792.44
539.575	1785.21
539.94	1764.19
540.305	1765.09
540.67	1764.42
541.034	1777.3
541.399	1767.58
541.764	1811.87
542.129	1767.58
542.494	1791.53
542.858	1757.19
543.223	1769.16
543.587	1753.12
543.952	1762.16
544.316	1740.46
544.681	1744.08
545.045	1756.96
545.41	1748.15
545.774	1739.11
546.138	1701.59
546.503	1730.97
546.867	1719.67
547.231	1747.69
547.595	1753.12
547.959	1734.81
548.324	1717.64
548.688	1732.78
549.052	1722.38
549.416	1736.17
549.779	1759.9
550.143	1738.88
550.507	1693.46
550.871	1747.24
551.235	1697.75
551.599	1726.9
551.962	1688.94
552.326	1729.84
552.689	1705.66
553.053	1720.35
553.417	1713.8
553.78	1692.1
554.143	1699.11
554.507	1703.85
554.87	1693.91
555.234	1709.73
555.597	1692.1
555.96	1728.94
556.323	1713.57
556.686	1702.95
557.05	1685.55
557.413	1682.61
557.776	1685.32
558.139	1699.11
558.502	1700.46
558.865	1696.62
559.228	1708.83
559.59	1723.74
559.953	1746.34
560.316	1697.53
560.679	1708.37
561.041	1725.32
561.404	1695.04
561.767	1721.93
562.129	1730.52
562.492	1740.91
562.854	1706.57
563.217	1713.57
563.579	1736.4
563.941	1713.12
564.304	1714.93
564.666	1728.26
565.028	1726.45
565.39	1745.66
565.753	1719.22
566.115	1726
566.477	1755.6
566.839	1753.12
567.201	1733.01
567.563	1770.52
567.925	1742.27
568.287	1772.55
568.648	1790.18
569.01	1771.87
569.372	1775.04
569.734	1763.51
570.095	1808.94
570.457	1799.44
570.819	1792.44
571.18	1781.37
571.542	1784.3
571.903	1805.77
572.265	1800.57
572.626	1816.84
572.987	1827.01
573.349	1817.75
573.71	1816.84
574.071	1828.14
574.432	1862.95
574.794	1833.57
575.155	1855.49
575.516	1855.71
575.877	1842.15
576.238	1855.04
576.599	1845.09
576.96	1862.72
577.32	1841.93
577.681	1845.32
578.042	1838.99
578.403	1848.93
578.763	1868.37
579.124	1889.16
579.485	1894.36
579.845	1875.83
580.206	1898.42
580.566	1897.75
580.927	1896.39
581.287	1910.85
581.648	1926.22
582.008	1921.02
582.368	1918.09
582.728	1915.37
583.089	1913.79
583.449	1911.31
583.809	1910.85
584.169	1905.88
584.529	1931.42
584.889	1943.17
585.249	1925.32
585.609	1919.22
585.969	1938.65
586.329	1879.89
586.688	1953.34
587.048	1897.75
587.408	1932.32
587.768	1936.39
588.127	1920.12
588.487	1944.98
588.846	1913.79
589.206	1910.63
589.565	1950.17
589.925	1943.62
590.284	1957.86
590.643	1984.98
591.003	1974.13
591.362	1931.19
591.721	1949.72
592.08	1930.97
592.44	1949.04
592.799	1947.69
593.158	1942.49
593.517	1914.02
593.876	1914.47
594.235	1912.89
594.593	1917.86
594.952	1956.73
595.311	1945.2
595.67	1940.46
596.029	1932.77
596.387	1960.57
596.746	1926.67
597.104	1929.84
597.463	1950.85
597.822	1916.28
598.18	1962.6
598.538	1939.33
598.897	1957.63
599.255	1930.74
599.613	1953.79
599.972	1952.66
600.33	1958.99
600.688	1975.26
601.046	1983.85
601.404	1955.82
601.762	1931.87
602.12	1938.65
602.478	1956.28
602.836	1926.45
603.194	1954.02
603.552	1984.52
603.91	1949.72
604.268	1965.99
604.625	1950.4
604.983	1976.16
605.341	1956.28
605.698	1945.66
606.056	1955.37
606.413	1963.96
606.771	1968.48
607.128	1947.69
607.485	1952.89
607.843	1937.52
608.2	1968.93
608.557	1954.47
608.914	1951.53
609.272	1916.28
609.629	1960.57
609.986	1983.17
610.343	1973.22
610.7	1971.42
611.057	1976.84
611.414	1958.54
611.771	1979.78
612.127	1983.39
612.484	1975.71
612.841	1989.72
613.198	1967.12
613.554	1971.19
613.911	1980
614.267	1970.97
614.624	1982.04
614.98	1971.87
615.337	1973.9
615.693	1993.79
616.05	1980
616.406	1989.27
616.762	1993.56
617.118	1982.04
617.475	1995.15
617.831	2008.03
618.187	1989.04
618.543	1992.66
618.899	2007.12
619.255	2021.81
619.611	2002.83
619.967	2016.39
620.323	1992.66
620.678	2002.6
621.034	2022.94
621.39	1998.08
621.746	1967.12
622.101	2014.13
622.457	2035.14
622.812	2008.93
623.168	2019.55
623.523	2020.68
623.879	2015.71
624.234	2000.34
624.589	2052.09
624.945	2013.68
625.3	2017.97
625.655	2036.95
626.01	2037.18
626.365	2012.77
626.72	2013.9
627.075	2008.25
627.43	2017.29
627.785	2011.87
628.14	2023.17
628.495	2017.29
628.85	2004.64
629.205	2026.1
629.559	2037.18
629.914	1986.56
630.269	2013.9
630.623	1985.2
630.978	2013.45
631.332	2043.28
631.687	2066.33
632.041	2001.92
632.396	2039.89
632.75	2031.75
633.104	2055.48
633.459	2016.39
633.813	2011.19
634.167	2029.04
634.521	2001.7
634.875	2048.25
635.229	2020.23
635.583	2030.4
635.937	2006.67
636.291	2028.36
636.645	2012.55
636.999	2001.02
637.352	2026.56
637.706	2019.78
638.06	2031.08
638.413	2027.91
638.767	2004.64
639.121	2019.78
639.474	1985.65
639.828	2049.83
640.181	2016.39
640.534	2016.84
640.888	2023.62
641.241	2004.86
641.594	1984.3
641.947	2047.57
642.301	2038.08
642.654	2039.66
643.007	2026.78
643.36	2032.21
643.713	2033.79
644.066	2047.8
644.419	2020.91
644.771	1999.21
645.124	2024.3
645.477	1998.54
645.83	2005.99
646.182	1967.8
646.535	1986.56
646.888	2023.39
647.24	1997.41
647.593	1994.92
647.945	1980.68
648.298	1997.18
648.65	2023.85
649.002	1977.07
649.355	2030.17
649.707	2020.23
650.059	2016.84
650.411	2030.85
650.763	2028.36
651.115	2040.12
651.467	2051.87
651.819	2050.74
652.171	2056.84
652.523	2052.09
652.875	2066.78
653.227	2056.16
653.578	2049.16
653.93	2062.26
654.282	2080.11
654.633	2066.56
654.985	2110.4
655.337	2061.13
655.688	2090.51
656.039	2103.62
656.391	2107.01
656.742	2083.96
657.094	2064.97
657.445	2103.84
657.796	2125.54
658.147	2101.36
658.498	2094.8
658.849	2113.11
659.2	2109.04
659.551	2125.31
659.902	2130.06
660.253	2129.38
660.604	2126.67
660.955	2118.08
661.306	2140.23
661.656	2126.89
662.007	2114.24
662.358	2119.44
662.708	2126.22
663.059	2118.31
663.409	2135.03
663.76	2140
664.11	2124.41
664.461	2143.39
664.811	2146.1
665.161	2136.38
665.511	2109.27
665.862	2115.37
666.212	2154.92
666.562	2172.77
666.912	2134.58
667.262	2164.18
667.612	2139.32
667.962	2097.97
668.312	2164.41
668.662	2134.8
669.011	2119.66
669.361	2099.55
669.711	2137.06
670.06	2112.88
670.41	2133.45
670.76	2128.25
671.109	2114.46
671.459	2087.8
671.808	2110.85
672.157	2098.19
672.507	2137.06
672.856	2114.46
673.205	2118.53
673.554	2097.52
673.904	2100.23
674.253	2113.56
674.602	2077.4
674.951	2068.36
675.3	2079.89
675.649	2086.22
675.998	2089.61
676.346	2080.34
676.695	2096.16
677.044	2067.46
677.393	2062.26
677.741	2078.08
678.09	2105.65
678.438	2040.79
678.787	2045.31
679.135	2087.12
679.484	2061.13
679.832	2011.64
680.181	2035.6
680.529	2054.13
680.877	2057.29
681.225	2029.49
681.573	2042.15
681.922	2050.96
682.27	2053.45
682.618	2022.72
682.966	2000.57
683.314	2020.91
683.661	2017.07
684.009	1979.1
684.357	1982.72
684.705	2047.35
685.053	1965.99
685.4	1954.69
685.748	2004.64
686.095	1965.32
686.443	1970.29
686.79	1965.99
687.138	1954.24
687.485	1980.68
687.832	1957.41
688.18	1977.07
688.527	1953.79
688.874	1948.59
689.221	1918.76
689.568	1901.81
689.915	1917.63
690.262	1910.85
690.609	1915.6
690.956	1921.7
691.303	1914.24
691.65	1898.42
691.997	1908.37
692.344	1897.75
692.69	1862.04
693.037	1876.96
693.383	1883.51
693.73	1856.39
694.077	1849.16
694.423	1911.08
694.769	1896.62
695.116	1851.19
695.462	1886
695.808	1869.05
696.155	1839.22
696.501	1818.43
696.847	1844.87
697.193	1817.75
697.539	1841.03
697.885	1819.33
698.231	1796.73
698.577	1829.5
698.923	1815.26
699.269	1810.97
699.614	1830.63
699.96	1776.85
700.306	1798.09
700.651	1794.47
700.997	1781.82
701.342	1756.51
701.688	1773.68
702.033	1748.15
702.379	1759.45
702.724	1784.08
703.069	1755.6
703.415	1762.61
703.76	1743.4
704.105	1735.27
704.45	1755.6
704.795	1734.36
705.14	1705.21
705.485	1761.48
705.83	1737.07
706.175	1725.77
706.52	1727.81
706.865	1715.38
707.209	1736.17
707.554	1740.91
707.899	1752.89
708.243	1743.63
708.588	1725.55
708.932	1733.23
709.277	1721.93
709.621	1720.35
709.966	1712.67
710.31	1749.95
710.654	1732.55
710.998	1693.91
711.342	1702.05
711.687	1735.94
712.031	1713.57
712.375	1702.95
712.719	1704.53
713.063	1713.8
713.407	1703.85
713.75	1733.01
714.094	1717.19
714.438	1721.03
714.782	1726
715.125	1756.73
715.469	1723.29
715.812	1739.78
716.156	1707.02
716.499	1764.19
716.843	1768.94
717.186	1752.44
717.53	1717.19
717.873	1772.55
718.216	1746.34
718.559	1745.21
718.902	1777.52
719.246	1779.56
719.589	1781.37
719.932	1765.32
720.275	1788.15
720.617	1762.84
720.96	1771.2
721.303	1791.99
721.646	1789.95
721.989	1808.26
722.331	1789.95
722.674	1806.22
723.016	1773.46
723.359	1826.56
723.701	1815.49
724.044	1807.13
724.386	1797.18
724.729	1831.08
725.071	1802.83
725.413	1828.6
725.755	1834.7
726.097	1837.18
726.439	1838.99
726.782	1862.72
727.124	1899.1
727.465	1885.09
727.807	1856.62
728.149	1890.97
728.491	1890.97
728.833	1873.11
729.175	1904.07
729.516	1892.32
729.858	1887.13
730.199	1930.29
730.541	1923.51
730.882	1949.27
731.224	1951.76
731.565	1946.33
731.906	1977.29
732.248	1978.42
732.589	1979.33
732.93	2012.32
733.271	1984.98
733.612	1993.11
733.953	2038.76
734.294	2019.78
734.635	2029.27
734.976	2018.87
735.317	2030.4
735.658	2088.93
735.999	2090.28
736.339	2074.24
736.68	2113.79
737.021	2122.37
737.361	2101.58
737.702	2130.06
738.042	2115.59
738.383	2150.17
738.723	2212.09
739.063	2204.41
739.404	2212.31
739.744	2215.03
740.084	2260.68
740.424	2263.16
740.764	2263.16
741.104	2282.14
741.444	2311.97
741.784	2293.22
742.124	2334.8
742.464	2361.01
742.804	2374.34
743.143	2389.49
743.483	2421.12
743.823	2439.65
744.162	2470.84
744.502	2508.8
744.841	2499.09
745.181	2553.55
745.52	2553.1
745.86	2643.72
746.199	2611.63
746.538	2642.81
746.877	2726.43
747.216	2754.45
747.556	2749.02
747.895	2825.86
748.234	2847.55
748.573	2846.65
748.911	2892.97
749.25	2952.86
749.589	2980.43
749.928	2989.02
750.267	3059.52
750.605	3065.17
750.944	3134.78
751.283	3207.32
751.621	3195.79
751.96	3287.99
752.298	3292.29
752.636	3362.57
752.975	3419.51
753.313	3441.21
753.651	3489.34
753.989	3571.6
754.327	3597.59
754.666	3657.25
755.004	3641.88
755.342	3746.29
755.679	3831.26
756.017	3866.96
756.355	3897.02
756.693	3976.34
757.031	4042.32
757.368	4085.03
757.706	4150.79
758.044	4207.52
758.381	4290.23
758.719	4271.92
759.056	4362.77
759.394	4376.78
759.731	4468.98
760.068	4506.94
760.405	4551.24
760.743	4584.91
761.08	4679.82
761.417	4758.46
761.754	4759.59
762.091	4861.06
762.428	4897.22
762.765	4926.37
763.102	5038.91
763.438	5055.63
763.775	5106.48
764.112	5131.11
764.449	5179.02
764.785	5204.78
765.122	5291.1
765.458	5363.64
765.795	5398.67
766.131	5395.51
766.467	5523.19
766.804	5468.5
767.14	5513.47
767.476	5548.72
767.812	5586.69
768.148	5673.24
768.485	5750.53
768.821	5750.07
769.157	5745.56
769.492	5786.01
769.828	5821.71
770.164	5836.17
770.5	5868.04
770.836	5925.89
771.171	5947.13
771.507	5944.65
771.842	6013.8
772.178	6031.2
772.513	6007.92
772.849	6048.82
773.184	6060.35
773.519	6126.79
773.855	6128.14
774.19	6113.91
774.525	6139.44
774.86	6190.74
775.195	6237.75
775.53	6257.63
775.865	6253.56
776.2	6256.73
776.535	6294.92
776.87	6329.95
777.205	6291.08
777.539	6326.33
777.874	6380.11
778.209	6311.42
778.543	6292.43
778.878	6304.18
779.212	6406.33
779.547	6353.22
779.881	6425.99
780.215	6365.65
780.55	6455.59
780.884	6405.2
781.218	6434.8
781.552	6467.34
781.886	6456.72
782.22	6426.67
782.554	6413.33
782.888	6385.09
783.222	6427.35
783.556	6403.39
783.889	6406.78
784.223	6383.96
784.557	6392.09
784.89	6454.24
785.224	6410.17
785.557	6406.1
785.891	6478.87
786.224	6395.71
786.558	6456.27
786.891	6412.2
787.224	6418.08
787.557	6441.36
787.891	6409.49
788.224	6471.64
788.557	6459.89
788.89	6495.59
789.223	6496.04
789.556	6465.76
789.888	6433.45
790.221	6451.98
790.554	6437.51
790.887	6492.43
791.219	6462.15
791.552	6390.74
791.884	6417.4
792.217	6369.04
792.549	6447.68
792.882	6360.45
793.214	6385.09
793.546	6386.22
793.879	6333.34
794.211	6390.51
794.543	6350.74
794.875	6383.5
795.207	6372.66
795.539	6381.92
795.871	6351.87
796.203	6375.14
796.535	6282.26
796.867	6299.89
797.198	6327.69
797.53	6330.4
797.862	6348.93
798.193	6302.83
798.525	6315.94
798.856	6330.85
799.188	6285.43
799.519	6301.7
799.85	6250.17
800.182	6240.23
800.513	6236.39
800.844	6171.53
801.175	6234.81
801.506	6271.42
801.837	6240.01
802.168	6171.08
802.499	6192.1
802.83	6158.43
803.161	6131.31
803.491	6189.84
803.822	6161.82
804.153	6115.49
804.483	6073.46
804.814	6117.07
805.145	6144.64
805.475	6115.49
805.805	6110.52
806.136	6091.08
806.466	6106.68
806.796	6068.26
807.126	6077.3
807.457	6070.74
807.787	6066.45
808.117	6035.94
808.447	6048.15
808.777	6049.73
809.107	6025.77
809.436	6044.08
809.766	5984.64
810.096	6009.5
810.426	5974.93
810.755	5990.75
811.085	5976.96
811.414	5956.85
811.744	5934.02
812.073	5943.74
812.403	5942.16
812.732	5921.14
813.061	5893.8
813.39	5936.74
813.719	5884.76
814.049	5943.97
814.378	5890.64
814.707	5875.27
815.036	5903.52
815.365	5834.14
815.693	5814.93
816.022	5870.98
816.351	5801.6
816.68	5823.07
817.008	5866.91
817.337	5746.23
817.665	5751.66
817.994	5808.83
818.322	5804.54
818.651	5740.36
818.979	5732.45
819.307	5798.44
819.636	5802.95
819.964	5740.58
820.292	5768.61
820.62	5706.46
820.948	5666.46
821.276	5701.94
821.604	5777.87
821.932	5758.44
822.259	5736.97
822.587	5743.97
822.915	5772.67
823.243	5743.52
823.57	5730.87
823.898	5790.53
824.225	5734.93
824.553	5758.21
824.88	5795.95
825.207	5768.15
825.535	5748.49
825.862	5768.38
826.189	5781.94
826.516	5789.4
826.843	5771.77
827.17	5771.09
827.497	5818.55
827.824	5768.61
828.151	5850.19
828.478	5852.67
828.805	5825.33
829.131	5834.59
829.458	5777.19
829.785	5790.07
830.111	5814.25
830.438	5851.32
830.764	5851.09
831.09	5803.86
831.417	5761.15
831.743	5825.55
832.069	5821.26
832.395	5838.66
832.722	5747.36
833.048	5776.51
833.374	5780.81
833.7	5765.89
834.026	5818.77
834.351	5814.93
834.677	5804.31
835.003	5781.49
835.329	5805.89
835.654	5775.38
835.98	5779.45
836.306	5763.18
836.631	5734.03
836.956	5787.36
837.282	5780.13
837.607	5777.42
837.932	5732.67
838.258	5743.52
838.583	5725.22
838.908	5732
839.233	5710.75
839.558	5699.45
839.883	5701.94
840.208	5735.39
840.533	5677.08
840.858	5710.98
841.182	5718.89
841.507	5667.37
841.832	5686.12
842.156	5646.57
842.481	5644.99
842.805	5620.59
843.13	5611.77
843.454	5623.52
843.778	5567.03
844.103	5566.12
844.427	5563.41
844.751	5532.45
845.075	5562.74
845.399	5583.53
845.723	5543.53
846.047	5482.51
846.371	5487.93
846.695	5486.8
847.019	5414.72
847.343	5443.19
847.666	5409.29
847.99	5315.96
848.313	5383.08
848.637	5309.41
848.96	5318.67
849.284	5313.7
849.607	5262.86
849.931	5264.44
850.254	5228.28
850.577	5152.58
850.9	5133.59
851.223	5188.51
851.546	5142.86
851.869	5111
852.192	5165.23
852.515	5094.72
852.838	5087.49
853.161	5095.63
853.483	5074.39
853.806	5065.8
854.129	5032.58
854.451	5061.96
854.774	5028.74
855.096	4951
855.419	5006.82
855.741	4994.61
856.063	4948.97
856.385	4926.14
856.708	4938.57
857.03	4941.28
857.352	4934.95
857.674	4912.81
857.996	4916.2
858.318	4840.04
858.64	4880.49
858.961	4852.25
859.283	4843.88
859.605	4805.01
859.926	4800.27
860.248	4752.36
860.57	4768.18
860.891	4763.21
861.212	4730.44
861.534	4749.88
861.855	4722.08
862.176	4740.84
862.498	4736.99
862.819	4753.04
863.14	4705.13
863.461	4687.5
863.782	4643.44
864.103	4692.7
864.424	4684.79
864.745	4680.5
865.065	4645.92
865.386	4647.96
865.707	4664.45
866.027	4646.38
866.348	4638.24
866.668	4586.49
866.989	4594.17
867.309	4545.59
867.63	4604.34
867.95	4566.6
868.27	4573.61
868.59	4555.53
868.91	4541.74
869.23	4562.08
869.55	4546.94
869.87	4558.69
870.19	4505.59
870.51	4508.53
870.83	4531.58
871.15	4486.83
871.469	4483.89
871.789	4529.54
872.109	4496.32
872.428	4511.69
872.748	4531.58
873.067	4487.51
873.386	4477.79
873.706	4442.99
874.025	4451.58
874.344	4437.34
874.663	4447.51
874.982	4431.92
875.301	4433.73
875.62	4416.1
875.939	4455.87
876.258	4424.46
876.577	4401.18
876.896	4374.29
877.214	4369.55
877.533	4379.49
877.852	4388.98
878.17	4350.34
878.489	4360.28
878.807	4367.96
879.125	4370.9
879.444	4371.13
879.762	4304.24
880.08	4362.99
880.398	4366.38
880.716	4333.39
881.034	4274.86
881.352	4316.44
881.67	4275.09
881.988	4296.55
882.306	4266.05
882.624	4281.64
882.941	4256.1
883.259	4229.66
883.577	4214.07
883.894	4240.96
884.212	4220.17
884.529	4179.72
884.846	4202.09
885.164	4188.08
885.481	4128.87
885.798	4162.32
886.115	4141.53
886.432	4210.45
886.75	4122.32
887.067	4157.35
887.383	4091.36
887.7	4138.82
888.017	4059.95
888.334	4089.55
888.651	4059.95
888.967	4086.16
889.284	4052.49
889.6	4035.32
889.917	4015.88
890.233	4043.9
890.55	3989.22
890.866	3948.54
891.182	3984.92
891.498	3977.24
891.815	3953.74
892.131	3986.73
892.447	3937.69
892.763	3930.69
893.079	3939.27
893.395	3934.98
893.71	3948.09
894.026	3878.71
894.342	3909.67
894.657	3887.98
894.973	3833.74
895.289	3896.34
895.604	3813.4
895.92	3813.18
896.235	3794.19
896.55	3791.26
896.865	3758.26
897.181	3733.18
897.496	3740.86
897.811	3789.67
898.126	3710.81
898.441	3726.63
898.756	3732.05
899.071	3734.99
899.386	3667.42
899.7	3646.4
900.015	3628.32
900.33	3659.96
900.644	3616.8
900.959	3608.89
901.273	3617.02
901.588	3559.62
901.902	3553.52
902.216	3563.92
902.531	3551.49
902.845	3541.77
903.159	3511.72
903.473	3506.74
903.787	3524.14
904.101	3489.12
904.415	3519.17
904.729	3446.41
905.042	3461.32
905.356	3432.4
905.67	3429.68
905.984	3428.33
906.297	3388.33
906.611	3390.81
906.924	3357.6
907.237	3371.83
907.551	3392.62
907.864	3387.88
908.177	3306.52
908.491	3332.06
908.804	3320.31
909.117	3280.99
909.43	3268.11
909.743	3265.85
910.056	3252.97
910.368	3241.44
910.681	3197.15
910.994	3234.21
911.307	3208.67
911.619	3134.78
911.932	3164.38
912.244	3137.04
912.557	3156.47
912.869	3145.62
913.181	3130.93
913.494	3065.63
913.806	3114.21
914.118	3097.04
914.43	3087.77
914.742	3087.32
915.054	3049.58
915.366	3056.59
915.678	3040.99
915.99	3024.27
916.302	3026.98
916.613	2980.88
916.925	2984.72
917.236	2973.42
917.548	2951.28
917.859	2952.41
918.171	2923.48
918.482	2929.13
918.794	2907.21
919.105	2959.19
919.416	2949.47
919.727	2918.51
920.038	2901.34
920.349	2878.06
920.66	2845.29
920.971	2878.51
921.282	2838.74
921.593	2781.57
921.903	2788.12
922.214	2800.77
922.525	2828.57
922.835	2804.39
923.146	2729.59
923.456	2771.4
923.767	2745.86
924.077	2758.97
924.387	2728.69
924.697	2723.71
925.008	2736.37
925.318	2673.32
925.628	2664.73
925.938	2653.89
926.248	2681.45
926.558	2677.39
926.867	2652.53
927.177	2610.04
927.487	2603.72
927.796	2608.46
928.106	2594.68
928.416	2619.99
928.725	2589.25
929.034	2592.87
929.344	2558.97
929.653	2553.1
929.962	2529.37
930.271	2541.57
930.581	2589.48
930.89	2507.9
931.199	2489.14
931.508	2492.99
931.817	2492.08
932.125	2463.38
932.434	2487.79
932.743	2469.71
933.051	2447.79
933.36	2428.81
933.669	2442.37
933.977	2416.6
934.286	2403.5
934.594	2413.21
934.902	2411.63
935.21	2388.13
935.519	2369.82
935.827	2379.54
936.135	2341.58
936.443	2336.15
936.751	2342.71
937.059	2319.66
937.367	2328.7
937.674	2329.15
937.982	2283.73
938.29	2302.03
938.597	2323.5
938.905	2264.29
939.213	2271.3
939.52	2271.3
939.827	2261.35
940.135	2236.49
940.442	2252.77
940.749	2221.81
941.056	2224.97
941.363	2215.25
941.67	2183.84
941.977	2186.55
942.284	2163.95
942.591	2173.45
942.898	2145.88
943.205	2155.14
943.511	2181.81
943.818	2110.4
944.125	2157.85
944.431	2138.64
944.738	2120.34
945.044	2076.27
945.35	2075.14
945.657	2077.63
945.963	2081.7
946.269	2050.74
946.575	2071.53
946.881	2062.26
947.187	2048.25
947.493	2051.64
947.799	2027.69
948.105	2027.91
948.41	2020.23
948.716	1989.5
949.022	1994.69
949.327	1993.11
949.633	2021.13
949.938	2017.74
950.244	1977.07
950.549	1951.3
950.854	1965.99
951.16	1969.38
951.465	1965.54
951.77	1951.76
952.075	1942.27
952.38	1917.41
952.685	1944.75
952.99	1905.88
953.294	1940.91
953.599	1904.07
953.904	1883.06
954.209	1870.18
954.513	1873.11
954.818	1856.62
955.122	1851.87
955.426	1865.88
955.731	1822.49
956.035	1835.83
956.339	1817.75
956.643	1806
956.948	1854.58
957.252	1808.03
957.556	1822.95
957.86	1803.74
958.163	1777.3
958.467	1793.57
958.771	1780.24
959.075	1782.72
959.378	1765.55
959.682	1764.19
959.985	1714.25
960.289	1740.91
960.592	1726.68
960.896	1736.62
961.199	1690.97
961.502	1730.75
961.805	1723.51
962.108	1688.94
962.411	1697.3
962.714	1663.85
963.017	1700.46
963.32	1680.13
963.623	1666.57
963.926	1642.61
964.228	1646.68
964.531	1648.94
964.833	1656.4
965.136	1635.61
965.438	1619.79
965.741	1641.93
966.043	1610.75
966.345	1604.2
966.648	1591.54
966.95	1609.62
967.252	1599.9
967.554	1559.45
967.856	1537.76
968.158	1565.55
968.46	1561.48
968.761	1565.78
969.063	1574.59
969.365	1548.83
969.666	1557.19
969.968	1533.01
970.269	1522.62
970.571	1537.98
970.872	1520.81
971.174	1505.44
971.475	1493.92
971.776	1501.6
972.077	1502.5
972.378	1482.84
972.679	1505.44
972.98	1485.78
973.281	1478.1
973.582	1457.31
973.883	1463.63
974.183	1465.22
974.484	1441.71
974.785	1440.36
975.085	1428.38
975.386	1447.14
975.686	1484.65
975.986	1427.7
976.287	1430.41
976.587	1419.57
976.887	1422.28
977.187	1408.04
977.487	1399.23
977.787	1365.78
978.087	1403.97
978.387	1399
978.687	1371.88
978.987	1381.83
979.286	1380.47
979.586	1364.88
979.885	1360.13
980.185	1355.16
980.484	1347.25
980.784	1332.11
981.083	1344.77
981.382	1330.76
981.682	1355.61
981.981	1319.23
982.28	1344.54
982.579	1275.16
982.878	1341.83
983.177	1290.76
983.475	1308.84
983.774	1292.34
984.073	1292.11
984.372	1266.35
984.67	1281.27
984.969	1273.36
985.267	1276.07
985.566	1267.71
985.864	1250.98
986.162	1276.07
986.461	1240.14
986.759	1246.46
987.057	1251.89
987.355	1228.84
987.653	1224.32
987.951	1194.71
988.249	1223.41
988.547	1205.11
988.844	1222.74
989.142	1191.78
989.44	1205.34
989.737	1185.9
990.035	1215.5
990.332	1164.43
990.63	1200.36
990.927	1175.51
991.224	1189.29
991.521	1168.95
991.819	1155.85
992.116	1168.73
992.413	1147.71
992.71	1150.2
993.006	1142.51
993.303	1144.77
993.6	1143.64
993.897	1161.95
994.193	1130.31
994.49	1135.05
994.787	1123.98
995.083	1115.62
995.379	1112.68
995.676	1093.25
995.972	1119.69
996.268	1106.13
996.565	1094.38
996.861	1083.08
997.157	1109.52
997.453	1065.9
997.749	1072.91
998.044	1041.95
998.34	1060.48
998.636	1036.98
998.932	1068.39
999.227	1051.44
999.523	1029.07
999.818	1032.91
1000.114	1010.31
1000.409	1022.29
1000.704	1040.37
1001	1010.09
1001.295	1015.51
1001.59	1006.7
1001.885	1015.74
1002.18	1019.13
1002.475	999.69
1002.77	992.23
1003.065	974.16
1003.359	970.77
1003.654	977.32
1003.949	965.79
1004.243	974.61
1004.538	973.7
1004.832	976.64
1005.127	968.28
1005.421	960.14
1005.715	956.3
1006.009	957.43
1006.304	952.01
1006.598	926.92
1006.892	927.83
1007.186	926.7
1007.48	950.2
1007.773	926.92
1008.067	933.03
1008.361	907.72
1008.655	912.91
1008.948	881.95
1009.242	923.76
1009.535	890.54
1009.829	905.23
1010.122	895.74
1010.415	868.4
1010.708	883.31
1011.001	879.92
1011.295	885.8
1011.588	849.64
1011.881	851.45
1012.173	842.86
1012.466	837.44
1012.759	851.45
1013.052	844.22
1013.344	851.22
1013.637	837.44
1013.93	844.44
1014.222	819.81
1014.514	827.04
1014.807	829.75
1015.099	823.88
1015.391	844.67
1015.683	802.41
1015.976	820.03
1016.268	811
1016.56	800.83
1016.851	784.56
1017.143	785.69
1017.435	809.41
1017.727	783.88
1018.018	793.37
1018.31	794.95
1018.602	771.9
1018.893	747.04
1019.185	756.99
1019.476	739.81
1019.767	721.05
1020.058	772.8
1020.35	757.66
1020.641	756.76
1020.932	732.58
1021.223	722.86
1021.514	756.53
1021.804	734.39
1022.095	742.3
1022.386	718.34
1022.677	715.63
1022.967	707.5
1023.258	707.04
1023.548	733.03
1023.839	735.29
1024.129	714.28
1024.419	695.07
1024.709	707.72
1025	702.07
1025.29	672.69
1025.58	681.06
1025.87	677.89
1026.16	668.63
1026.449	694.61
1026.739	690.77
1027.029	662.52
1027.319	669.3
1027.608	681.96
1027.898	672.69
1028.187	654.39
1028.477	686.93
1028.766	636.99
1029.055	662.3
1029.344	643.99
1029.634	658.91
1029.923	642.41
1030.212	652.36
1030.501	645.35
1030.79	623.66
1031.078	619.14
1031.367	614.16
1031.656	616.65
1031.945	617.33
1032.233	610.32
1032.522	639.02
1032.81	594.28
1033.099	628.85
1033.387	623.43
1033.675	598.35
1033.963	608.06
1034.251	596.31
1034.54	609.19
1034.828	598.8
1035.116	594.28
1035.403	607.61
1035.691	597.44
1035.979	577.78
1036.267	578.46
1036.554	589.98
1036.842	592.47
1037.129	573.71
1037.417	580.04
1037.704	586.59
1037.992	581.85
1038.279	581.17
1038.566	554.28
1038.853	554.28
1039.14	554.28
