Data from blue_surface_keyboard_FLMS001491_005.txt Node
Date: Tue Feb 07 11:12:33 GMT 2017
User: dcchb
Spectrometer: FLMS00149
Trigger mode: 0
Integration Time (sec): 2.000000E-2
Scans to average: 10
Electric dark correction enabled: true
Nonlinearity correction enabled: false
Boxcar width: 0
XAxis mode: Wavelengths
Number of Pixels in Spectrum: 2048
>>>>>Begin Spectral Data<<<<<
341.393	-24.9
341.776	-24.9
342.16	-24.9
342.543	-62.64
342.927	-67.84
343.31	-62.87
343.693	-80.04
344.077	-57.67
344.46	-71
344.843	-73.94
345.226	-40.72
345.61	-29.87
345.993	-12.92
346.376	-12.47
346.759	7.64
347.142	44.02
347.525	29.11
347.908	50.35
348.291	83.57
348.674	108.2
349.057	118.6
349.44	137.13
349.823	161.76
350.206	141.65
350.588	180.52
350.971	185.49
351.354	204.7
351.737	210.57
352.119	208.09
352.502	232.95
352.884	257.58
353.267	256.45
353.65	280.85
354.032	276.56
354.414	278.37
354.797	279.95
355.179	304.58
355.562	323.56
355.944	291.02
356.326	322.89
356.709	310.68
357.091	314.53
357.473	313.17
357.855	315.66
358.238	325.15
358.62	312.27
359.002	305.94
359.384	310.68
359.766	303
360.148	307.07
360.53	305.49
360.912	312.94
361.294	307.75
361.676	306.39
362.057	310.01
362.439	306.39
362.821	297.12
363.203	287.41
363.584	314.07
363.966	291.02
364.348	285.83
364.729	301.64
365.111	293.51
365.493	318.59
365.874	286.73
366.256	299.16
366.637	294.87
367.019	299.61
367.4	293.51
367.781	291.02
368.163	286.28
368.544	284.92
368.925	282.66
369.306	300.97
369.688	267.75
370.069	276.11
370.45	265.94
370.831	289.67
371.212	288.54
371.593	276.11
371.974	275.2
372.355	293.51
372.736	277.24
373.117	283.57
373.498	288.54
373.879	275.88
374.26	291.02
374.641	291.25
375.021	282.66
375.402	287.18
375.783	286.28
376.163	284.47
376.544	287.18
376.925	287.41
377.305	309.33
377.686	302.55
378.066	320.4
378.447	310.68
378.827	286.73
379.208	292.15
379.588	304.81
379.968	296.67
380.349	297.35
380.729	274.75
381.109	316.56
381.489	278.14
381.87	307.29
382.25	315.88
382.63	295.77
383.01	287.86
383.39	316.33
383.77	310.23
384.15	311.36
384.53	288.31
384.91	316.33
385.29	298.93
385.67	319.95
386.049	324.47
386.429	318.14
386.809	309.55
387.189	314.53
387.568	334.19
387.948	297.8
388.328	314.07
388.707	304.81
389.087	317.92
389.466	296.45
389.846	299.38
390.225	313.17
390.605	323.34
390.984	310.01
391.363	306.84
391.743	319.5
392.122	322.21
392.501	305.49
392.881	319.5
393.26	315.2
393.639	333.73
394.018	311.81
394.397	339.38
394.776	298.48
395.155	323.11
395.534	319.05
395.913	322.89
396.292	319.95
396.671	314.07
397.05	321.31
397.429	317.92
397.808	329.89
398.186	354.75
398.565	308.42
398.944	313.85
399.323	345.03
399.701	338.03
400.08	329.21
400.458	351.13
400.837	349.33
401.215	353.85
401.594	331.47
401.972	332.38
402.351	346.62
402.729	331.47
403.107	357.46
403.486	338.93
403.864	353.39
404.242	354.75
404.62	343
404.999	361.53
405.377	345.49
405.755	345.94
406.133	364.24
406.511	366.05
406.889	351.59
407.267	348.65
407.645	343.68
408.023	363.11
408.401	371.02
408.779	358.59
409.156	379.61
409.534	363.56
409.912	365.37
410.29	378.48
410.667	380.06
411.045	366.5
411.422	353.17
411.8	376.44
412.178	365.37
412.555	382.77
412.933	381.87
413.31	378.25
413.687	370.8
414.065	394.3
414.442	386.39
414.819	360.85
415.197	366.73
415.574	382.55
415.951	375.77
416.328	381.64
416.705	360.4
417.082	387.74
417.46	398.37
417.837	391.13
418.214	408.99
418.591	379.38
418.967	396.11
419.344	411.92
419.721	392.26
420.098	400.4
420.475	395.2
420.852	403.34
421.228	403.11
421.605	385.26
421.982	410.12
422.358	410.57
422.735	415.31
423.111	431.58
423.488	411.7
423.864	406.05
424.241	404.47
424.617	408.08
424.994	400.4
425.37	422.77
425.746	415.31
426.123	410.34
426.499	422.55
426.875	406.73
427.251	432.94
427.627	416.44
428.003	418.7
428.379	432.71
428.756	435.2
429.132	436.78
429.507	430.23
429.883	423.45
430.259	455.99
430.635	435.88
431.011	445.37
431.387	447.63
431.763	469.78
432.138	455.31
432.514	464.58
432.89	483.11
433.265	471.13
433.641	472.04
434.016	458.25
434.392	485.82
434.767	497.35
435.143	459.15
435.518	456.44
435.894	449.89
436.269	475.65
436.644	469.32
437.02	484.69
437.395	481.75
437.77	482.43
438.145	507.51
438.52	488.76
438.895	506.38
439.271	493.73
439.646	507.29
440.021	522.88
440.395	512.03
440.77	512.26
441.145	515.42
441.52	514.29
441.895	508.64
442.27	501.64
442.645	516.33
443.019	511.13
443.394	524.24
443.769	517.01
444.143	521.98
444.518	524.92
444.892	525.37
445.267	527.4
445.641	543.45
446.016	545.93
446.39	523.56
446.764	531.7
447.139	552.71
447.513	566.5
447.887	562.65
448.262	551.58
448.636	548.42
449.01	541.86
449.384	557.91
449.758	548.19
450.132	564.91
450.506	589.55
450.88	563.33
451.254	557.91
451.628	565.37
452.002	541.19
452.376	563.11
452.75	571.02
453.123	565.59
453.497	595.2
453.871	591.58
454.244	575.08
454.618	598.59
454.992	593.39
455.365	582.09
455.739	587.51
456.112	618.47
456.486	598.59
456.859	615.08
457.232	627.29
457.606	619.6
457.979	615.31
458.352	630.9
458.725	612.37
459.099	642.88
459.472	634.74
459.845	624.8
460.218	624.57
460.591	645.14
460.964	630.22
461.337	667.06
461.71	663.89
462.083	652.82
462.456	671.58
462.829	667.28
463.201	674.74
463.574	656.89
463.947	676.78
464.32	680.39
464.692	679.04
465.065	681.07
465.438	684.46
465.81	702.09
466.183	707.06
466.555	732.59
466.928	727.17
467.3	728.98
467.672	719.71
468.045	705.7
468.417	736.44
468.789	737.11
469.161	750.22
469.534	746.15
469.906	767.17
470.278	758.36
470.65	749.77
471.022	801.97
471.394	795.64
471.766	768.52
472.138	799.03
472.51	785.7
472.882	822.53
473.253	804.23
473.625	803.1
473.997	826.15
474.369	811.46
474.74	827.28
475.112	823.66
475.484	834.06
475.855	849.88
476.227	859.37
476.598	878.35
476.97	877.9
477.341	910.44
477.713	900.95
478.084	914.06
478.455	908.41
478.827	913.38
479.198	944.11
479.569	942.08
479.94	954.73
480.311	961.97
480.682	981.17
481.053	993.6
481.424	993.15
481.795	994.06
482.166	1004.23
482.537	983.43
482.908	1044.22
483.279	1025.24
483.65	1043.55
484.021	1048.97
484.391	1068.4
484.762	1072.92
485.133	1082.42
485.503	1086.48
485.874	1103.21
486.244	1094.62
486.615	1115.18
486.985	1127.39
487.356	1139.14
487.726	1145.46
488.097	1152.7
488.467	1132.36
488.837	1149.08
489.207	1170.55
489.578	1187.27
489.948	1178.46
490.318	1201.51
490.688	1207.84
491.058	1190.43
491.428	1225.01
491.798	1216.65
492.168	1206.48
492.538	1233.6
492.908	1214.39
493.278	1219.81
493.648	1244.22
494.017	1247.38
494.387	1240.15
494.757	1262.98
495.126	1258
495.496	1273.37
495.866	1300.26
496.235	1284.9
496.605	1295.29
496.974	1315.63
497.344	1294.16
497.713	1304.1
498.082	1328.74
498.452	1354.27
498.821	1324.44
499.19	1303.2
499.559	1337.32
499.928	1325.8
500.298	1343.43
500.667	1338.23
501.036	1353.59
501.405	1366.02
501.774	1342.52
502.143	1320.15
502.512	1345.91
502.88	1349.75
503.249	1336.65
503.618	1350.2
503.987	1331.22
504.356	1361.5
504.724	1365.12
505.093	1365.8
505.462	1376.87
505.83	1369.19
506.199	1391.56
506.567	1394.72
506.936	1382.52
507.304	1390.88
507.672	1387.72
508.041	1395.18
508.409	1391.11
508.777	1403.31
509.145	1409.41
509.514	1385.68
509.882	1415.74
510.25	1421.39
510.618	1418.45
510.986	1386.59
511.354	1438.79
511.722	1423.87
512.09	1438.56
512.458	1432.24
512.826	1443.54
513.193	1440.6
513.561	1453.03
513.929	1413.71
514.297	1444.44
514.664	1454.61
515.032	1450.09
515.4	1446.93
515.767	1464.55
516.135	1486.02
516.502	1483.53
516.869	1444.21
517.237	1465.46
517.604	1468.39
517.972	1493.03
518.339	1451.44
518.706	1476.3
519.073	1468.17
519.44	1456.87
519.808	1484.21
520.175	1475.63
520.542	1488.51
520.909	1524.21
521.276	1489.86
521.643	1493.7
522.009	1527.15
522.376	1492.57
522.743	1533.7
523.11	1503.87
523.477	1512.01
523.843	1554.27
524.21	1529.63
524.577	1533.02
524.943	1503.19
525.31	1536.41
525.676	1542.74
526.043	1565.57
526.409	1542.97
526.776	1577.09
527.142	1555.17
527.508	1538.45
527.874	1536.87
528.241	1579.8
528.607	1590.88
528.973	1547.71
529.339	1563.08
529.705	1569.41
530.071	1554.49
530.437	1574.15
530.803	1579.35
531.169	1567.6
531.535	1577.77
531.901	1610.08
532.267	1604.89
532.632	1592.01
532.998	1586.36
533.364	1553.36
533.73	1569.41
534.095	1606.24
534.461	1634.49
534.826	1596.75
535.192	1587.26
535.557	1623.87
535.923	1627.94
536.288	1586.58
536.653	1648.73
537.019	1605.34
537.384	1633.36
537.749	1627.26
538.114	1624.77
538.479	1596.98
538.845	1609.86
539.21	1603.53
539.575	1608.05
539.94	1610.31
540.305	1616.86
540.67	1594.27
541.034	1629.97
541.399	1616.64
541.764	1636.52
542.129	1594.04
542.494	1586.13
542.858	1662.96
543.223	1631.1
543.587	1632.23
543.952	1625.23
544.316	1613.7
544.681	1587.26
545.045	1606.7
545.41	1617.32
545.774	1602.85
546.138	1617.09
546.503	1637.2
546.867	1629.97
547.231	1626.13
547.595	1623.19
547.959	1633.36
548.324	1644.89
548.688	1595.62
549.052	1608.28
549.416	1633.14
549.779	1639.01
550.143	1616.41
550.507	1620.93
550.871	1645.34
551.235	1660.93
551.599	1641.5
551.962	1611.44
552.326	1611.89
552.689	1644.43
553.053	1644.21
553.417	1660.93
553.78	1659.35
554.143	1650.54
554.507	1612.12
554.87	1621.61
555.234	1648.73
555.597	1628.39
555.96	1644.43
556.323	1645.79
556.686	1645.11
557.05	1639.46
557.413	1649.63
557.776	1663.64
558.139	1660.93
558.502	1663.19
558.865	1675.85
559.228	1662.06
559.59	1657.09
559.953	1658.67
560.316	1681.04
560.679	1668.39
561.041	1679.69
561.404	1688.73
561.767	1671.33
562.129	1678.11
562.492	1689.4
562.854	1704.55
563.217	1674.94
563.579	1677.65
563.941	1681.95
564.304	1705
564.666	1732.79
565.028	1727.82
565.39	1691.89
565.753	1714.26
566.115	1700.48
566.477	1698.9
566.839	1706.58
567.201	1715.84
567.563	1721.72
567.925	1751.32
568.287	1750.42
568.648	1695.28
569.01	1724.43
569.372	1740.93
569.734	1742.96
570.095	1708.61
570.457	1761.95
570.819	1744.32
571.18	1741.83
571.542	1742.74
571.903	1738.67
572.265	1752.45
572.626	1767.59
572.987	1741.61
573.349	1766.69
573.71	1769.85
574.071	1754.26
574.432	1776.41
574.794	1801.49
575.155	1759.91
575.516	1762.85
575.877	1754.94
576.238	1775.5
576.599	1766.46
576.96	1777.31
577.32	1777.99
577.681	1773.24
578.042	1783.87
578.403	1780.93
578.763	1807.37
579.124	1785.45
579.485	1777.31
579.845	1815.73
580.206	1804.88
580.566	1779.35
580.927	1760.14
581.287	1782.28
581.648	1778.44
582.008	1806.92
582.368	1804.88
582.728	1797.88
583.089	1795.39
583.449	1789.29
583.809	1807.37
584.169	1794.49
584.529	1814.15
584.889	1801.27
585.249	1791.32
585.609	1824.09
585.969	1808.5
586.329	1815.28
586.688	1811.66
587.048	1807.59
587.408	1790.65
587.768	1831.55
588.127	1792.9
588.487	1815.73
588.846	1810.98
589.206	1810.98
589.565	1816.86
589.925	1808.5
590.284	1793.36
590.643	1786.58
591.003	1789.97
591.362	1795.84
591.721	1815.05
592.08	1801.49
592.44	1831.32
592.799	1838.33
593.158	1812.79
593.517	1847.14
593.876	1814.6
594.235	1797.42
594.593	1827.48
594.952	1846.69
595.311	1843.3
595.67	1813.24
596.029	1849.17
596.387	1839.68
596.746	1876.29
597.104	1839.46
597.463	1855.5
597.822	1832.9
598.18	1833.58
598.538	1857.99
598.897	1857.54
599.255	1877.2
599.613	1861.15
599.972	1832
600.33	1862.73
600.688	1866.8
601.046	1883.3
601.404	1868.84
601.762	1847.82
602.12	1869.29
602.478	1883.07
602.836	1854.37
603.194	1899.34
603.552	1882.17
603.91	1866.8
604.268	1860.25
604.625	1872.22
604.983	1898.44
605.341	1860.25
605.698	1863.41
606.056	1875.61
606.413	1910.64
606.771	1862.73
607.128	1871.77
607.485	1902.73
607.843	1902.51
608.2	1879.23
608.557	1889.4
608.914	1910.19
609.272	1892.11
609.629	1914.94
609.986	1938.89
610.343	1908.38
610.7	1926.01
611.057	1917.42
611.414	1915.39
611.771	1908.38
612.127	1913.35
612.484	1934.82
612.841	1942.05
613.198	1907.7
613.554	1940.92
613.911	1929.17
614.267	1965.33
614.624	1949.96
614.98	1931.43
615.337	1947.7
615.693	1949.28
616.05	1956.74
616.406	1939.12
616.762	1960.13
617.118	1956.29
617.475	1955.39
617.831	1971.66
618.187	1985.44
618.543	1964.43
618.899	1983.41
619.255	1987.93
619.611	1984.99
619.967	1980.47
620.323	2028.38
620.678	1996.52
621.034	2000.13
621.39	1991.54
621.746	1980.24
622.101	2048.94
622.457	2015.27
622.812	2001.71
623.168	2025.22
623.523	2024.99
623.879	2036.51
624.234	2009.85
624.589	2018.89
624.945	2029.28
625.3	2044.2
625.655	2035.38
626.01	2049.4
626.365	2017.98
626.72	2047.81
627.075	2057.98
627.43	2054.37
627.785	2039.9
628.14	2049.85
628.495	2067.93
628.85	2060.24
629.205	2072.45
629.559	2090.3
629.914	2071.32
630.269	2078.32
630.623	2086.91
630.978	2083.74
631.332	2086.91
631.687	2096.63
632.041	2062.28
632.396	2078.32
632.75	2099.79
633.104	2107.02
633.459	2109.96
633.813	2101.37
634.167	2128.72
634.521	2131.2
634.875	2102.05
635.229	2133.91
635.583	2135.72
635.937	2107.92
636.291	2134.14
636.645	2147.25
636.999	2173.46
637.352	2164.19
637.706	2117.64
638.06	2149.51
638.413	2136.62
638.767	2159.22
639.121	2190.18
639.474	2166.45
639.828	2179.56
640.181	2212.33
640.534	2166.68
640.888	2219.56
641.241	2174.36
641.594	2202.16
641.947	2227.7
642.301	2220.46
642.654	2238.32
643.007	2226.57
643.36	2237.19
643.713	2245.32
644.066	2243.29
644.419	2225.21
644.771	2242.16
645.124	2204.87
645.477	2255.49
645.83	2232.22
646.182	2229.5
646.535	2253.46
646.888	2226.34
647.24	2234.48
647.593	2275.15
647.945	2264.3
648.298	2247.81
648.65	2238.77
649.002	2251.65
649.355	2299.78
649.707	2291.87
650.059	2310.86
650.411	2351.53
650.763	2328.26
651.115	2417.52
651.467	2400.57
651.819	2376.39
652.171	2442.15
652.523	2417.07
652.875	2404.41
653.227	2381.82
653.578	2431.98
653.93	2458.42
654.282	2463.4
654.633	2455.49
654.985	2475.37
655.337	2468.14
655.688	2488.48
656.039	2504.52
656.391	2501.36
656.742	2508.82
657.094	2484.41
657.445	2517.63
657.796	2572.55
658.147	2555.6
658.498	2579.1
658.849	2570.74
659.2	2594.01
659.551	2597.63
659.902	2594.01
660.253	2637.4
660.604	2640.79
660.955	2646.89
661.306	2668.36
661.656	2686.67
662.007	2688.93
662.358	2707.68
662.708	2683.95
663.059	2725.54
663.409	2737.06
663.76	2768.92
664.11	2792.43
664.461	2777.74
664.811	2791.07
665.161	2806.66
665.511	2820.22
665.862	2827.68
666.212	2843.27
666.562	2846.89
666.912	2883.5
667.262	2901.12
667.612	2870.16
667.962	2878.98
668.312	2910.39
668.662	2938.19
669.011	2941.58
669.361	2961.91
669.711	2982.03
670.06	2981.57
670.41	2987.45
670.76	2970.73
671.109	3033.1
671.459	3043.95
671.808	3008.69
672.157	3062.48
672.507	3051.18
672.856	3081.23
673.205	3067.9
673.554	3117.16
673.904	3137.95
674.253	3124.85
674.602	3167.11
674.951	3158.29
675.3	3130.04
675.649	3150.16
675.998	3191.96
676.346	3209.14
676.695	3247.56
677.044	3217.05
677.393	3231.51
677.741	3252.08
678.09	3246.2
678.438	3248.69
678.787	3282.58
679.135	3289.36
679.484	3331.4
679.832	3284.84
680.181	3288.01
680.529	3320.32
680.877	3307.89
681.225	3326.88
681.573	3347.89
681.922	3362.13
682.27	3343.37
682.618	3385.63
682.966	3378.63
683.314	3374.56
683.661	3392.18
684.009	3388.34
684.357	3426.99
684.705	3382.69
685.053	3439.19
685.4	3388.34
685.748	3382.24
686.095	3446.65
686.443	3402.13
686.79	3428.34
687.138	3470.6
687.485	3512.63
687.832	3488.23
688.18	3488
688.527	3504.5
688.874	3504.05
689.221	3489.13
689.568	3528.45
689.915	3505.18
690.262	3485.74
690.609	3518.28
690.956	3486.42
691.303	3515.12
691.65	3529.58
691.997	3508.57
692.344	3547.43
692.69	3527.77
693.037	3586.53
693.383	3526.19
693.73	3543.59
694.077	3525.06
694.423	3511.28
694.769	3537.49
695.116	3561.22
695.462	3550.82
695.808	3562.12
696.155	3568.68
696.501	3501.33
696.847	3559.41
697.193	3513.99
697.539	3564.84
697.885	3520.54
698.231	3528.23
698.577	3543.14
698.923	3537.94
699.269	3474.22
699.614	3509.02
699.96	3499.3
700.306	3507.66
700.651	3475.8
700.997	3507.66
701.342	3491.39
701.688	3485.97
702.033	3460.21
702.379	3503.37
702.724	3508.11
703.069	3497.04
703.415	3464.95
703.76	3457.72
704.105	3469.47
704.45	3471.96
704.795	3457.95
705.14	3463.14
705.485	3439.42
705.83	3427.89
706.175	3448
706.52	3442.35
706.865	3464.95
707.209	3464.05
707.554	3428.79
707.899	3400.55
708.243	3408.46
708.588	3431.96
708.932	3414.56
709.277	3427.89
709.621	3411.85
709.966	3402.13
710.31	3429.47
710.654	3385.86
710.998	3392.86
711.342	3405.74
711.687	3383.82
712.031	3364.16
712.375	3377.72
712.719	3391.05
713.063	3412.75
713.407	3425.63
713.75	3382.24
714.094	3406.65
714.438	3388.34
714.782	3416.59
715.125	3395.12
715.469	3395.35
715.812	3370.26
716.156	3337.72
716.499	3382.92
716.843	3356.25
717.186	3381.34
717.53	3378.63
717.873	3421.11
718.216	3358.29
718.559	3356.03
718.902	3378.63
719.246	3392.64
719.589	3358.29
719.932	3328.68
720.275	3364.84
720.617	3332.98
720.96	3393.31
721.303	3369.13
721.646	3358.74
721.989	3393.99
722.331	3404.16
722.674	3353.32
723.016	3372.75
723.359	3398.96
723.701	3379.3
724.044	3394.44
724.386	3321
724.729	3370.04
725.071	3361.45
725.413	3359.64
725.755	3394.67
726.097	3393.31
726.439	3311.96
726.782	3371.62
727.124	3401.9
727.465	3390.83
727.807	3365.07
728.149	3339.08
728.491	3387.89
728.833	3398.51
729.175	3329.59
729.516	3350.15
729.858	3393.09
730.199	3366.65
730.541	3388.8
730.882	3391.28
731.224	3435.57
731.565	3383.82
731.906	3398.96
732.248	3357.38
732.589	3406.42
732.93	3379.08
733.271	3398.51
733.612	3389.02
733.953	3411.62
734.294	3385.63
734.635	3356.25
734.976	3403.03
735.317	3402.13
735.658	3394.67
735.999	3391.73
736.339	3413.65
736.68	3452.97
737.021	3419.3
737.361	3397.38
737.702	3440.32
738.042	3432.41
738.383	3418.17
738.723	3459.98
739.063	3468.34
739.404	3445.74
739.744	3453.88
740.084	3440.77
740.424	3478.28
740.764	3457.95
741.104	3509.7
741.444	3499.98
741.784	3456.36
742.124	3499.75
742.464	3500.43
742.804	3489.36
743.143	3534.33
743.483	3561.9
743.823	3583.82
744.162	3552.86
744.502	3574.1
744.841	3561.45
745.181	3575.91
745.52	3577.26
745.86	3608.45
746.199	3597.83
746.538	3641.67
746.877	3664.95
747.216	3670.14
747.556	3645.51
747.895	3691.16
748.234	3680.31
748.573	3735.23
748.911	3716.02
749.25	3755.11
749.589	3725.96
749.928	3777.49
750.267	3827.2
750.605	3848.67
750.944	3815
751.283	3825.39
751.621	3858.84
751.96	3867.43
752.298	3900.65
752.636	3894.54
752.975	3923.47
753.313	3931.61
753.651	3940.87
753.989	3955.33
754.327	3970.47
754.666	3986.29
755.004	3990.14
755.342	4070.36
755.679	4092.28
756.017	4079.62
756.355	4109.23
756.693	4109.91
757.031	4137.93
757.368	4146.29
757.706	4151.03
758.044	4161.88
758.381	4200.98
758.719	4193.75
759.056	4228.32
759.394	4252.95
759.731	4276.68
760.068	4222.67
760.405	4230.35
760.743	4290.69
761.08	4277.59
761.417	4263.12
761.754	4286.85
762.091	4334.53
762.428	4319.84
762.765	4313.97
763.102	4387.41
763.438	4348.77
763.775	4376.34
764.112	4344.7
764.449	4428.77
764.785	4400.29
765.122	4352.39
765.458	4331.14
765.795	4385.83
766.131	4381.99
766.467	4399.39
766.804	4384.93
767.14	4395.1
767.476	4370.69
767.812	4379.5
768.148	4381.31
768.485	4422.21
768.821	4466.05
769.157	4426.73
769.492	4385.83
769.828	4406.85
770.164	4366.4
770.5	4386.73
770.836	4412.05
771.171	4394.87
771.507	4378.83
771.842	4375.89
772.178	4338.83
772.513	4378.6
772.849	4358.71
773.184	4324.36
773.519	4331.82
773.855	4324.82
774.19	4329.79
774.525	4312.61
774.86	4306.06
775.195	4312.16
775.53	4346.74
775.865	4326.62
776.2	4250.47
776.535	4240.07
776.87	4247.76
777.205	4248.43
777.539	4228.32
777.874	4272.84
778.209	4203.46
778.543	4236.68
778.878	4216.12
779.212	4185.61
779.547	4166.18
779.881	4159.62
780.215	4165.72
780.55	4196.91
780.884	4181.77
781.218	4166.18
781.552	4144.03
781.886	4111.26
782.22	4117.59
782.554	4108.32
782.888	4086.86
783.222	4075.1
783.556	4019.96
783.889	4052.73
784.223	4011.83
784.557	3991.49
784.89	4056.35
785.224	4029.91
785.557	3953.98
785.891	3987.88
786.224	3971.6
786.558	3976.12
786.891	3984.03
787.224	3916.24
787.557	3923.92
787.891	3913.53
788.224	3921.66
788.557	3907.2
788.89	3839.86
789.223	3894.09
789.556	3848.67
789.888	3831.27
790.221	3834.43
790.554	3830.37
790.887	3816.58
791.219	3796.69
791.552	3813.19
791.884	3774.32
792.217	3785.17
792.549	3752.63
792.882	3736.81
793.214	3711.72
793.546	3724.61
793.879	3705.17
794.211	3696.81
794.543	3703.14
794.875	3675.12
795.207	3731.38
795.539	3710.59
795.871	3728.67
796.203	3659.07
796.535	3644.16
796.867	3623.59
797.198	3617.04
797.53	3659.97
797.862	3568.9
798.193	3593.31
798.525	3591.95
798.856	3574.1
799.188	3544.05
799.519	3552.18
799.85	3541.56
800.182	3535.68
800.513	3538.62
800.844	3517.61
801.175	3511.73
801.506	3519.87
801.837	3523.25
802.168	3455.46
802.499	3460.88
802.83	3410.72
803.161	3496.14
803.491	3458.4
803.822	3463.37
804.153	3445.97
804.483	3411.85
804.814	3414.56
805.145	3417.27
805.475	3403.03
805.805	3404.39
806.136	3392.64
806.466	3390.6
806.796	3451.62
807.126	3347.67
807.457	3375.01
807.787	3331.4
808.117	3307.44
808.447	3336.37
808.777	3328.46
809.107	3328.01
809.436	3308.12
809.766	3295.46
810.096	3310.15
810.426	3291.17
810.755	3311.28
811.085	3255.24
811.414	3288.01
811.744	3292.53
812.073	3225.64
812.403	3245.75
812.732	3224.05
813.061	3236.71
813.39	3262.02
813.719	3196.03
814.049	3237.16
814.378	3195.13
814.707	3221.34
815.036	3174.56
815.365	3203.49
815.693	3170.27
816.022	3150.84
816.351	3185.18
816.68	3135.92
817.008	3173.66
817.337	3121.01
817.665	3100.22
817.994	3129.37
818.322	3107.9
818.651	3077.84
818.979	3124.17
819.307	3073.55
819.636	3133.21
819.964	3042.82
820.292	3106.99
820.62	3135.69
820.948	3081.91
821.276	3060.22
821.604	3080.1
821.932	3105.86
822.259	3077.62
822.587	3080.33
822.915	3081.46
823.243	3054.57
823.57	3074
823.898	3042.14
824.225	3059.09
824.553	3069.26
824.88	3088.69
825.207	3075.13
825.535	3069.26
825.862	3090.27
826.189	3100.22
826.516	3068.35
826.843	3112.42
827.17	3094.11
827.497	3085.53
827.824	3121.01
828.151	3090.27
828.478	3086.2
828.805	3098.18
829.131	3099.09
829.458	3052.76
829.785	3037.84
830.111	3069.71
830.438	3087.79
830.764	3098.18
831.09	3087.79
831.417	3078.75
831.743	3048.69
832.069	3073.78
832.395	3051.85
832.722	3084.17
833.048	3011.63
833.374	3051.4
833.7	3034.91
834.026	3096.37
834.351	3043.72
834.677	3039.43
835.003	3062.02
835.329	3044.62
835.654	3043.72
835.98	3023.83
836.306	3037.39
836.631	3002.82
836.956	3023.38
837.282	3006.43
837.607	2987.22
837.932	3021.12
838.258	2998.75
838.583	2960.33
838.908	2995.36
839.233	2998.3
839.558	2997.17
839.883	2958.75
840.208	2963.72
840.533	2980.22
840.858	2967.11
841.182	2969.6
841.507	2976.15
841.832	2965.76
842.156	2942.71
842.481	2947.68
842.805	2919.43
843.13	2937.06
843.454	2919.2
843.778	2919.88
844.103	2901.58
844.427	2914.46
844.751	2898.19
845.075	2861.8
845.399	2863.61
845.723	2874.23
846.047	2867.23
846.371	2841.92
846.695	2834.91
847.019	2822.03
847.343	2829.94
847.666	2803.27
847.99	2800.11
848.313	2797.62
848.637	2788.13
848.96	2831.52
849.284	2751.75
849.607	2800.79
849.931	2765.31
850.254	2730.96
850.577	2721.24
850.9	2697.29
851.223	2689.83
851.546	2657.29
851.869	2689.15
852.192	2722.6
852.515	2676.72
852.838	2657.97
853.161	2676.5
853.483	2667.01
853.806	2676.05
854.129	2654.35
854.451	2674.01
854.774	2636.27
855.096	2630.62
855.419	2599.44
855.741	2575.48
856.063	2603.05
856.385	2587.23
856.708	2618.19
857.03	2578.65
857.352	2600.57
857.674	2562.6
857.996	2531.64
858.318	2542.72
858.64	2522.6
858.961	2511.08
859.283	2554.69
859.605	2510.17
859.926	2501.13
860.248	2537.29
860.57	2485.99
860.891	2529.16
861.212	2462.72
861.534	2525.31
861.855	2455.94
862.176	2482.38
862.498	2475.37
862.819	2476.5
863.14	2466.33
863.461	2471.31
863.782	2442.15
864.103	2470.85
864.424	2438.54
864.745	2432.44
865.065	2433.34
865.386	2440.12
865.707	2443.51
866.027	2437.63
866.348	2430.85
866.668	2429.5
866.989	2430.18
867.309	2427.69
867.63	2405.54
867.95	2404.87
868.27	2388.14
868.59	2391.31
868.91	2386.34
869.23	2393.34
869.55	2397.41
869.87	2418.2
870.19	2394.24
870.51	2391.76
870.83	2379.1
871.15	2383.62
871.469	2362.16
871.789	2389.27
872.109	2399.44
872.428	2352.66
872.748	2348.6
873.067	2380.23
873.386	2398.31
873.706	2349.73
874.025	2364.87
874.344	2365.55
874.663	2334.81
874.982	2332.55
875.301	2329.16
875.62	2349.05
875.939	2331.65
876.258	2366.22
876.577	2310.63
876.896	2306.11
877.214	2279.22
877.533	2285.32
877.852	2323.74
878.17	2321.03
878.489	2328.71
878.807	2287.58
879.125	2300.46
879.444	2314.93
879.762	2306.79
880.08	2304.3
880.398	2288.71
880.716	2292.55
881.034	2257.07
881.352	2293.46
881.67	2280.12
881.988	2283.51
882.306	2256.4
882.624	2261.82
882.941	2253.46
883.259	2242.16
883.577	2243.51
883.894	2259.56
884.212	2237.86
884.529	2246.68
884.846	2214.59
885.164	2246
885.481	2233.12
885.798	2234.48
886.115	2212.1
886.432	2202.61
886.75	2215.72
887.067	2199
887.383	2211.42
887.7	2227.92
888.017	2207.13
888.334	2184.98
888.651	2170.07
888.967	2165.55
889.284	2176.62
889.6	2176.85
889.917	2160.58
890.233	2159.22
890.55	2154.25
890.866	2144.76
891.182	2170.52
891.498	2155.83
891.815	2128.49
892.131	2121.94
892.447	2136.85
892.763	2084.42
893.079	2112.44
893.395	2094.59
893.71	2124.42
894.026	2107.02
894.342	2102.73
894.657	2101.15
894.973	2065.44
895.289	2032.22
895.604	2058.21
895.92	2053.69
896.235	2022.28
896.55	2044.65
896.865	2036.06
897.181	2033.12
897.496	2011.2
897.811	2018.44
898.126	2042.84
898.441	2015.95
898.756	2024.31
899.071	2016.85
899.386	1979.57
899.7	1995.61
900.015	1961.49
900.33	1967.14
900.644	1963.07
900.959	1977.76
901.273	1929.85
901.588	1974.37
901.902	1957.87
902.216	1927.14
902.531	1940.25
902.845	1913.58
903.159	1946.12
903.473	1924.43
903.787	1942.05
904.101	1930.75
904.415	1925.78
904.729	1868.38
905.042	1913.81
905.356	1877.65
905.67	1888.72
905.984	1884.88
906.297	1857.31
906.611	1855.5
906.924	1879.91
907.237	1895.28
907.551	1825.9
907.864	1831.77
908.177	1835.62
908.491	1858.89
908.804	1833.58
909.117	1811.44
909.43	1808.95
909.743	1782.51
910.056	1822.73
910.368	1791.1
910.681	1780.25
910.994	1777.09
911.307	1788.84
911.619	1786.58
911.932	1779.57
912.244	1746.58
912.557	1789.74
912.869	1770.31
913.181	1714.26
913.494	1770.98
913.806	1753.58
914.118	1745
914.43	1725.34
914.742	1710.87
915.054	1692.57
915.366	1729.18
915.678	1721.95
915.99	1676.98
916.302	1675.62
916.613	1681.72
916.925	1672.68
917.236	1682.4
917.548	1674.49
917.859	1637.88
918.171	1673.59
918.482	1654.15
918.794	1632.68
919.105	1644.43
919.416	1631.55
919.727	1606.02
920.038	1625
920.349	1613.7
920.66	1606.7
920.971	1598.56
921.282	1599.01
921.593	1595.17
921.903	1563.31
922.214	1598.33
922.525	1577.09
922.835	1577.09
923.146	1580.71
923.456	1594.49
923.767	1552.69
924.077	1552.46
924.387	1531.22
924.697	1556.98
925.008	1535.96
925.318	1535.28
925.628	1538.22
925.938	1526.02
926.248	1473.37
926.558	1537.09
926.867	1502.74
927.177	1480.37
927.487	1498.45
927.796	1478.11
928.106	1480.37
928.416	1466.36
928.725	1475.17
929.034	1460.03
929.344	1482.86
929.653	1468.17
929.962	1473.82
930.271	1436.08
930.581	1420.03
930.89	1438.79
931.199	1458.9
931.508	1439.69
931.817	1417.55
932.125	1423.65
932.434	1438.79
932.743	1397.89
933.051	1422.29
933.36	1400.82
933.669	1387.72
933.977	1413.93
934.286	1376.87
934.594	1405.34
934.902	1384.78
935.21	1357.66
935.519	1379.58
935.827	1355.4
936.135	1374.16
936.443	1359.7
936.751	1335.29
937.059	1350.66
937.367	1348.4
937.674	1351.56
937.982	1322.63
938.29	1342.52
938.597	1335.97
938.905	1296.65
939.213	1316.53
939.52	1314.5
939.827	1329.64
940.135	1282.64
940.442	1323.54
940.749	1295.52
941.056	1293.93
941.363	1298.45
941.67	1281.05
941.977	1278.34
942.284	1281.28
942.591	1286.25
942.898	1256.65
943.205	1255.52
943.511	1238.57
943.818	1246.93
944.125	1260.94
944.431	1226.14
944.738	1238.8
945.044	1236.54
945.35	1243.09
945.657	1228.17
945.963	1253.48
946.269	1203.32
946.575	1227.95
946.881	1224.78
947.187	1223.88
947.493	1215.07
947.799	1218.46
948.105	1180.72
948.41	1163.32
948.716	1176.2
949.022	1174.62
949.327	1187.5
949.633	1186.82
949.938	1186.82
950.244	1189.76
950.549	1172.13
950.854	1174.62
951.16	1165.35
951.465	1158.8
951.77	1175.52
952.075	1167.16
952.38	1135.07
952.685	1151.34
952.99	1115.41
953.294	1101.17
953.599	1111.11
953.904	1105.69
954.209	1129.65
954.513	1122.64
954.818	1122.41
955.122	1098.01
955.426	1097.56
955.731	1107.05
956.035	1116.09
956.339	1095.3
956.643	1095.97
956.948	1064.79
957.252	1091.68
957.556	1098.23
957.86	1036.77
958.163	1054.62
958.467	1084.67
958.771	1081.06
959.075	1112.47
959.378	1052.81
959.682	1022.98
959.985	1060.72
960.289	1041.29
960.592	1062.75
960.896	1062.98
961.199	1036.54
961.502	1024.11
961.805	1057.1
962.108	1033.38
962.411	1035.86
962.714	1062.08
963.017	1023.21
963.32	1011.23
963.623	1015.3
963.926	1018.69
964.228	1007.39
964.531	970.33
964.833	992.47
965.136	989.31
965.438	982.98
965.741	992.02
966.043	988.18
966.345	971.46
966.648	971.91
966.95	991.8
967.252	992.02
967.554	956.32
967.856	963.32
968.158	978.69
968.46	957.67
968.761	978.01
969.063	955.41
969.365	966.26
969.666	943.44
969.968	936.66
970.269	967.39
970.571	962.64
970.872	932.14
971.174	929.88
971.475	947.73
971.776	950.89
972.077	921.97
972.378	940.95
972.679	908.63
972.98	934.85
973.281	931.68
973.582	905.24
973.883	921.74
974.183	905.02
974.484	912.93
974.785	909.54
975.085	920.61
975.386	900.5
975.686	893.72
975.986	899.82
976.287	877
976.587	874.28
976.887	897.79
977.187	884.23
977.487	876.32
977.787	855.08
978.087	883.55
978.387	878.8
978.687	872.03
978.987	855.08
979.286	870.67
979.586	870.67
979.885	866.6
980.185	849.88
980.484	863.21
980.784	848.75
981.083	865.47
981.382	839.26
981.682	822.76
981.981	821.86
982.28	848.3
982.579	842.87
982.878	844.68
983.177	853.27
983.475	846.26
983.774	827.51
984.073	806.94
984.372	815.08
984.67	826.38
984.969	792.03
985.267	822.31
985.566	842.42
985.864	808.98
986.162	803.55
986.461	813.72
986.759	808.98
987.057	810.56
987.355	794.29
987.653	801.07
987.951	774.63
988.249	775.3
988.547	778.47
988.844	774.63
989.142	786.6
989.44	782.54
989.737	777.34
990.035	796.09
990.332	807.17
990.63	758.13
990.927	756.55
991.224	769.43
991.521	766.49
991.819	767.4
992.116	757.23
992.413	768.07
992.71	769.88
993.006	741.86
993.303	739.83
993.6	759.03
993.897	723.55
994.193	747.73
994.49	762.65
994.787	750.22
995.083	748.86
995.379	752.48
995.676	716.32
995.972	724.91
996.268	748.41
996.565	714.97
996.861	717.9
997.157	730.56
997.453	700.28
997.749	702.09
998.044	701.18
998.34	712.26
998.636	722.65
998.932	717.9
999.227	695.76
999.523	710.9
999.818	712.93
1000.114	714.52
1000.409	689.88
1000.704	696.21
1001	694.18
1001.295	691.46
1001.59	698.92
1001.885	677.23
1002.18	687.4
1002.475	656.21
1002.77	680.62
1003.065	658.47
1003.359	649.21
1003.654	651.47
1003.949	669.09
1004.243	677
1004.538	644.91
1004.832	654.18
1005.127	678.13
1005.421	651.24
1005.715	654.18
1006.009	651.69
1006.304	645.82
1006.598	651.47
1006.892	660.51
1007.186	648.53
1007.48	662.09
1007.773	641.52
1008.067	651.69
1008.361	645.14
1008.655	622.77
1008.948	630.22
1009.242	641.97
1009.535	625.03
1009.829	611.24
1010.122	641.97
1010.415	632.48
1010.708	619.83
1011.001	603.56
1011.295	608.3
1011.588	627.51
1011.881	605.59
1012.173	596.1
1012.466	599.49
1012.759	606.5
1013.052	587.51
1013.344	613.05
1013.637	586.16
1013.93	602.2
1014.222	608.76
1014.514	587.06
1014.807	588.19
1015.099	580.51
1015.391	590.9
1015.683	592.03
1015.976	578.93
1016.268	569.43
1016.56	578.02
1016.851	573.73
1017.143	589.32
1017.435	558.14
1017.727	580.96
1018.018	566.27
1018.31	589.09
1018.602	552.26
1018.893	572.15
1019.185	559.94
1019.476	565.37
1019.767	567.17
1020.058	565.37
1020.35	535.76
1020.641	559.26
1020.932	550.45
1021.223	546.84
1021.514	525.82
1021.804	516.78
1022.095	531.7
1022.386	524.46
1022.677	517.68
1022.967	540.06
1023.258	540.28
1023.548	533.73
1023.839	540.96
1024.129	532.82
1024.419	529.21
1024.709	531.24
1025	519.04
1025.29	515.2
1025.58	525.37
1025.87	527.4
1026.16	543.22
1026.449	517.01
1026.739	502.77
1027.029	518.14
1027.319	523.79
1027.608	508.64
1027.898	511.58
1028.187	492.37
1028.477	511.81
1028.766	512.03
1029.055	520.62
1029.344	485.14
1029.634	482.66
1029.923	481.07
1030.212	493.05
1030.501	486.05
1030.79	479.49
1031.078	499.15
1031.367	495.09
1031.656	468.65
1031.945	491.24
1032.233	495.54
1032.522	473.62
1032.81	502.77
1033.099	489.66
1033.387	480.62
1033.675	463.22
1033.963	464.13
1034.251	472.04
1034.54	450.34
1034.828	465.93
1035.116	451.02
1035.403	462.54
1035.691	444.24
1035.979	486.27
1036.267	458.48
1036.554	455.31
1036.842	457.12
1037.129	463.45
1037.417	451.7
1037.704	473.62
1037.992	448.76
1038.279	443.11
1038.566	445.14
1038.853	445.14
1039.14	445.14
