Data from blue_shiny_book_FLMS001491_00043.txt Node
Date: Wed Feb 08 15:27:00 GMT 2017
User: dcchb
Spectrometer: FLMS00149
Trigger mode: 0
Integration Time (sec): 2.000000E-2
Scans to average: 10
Electric dark correction enabled: true
Nonlinearity correction enabled: false
Boxcar width: 0
XAxis mode: Wavelengths
Number of Pixels in Spectrum: 2048
>>>>>Begin Spectral Data<<<<<
341.393	-11.06
341.776	-11.06
342.16	-11.06
342.543	-61.45
342.927	-77.72
343.31	-52.41
343.693	-76.37
344.077	-51.28
344.46	-68.23
344.843	-38.4
345.226	-48.35
345.61	-26.43
345.993	-21.23
346.376	-10.16
346.759	4.31
347.142	22.84
347.525	33.46
347.908	57.87
348.291	85.44
348.674	98.32
349.057	90.63
349.44	129.95
349.823	135.38
350.206	161.59
350.588	189.16
350.971	219.44
351.354	225.77
351.737	234.81
352.119	247.69
352.502	262.38
352.884	263.51
353.267	306.9
353.65	285.43
354.032	308.93
354.414	321.81
354.797	336.05
355.179	327.69
355.562	323.4
355.944	318.88
356.326	355.94
356.709	353.68
357.091	333.34
357.473	343.73
357.855	341.02
358.238	359.33
358.62	350.29
359.002	352.55
359.384	347.58
359.766	362.04
360.148	371.08
360.53	357.29
360.912	355.26
361.294	336.05
361.676	337.63
362.057	339.44
362.439	364.52
362.821	352.1
363.203	348.48
363.584	330.17
363.966	324.3
364.348	343.51
364.729	332.89
365.111	334.92
365.493	360.23
365.874	326.33
366.256	349.84
366.637	359.55
367.019	330.63
367.4	359.1
367.781	348.48
368.163	341.25
368.544	330.4
368.925	358.2
369.306	325.43
369.688	307.58
370.069	336.05
370.45	356.61
370.831	346.22
371.212	343.06
371.593	333.56
371.974	335.82
372.355	352.77
372.736	333.11
373.117	366.56
373.498	379.44
373.879	361.13
374.26	360.46
374.641	372.43
375.021	351.87
375.402	359.1
375.783	382.15
376.163	370.85
376.544	389.83
376.925	377.63
377.305	354.58
377.686	358.42
378.066	375.82
378.447	391.87
378.827	390.96
379.208	389.83
379.588	404.75
379.968	373.34
380.349	368.37
380.729	377.63
381.109	398.65
381.489	391.42
381.87	413.56
382.25	414.47
382.63	393.9
383.01	404.3
383.39	411.98
383.77	414.01
384.15	414.69
384.53	433.45
384.91	431.64
385.29	418.08
385.67	430.74
386.049	421.47
386.429	452.43
386.809	446.78
387.189	436.61
387.568	462.37
387.948	451.75
388.328	458.31
388.707	460.79
389.087	432.09
389.466	451.08
389.846	442.94
390.225	484.75
390.605	465.09
390.984	491.07
391.363	504.63
391.743	493.33
392.122	532.2
392.501	512.54
392.881	523.16
393.26	519.32
393.639	518.19
394.018	512.99
394.397	518.19
394.776	513.45
395.155	526.78
395.534	529.04
395.913	542.82
396.292	551.86
396.671	555.48
397.05	556.16
397.429	577.4
397.808	565.42
398.186	553.45
398.565	570.17
398.944	565.87
399.323	575.14
399.701	578.53
400.08	608.13
400.458	609.26
400.837	598.19
401.215	617.4
401.594	613.56
401.972	614.46
402.351	657.4
402.729	644.74
403.107	676.83
403.486	664.18
403.864	672.09
404.242	656.27
404.62	676.83
404.999	676.38
405.377	708.47
405.755	675.93
406.133	704.63
406.511	726.77
406.889	704.18
407.267	728.58
407.645	738.07
408.023	756.83
408.401	768.58
408.779	785.3
409.156	808.81
409.534	798.86
409.912	804.74
410.29	829.37
410.667	832.31
411.045	837.96
411.422	850.61
411.8	855.13
412.178	888.35
412.555	890.16
412.933	901.23
413.31	901.01
413.687	929.03
414.065	931.06
414.442	967.9
414.819	944.4
415.197	975.13
415.574	1001.12
415.951	1009.71
416.328	1015.35
416.705	1009.48
417.082	1010.84
417.46	1030.95
417.837	1066.65
418.214	1047.67
418.591	1074.56
418.967	1092.41
419.344	1113.43
419.721	1089.25
420.098	1076.37
420.475	1123.83
420.852	1130.15
421.228	1147.1
421.605	1158.85
421.982	1182.36
422.358	1205.86
422.735	1207.21
423.111	1212.64
423.488	1225.52
423.864	1234.56
424.241	1257.16
424.617	1278.17
424.994	1279.3
425.37	1258.06
425.746	1290.15
426.123	1319.53
426.499	1342.58
426.875	1356.14
427.251	1398.4
427.627	1418.96
428.003	1423.03
428.379	1468.68
428.756	1467.09
429.132	1471.39
429.507	1521.56
429.883	1519.3
430.259	1539.18
430.635	1555.23
431.011	1569.69
431.387	1580.99
431.763	1662.12
432.138	1663.47
432.514	1698.27
432.89	1695.11
433.265	1722.91
433.641	1752.74
434.016	1747.54
434.392	1800.19
434.767	1835.9
435.143	1799.29
435.518	1860.08
435.894	1872.96
436.269	1914.99
436.644	1940.98
437.02	1950.02
437.395	1981.88
437.77	2027.53
438.145	2048.55
438.52	2066.85
438.895	2089.22
439.271	2090.58
439.646	2143.01
440.021	2114.08
440.395	2165.15
440.77	2137.13
441.145	2167.64
441.52	2240.18
441.895	2237.47
442.27	2253.51
442.645	2262.55
443.019	2327.64
443.394	2335.09
443.769	2350.91
444.143	2330.35
444.518	2359.73
444.892	2357.01
445.267	2394.3
445.641	2428.42
446.016	2387.97
446.39	2459.16
446.764	2465.94
447.139	2504.58
447.513	2525.6
447.887	2523.11
448.262	2538.25
448.636	2521.53
449.01	2622.32
449.384	2613.5
449.758	2642.66
450.132	2671.58
450.506	2684.69
450.88	2723.33
451.254	2738.25
451.628	2751.35
452.002	2800.17
452.376	2822.54
452.75	2875.19
453.123	2894.18
453.497	2960.61
453.871	2990.67
454.244	3017.56
454.618	3029.31
454.992	3095.53
455.365	3062.53
455.739	3166.03
456.112	3170.78
456.486	3270.21
456.859	3260.04
457.232	3298.23
457.606	3356.99
457.979	3395.63
458.352	3469.3
458.725	3521.96
459.099	3541.84
459.472	3576.64
459.845	3661.16
460.218	3655.06
460.591	3655.29
460.964	3726.47
461.337	3793.81
461.71	3823.42
462.083	3902.51
462.456	3918.1
462.829	3985.9
463.201	4033.81
463.574	4065.22
463.947	4176.4
464.32	4257.76
464.692	4270.86
465.065	4293.69
465.438	4349.73
465.81	4446.9
466.183	4447.35
466.555	4528.93
466.928	4594.7
467.3	4610.74
467.672	4685.31
468.045	4754.69
468.417	4809.61
468.789	4889.38
469.161	4923.05
469.534	5017.74
469.906	5127.56
470.278	5145.42
470.65	5198.97
471.022	5294.11
471.394	5368.23
471.766	5459.98
472.138	5490.27
472.51	5611.39
472.882	5687.55
473.253	5779.52
473.625	5827.88
473.997	6006.86
474.369	6032.4
474.74	6127.54
475.112	6243.47
475.484	6391.03
475.855	6483.01
476.227	6513.29
476.598	6664.25
476.97	6715.09
477.341	6925.71
477.713	6995.76
478.084	7035.76
478.455	7231.46
478.827	7259.48
479.198	7478.01
479.569	7461.06
479.94	7740.15
480.311	7879.13
480.682	7995.28
481.053	8210.65
481.424	8360.92
481.795	8440.47
482.166	8569.96
482.537	8697.86
482.908	8920.46
483.279	8912.1
483.65	9124.52
484.021	9329.71
484.391	9403.61
484.762	9485.19
485.133	9545.3
485.503	9744.62
485.874	9883.37
486.244	10038.39
486.615	10260.31
486.985	10377.37
487.356	10508.89
487.726	10707.53
488.097	10962.21
488.467	10996.56
488.837	11212.83
489.207	11244.46
489.578	11525.13
489.948	11626.83
490.318	11801.74
490.688	11861.17
491.058	11967.61
491.428	12161.5
491.798	12372.12
492.168	12605.11
492.538	12668.83
492.908	12814.14
493.278	12946.11
493.648	13040.8
494.017	13226.78
494.387	13364.63
494.757	13455.93
495.126	13723.95
495.496	13676.49
495.866	13816.83
496.235	13930.04
496.605	14110.38
496.974	14209.36
497.344	14282.35
497.713	14338.39
498.082	14512.63
498.452	14700.64
498.821	14716.24
499.19	14860.64
499.559	14947.42
499.928	15120.75
500.298	15272.61
500.667	15403.68
501.036	15466.73
501.405	15601.64
501.774	15648.87
502.143	15785.81
502.512	15841.86
502.88	16066.71
503.249	15994.62
503.618	16217.44
503.987	16203.2
504.356	16376.53
504.724	16486.36
505.093	16607.26
505.462	16666.02
505.83	16877.54
506.199	16968.16
506.567	17089.51
506.936	17171.09
507.304	17364.08
507.672	17376.73
508.041	17623.96
508.409	17612.88
508.777	17842.03
509.145	17902.14
509.514	18102.59
509.882	18136.71
510.25	18239.08
510.618	18436.37
510.986	18453.99
511.354	18690.14
511.722	18839.29
512.09	18931.49
512.458	18922.91
512.826	19145.73
513.193	19219.85
513.561	19337.58
513.929	19638.59
514.297	19549.56
514.664	19708.87
515.032	19827.97
515.4	20097.11
515.767	20114.51
516.135	20356.54
516.502	20292.14
516.869	20732.35
517.237	20728.28
517.604	20766.25
517.972	21022.74
518.339	21196.52
518.706	21113.81
519.073	21366.23
519.44	21401.94
519.808	21793.57
520.175	21638.09
520.542	21984.97
520.909	22110.62
521.276	22241.69
521.643	22422.7
522.009	22534.79
522.376	22756.7
522.743	22927.55
523.11	23019.07
523.477	23291.38
523.843	23463.13
524.21	23924.13
524.577	24026.28
524.943	24052.72
525.31	24145.14
525.676	24433.27
526.043	24692.92
526.409	24709.87
526.776	24931.34
527.142	25097.21
527.508	25254.72
527.874	25478.67
528.241	25479.8
528.607	25612.45
528.973	25760.47
529.339	25841.37
529.705	26054.24
530.071	26318.19
530.437	26551.41
530.803	26808.8
531.169	26952.75
531.535	26929.93
531.901	27204.72
532.267	27382.57
532.632	27460.08
532.998	27654.65
533.364	27857.81
533.73	27908.21
534.095	28049.22
534.461	27991.37
534.826	28293.06
535.192	28395.43
535.557	28531.47
535.923	28508.19
536.288	28696.43
536.653	28787.73
537.019	28821.63
537.384	28839.03
537.749	29167.38
538.114	29254.39
538.479	29329.86
538.845	29502.29
539.21	29483.53
539.575	29626.13
539.94	29833.81
540.305	30123.06
540.67	30071.99
541.034	30102.95
541.399	30342.04
541.764	30296.84
542.129	30406.45
542.494	30491.19
542.858	30472.66
543.223	30541.58
543.587	30658.19
543.952	30703.39
544.316	30834.91
544.681	30950.61
545.045	31082.81
545.41	31057.95
545.774	31236.71
546.138	31311.51
546.503	31331.62
546.867	31439.64
547.231	31826.07
547.595	31871.94
547.959	32119.62
548.324	32101.32
548.688	32179.73
549.052	32365.49
549.416	32464.92
549.779	32490.69
550.143	32503.34
550.507	32667.63
550.871	32763.9
551.235	32593.96
551.599	32813.39
551.962	32750.11
552.326	32824.01
552.689	33024.23
553.053	32864.46
553.417	33107.62
553.78	33353.71
554.143	33387.16
554.507	33548.28
554.87	33635.29
555.234	34069.4
555.597	34008.84
555.96	34254.25
556.323	34345.33
556.686	34409.96
557.05	34672.55
557.413	34796.16
557.776	34767.46
558.139	34975.82
558.502	34937.63
558.865	35036.61
559.228	35162.25
559.59	35111.18
559.953	35150.95
560.316	35527.22
560.679	35479.08
561.041	35764.05
561.404	35884.49
561.767	36043.36
562.129	35926.08
562.492	36380.07
562.854	36342.11
563.217	36476.12
563.579	36655.77
563.941	36949.33
564.304	37156.78
564.666	37423.89
565.028	37399.48
565.39	37626.37
565.753	37897.77
566.115	37945.23
566.477	38065.45
566.839	38161.95
567.201	38306.13
567.563	38281.04
567.925	38490.75
568.287	38353.13
568.648	38401.72
569.01	38454.37
569.372	38645.55
569.734	38491.43
570.095	38815.94
570.457	39013
570.819	39211.19
571.18	39237.4
571.542	39338.64
571.903	39624.51
572.265	39844.39
572.626	39753.32
572.987	39985.4
573.349	40301.78
573.71	40600.75
574.071	40521.21
574.432	40598.95
574.794	40980.41
575.155	40892.27
575.516	40642.11
575.877	40812.27
576.238	40708.1
576.599	40940.41
576.96	40971.82
577.32	40986.51
577.681	41099.72
578.042	41085.04
578.403	41032.61
578.763	41047.75
579.124	41142.21
579.485	41116
579.845	41440.05
580.206	41392.37
580.566	41531.35
580.927	41628.98
581.287	41895.41
581.648	41918.46
582.008	42123.88
582.368	42076.42
582.728	42121.39
583.089	42196.87
583.449	42128.4
583.809	42369.52
584.169	42353.93
584.529	42326.58
584.889	42608.61
585.249	42146.7
585.609	42162.3
585.969	42249.52
586.329	42064.9
586.688	41991.23
587.048	42132.92
587.408	41968.4
587.768	41924.34
588.127	41932.7
588.487	41883.66
588.846	42217.21
589.206	41899.48
589.565	41990.1
589.925	42205.01
590.284	42069.64
590.643	42289.98
591.003	42610.19
591.362	42724.77
591.721	42609.52
592.08	42738.55
592.44	42877.3
592.799	42925.44
593.158	42985.32
593.517	42894.93
593.876	42910.75
594.235	42845.44
594.593	42994.82
594.952	42953.91
595.311	42739.46
595.67	42643.86
596.029	42887.93
596.387	42859.23
596.746	42800.7
597.104	42591.21
597.463	42585.79
597.822	42735.61
598.18	42550.99
598.538	42738.1
598.897	42747.59
599.255	42557.31
599.613	43075.04
599.972	42861.26
600.33	43152.55
600.688	43081.37
601.046	43243.62
601.404	43597.06
601.762	43514.58
602.12	43651.07
602.478	43796.83
602.836	43786.21
603.194	43539.89
603.552	43784.4
603.91	43546.89
604.268	43726.32
604.625	43409.04
604.983	43573.33
605.341	43202.49
605.698	43486.33
606.056	43457.85
606.413	43537.85
606.771	43617.17
607.128	43517.51
607.485	43310.74
607.843	43337.41
608.2	43527.01
608.557	43736.27
608.914	43547.34
609.272	43820.1
609.629	43966.99
609.986	44038.4
610.343	44155.69
610.7	44498.28
611.057	44355.01
611.414	44406.3
611.771	44509.8
612.127	44912.51
612.484	44738.05
612.841	44868.21
613.198	44740.08
613.554	44779.85
613.911	44960.41
614.267	44839.51
614.624	44763.36
614.98	45051.48
615.337	45002.45
615.693	44978.72
616.05	44737.37
616.406	44964.03
616.762	44789.57
617.118	44697.82
617.475	44726.3
617.831	44858.72
618.187	44747.54
618.543	44750.25
618.899	45067.53
619.255	44953.63
619.611	45001.54
619.967	45109.11
620.323	45185.72
620.678	45209.22
621.034	45138.04
621.39	45385.71
621.746	45301.42
622.101	45783.22
622.457	45427.29
622.812	45712.48
623.168	45758.58
623.523	45631.13
623.879	45927.85
624.234	45580.74
624.589	45614.41
624.945	45757.68
625.3	45635.88
625.655	45496.67
626.01	45514.3
626.365	45477.69
626.72	45366.5
627.075	45307.75
627.43	45223.23
627.785	45081.77
628.14	45226.62
628.495	45161.09
628.85	45238.15
629.205	44969.45
629.559	45173.06
629.914	44888.1
630.269	45113.86
630.623	44997.93
630.978	45062.56
631.332	45275.21
631.687	45517.69
632.041	45212.16
632.396	45386.39
632.75	45084.25
633.104	45380.06
633.459	45199.5
633.813	45266.39
634.167	45388.65
634.521	45191.59
634.875	45224.14
635.229	45118.83
635.583	44998.6
635.937	45049.45
636.291	45034.08
636.645	45004.03
636.999	44796.58
637.352	44787.31
637.706	44414.89
638.06	44622.34
638.413	44402.69
638.767	44291.73
639.121	44112.75
639.474	43847
639.828	43983.94
640.181	44050.83
640.534	43864.17
640.888	43861.69
641.241	43844.96
641.594	43807.22
641.947	43876.83
642.301	43903.27
642.654	43936.26
643.007	43915.24
643.36	43979.42
643.713	43772.2
644.066	44065.52
644.419	43961.8
644.771	44023.94
645.124	43875.47
645.477	44009.48
645.83	43594.12
646.182	43056.51
646.535	42675.73
646.888	42662.17
647.24	42496.75
647.593	42641.6
647.945	42585.56
648.298	42185.12
648.65	42215.18
649.002	41914.62
649.355	42144.89
649.707	42103.54
650.059	42294.95
650.411	42675.73
650.763	42826.91
651.115	43209.5
651.467	42895.16
651.819	42833.92
652.171	42741.49
652.523	42757.31
652.875	42666.69
653.227	42603.87
653.578	42948.49
653.93	43013.57
654.282	42873.46
654.633	42587.37
654.985	42719.57
655.337	42709.17
655.688	42795.95
656.039	42989.84
656.391	42713.24
656.742	42776.97
657.094	42981.93
657.445	43141.48
657.796	43144.87
658.147	43011.54
658.498	42881.37
658.849	43182.83
659.2	42815.39
659.551	42894.93
659.902	43010.18
660.253	42961.6
660.604	43062.84
660.955	42691.1
661.306	42666.01
661.656	42536.07
662.007	42529.29
662.358	42371.78
662.708	42390.54
663.059	42213.37
663.409	41892.92
663.76	42260.15
664.11	42123.65
664.461	42103.31
664.811	42027.16
665.161	41987.38
665.511	42065.8
665.862	42150.54
666.212	42210.2
666.562	42182.41
666.912	42248.39
667.262	42298.56
667.612	42489.29
667.962	42567.71
668.312	42403.64
668.662	42699
669.011	42646.58
669.361	42798.21
669.711	42680.02
670.06	42550.31
670.41	42703.98
670.76	42446.81
671.109	42666.69
671.459	42392.35
671.808	42395.06
672.157	42435.73
672.507	42141.5
672.856	42222.86
673.205	42201.39
673.554	42213.59
673.904	42012.92
674.253	42273.7
674.602	41976.09
674.951	41299.49
675.3	40814.76
675.649	41534.52
675.998	41486.15
676.346	41149.21
676.695	41468.08
677.044	40957.58
677.393	41234.64
677.741	41203.9
678.09	41057.24
678.438	40997.81
678.787	41014.3
679.135	41058.6
679.484	40855.66
679.832	41269.89
680.181	41102.66
680.529	41296.56
680.877	41101.53
681.225	41201.87
681.573	41361.41
681.922	41206.61
682.27	41079.39
682.618	41151.25
682.966	41242.77
683.314	41162.77
683.661	41125.71
684.009	41008.2
684.357	40870.8
684.705	40709.23
685.053	40780.86
685.4	40622.45
685.748	40375.68
686.095	40249.8
686.443	39977.49
686.79	39907.21
687.138	39758.29
687.485	39780.89
687.832	39736.14
688.18	39582.48
688.527	39302.26
688.874	39201.47
689.221	39091.19
689.568	39031.53
689.915	38899.33
690.262	38780.92
690.609	38690.07
690.956	38572.79
691.303	38639.68
691.65	38420.7
691.997	38553.12
692.344	38256.41
692.69	38262.06
693.037	38302.06
693.383	38096.64
693.73	38361.04
694.077	38146.81
694.423	38229.29
694.769	38023.65
695.116	37916.31
695.462	38007.38
695.808	37858
696.155	37983.65
696.501	37735.97
696.847	37811
697.193	37505.92
697.539	37592.92
697.885	37320.84
698.231	37169.43
698.577	37148.64
698.923	36992.26
699.269	36873.17
699.614	36524.93
699.96	36267.99
700.306	36261.21
700.651	36179.63
700.997	35876.36
701.342	35773.54
701.688	35707.78
702.033	35500.78
702.379	35401.34
702.724	35358.63
703.069	35449.93
703.415	34924.52
703.76	34913.45
704.105	34960.68
704.45	34786.44
704.795	34772.43
705.14	34494.25
705.485	34348.72
705.83	34538.99
706.175	34468.26
706.52	34453.35
706.865	34264.2
707.209	34427.13
707.554	34517.75
707.899	34595.26
708.243	34239.11
708.588	34393.46
708.932	34186.23
709.277	34135.16
709.621	34349.39
709.966	34007.03
710.31	34181.49
710.654	33927.03
710.998	33906.47
711.342	33984.21
711.687	33989.4
712.031	33665.34
712.375	33531.34
712.719	33541.28
713.063	33422.19
713.407	33334.5
713.75	33271.23
714.094	33128.41
714.438	32941.07
714.782	32909.88
715.125	32708.53
715.469	32720.28
715.812	32373.85
716.156	32276.23
716.499	32217.92
716.843	32029.91
717.186	32047.31
717.53	32006.18
717.873	31921.21
718.216	31871.49
718.559	31834.43
718.902	31704.27
719.246	31742.91
719.589	31733.19
719.932	31623.14
720.275	31736.35
720.617	31871.72
720.96	31715.11
721.303	31776.13
721.646	31965.28
721.989	31673.53
722.331	31975.9
722.674	31881.21
723.016	31932.06
723.359	31826.97
723.701	31854.77
724.044	31580.43
724.386	31518.28
724.729	31777.94
725.071	31716.02
725.413	31750.82
725.755	31711.72
726.097	31632.63
726.439	31479.41
726.782	31452.07
727.124	31509.69
727.465	31272.19
727.807	31124.85
728.149	31048.46
728.491	30952.19
728.833	30931.18
729.175	30995.36
729.516	30855.7
729.858	30833.55
730.199	30875.13
730.541	30676.27
730.882	30705.42
731.224	30670.62
731.565	30380.23
731.906	30490.06
732.248	30519.89
732.589	30430.4
732.93	30239.45
733.271	30396.73
733.612	30456.84
733.953	30612.77
734.294	30400.8
734.635	30399.21
734.976	30514.24
735.317	30340.91
735.658	30423.39
735.999	30577.29
736.339	30540.45
736.68	30630.85
737.021	30582.94
737.361	30476.95
737.702	30640.11
738.042	30525.77
738.383	30648.93
738.723	30781.35
739.063	30576.39
739.404	30679.66
739.744	30645.76
740.084	30627.46
740.424	30688.7
740.764	30760.56
741.104	30808.47
741.444	30534.8
741.784	30478.76
742.124	30799.88
742.464	30554.24
742.804	30694.57
743.143	30410.29
743.483	30450.06
743.823	30308.14
744.162	30274.92
744.502	30265.66
744.841	30226.34
745.181	30217.75
745.52	30047.81
745.86	30167.13
746.199	30100.24
746.538	30039
746.877	30211.2
747.216	30063.86
747.556	30084.19
747.895	30206.68
748.234	30024.54
748.573	30053.69
748.911	30058.66
749.25	30182.5
749.589	30161.48
749.928	30162.38
750.267	30243.06
750.605	30295.26
750.944	30158.54
751.283	30261.37
751.621	30493.9
751.96	30335.49
752.298	30480.12
752.636	30580.23
752.975	30400.57
753.313	30565.54
753.651	30663.61
753.989	30432.43
754.327	30537.29
754.666	30658.87
755.004	30629.27
755.342	30763.95
755.679	30760.34
756.017	30601.47
756.355	30699.09
756.693	30605.09
757.031	30615.03
757.368	30517.4
757.706	30610.28
758.044	30409.61
758.381	30563.96
758.719	30517.4
759.056	30544.97
759.394	30471.76
759.731	30244.19
760.068	30254.13
760.405	30172.33
760.743	30183.18
761.08	30120.58
761.417	29967.36
761.754	30046.46
762.091	30056.85
762.428	29943.41
762.765	29882.39
763.102	29933.46
763.438	29912.22
763.775	29663.19
764.112	29795.16
764.449	29928.72
764.785	29701.38
765.122	29652.79
765.458	29602.17
765.795	29608.28
766.131	29629.29
766.467	29613.02
766.804	29562.63
767.14	29453.03
767.476	29516.3
767.812	29438.56
768.148	29498.9
768.485	29360.37
768.821	29230.66
769.157	29281.28
769.492	29350.65
769.828	29315.85
770.164	29197.89
770.5	29051
770.836	29167.16
771.171	28980.5
771.507	28937.11
771.842	28825.7
772.178	28778.69
772.513	28667.28
772.849	28663.89
773.184	28490.11
773.519	28383
773.855	28382.54
774.19	28128.99
774.525	28138.48
774.86	27942.33
775.195	28028.88
775.53	28011.26
775.865	27899.39
776.2	27603.81
776.535	27491.95
776.87	27484.72
777.205	27254.21
777.539	27063.94
777.874	27180.32
778.209	26939.42
778.543	26947.1
778.878	26747.79
779.212	26696.04
779.547	26580.33
779.881	26787.56
780.215	26430.05
780.55	26484.06
780.884	26355.48
781.218	26177.63
781.552	26237.06
781.886	26036.39
782.22	25871.42
782.554	25914.59
782.888	25623.52
783.222	25564.54
783.556	25388.95
783.889	25471.43
784.223	25400.7
784.557	25311.21
784.89	25192.12
785.224	25085.23
785.557	25040.94
785.891	25139.92
786.224	25116.64
786.558	25073.93
786.891	24949.64
787.224	24829.19
787.557	24809.98
787.891	24792.13
788.224	24645.24
788.557	24688.4
788.89	24734.05
789.223	24589.2
789.556	24529.31
789.888	24413.16
790.221	24315.98
790.554	24223.11
790.887	24369.09
791.219	24043
791.552	23997.8
791.884	23831.7
792.217	23708.32
792.549	23627.42
792.882	23462.9
793.214	23389
793.546	23520.98
793.879	23298.38
794.211	23207.54
794.543	23207.99
794.875	23132.06
795.207	23063.14
795.539	22977.94
795.871	22784.95
796.203	22528.46
796.535	22454.56
796.867	22379.09
797.198	22387.67
797.53	22356.71
797.862	22243.72
798.193	22248.69
798.525	22154.91
798.856	22181.35
799.188	21944.3
799.519	21956.27
799.85	21795.37
800.182	21746.79
800.513	21769.61
800.844	21656.62
801.175	21682.16
801.506	21770.97
801.837	21557.19
802.168	21633.8
802.499	21464.08
802.83	21257.31
803.161	21354.93
803.491	21358.1
803.822	21294.37
804.153	21286.23
804.483	21133.24
804.814	21102.96
805.145	21122.4
805.475	21154.49
805.805	20938.9
806.136	20981.61
806.466	21057.77
806.796	20993.13
807.126	20803.53
807.457	20746.14
807.787	20832.91
808.117	20673.37
808.447	20629.08
808.777	20608.74
809.107	20544.56
809.436	20488.06
809.766	20500.72
810.096	20341.85
810.426	20275.64
810.755	20310.67
811.085	20198.35
811.414	20174.85
811.744	19875.42
812.073	19985.25
812.403	19912.03
812.732	19715.65
813.061	19760.4
813.39	19611.48
813.719	19494.64
814.049	19621.19
814.378	19583.68
814.707	19358.83
815.036	19404.02
815.365	19179.17
815.693	19185.5
816.022	19124.48
816.351	19052.17
816.68	18976.69
817.008	18967.65
817.337	18793.87
817.665	18827.09
817.994	18892.4
818.322	18781.22
818.651	18727.66
818.979	18696.02
819.307	18807.88
819.636	18674.55
819.964	18552.07
820.292	18697.15
820.62	18639.52
820.948	18565.85
821.276	18753.42
821.604	18664.16
821.932	18631.61
822.259	18703.48
822.587	18665.74
822.915	18581.9
823.243	18814.21
823.57	18672.52
823.898	18756.58
824.225	18649.02
824.553	18713.42
824.88	18756.58
825.207	18865.73
825.535	18739.41
825.862	18773.31
826.189	18702.12
826.516	18829.8
826.843	18852.17
827.17	18896.01
827.497	18853.76
827.824	18871.16
828.151	18791.61
828.478	18801.55
828.805	18859.41
829.131	18813.3
829.458	18681.78
829.785	18641.11
830.111	18694.66
830.438	18762.01
830.764	18608.34
831.09	18675.46
831.417	18540.32
831.743	18723.82
832.069	18700.54
832.395	18606.76
832.722	18631.16
833.048	18531.96
833.374	18478.17
833.7	18326.31
834.026	18312.53
834.351	18291.51
834.677	18228.24
835.003	18300.1
835.329	18399.98
835.654	18248.35
835.98	18177.62
836.306	18134.68
836.631	18018.98
836.956	18019.88
837.282	18115.47
837.607	18021.91
837.932	17949.6
838.258	18044.96
838.583	17966.32
838.908	17781.47
839.233	17878.64
839.558	17845.87
839.883	17780.34
840.208	17731.53
840.533	17779.21
840.858	17812.2
841.182	17796.38
841.507	17840.9
841.832	17725.2
842.156	17683.39
842.481	17673.67
842.805	17695.59
843.13	17691.75
843.454	17604.52
843.778	17530.17
844.103	17520.46
844.427	17520.68
844.751	17461.93
845.075	17550.97
845.399	17471.65
845.723	17449.5
846.047	17377.18
846.371	17228.04
846.695	17215.15
847.019	17064.2
847.343	16966.57
847.666	16931.32
847.99	16794.83
848.313	16840.93
848.637	16707.15
848.96	16648.39
849.284	16602.06
849.607	16514.83
849.931	16433.71
850.254	16307.16
850.577	16292.92
850.9	16144.67
851.223	16105.35
851.546	16075.75
851.869	15868.07
852.192	15888.18
852.515	15822.65
852.838	15703.78
853.161	15716.44
853.483	15645.7
853.806	15524.35
854.129	15490
854.451	15479.61
854.774	15355.09
855.096	15233.06
855.419	15192.38
855.741	15226.28
856.063	15082.56
856.385	14977.93
856.708	14936.34
857.03	14921.66
857.352	14958.49
857.674	14952.39
857.996	14903.35
858.318	14753.3
858.64	14800.75
858.961	14793.75
859.283	14725.73
859.605	14561.44
859.926	14559.41
860.248	14561.44
860.57	14517.37
860.891	14696.12
861.212	14495.9
861.534	14440.99
861.855	14606.86
862.176	14481.22
862.498	14533.64
862.819	14396.47
863.14	14328.22
863.461	14418.39
863.782	14405.29
864.103	14412.29
864.424	14417.26
864.745	14485.73
865.065	14496.13
865.386	14368.9
865.707	14289.58
866.027	14328
866.348	14280.77
866.668	14249.81
866.989	14196.93
867.309	14122.81
867.63	14209.58
867.95	14204.61
868.27	14117.61
868.59	14186.31
868.91	14159.87
869.23	14061.34
869.55	13956.26
869.87	13992.19
870.19	14030.61
870.51	13978.86
870.83	13961.91
871.15	13940.44
871.469	13864.73
871.789	13849.14
872.109	13759.43
872.428	13685.08
872.748	13716.26
873.067	13764.17
873.386	13681.91
873.706	13632.65
874.025	13548.58
874.344	13582.26
874.663	13547.68
874.982	13470.39
875.301	13467
875.62	13318.31
875.939	13266.56
876.258	13327.8
876.577	13313.56
876.896	13328.93
877.214	13174.36
877.533	13190.63
877.852	13165.32
878.17	13120.8
878.489	13152.44
878.807	13137.52
879.125	13076.96
879.444	13082.83
879.762	13095.71
880.08	13052.55
880.398	12975.49
880.716	13022.5
881.034	12951.09
881.352	12968.94
881.67	12902.73
881.988	13049.16
882.306	12862.5
882.624	12790.41
882.941	12808.26
883.259	12753.13
883.577	12864.08
883.894	12849.39
884.212	12802.16
884.529	12806.01
884.846	12776.18
885.164	12698.66
885.481	12710.41
885.798	12656.63
886.115	12688.95
886.432	12762.62
886.75	12677.42
887.067	12585.45
887.383	12605.11
887.7	12680.36
888.017	12547.25
888.334	12532.79
888.651	12523.98
888.967	12519.01
889.284	12456.86
889.6	12385
889.917	12358.56
890.233	12311.55
890.55	12313.81
890.866	12335.06
891.182	12232.23
891.498	12119.24
891.815	12170.54
892.131	12024.56
892.447	11991.34
892.763	12009.42
893.079	11966.03
893.395	11914.96
893.71	11799.93
894.026	11836.09
894.342	11869.76
894.657	11631.12
894.973	11716.09
895.289	11611.01
895.604	11571.24
895.92	11486.04
896.235	11518.36
896.55	11559.26
896.865	11459.6
897.181	11384.8
897.496	11232.49
897.811	11288.76
898.126	11150.68
898.441	11132.6
898.756	11113.39
899.071	11017.8
899.386	11062.32
899.7	10968.99
900.015	10991.59
900.33	10834.08
900.644	10859.16
900.959	10991.59
901.273	10842.21
901.588	10802.22
901.902	10732.61
902.216	10681.54
902.531	10718.6
902.845	10605.38
903.159	10585.5
903.473	10591.6
903.787	10499.85
904.101	10422.56
904.415	10475.22
904.729	10397.48
905.042	10362.23
905.356	10353.64
905.67	10365.84
905.984	10378.05
906.297	10259.41
906.611	10214.66
906.924	10258.28
907.237	10215.79
907.551	10180.54
907.864	10162.46
908.177	10158.39
908.491	10146.19
908.804	10110.48
909.117	10017.15
909.43	9934.22
909.743	9978.73
910.056	9908.68
910.368	9913.43
910.681	9899.19
910.994	9850.83
911.307	9811.51
911.619	9771.73
911.932	9788.46
912.244	9668.01
912.557	9693.77
912.869	9546.88
913.181	9529.93
913.494	9566.99
913.806	9478.18
914.118	9405.64
914.43	9391.63
914.742	9348.02
915.054	9302.37
915.366	9350.73
915.678	9213.78
915.99	9230.28
916.302	9070.51
916.613	9050.4
916.925	9122.03
917.236	9029.38
917.548	8927.24
917.859	8976.05
918.171	8839.78
918.482	8795.72
918.794	8735.6
919.105	8722.72
919.416	8635.04
919.727	8644.08
920.038	8648.6
920.349	8561.82
920.66	8499.68
920.971	8525.44
921.282	8413.8
921.593	8440.47
921.903	8355.73
922.214	8342.17
922.525	8245.67
922.835	8212.45
923.146	8215.84
923.456	8193.92
923.767	8166.35
924.077	8150.31
924.387	8077.32
924.697	8064.89
925.008	8043.87
925.318	8007.49
925.628	7958.67
925.938	7883.2
926.248	7900.15
926.558	7813.37
926.867	7869.19
927.177	7710.55
927.487	7719.36
927.796	7719.81
928.106	7643.88
928.416	7657.21
928.725	7686.82
929.034	7640.27
929.344	7582.64
929.653	7515.3
929.962	7466.26
930.271	7509.65
930.581	7476.88
930.89	7465.58
931.199	7388.75
931.508	7411.57
931.817	7438.24
932.125	7377.22
932.434	7304.68
932.743	7286.83
933.051	7290.44
933.36	7290.44
933.669	7203.89
933.977	7181.07
934.286	7154.18
934.594	7160.73
934.902	7058.13
935.21	7076.66
935.519	7090.9
935.827	7006.38
936.135	6981.07
936.443	6962.32
936.751	6975.2
937.059	6928.87
937.367	6925.48
937.674	6913.05
937.982	6890.45
938.29	6799.16
938.597	6775.2
938.905	6721.42
939.213	6704.24
939.52	6649.33
939.827	6657.92
940.135	6599.84
940.442	6614.3
940.749	6558.49
941.056	6513.97
941.363	6446.17
941.67	6416.57
941.977	6365.72
942.284	6286.18
942.591	6305.61
942.898	6268.1
943.205	6305.61
943.511	6243.47
943.818	6203.92
944.125	6156.46
944.431	6151.04
944.738	6064.04
945.044	6064.71
945.35	6044.15
945.657	5995.34
945.963	5968.22
946.269	5968.44
946.575	5953.08
946.881	5944.72
947.187	5933.19
947.493	5829.92
947.799	5862.46
948.105	5796.02
948.41	5767.09
948.716	5768.9
949.022	5777.04
949.327	5706.3
949.633	5677.6
949.938	5671.28
950.244	5607.32
950.549	5565.52
950.854	5568.23
951.16	5590.6
951.465	5567.55
951.77	5548.79
952.075	5509.25
952.38	5490.04
952.685	5433.32
952.99	5417.05
953.294	5434.67
953.599	5383.38
953.904	5350.38
954.209	5388.12
954.513	5362.58
954.818	5328.01
955.122	5329.14
955.426	5306.54
955.731	5332.76
956.035	5238.97
956.339	5213.89
956.643	5253.21
956.948	5232.87
957.252	5191.74
957.556	5212.53
957.86	5118.98
958.163	5175.25
958.467	5125.76
958.771	5084.63
959.075	5043.72
959.378	5027.45
959.682	5043.5
959.985	5011.18
960.289	4993.56
960.592	4980
960.896	4973.89
961.199	4948.13
961.502	4890.51
961.805	4885.08
962.108	4891.18
962.411	4875.14
962.714	4785.65
963.017	4817.97
963.32	4805.76
963.623	4731.87
963.926	4760.11
964.228	4715.37
964.531	4675.15
964.833	4683.05
965.136	4606.9
965.438	4580.68
965.741	4586.11
966.043	4567.35
966.345	4542.72
966.648	4518.31
966.95	4514.25
967.252	4505.88
967.554	4453.91
967.856	4414.14
968.158	4352.89
968.46	4396.51
968.761	4354.25
969.063	4313.12
969.365	4338.88
969.666	4273.8
969.968	4262.27
970.269	4235.38
970.571	4242.61
970.872	4216.4
971.174	4211.65
971.475	4196.74
971.776	4206.01
972.077	4117.42
972.378	4138.44
972.679	4084.65
972.98	4074.03
973.281	4062.73
973.582	4062.05
973.883	4044.43
974.183	3993.36
974.484	3982.06
974.785	3926.46
975.085	3960.59
975.386	3945.9
975.686	3936.63
975.986	3904.32
976.287	3892.34
976.587	3858.67
976.887	3828.61
977.187	3806.47
977.487	3807.15
977.787	3812.57
978.087	3803.08
978.387	3815.06
978.687	3746.58
978.987	3760.37
979.286	3710.88
979.586	3730.99
979.885	3721.27
980.185	3711.1
980.484	3639.47
980.784	3695.96
981.083	3636.98
981.382	3622.52
981.682	3640.82
981.981	3612.57
982.28	3590.2
982.579	3601.5
982.878	3602.86
983.177	3566.25
983.475	3585.23
983.774	3521.73
984.073	3528.96
984.372	3531.45
984.67	3557.21
984.969	3498
985.267	3475.18
985.566	3463.65
985.864	3466.36
986.162	3459.13
986.461	3440.6
986.759	3400.83
987.057	3370.55
987.355	3371.68
987.653	3393.37
987.951	3365.58
988.249	3317.89
988.547	3331.45
988.844	3264.79
989.142	3313.83
989.44	3213.71
989.737	3247.84
990.035	3198.12
990.332	3218.23
990.63	3192.47
990.927	3205.81
991.224	3173.94
991.521	3131.46
991.819	3071.35
992.116	3076.54
992.413	3070.22
992.71	3067.73
993.006	3075.19
993.303	3014.62
993.6	3034.96
993.897	3009.43
994.193	2991.8
994.49	2969.43
994.787	2949.54
995.083	2945.93
995.379	2955.42
995.676	2902.99
995.972	2924.46
996.268	2848.53
996.565	2843.78
996.861	2893.5
997.157	2856.21
997.453	2819.38
997.749	2813.05
998.044	2775.53
998.34	2773.5
998.636	2742.77
998.932	2750.9
999.227	2766.04
999.523	2704.12
999.818	2725.82
1000.114	2671.81
1000.409	2653.28
1000.704	2628.87
1001	2606.05
1001.295	2620.74
1001.59	2637.91
1001.885	2555.43
1002.18	2568.99
1002.475	2531.25
1002.77	2544.35
1003.065	2515.65
1003.359	2557.46
1003.654	2516.56
1003.949	2496.67
1004.243	2512.04
1004.538	2501.87
1004.832	2475.2
1005.127	2479.27
1005.421	2476.11
1005.715	2451.25
1006.009	2392.95
1006.304	2395.21
1006.598	2351.36
1006.892	2378.48
1007.186	2339.16
1007.48	2344.59
1007.773	2325.38
1008.067	2308.2
1008.361	2285.6
1008.655	2286.73
1008.948	2323.57
1009.242	2294.87
1009.535	2283.34
1009.829	2263.01
1010.122	2239.73
1010.415	2257.13
1010.708	2199.96
1011.001	2211.71
1011.295	2211.71
1011.588	2206.28
1011.881	2163.12
1012.173	2156.79
1012.466	2167.19
1012.759	2149.56
1013.052	2136.46
1013.344	2099.39
1013.637	2149.56
1013.93	2092.16
1014.222	2065.27
1014.514	2091.94
1014.807	2086.51
1015.099	2077.47
1015.391	2062.78
1015.683	2058.04
1015.976	1978.95
1016.268	1997.7
1016.56	1966.97
1016.851	1970.13
1017.143	1969.45
1017.435	1978.27
1017.727	1934.65
1018.018	1956.12
1018.31	1928.78
1018.602	1884.94
1018.893	1885.84
1019.185	1860.76
1019.476	1864.82
1019.767	1863.92
1020.058	1828.67
1020.35	1823.69
1020.641	1833.41
1020.932	1827.99
1021.223	1763.36
1021.514	1764.94
1021.804	1760.19
1022.095	1745.5
1022.386	1734.21
1022.677	1716.13
1022.967	1716.35
1023.258	1723.58
1023.548	1664.38
1023.839	1681.78
1024.129	1666.19
1024.419	1643.59
1024.709	1632.29
1025	1622.57
1025.29	1613.76
1025.58	1640.42
1025.87	1586.64
1026.16	1594.77
1026.449	1564.72
1026.739	1547.09
1027.029	1566.75
1027.319	1547.77
1027.608	1531.05
1027.898	1521.1
1028.187	1511.39
1028.477	1487.21
1028.766	1495.57
1029.055	1498.96
1029.344	1453.31
1029.634	1455.12
1029.923	1468.68
1030.212	1450.15
1030.501	1415.12
1030.79	1383.48
1031.078	1402.69
1031.367	1379.19
1031.656	1377.61
1031.945	1347.32
1032.233	1357.49
1032.522	1341.9
1032.81	1365.18
1033.099	1355.23
1033.387	1314.78
1033.675	1333.54
1033.963	1313.65
1034.251	1316.59
1034.54	1315.01
1034.828	1301.67
1035.116	1289.7
1035.403	1256.25
1035.691	1260.55
1035.979	1282.01
1036.267	1260.55
1036.554	1250.6
1036.842	1227.33
1037.129	1246.76
1037.417	1216.25
1037.704	1221.45
1037.992	1185.52
1038.279	1176.71
1038.566	1188.68
1038.853	1188.68
1039.14	1188.68
