Data from blue_chair_FLMS001491_00063.txt Node
Date: Wed Feb 08 10:31:33 GMT 2017
User: dcchb
Spectrometer: FLMS00149
Trigger mode: 0
Integration Time (sec): 2.000000E-2
Scans to average: 10
Electric dark correction enabled: true
Nonlinearity correction enabled: false
Boxcar width: 0
XAxis mode: Wavelengths
Number of Pixels in Spectrum: 2048
>>>>>Begin Spectral Data<<<<<
341.393	-16.81
341.776	-16.81
342.16	-16.81
342.543	-83.47
342.927	-58.84
343.31	-71.5
343.693	-61.78
344.077	-50.03
344.46	-53.87
344.843	-31.95
345.226	-57.71
345.61	-36.24
345.993	-16.81
346.376	0.37
346.759	2.63
347.142	12.34
347.525	35.62
347.908	50.99
348.291	76.07
348.674	92.12
349.057	109.74
349.44	97.31
349.823	142.74
350.206	146.35
350.588	157.88
350.971	192.23
351.354	193.58
351.737	210.98
352.119	240.36
352.502	227.93
352.884	246.69
353.267	260.25
353.65	251.66
354.032	276.07
354.414	279
354.797	280.81
355.179	302.28
355.562	292.56
355.944	298.21
356.326	310.42
356.709	333.01
357.091	308.16
357.473	318.1
357.855	314.03
358.238	322.62
358.62	322.17
359.002	320.81
359.384	327.36
359.766	315.61
360.148	298.89
360.53	302.51
360.912	307.25
361.294	314.94
361.676	297.76
362.057	298.44
362.439	284.65
362.821	289.4
363.203	283.52
363.584	307.7
363.966	293.69
364.348	276.74
364.729	291.43
365.111	297.99
365.493	292.79
365.874	267.48
366.256	277.87
366.637	316.29
367.019	272.9
367.4	265.22
367.781	300.25
368.163	293.01
368.544	297.53
368.925	304.99
369.306	280.36
369.688	284.88
370.069	283.07
370.45	288.5
370.831	279.23
371.212	297.08
371.593	292.79
371.974	280.13
372.355	290.76
372.736	287.82
373.117	285.56
373.498	299.34
373.879	301.6
374.26	296.4
374.641	302.96
375.021	290.53
375.402	275.61
375.783	278.78
376.163	278.1
376.544	300.7
376.925	282.62
377.305	296.18
377.686	290.08
378.066	272.45
378.447	288.95
378.827	304.99
379.208	291.21
379.588	296.4
379.968	276.29
380.349	304.54
380.729	292.79
381.109	306.8
381.489	294.6
381.87	286.01
382.25	286.24
382.63	290.98
383.01	300.92
383.39	302.51
383.77	303.64
384.15	289.4
384.53	295.73
384.91	307.93
385.29	341.83
385.67	309.96
386.049	306.12
386.429	304.31
386.809	288.72
387.189	298.21
387.568	318.32
387.948	332.34
388.328	293.47
388.707	299.79
389.087	308.61
389.466	327.36
389.846	323.52
390.225	314.48
390.605	314.71
390.984	309.51
391.363	313.13
391.743	315.84
392.122	318.1
392.501	316.97
392.881	314.94
393.26	325.1
393.639	297.76
394.018	336.86
394.397	320.81
394.776	313.13
395.155	313.13
395.534	325.1
395.913	314.03
396.292	328.27
396.671	344.09
397.05	335.73
397.429	323.75
397.808	317.2
398.186	345.89
398.565	342.05
398.944	332.56
399.323	330.75
399.701	337.99
400.08	354.48
400.458	331.21
400.837	329.17
401.215	339.34
401.594	335.95
401.972	324.65
402.351	355.39
402.729	377.53
403.107	351.54
403.486	344.54
403.864	376.63
404.242	349.28
404.62	362.62
404.999	352.9
405.377	379.57
405.755	372.79
406.133	357.65
406.511	370.3
406.889	367.59
407.267	401.26
407.645	384.76
408.023	393.13
408.401	387.93
408.779	389.51
409.156	394.71
409.534	388.38
409.912	394.71
410.29	397.19
410.667	392
411.045	370.08
411.422	401.49
411.8	428.38
412.178	411.2
412.555	404.42
412.933	402.16
413.31	411.88
413.687	425.21
414.065	431.77
414.442	429.51
414.819	414.14
415.197	406.01
415.574	426.34
415.951	426.12
416.328	423.63
416.705	415.95
417.082	420.47
417.46	429.96
417.837	453.69
418.214	426.8
418.591	424.08
418.967	450.52
419.344	442.62
419.721	441.71
420.098	453.91
420.475	448.72
420.852	453.91
421.228	440.13
421.605	453.91
421.982	469.06
422.358	474.71
422.735	471.32
423.111	475.61
423.488	495.27
423.864	476.29
424.241	480.13
424.617	463.18
424.994	487.59
425.37	468.83
425.746	492.56
426.123	499.56
426.499	487.59
426.875	491.65
427.251	531.88
427.627	497.08
428.003	539.56
428.379	533.01
428.756	525.78
429.132	524.65
429.507	512.22
429.883	541.14
430.259	562.84
430.635	562.84
431.011	551.54
431.387	553.8
431.763	560.13
432.138	566.68
432.514	559
432.89	584.76
433.265	592.44
433.641	599.67
434.016	580.24
434.392	596.28
434.767	620.69
435.143	607.36
435.518	616.62
435.894	624.53
436.269	644.42
436.644	623.85
437.02	649.62
437.395	653.91
437.77	667.92
438.145	652.55
438.52	669.95
438.895	667.92
439.271	683.29
439.646	697.3
440.021	695.04
440.395	705.21
440.77	698.88
441.145	694.81
441.52	723.51
441.895	739.33
442.27	715.83
442.645	730.07
443.019	712.44
443.394	753.34
443.769	748.82
444.143	779.78
444.518	771.42
444.892	759.67
445.267	791.53
445.641	765.09
446.016	788.37
446.39	806
446.764	778.43
447.139	793.57
447.513	819.33
447.887	767.13
448.262	810.74
448.636	790.63
449.01	809.61
449.384	816.39
449.758	824.98
450.132	819.1
450.506	838.09
450.88	846.22
451.254	843.06
451.628	854.58
452.002	873.79
452.376	878.08
452.75	867.69
453.123	896.16
453.497	882.6
453.871	893
454.244	897.74
454.618	905.65
454.992	916.73
455.365	896.39
455.739	923.51
456.112	918.76
456.486	942.72
456.859	948.36
457.232	958.08
457.606	933
457.979	970.29
458.352	982.04
458.725	986.56
459.099	995.14
459.472	991.53
459.845	1022.04
460.218	1043.96
460.591	1019.32
460.964	1027.68
461.337	1045.54
461.71	1040.79
462.083	1097.29
462.456	1052.77
462.829	1063.39
463.201	1060.9
463.574	1068.36
463.947	1074.46
464.32	1098.87
464.692	1128.7
465.065	1126.21
465.438	1114.91
465.81	1165.31
466.183	1149.49
466.555	1181.81
466.928	1158.98
467.3	1151.52
467.672	1182.71
468.045	1206.44
468.417	1185.42
468.789	1215.02
469.161	1206.89
469.534	1219.54
469.906	1250.28
470.278	1234.69
470.65	1236.04
471.022	1285.31
471.394	1272.88
471.766	1303.16
472.138	1305.87
472.51	1327.79
472.882	1289.15
473.253	1326.21
473.625	1355.13
473.997	1366.66
474.369	1367.79
474.74	1366.66
475.112	1392.87
475.484	1437.39
475.855	1419.54
476.227	1445.3
476.598	1462.93
476.97	1466.77
477.341	1471.06
477.713	1537.73
478.084	1492.76
478.455	1491.18
478.827	1557.61
479.198	1548.12
479.569	1556.71
479.94	1573.43
480.311	1589.25
480.682	1584.73
481.053	1659.08
481.424	1646.88
481.795	1628.57
482.166	1698.18
482.537	1698.4
482.908	1722.13
483.279	1710.15
483.65	1698.4
484.021	1754.45
484.391	1736.82
484.762	1766.87
485.133	1760.55
485.503	1785.18
485.874	1776.37
486.244	1803.94
486.615	1828.34
486.985	1831.28
487.356	1824.27
487.726	1822.24
488.097	1866.98
488.467	1875.12
488.837	1866.08
489.207	1908.34
489.578	1921.9
489.948	1907.66
490.318	1913.31
490.688	1894.55
491.058	1910.83
491.428	1915.57
491.798	1939.75
492.168	1970.26
492.538	1951.5
492.908	1937.72
493.278	1960.32
493.648	1974.1
494.017	1971.39
494.387	1949.69
494.757	1998.28
495.126	1968.9
495.496	1969.58
495.866	1991.05
496.235	2002.12
496.605	1940.43
496.974	1973.2
497.344	1984.27
497.713	1967.55
498.082	1999.41
498.452	2000.31
498.821	1977.04
499.19	2010.71
499.559	2003.48
499.928	1981.78
500.298	1962.58
500.667	1967.55
501.036	1970.71
501.405	1978.17
501.774	1997.6
502.143	1974.33
502.512	1994.21
502.88	1953.54
503.249	1958.96
503.618	1965.06
503.987	1936.14
504.356	1936.36
504.724	1956.25
505.093	1951.73
505.462	1958.96
505.83	1933.42
506.199	1956.02
506.567	1936.36
506.936	1934.33
507.304	1942.46
507.672	1930.71
508.041	1925.51
508.409	1952.63
508.777	1927.32
509.145	1945.85
509.514	1949.02
509.882	1966.64
510.25	1933.88
510.618	1897.94
510.986	1920.99
511.354	1923.03
511.722	1929.58
512.09	1952.18
512.458	1909.02
512.826	1911.96
513.193	1915.12
513.561	1903.14
513.929	1895.23
514.297	1902.01
514.664	1896.81
515.032	1888.68
515.4	1903.14
515.767	1884.84
516.135	1898.4
516.502	1844.61
516.869	1854.56
517.237	1863.37
517.604	1831.73
517.972	1857.04
518.339	1878.51
518.706	1830.38
519.073	1860.21
519.44	1857.49
519.808	1815.46
520.175	1846.19
520.542	1838.06
520.909	1822.24
521.276	1818.17
521.643	1792.41
522.009	1801
522.376	1835.8
522.743	1847.55
523.11	1807.55
523.477	1843.26
523.843	1843.71
524.21	1817.04
524.577	1840.54
524.943	1825.86
525.31	1786.76
525.676	1806.65
526.043	1778.17
526.409	1786.76
526.776	1806.42
527.142	1812.3
527.508	1807.55
527.874	1831.73
528.241	1806.42
528.607	1784.28
528.973	1838.96
529.339	1808.23
529.705	1801.9
530.071	1799.19
530.437	1786.99
530.803	1825.86
531.169	1782.24
531.535	1793.54
531.901	1834.67
532.267	1800.09
532.632	1808.68
532.998	1793.54
533.364	1793.31
533.73	1807.33
534.095	1826.53
534.461	1791.96
534.826	1827.44
535.192	1795.8
535.557	1796.03
535.923	1807.78
536.288	1786.99
536.653	1801.22
537.019	1787.89
537.384	1797.38
537.749	1802.81
538.114	1780.21
538.479	1784.28
538.845	1824.95
539.21	1775.46
539.575	1767.33
539.94	1795.8
540.305	1785.41
540.67	1766.42
541.034	1782.92
541.399	1786.08
541.764	1761.68
542.129	1779.76
542.494	1792.86
542.858	1776.82
543.223	1763.48
543.587	1808.68
543.952	1771.85
544.316	1761
544.681	1766.42
545.045	1759.42
545.41	1756.71
545.774	1737.95
546.138	1762.13
546.503	1719.19
546.867	1758.51
547.231	1737.04
547.595	1745.18
547.959	1765.07
548.324	1753.99
548.688	1735.46
549.052	1733.88
549.416	1736.14
549.779	1732.98
550.143	1729.59
550.507	1733.65
550.871	1728.01
551.235	1730.49
551.599	1687.1
551.962	1694.33
552.326	1726.65
552.689	1720.77
553.053	1699.53
553.417	1707.21
553.78	1715.12
554.143	1702.02
554.507	1700.21
554.87	1680.1
555.234	1715.8
555.597	1716.71
555.96	1730.72
556.323	1708.57
556.686	1736.59
557.05	1712.86
557.413	1719.42
557.776	1698.18
558.139	1704.5
558.502	1737.04
558.865	1700.21
559.228	1697.5
559.59	1702.47
559.953	1692.75
560.316	1732.98
560.679	1694.56
561.041	1737.5
561.404	1735.46
561.767	1746.99
562.129	1695.01
562.492	1715.8
562.854	1720.32
563.217	1713.09
563.579	1704.05
563.941	1710.6
564.304	1709.25
564.666	1720.1
565.028	1724.84
565.39	1732.3
565.753	1745.86
566.115	1722.13
566.477	1743.6
566.839	1752.86
567.201	1776.82
567.563	1749.25
567.925	1757.84
568.287	1776.37
568.648	1716.71
569.01	1765.29
569.372	1788.57
569.734	1792.41
570.095	1789.7
570.457	1795.35
570.819	1799.19
571.18	1811.39
571.542	1810.49
571.903	1809.81
572.265	1819.3
572.626	1804.84
572.987	1816.14
573.349	1803.26
573.71	1821.79
574.071	1828.12
574.432	1798.29
574.794	1827.44
575.155	1850.71
575.516	1840.09
575.877	1867.89
576.238	1853.88
576.599	1865.18
576.96	1850.49
577.32	1861.11
577.681	1867.21
578.042	1868.34
578.403	1885.06
578.763	1881
579.124	1909.92
579.485	1878.06
579.845	1891.62
580.206	1906.08
580.566	1887.1
580.927	1878.74
581.287	1899.3
581.648	1891.62
582.008	1901.11
582.368	1906.76
582.728	1912.41
583.089	1895.01
583.449	1904.27
583.809	1912.41
584.169	1918.96
584.529	1918.28
584.889	1939.07
585.249	1919.41
585.609	1954.44
585.969	1947.66
586.329	1959.19
586.688	1908.79
587.048	1935.23
587.408	1943.14
587.768	1966.64
588.127	1949.47
588.487	1943.37
588.846	1970.26
589.206	1930.26
589.565	1968.23
589.925	1953.99
590.284	1947.21
590.643	1957.83
591.003	1945.4
591.362	1978.85
591.721	1954.21
592.08	1960.54
592.44	1959.19
592.799	1942.46
593.158	1943.37
593.517	1944.72
593.876	1955.57
594.235	1942.92
594.593	1958.28
594.952	1933.2
595.311	1964.84
595.67	1953.31
596.029	1997.38
596.387	1966.64
596.746	1984.95
597.104	1953.54
597.463	1915.8
597.822	1932.52
598.18	1938.17
598.538	1937.49
598.897	1966.42
599.255	1928.9
599.613	1956.47
599.972	1953.54
600.33	1940.88
600.688	1938.4
601.046	1944.72
601.404	1937.49
601.762	1960.54
602.12	1960.99
602.478	1956.93
602.836	1956.25
603.194	1957.15
603.552	1922.12
603.91	1961.45
604.268	1973.65
604.625	1950.15
604.983	1956.47
605.341	1961.22
605.698	1955.57
606.056	1926.64
606.413	1955.12
606.771	1977.72
607.128	1944.95
607.485	1930.71
607.843	1958.96
608.2	1952.63
608.557	1964.61
608.914	1944.95
609.272	1993.76
609.629	1975
609.986	1957.83
610.343	1954.21
610.7	2000.54
611.057	1986.98
611.414	1993.08
611.771	1988.79
612.127	1963.03
612.484	1948.34
612.841	2018.39
613.198	2001.44
613.554	1992.63
613.911	1980.43
614.267	2000.54
614.624	1994.44
614.98	1991.05
615.337	1993.99
615.693	1991.05
616.05	1971.84
616.406	2022.01
616.762	2020.65
617.118	1976.36
617.475	1975
617.831	1991.5
618.187	1958.06
618.543	1998.73
618.899	1995.57
619.255	1999.41
619.611	1998.05
619.967	2026.98
620.323	2024.27
620.678	2030.82
621.034	2034.21
621.39	2001.67
621.746	2008.9
622.101	2025.17
622.457	2005.29
622.812	2021.78
623.168	2015
623.523	2017.72
623.879	2008.22
624.234	2041.9
624.589	2031.73
624.945	2011.16
625.3	2029.69
625.655	1993.31
626.01	2014.55
626.365	2013.2
626.72	2008
627.075	2040.31
627.43	2038.96
627.785	2007.77
628.14	2046.42
628.495	2021.78
628.85	2026.08
629.205	2016.13
629.559	2016.81
629.914	1994.89
630.269	2031.95
630.623	2046.19
630.978	2037.15
631.332	2027.21
631.687	2035.12
632.041	2018.62
632.396	2046.87
632.75	2048.9
633.104	2021.56
633.459	2029.69
633.813	2033.53
634.167	2047.09
634.521	2044.38
634.875	2009.81
635.229	2011.16
635.583	2027.21
635.937	1977.04
636.291	2027.43
636.645	2047.09
636.999	2030.6
637.352	2020.2
637.706	2021.11
638.06	2001.22
638.413	2021.11
638.767	2008.68
639.121	2038.51
639.474	2022.23
639.828	2026.98
640.181	2036.7
640.534	2030.82
640.888	2034.89
641.241	2026.08
641.594	2007.09
641.947	2025.85
642.301	2021.78
642.654	2025.4
643.007	2041.22
643.36	2046.87
643.713	2034.89
644.066	2053.19
644.419	2018.39
644.771	2011.39
645.124	2003.48
645.477	1995.12
645.83	2014.78
646.182	2001.22
646.535	2011.39
646.888	2003.25
647.24	1998.28
647.593	2018.17
647.945	1990.37
648.298	2002.57
648.65	2011.84
649.002	2021.33
649.355	2006.87
649.707	2010.26
650.059	2024.49
650.411	2057.49
650.763	2044.61
651.115	2057.04
651.467	2022.01
651.819	2071.95
652.171	2056.36
652.523	2092.06
652.875	2075.34
653.227	2069.24
653.578	2070.14
653.93	2062.23
654.282	2061.78
654.633	2093.19
654.985	2095
655.337	2088.45
655.688	2097.71
656.039	2106.3
656.391	2088.45
656.742	2104.94
657.094	2093.19
657.445	2086.87
657.796	2115.57
658.147	2103.36
658.498	2131.38
658.849	2140.88
659.2	2109.46
659.551	2128.9
659.902	2127.99
660.253	2144.94
660.604	2125.74
660.955	2127.54
661.306	2126.64
661.656	2115.11
662.007	2138.84
662.358	2111.5
662.708	2133.87
663.059	2151.27
663.409	2135.45
663.76	2140.88
664.11	2151.72
664.461	2142.23
664.811	2124.15
665.161	2127.99
665.511	2109.46
665.862	2122.57
666.212	2175.9
666.562	2169.35
666.912	2131.16
667.262	2126.19
667.612	2143.36
667.962	2132.97
668.312	2120.99
668.662	2130.03
669.011	2179.52
669.361	2095.45
669.711	2121.44
670.06	2128.9
670.41	2100.42
670.76	2106.3
671.109	2128.67
671.459	2128.9
671.808	2131.84
672.157	2128.22
672.507	2134.55
672.856	2085.96
673.205	2095.91
673.554	2097.26
673.904	2095.23
674.253	2110.37
674.602	2106.07
674.951	2059.07
675.3	2088.22
675.649	2068.11
675.998	2090.93
676.346	2092.74
676.695	2084.83
677.044	2084.15
677.393	2090.26
677.741	2078.5
678.09	2081.22
678.438	2079.18
678.787	2085.06
679.135	2071.27
679.484	2061.1
679.832	2055.45
680.181	2039.41
680.529	2076.47
680.877	2027.66
681.225	2021.33
681.573	2064.72
681.922	2033.76
682.27	2024.49
682.618	2001.22
682.966	2023.82
683.314	2048.22
683.661	2015.91
684.009	2010.71
684.357	2022.91
684.705	2008.9
685.053	2000.99
685.4	1973.65
685.748	1991.95
686.095	1949.02
686.443	1995.57
686.79	1951.95
687.138	1975.91
687.485	1987.89
687.832	1963.48
688.18	1937.49
688.527	1964.84
688.874	1942.01
689.221	1923.93
689.568	1940.43
689.915	1909.92
690.262	1936.36
690.609	1921.67
690.956	1913.76
691.303	1931.84
691.65	1890.04
691.997	1892.29
692.344	1883.03
692.69	1898.4
693.037	1899.53
693.383	1888.91
693.73	1864.27
694.077	1865.4
694.423	1865.85
694.769	1822.47
695.116	1875.12
695.462	1878.06
695.808	1855.69
696.155	1852.97
696.501	1815.69
696.847	1854.78
697.193	1774.33
697.539	1831.73
697.885	1816.59
698.231	1807.1
698.577	1776.82
698.923	1809.59
699.269	1817.27
699.614	1797.61
699.96	1805.07
700.306	1771.85
700.651	1812.75
700.997	1784.73
701.342	1773.2
701.688	1786.31
702.033	1797.83
702.379	1766.87
702.724	1757.84
703.069	1766.2
703.415	1744.28
703.76	1728.23
704.105	1743.15
704.45	1753.54
704.795	1728.68
705.14	1757.38
705.485	1742.02
705.83	1746.54
706.175	1746.99
706.52	1747.89
706.865	1768.68
707.209	1754.9
707.554	1750.38
707.899	1741.11
708.243	1714.45
708.588	1734.11
708.932	1742.24
709.277	1726.65
709.621	1719.64
709.966	1721
710.31	1716.48
710.654	1697.95
710.998	1713.32
711.342	1751.96
711.687	1731.4
712.031	1706.76
712.375	1717.84
712.719	1725.29
713.063	1730.72
713.407	1716.71
713.75	1742.69
714.094	1745.86
714.438	1718.74
714.782	1759.64
715.125	1741.56
715.469	1711.51
715.812	1784.95
716.156	1746.76
716.499	1745.63
716.843	1716.48
717.186	1746.31
717.53	1738.63
717.873	1768.68
718.216	1787.44
718.559	1780.21
718.902	1761.9
719.246	1772.98
719.589	1767.33
719.932	1755.58
720.275	1765.52
720.617	1763.03
720.96	1786.76
721.303	1795.8
721.646	1801.68
721.989	1784.95
722.331	1796.7
722.674	1820.66
723.016	1824.05
723.359	1809.13
723.701	1802.13
724.044	1824.27
724.386	1831.05
724.729	1835.8
725.071	1825.63
725.413	1835.57
725.755	1865.18
726.097	1802.81
726.439	1838.06
726.782	1876.02
727.124	1879.87
727.465	1883.71
727.807	1858.62
728.149	1913.31
728.491	1887.32
728.833	1888.68
729.175	1889.81
729.516	1885.06
729.858	1915.35
730.199	1912.63
730.541	1924.61
730.882	1917.38
731.224	1951.05
731.565	1953.54
731.906	1958.06
732.248	1993.31
732.589	1970.94
732.93	1971.39
733.271	2017.49
733.612	1990.15
733.953	2017.26
734.294	2026.53
734.635	2030.37
734.976	2067.66
735.317	2088.67
735.658	2073.53
735.999	2099.75
736.339	2080.54
736.68	2080.76
737.021	2113.76
737.361	2131.38
737.702	2129.35
738.042	2130.71
738.383	2145.62
738.723	2177.03
739.063	2199.63
739.404	2220.42
739.744	2212.96
740.084	2202.57
740.424	2278.95
740.764	2292.51
741.104	2301.1
741.444	2297.48
741.784	2346.52
742.124	2329.8
742.464	2362.11
742.804	2379.74
743.143	2391.49
743.483	2433.3
743.823	2427.42
744.162	2471.71
744.502	2525.95
744.841	2518.95
745.181	2542
745.52	2590.81
745.86	2609.79
746.199	2656.34
746.538	2667.19
746.877	2769.33
747.216	2763.46
747.556	2746.28
747.895	2783.34
748.234	2860.41
748.573	2873.96
748.911	2892.04
749.25	2941.08
749.589	3004.36
749.928	3052.94
750.267	3048.2
750.605	3091.59
750.944	3136.78
751.283	3190.11
751.621	3257
751.96	3263.11
752.298	3320.73
752.636	3384.01
752.975	3474.85
753.313	3485.93
753.651	3561.4
753.989	3589.43
754.327	3601.63
754.666	3673.04
755.004	3751.23
755.342	3771.57
755.679	3844.11
756.017	3874.39
756.355	3967.49
756.693	3982.86
757.031	4097.66
757.368	4097.89
757.706	4147.15
758.044	4218.56
758.381	4262.18
758.719	4352.34
759.056	4435.05
759.394	4424.43
759.731	4452.68
760.068	4543.52
760.405	4606.12
760.743	4641.38
761.08	4749.85
761.417	4783.29
761.754	4864.42
762.091	4943.06
762.428	4925.44
762.765	4929.05
763.102	5024.64
763.438	5059.44
763.775	5141.25
764.112	5160.46
764.449	5225.54
764.785	5268.7
765.122	5334.69
765.458	5364.97
765.795	5438.64
766.131	5445.2
766.467	5470.05
766.804	5483.16
767.14	5552.76
767.476	5654
767.812	5667.11
768.148	5711.18
768.485	5757.73
768.821	5722.25
769.157	5815.58
769.492	5868.91
769.828	5865.75
770.164	5924.28
770.5	5906.43
770.836	5992.75
771.171	5968.8
771.507	5933.54
771.842	6009.47
772.178	6011.96
772.513	6066.87
772.849	6101.22
773.184	6098.74
773.519	6217.38
773.855	6163.14
774.19	6188.45
774.525	6174.67
774.86	6245.17
775.195	6323.82
775.53	6324.04
775.865	6293.31
776.2	6346.42
776.535	6284.04
776.87	6330.6
777.205	6326.3
777.539	6383.25
777.874	6425.06
778.209	6345.06
778.543	6437.49
778.878	6406.98
779.212	6439.07
779.547	6357.94
779.881	6464.83
780.215	6420.99
780.55	6532.62
780.884	6491.95
781.218	6500.54
781.552	6434.77
781.886	6441.1
782.22	6458.28
782.554	6507.54
782.888	6481.78
783.222	6499.41
783.556	6439.97
783.889	6486.3
784.223	6475
784.557	6470.93
784.89	6526.07
785.224	6474.77
785.557	6440.2
785.891	6410.59
786.224	6491.5
786.558	6472.51
786.891	6476.13
787.224	6510.93
787.557	6486.98
787.891	6498.05
788.224	6508.22
788.557	6503.25
788.89	6579.86
789.223	6441.55
789.556	6456.02
789.888	6451.72
790.221	6475.23
790.554	6444.49
790.887	6452.4
791.219	6430.03
791.552	6403.81
791.884	6481.78
792.217	6479.74
792.549	6464.15
792.882	6450.37
793.214	6416.7
793.546	6416.47
793.879	6444.27
794.211	6374.44
794.543	6432.29
794.875	6340.99
795.207	6466.86
795.539	6399.75
795.871	6397.94
796.203	6395.68
796.535	6334.89
796.867	6345.29
797.198	6373.76
797.53	6384.61
797.862	6251.73
798.193	6364.27
798.525	6296.7
798.856	6358.62
799.188	6270.94
799.519	6265.06
799.85	6300.54
800.182	6274.33
800.513	6284.27
800.844	6228.68
801.175	6269.81
801.506	6281.11
801.837	6231.16
802.168	6279.75
802.499	6244.5
802.83	6205.4
803.161	6180.54
803.491	6174.44
803.822	6171.28
804.153	6202.01
804.483	6126.53
804.814	6147.1
805.145	6160.66
805.475	6160.21
805.805	6135.57
806.136	6087.66
806.466	6122.92
806.796	6141.67
807.126	6103.94
807.457	6116.14
807.787	6057.84
808.117	5996.59
808.447	6041.34
808.777	6059.87
809.107	6055.58
809.436	6026.88
809.766	6052.64
810.096	6033.2
810.426	6010.83
810.755	6031.85
811.085	5997.72
811.414	5995.46
811.744	5929.25
812.073	5997.27
812.403	5962.47
812.732	5982.81
813.061	5912.3
813.39	5911.85
813.719	5910.95
814.049	5970.15
814.378	5940.1
814.707	5955.92
815.036	5913.66
815.365	5873.43
815.693	5837.73
816.022	5877.05
816.351	5872.53
816.68	5838.86
817.008	5874.11
817.337	5849.48
817.665	5806.99
817.994	5841.12
818.322	5821.91
818.651	5797.28
818.979	5819.88
819.307	5817.62
819.636	5738.52
819.964	5786.66
820.292	5784.17
820.62	5737.62
820.948	5735.81
821.276	5772.87
821.604	5748.69
821.932	5780.78
822.259	5772.42
822.587	5779.42
822.915	5731.97
823.243	5830.27
823.57	5775.58
823.898	5811.51
824.225	5816.49
824.553	5799.54
824.88	5819.2
825.207	5811.29
825.535	5802.7
825.862	5893.32
826.189	5837.95
826.516	5801.12
826.843	5840.67
827.17	5871.17
827.497	5782.36
827.824	5828.91
828.151	5853.09
828.478	5880.44
828.805	5871.17
829.131	5858.07
829.458	5822.14
829.785	5806.77
830.111	5805.41
830.438	5864.62
830.764	5870.27
831.09	5828.46
831.417	5778.07
831.743	5887.22
832.069	5885.86
832.395	5825.52
832.722	5895.81
833.048	5860.1
833.374	5861
833.7	5788.01
834.026	5805.19
834.351	5875.24
834.677	5818.75
835.003	5831.63
835.329	5884.51
835.654	5865.52
835.98	5816.03
836.306	5781.01
836.631	5802.7
836.956	5814.68
837.282	5730.16
837.607	5775.13
837.932	5776.71
838.258	5790.95
838.583	5775.36
838.908	5759.09
839.233	5746.2
839.558	5738.07
839.883	5730.84
840.208	5729.93
840.533	5741.46
840.858	5729.71
841.182	5729.26
841.507	5695.81
841.832	5719.99
842.156	5711.18
842.481	5692.65
842.805	5652.42
843.13	5630.73
843.454	5636.83
843.778	5595.25
844.103	5594.8
844.427	5605.42
844.751	5631.86
845.075	5530.62
845.399	5541.69
845.723	5530.84
846.047	5554.57
846.371	5491.3
846.695	5425.08
847.019	5460.79
847.343	5449.26
847.666	5388.02
847.99	5378.53
848.313	5399.32
848.637	5409.04
848.96	5364.52
849.284	5374.24
849.607	5336.72
849.931	5235.71
850.254	5315.48
850.577	5271.42
850.9	5207.24
851.223	5195.03
851.546	5126.79
851.869	5165.43
852.192	5181.25
852.515	5137.86
852.838	5109.61
853.161	5170.4
853.483	5135.37
853.806	5096.73
854.129	5076.62
854.451	5071.42
854.774	5021.7
855.096	5000.01
855.419	4989.84
855.741	4991.2
856.063	4978.77
856.385	4933.34
856.708	4970.18
857.03	4927.7
857.352	4930.86
857.674	4893.12
857.996	4877.08
858.318	4913.91
858.64	4916.85
858.961	4872.33
859.283	4840.24
859.605	4790.07
859.926	4768.83
860.248	4826
860.57	4821.71
860.891	4848.38
861.212	4786.91
861.534	4782.39
861.855	4756.85
862.176	4718.21
862.498	4758.43
862.819	4723.63
863.14	4732.9
863.461	4758.66
863.782	4703.75
864.103	4738.32
864.424	4659.91
864.745	4668.95
865.065	4711.2
865.386	4625.1
865.707	4644.54
866.027	4687.93
866.348	4628.04
866.668	4618.32
866.989	4674.14
867.309	4651.32
867.63	4605.9
867.95	4625.78
868.27	4591.66
868.59	4622.17
868.91	4602.05
869.23	4547.14
869.55	4529.06
869.87	4592.56
870.19	4617.87
870.51	4582.17
870.83	4588.27
871.15	4536.75
871.469	4528.84
871.789	4551.21
872.109	4570.64
872.428	4503.75
872.748	4551.21
873.067	4549.17
873.386	4524.77
873.706	4511.44
874.025	4463.75
874.344	4471.89
874.663	4468.72
874.982	4453.13
875.301	4469.85
875.62	4446.35
875.939	4443.41
876.258	4483.64
876.577	4445
876.896	4447.71
877.214	4419.01
877.533	4386.47
877.852	4429.4
878.17	4372
878.489	4379.46
878.807	4343.3
879.125	4391.66
879.444	4378.33
879.762	4381.27
880.08	4348.95
880.398	4342.17
880.716	4325.23
881.034	4261.95
881.352	4268.28
881.67	4314.15
881.988	4303.76
882.306	4310.99
882.624	4283.87
882.941	4253.59
883.259	4250.42
883.577	4234.38
883.894	4213.36
884.212	4210.88
884.529	4233.7
884.846	4194.38
885.164	4201.84
885.481	4197.09
885.798	4192.12
886.115	4173.59
886.432	4160.03
886.75	4178.34
887.067	4172.23
887.383	4133.59
887.7	4108.28
888.017	4090.88
888.334	4089.53
888.651	4114.38
888.967	4096.76
889.284	4100.82
889.6	4088.4
889.917	4001.17
890.233	4063.09
890.55	3978.79
890.866	4054.05
891.182	3997.78
891.498	4030.32
891.815	4008.85
892.131	4017.44
892.447	3968.62
892.763	3934.73
893.079	3952.58
893.395	3975.4
893.71	3945.35
894.026	3901.28
894.342	3910.09
894.657	3849.76
894.973	3866.93
895.289	3879.36
895.604	3874.39
895.92	3845.69
896.235	3853.83
896.55	3792.13
896.865	3778.57
897.181	3809.76
897.496	3756.88
897.811	3769.76
898.126	3752.81
898.441	3762.08
898.756	3730.89
899.071	3681.4
899.386	3710.78
899.7	3701.51
900.015	3666.03
900.33	3629.2
900.644	3638.92
900.959	3616.32
901.273	3619.93
901.588	3596.43
901.902	3558.24
902.216	3571.8
902.531	3560.73
902.845	3584.91
903.159	3531.8
903.473	3508.98
903.787	3503.78
904.101	3492.93
904.415	3498.13
904.729	3478.02
905.042	3445.25
905.356	3446.83
905.67	3438.92
905.984	3438.47
906.297	3404.35
906.611	3416.32
906.924	3408.19
907.237	3351.92
907.551	3376.32
907.864	3387.4
908.177	3354.63
908.491	3353.95
908.804	3312.14
909.117	3300.39
909.43	3323.22
909.743	3321.41
910.056	3279.6
910.368	3278.25
910.681	3206.84
910.994	3249.1
911.307	3195.31
911.619	3184.01
911.932	3177.91
912.244	3194.63
912.557	3204.58
912.869	3164.58
913.181	3128.87
913.494	3122.55
913.806	3104.47
914.118	3118.93
914.43	3054.98
914.742	3062.43
915.054	3057.01
915.366	3051.36
915.678	3035.99
915.99	3021.76
916.302	3030.34
916.613	3013.4
916.925	2977.92
917.236	3007.52
917.548	2971.81
917.859	2984.92
918.171	2945.6
918.482	2993.06
918.794	2944.7
919.105	2904.02
919.416	2915.32
919.727	2892.72
920.038	2935.66
920.349	2875.09
920.66	2886.62
920.971	2840.07
921.282	2854.76
921.593	2845.04
921.903	2847.3
922.214	2806.62
922.525	2789.22
922.835	2788.54
923.146	2725.95
923.456	2776.34
923.767	2766.85
924.077	2723.23
924.387	2670.13
924.697	2717.36
925.008	2688.66
925.318	2717.58
925.628	2713.06
925.938	2683.69
926.248	2699.05
926.558	2676
926.867	2661.99
927.177	2620.86
927.487	2651.37
927.796	2636.91
928.106	2627.19
928.416	2592.39
928.725	2586.06
929.034	2596.68
929.344	2568.66
929.653	2572.95
929.962	2566.4
930.271	2565.5
930.581	2544.93
930.89	2501.54
931.199	2532.73
931.508	2507.19
931.817	2522.56
932.125	2478.04
932.434	2471.94
932.743	2456.35
933.051	2460.42
933.36	2480.75
933.669	2417.03
933.977	2400.3
934.286	2418.61
934.594	2444.82
934.902	2427.87
935.21	2404.15
935.519	2384.26
935.827	2371.6
936.135	2371.6
936.443	2360.98
936.751	2375.9
937.059	2319.85
937.367	2317.59
937.674	2302.45
937.982	2331.83
938.29	2302.45
938.597	2301.1
938.905	2253.42
939.213	2259.74
939.52	2282.57
939.827	2272.85
940.135	2278.5
940.442	2240.31
940.749	2222.68
941.056	2259.52
941.363	2199.41
941.67	2254.77
941.977	2189.24
942.284	2188.33
942.591	2187.2
942.898	2156.69
943.205	2184.94
943.511	2125.28
943.818	2136.13
944.125	2136.36
944.431	2149.24
944.738	2133.87
945.044	2140.2
945.35	2091.61
945.657	2116.24
945.963	2067.43
946.269	2083.02
946.575	2094.78
946.881	2071.95
947.187	2043.03
947.493	2036.02
947.799	2045.96
948.105	2010.94
948.41	2042.35
948.716	2019.52
949.022	2033.53
949.327	2019.07
949.633	2012.97
949.938	1973.87
950.244	1985.85
950.549	1963.93
950.854	1924.61
951.16	1976.36
951.465	1977.72
951.77	1948.11
952.075	1922.35
952.38	1942.46
952.685	1922.58
952.99	1933.88
953.294	1914.67
953.599	1908.57
953.904	1868.11
954.209	1891.84
954.513	1855.91
954.818	1886.87
955.122	1871.5
955.426	1834.67
955.731	1867.89
956.035	1841.9
956.339	1842.35
956.643	1857.04
956.948	1824.27
957.252	1842.8
957.556	1796.93
957.86	1770.26
958.163	1799.87
958.467	1779.76
958.771	1770.94
959.075	1780.21
959.378	1782.24
959.682	1785.41
959.985	1768.68
960.289	1750.83
960.592	1761.45
960.896	1739.3
961.199	1715.8
961.502	1711.28
961.805	1706.99
962.108	1706.54
962.411	1683.03
962.714	1695.92
963.017	1686.65
963.32	1670.83
963.623	1658.18
963.926	1672.19
964.228	1627.9
964.531	1647.1
964.833	1657.72
965.136	1622.47
965.438	1638.52
965.741	1605.52
966.043	1637.61
966.345	1633.77
966.648	1602.36
966.95	1611.85
967.252	1613.88
967.554	1589.48
967.856	1627.67
968.158	1573.21
968.46	1566.65
968.761	1572.08
969.063	1531.85
969.365	1562.59
969.666	1561.46
969.968	1546.09
970.269	1550.83
970.571	1543.38
970.872	1512.64
971.174	1528.24
971.475	1521.23
971.776	1526.2
972.077	1488.24
972.378	1515.58
972.679	1478.07
972.98	1484.4
973.281	1490.5
973.582	1476.49
973.883	1485.53
974.183	1471.74
974.484	1487.33
974.785	1463.83
975.085	1469.93
975.386	1459.76
975.686	1448.24
975.986	1434.45
976.287	1447.79
976.587	1434.23
976.887	1405.08
977.187	1391.07
977.487	1416.38
977.787	1402.36
978.087	1364.4
978.387	1410.05
978.687	1378.64
978.987	1384.96
979.286	1374.12
979.586	1392.65
979.885	1364.17
980.185	1339.77
980.484	1334.8
980.784	1363.27
981.083	1340.9
981.382	1351.74
981.682	1330.5
981.981	1339.99
982.28	1341.57
982.579	1317.62
982.878	1329.37
983.177	1291.63
983.475	1321.46
983.774	1303.16
984.073	1279.66
984.372	1259.54
984.67	1295.25
984.969	1273.1
985.267	1258.41
985.566	1270.62
985.864	1266.1
986.162	1257.28
986.461	1255.93
986.759	1242.37
987.057	1252.76
987.355	1261.35
987.653	1201.01
987.951	1218.64
988.249	1220
988.547	1214.8
988.844	1218.19
989.142	1209.6
989.44	1202.37
989.737	1202.37
990.035	1206.44
990.332	1195.36
990.63	1189.26
990.927	1188.13
991.224	1172.09
991.521	1153.56
991.819	1157.62
992.116	1139.55
992.413	1154.46
992.71	1152.65
993.006	1159.43
993.303	1140.45
993.6	1147.46
993.897	1150.17
994.193	1112.88
994.49	1149.49
994.787	1128.25
995.083	1114.69
995.379	1114.01
995.676	1106.33
995.972	1100.23
996.268	1091.86
996.565	1090.06
996.861	1064.97
997.157	1089.15
997.453	1102.49
997.749	1060.45
998.044	1058.87
998.34	1062.71
998.636	1060.23
998.932	1060.23
999.227	1056.16
999.523	1034.01
999.818	1023.17
1000.114	1021.13
1000.409	1023.84
1000.704	1037.18
1001	1019.78
1001.295	1014.35
1001.59	1014.58
1001.885	1027.91
1002.18	1018.42
1002.475	994.69
1002.77	1010.96
1003.065	999.66
1003.359	999.21
1003.654	980.68
1003.949	971.42
1004.243	993.79
1004.538	987.01
1004.832	977.97
1005.127	957.86
1005.421	943.17
1005.715	946.56
1006.009	968.48
1006.304	952.21
1006.598	927.57
1006.892	932.55
1007.186	921.47
1007.48	914.24
1007.773	942.72
1008.067	899.33
1008.361	926.9
1008.655	925.09
1008.948	907.01
1009.242	908.59
1009.535	892.32
1009.829	893.45
1010.122	897.07
1010.415	882.83
1010.708	888.48
1011.001	855.94
1011.295	895.03
1011.588	865.2
1011.881	870.85
1012.173	862.94
1012.466	869.72
1012.759	874.47
1013.052	874.47
1013.344	827.24
1013.637	853.68
1013.93	820.91
1014.222	868.37
1014.514	834.7
1014.807	808.93
1015.099	829.72
1015.391	818.42
1015.683	809.61
1015.976	794.24
1016.268	789.05
1016.56	785.66
1016.851	820.68
1017.143	790.85
1017.435	803.96
1017.727	794.47
1018.018	765.77
1018.31	796.28
1018.602	765.54
1018.893	787.69
1019.185	780.91
1019.476	778.88
1019.767	755.15
1020.058	746.11
1020.35	751.76
1020.641	754.25
1020.932	747.47
1021.223	737.75
1021.514	747.69
1021.804	727.58
1022.095	738.65
1022.386	717.86
1022.677	727.13
1022.967	726.68
1023.258	707.92
1023.548	730.29
1023.839	715.15
1024.129	729.84
1024.419	710.18
1024.709	699.11
1025	686.45
1025.29	707.92
1025.58	687.35
1025.87	683.06
1026.16	664.76
1026.449	695.04
1026.739	690.07
1027.029	681.48
1027.319	685.09
1027.608	657.98
1027.898	692.55
1028.187	664.3
1028.477	652.55
1028.766	643.97
1029.055	658.43
1029.344	662.27
1029.634	627.7
1029.923	638.09
1030.212	655.94
1030.501	634.7
1030.79	641.48
1031.078	636.06
1031.367	624.53
1031.656	639.45
1031.945	615.04
1032.233	597.64
1032.522	610.29
1032.81	632.67
1033.099	600.35
1033.387	625.89
1033.675	600.58
1033.963	588.83
1034.251	605.78
1034.54	601.93
1034.828	598.32
1035.116	595.83
1035.403	577.98
1035.691	568.26
1035.979	591.09
1036.267	574.36
1036.554	586.57
1036.842	593.57
1037.129	553.8
1037.417	576.17
1037.704	575.49
1037.992	560.58
1038.279	563.29
1038.566	569.62
1038.853	569.62
1039.14	569.62
