Data from blue_shiny_book_FLMS001491_00044.txt Node
Date: Wed Feb 08 15:27:01 GMT 2017
User: dcchb
Spectrometer: FLMS00149
Trigger mode: 0
Integration Time (sec): 2.000000E-2
Scans to average: 10
Electric dark correction enabled: true
Nonlinearity correction enabled: false
Boxcar width: 0
XAxis mode: Wavelengths
Number of Pixels in Spectrum: 2048
>>>>>Begin Spectral Data<<<<<
341.393	-13.22
341.776	-13.22
342.16	-13.22
342.543	-57.74
342.927	-72.43
343.31	-85.53
343.693	-81.92
344.077	-69.04
344.46	-52.99
344.843	-50.28
345.226	-27
345.61	-47.57
345.993	-26.78
346.376	3.73
346.759	13.9
347.142	28.13
347.525	55.48
347.908	47.57
348.291	86.89
348.674	103.39
349.057	102.03
349.44	109.26
349.823	166.44
350.206	158.75
350.588	203.5
350.971	236.72
351.354	227
351.737	237.17
352.119	241.69
352.502	270.16
352.884	301.57
353.267	302.03
353.65	306.55
354.032	301.57
354.414	328.69
354.797	311.07
355.179	314.23
355.562	332.99
355.944	321.23
356.326	363.72
356.709	350.39
357.091	335.92
357.473	367.33
357.855	372.31
358.238	349.71
358.62	369.14
359.002	358.3
359.384	355.13
359.766	367.56
360.148	333.44
360.53	330.05
360.912	360.56
361.294	363.27
361.676	355.58
362.057	347.45
362.439	349.48
362.821	340.44
363.203	340.44
363.584	351.29
363.966	353.32
364.348	337.51
364.729	336.15
365.111	342.02
365.493	352.42
365.874	340.44
366.256	306.77
366.637	333.89
367.019	340.89
367.4	323.27
367.781	368.46
368.163	345.19
368.544	343.15
368.925	335.7
369.306	364.62
369.688	377.5
370.069	341.12
370.45	330.5
370.831	345.19
371.212	350.16
371.593	343.83
371.974	344.96
372.355	347
372.736	329.37
373.117	369.59
373.498	372.08
373.879	354.45
374.26	365.53
374.641	356.71
375.021	354.45
375.402	353.1
375.783	358.3
376.163	375.92
376.544	394.45
376.925	381.57
377.305	370.05
377.686	357.17
378.066	387.45
378.447	382.02
378.827	373.21
379.208	388.13
379.588	397.84
379.968	402.59
380.349	404.85
380.729	394.68
381.109	389.26
381.489	394.45
381.87	387.67
382.25	416.6
382.63	401.01
383.01	391.52
383.39	403.72
383.77	412.08
384.15	426.54
384.53	415.24
384.91	420.67
385.29	443.72
385.67	412.76
386.049	440.1
386.429	419.99
386.809	423.83
387.189	430.61
387.568	440.1
387.948	465.64
388.328	458.41
388.707	452.98
389.087	468.8
389.466	485.75
389.846	484.17
390.225	460.44
390.605	477.61
390.984	474.45
391.363	494.79
391.743	505.18
392.122	494.34
392.501	527.78
392.881	516.48
393.26	534.79
393.639	530.27
394.018	526.43
394.397	528.01
394.776	548.12
395.155	539.99
395.534	532.08
395.913	565.3
396.292	555.8
396.671	560.78
397.05	543.15
397.429	571.4
397.808	572.08
398.186	593.54
398.565	582.92
398.944	569.14
399.323	588.35
399.701	581.79
400.08	596.26
400.458	609.36
400.837	609.36
401.215	639.19
401.594	600.1
401.972	635.8
402.351	629.7
402.729	664.5
403.107	657.95
403.486	658.63
403.864	678.06
404.242	680.32
404.62	673.54
404.999	686.87
405.377	693.88
405.755	706.31
406.133	718.29
406.511	709.92
406.889	741.11
407.267	735.23
407.645	749.7
408.023	749.25
408.401	771.17
408.779	786.31
409.156	801
409.534	806.42
409.912	807.55
410.29	821.56
410.667	834.44
411.045	828.34
411.422	872.86
411.8	880.99
412.178	869.24
412.555	912.86
412.933	904.95
413.31	912.86
413.687	930.26
414.065	933.65
414.442	957.15
414.819	965.29
415.197	976.81
415.574	961.22
415.951	1001.67
416.328	984.95
416.705	1022.68
417.082	1031.5
417.46	1044.38
417.837	1069.46
418.214	1082.12
418.591	1064.72
418.967	1101.55
419.344	1098.39
419.721	1122.57
420.098	1111.95
420.475	1139.29
420.852	1128.9
421.228	1167.09
421.605	1142.91
421.982	1165.05
422.358	1194.43
422.735	1212.28
423.111	1236.01
423.488	1238.27
423.864	1249.8
424.241	1241.44
424.617	1261.55
424.994	1303.58
425.37	1285.5
425.746	1318.27
426.123	1349.46
426.499	1345.16
426.875	1387.2
427.251	1394.43
427.627	1440.08
428.003	1442.79
428.379	1451.37
428.756	1480.98
429.132	1473.07
429.507	1475.33
429.883	1522.33
430.259	1573.86
430.635	1554.65
431.011	1560.98
431.387	1629.9
431.763	1641.65
432.138	1659.73
432.514	1683.68
432.89	1678.49
433.265	1737.47
433.641	1742.21
434.016	1768.43
434.392	1798.26
434.767	1835.54
435.143	1799.61
435.518	1852.95
435.894	1856.79
436.269	1898.82
436.644	1943.56
437.02	1980.4
437.395	1947.63
437.77	2030.34
438.145	2018.82
438.52	2059.27
438.895	2069.44
439.271	2060.4
439.646	2140.17
440.021	2145.37
440.395	2154.86
440.77	2123.45
441.145	2212.26
441.52	2240.51
441.895	2224.01
442.27	2287.51
442.645	2294.06
443.019	2341.07
443.394	2311.46
443.769	2345.36
444.143	2339.03
444.518	2351.92
444.892	2379.03
445.267	2392.59
445.641	2424.46
446.016	2452.93
446.39	2440.27
446.764	2473.27
447.139	2478.47
447.513	2530.22
447.887	2522.53
448.262	2553.72
448.636	2554.62
449.01	2634.62
449.384	2582.19
449.758	2620.38
450.132	2644.34
450.506	2704.9
450.88	2706.26
451.254	2726.37
451.628	2751.23
452.002	2779.02
452.376	2800.72
452.75	2851.79
453.123	2884.33
453.497	2925.46
453.871	2939.02
454.244	2986.48
454.618	3035.29
454.992	3049.07
455.365	3065.57
455.739	3192.35
456.112	3157.09
456.486	3207.49
456.859	3242.51
457.232	3305.79
457.606	3302.17
457.979	3370.19
458.352	3460.59
458.725	3467.82
459.099	3533.58
459.472	3615.16
459.845	3640.47
460.218	3642.5
460.591	3644.99
460.964	3701.48
461.337	3801.14
461.71	3822.39
462.083	3912.33
462.456	3932.21
462.829	3952.1
463.201	4088.82
463.574	4094.92
463.947	4144.41
464.32	4199.32
464.692	4235.03
465.065	4287.46
465.438	4339.89
465.81	4417.85
466.183	4444.52
466.555	4515.47
466.928	4539.43
467.3	4620.78
467.672	4716.37
468.045	4787.78
468.417	4803.15
468.789	4856.48
469.161	4952.3
469.534	4992.52
469.906	5135.57
470.278	5175.8
470.65	5201.78
471.022	5296.24
471.394	5371.5
471.766	5437.71
472.138	5489.46
472.51	5647.65
472.882	5658.27
473.253	5762.9
473.625	5845.83
473.997	5959.05
474.369	6014.64
474.74	6099.16
475.112	6293.73
475.484	6372.83
475.855	6466.61
476.227	6531.24
476.598	6691.24
476.97	6734.4
477.341	6909.76
477.713	6999.7
478.084	6980.49
478.455	7225.01
478.827	7308.4
479.198	7515.17
479.569	7539.35
479.94	7758.1
480.311	7818.89
480.682	8014.37
481.053	8182.5
481.424	8367.35
481.795	8402.38
482.166	8565.99
482.537	8700.45
482.908	8810.95
483.279	8848.92
483.65	9097.5
484.021	9293.43
484.391	9384.95
484.762	9437.38
485.133	9543.59
485.503	9696.81
485.874	9926.41
486.244	9986.97
486.615	10218.38
486.985	10365.04
487.356	10655.2
487.726	10622.43
488.097	10906.04
488.467	10937.68
488.837	11138.35
489.207	11313.71
489.578	11451.79
489.948	11526.82
490.318	11699.01
490.688	11809.07
491.058	11953.25
491.428	12159.34
491.798	12330.41
492.168	12513.91
492.538	12616.73
492.908	12746.44
493.278	12979.88
493.648	13082.25
494.017	13210.61
494.387	13281.57
494.757	13480.44
495.126	13586.87
495.496	13692.63
495.866	13785.06
496.235	13896.24
496.605	13986.64
496.974	14184.82
497.344	14174.66
497.713	14400.41
498.082	14450.13
498.452	14686.05
498.821	14712.72
499.19	14801.31
499.559	15004.24
499.928	15098.7
500.298	15227.51
500.667	15295.08
501.036	15326.49
501.405	15578.46
501.774	15643.54
502.143	15768.74
502.512	15860.26
502.88	16005.57
503.249	16063.65
503.618	16065
503.987	16128.5
504.356	16341.15
504.724	16504.76
505.093	16583.86
505.462	16642.39
505.83	16741.14
506.199	16892.32
506.567	17132.09
506.936	17130.96
507.304	17290.51
507.672	17463.61
508.041	17464.96
508.409	17701.34
508.777	17827.67
509.145	17993.31
509.514	18010.71
509.882	18166.41
510.25	18249.35
510.618	18361.89
510.986	18391.49
511.354	18636.23
511.722	18695.67
512.09	19021.08
512.458	18923.46
512.826	19088.88
513.193	19199.83
513.561	19259.49
513.929	19457.68
514.297	19613.83
514.664	19708.3
515.032	19836.65
515.4	20056.99
515.767	20152.13
516.135	20351.67
516.502	20264.89
516.869	20705.78
517.237	20735.84
517.604	20681.38
517.972	20984.65
518.339	21072.33
518.706	21281.36
519.073	21293.56
519.44	21492.88
519.808	21739.88
520.175	21751.41
520.542	22047.67
520.909	22050.61
521.276	22199.08
521.643	22470.71
522.009	22529.24
522.376	22759.74
522.743	22839.74
523.11	23047.42
523.477	23325.83
523.843	23440.4
524.21	23815.31
524.577	23923.1
524.943	24079.93
525.31	24118.35
525.676	24433.14
526.043	24563.53
526.409	24735.51
526.776	24923.07
527.142	25000.36
527.508	25217.3
527.874	25408.03
528.241	25504.53
528.607	25545.88
528.973	25793.11
529.339	25766.89
529.705	26089.37
530.071	26324.84
530.437	26460.21
530.803	26715.12
531.169	27004.83
531.535	26879.18
531.901	27155.56
532.267	27204.82
532.632	27481.2
532.998	27453.4
533.364	27804.81
533.73	27684.58
534.095	28157.11
534.461	28072.37
534.826	28211.8
535.192	28433.94
535.557	28527.27
535.923	28433.26
536.288	28574.95
536.653	28681.39
537.019	28863.08
537.384	28969.07
537.749	29103.75
538.114	29267.82
538.479	29230.53
538.845	29509.62
539.21	29380.36
539.575	29618.32
539.94	29672.33
540.305	30005.43
540.67	29978.08
541.034	30167
541.399	30283.38
541.764	30200
542.129	30353.21
542.494	30364.51
542.858	30615.13
543.223	30592.08
543.587	30775.12
543.952	30579.2
544.316	30818.74
544.681	30802.01
545.045	30983.25
545.41	31089.47
545.774	31174.66
546.138	31320.65
546.503	31360.42
546.867	31494.43
547.231	31716.79
547.595	31960.4
547.959	31917.47
548.324	32023.68
548.688	32191.81
549.052	32352.03
549.416	32371.69
549.779	32243.33
550.143	32440.39
550.507	32509.31
550.871	32622.31
551.235	32457.79
551.599	32766.48
551.962	32870.89
552.326	32774.17
552.689	32990.66
553.053	32872.02
553.417	32913.15
553.78	33335.96
554.143	33313.81
554.507	33574.6
554.87	33784.31
555.234	34036.96
555.597	33978.2
555.96	34087.35
556.323	34319.21
556.686	34459.77
557.05	34620.45
557.413	34830.84
557.776	34764.85
558.139	34996.48
558.502	34887.56
558.865	34875.81
559.228	35128.91
559.59	35153.09
559.953	35114.67
560.316	35484.83
560.679	35580.65
561.041	35673.53
561.404	35799.62
561.767	35924.14
562.129	35920.75
562.492	36307.63
562.854	36314.64
563.217	36542.88
563.579	36692.93
563.941	36872.14
564.304	37268.06
564.666	37221.06
565.028	37310.09
565.39	37500.6
565.753	37826.46
566.115	38029.4
566.477	38042.73
566.839	38162.5
567.201	38294.7
567.563	38217.19
567.925	38336.96
568.287	38331.53
568.648	38283.4
569.01	38541.25
569.372	38598.65
569.734	38456.95
570.095	38783.27
570.457	38903.04
570.819	39134.45
571.18	39109.82
571.542	39298.74
571.903	39610.6
572.265	39650.82
572.626	39794.09
572.987	39997.25
573.349	40043.13
573.71	40385.27
574.071	40561.08
574.432	40600.85
574.794	40903.67
575.155	40713.17
575.516	40600.18
575.877	40835.2
576.238	40637.46
576.599	40806.95
576.96	40834.75
577.32	40874.52
577.681	40978.02
578.042	41040.62
578.403	41016.21
578.763	41159.71
579.124	41082.65
579.485	41233.61
579.845	41363.32
580.206	41359.03
580.566	41482.86
580.927	41615.52
581.287	41896.86
581.648	41674.05
582.008	42125.33
582.368	41932.12
582.728	42138.21
583.089	42219.34
583.449	42104.09
583.809	42209.4
584.169	42365.33
584.529	42237.42
584.889	42493.01
585.249	42196.29
585.609	42084.2
585.969	42266.35
586.329	42131.66
586.688	42126.46
587.048	41949.74
587.408	41934.83
587.768	41916.98
588.127	41836.08
588.487	41815.74
588.846	42159.91
589.206	41944.32
589.565	41966.47
589.925	42226.35
590.284	42041.95
590.643	42194.26
591.003	42565.32
591.362	42518.54
591.721	42622.04
592.08	42720.35
592.44	42801.7
592.799	42794.24
593.158	42902.94
593.517	42859.55
593.876	42900
594.235	42687.35
594.593	42802.83
594.952	42803.73
595.311	42553.34
595.67	42667.69
596.029	42895.48
596.387	42875.6
596.746	42820.46
597.104	42585.43
597.463	42533.91
597.822	42686
598.18	42609.61
598.538	42471.76
598.897	42789.5
599.255	42456.62
599.613	43097.06
599.972	42979.32
600.33	43173.89
600.688	43090.51
601.046	43281.23
601.404	43460.67
601.762	43374.79
602.12	43608.46
602.478	43739.3
602.836	43786.08
603.194	43631.28
603.552	43655.46
603.91	43535.24
604.268	43724.61
604.625	43390.61
604.983	43518.52
605.341	43125.76
605.698	43236.26
606.056	43412.08
606.413	43337.5
606.771	43525.3
607.128	43543.15
607.485	43301.35
607.843	43400.55
608.2	43620.21
608.557	43769.58
608.914	43610.72
609.272	43897.94
609.629	43950.14
609.986	44219.52
610.343	43956.25
610.7	44293.64
611.057	44403.24
611.414	44382
611.771	44505.61
612.127	44680.29
612.484	44670.12
612.841	44844.13
613.198	44594.19
613.554	44779.73
613.911	44978.59
614.267	44929.78
614.624	44883.68
614.98	44999.16
615.337	45169.09
615.693	44927.29
616.05	44855.2
616.406	44980.63
616.762	44760.52
617.118	44799.61
617.475	44673.06
617.831	44710.8
618.187	44606.85
618.543	44716.68
618.899	45018.82
619.255	44897.92
619.611	44983.79
619.967	45087.29
620.323	45145.37
620.678	45108.98
621.034	45257.45
621.39	45214.52
621.746	45205.03
622.101	45778.12
622.457	45429.88
622.812	45614.96
623.168	45688.63
623.523	45774.95
623.879	45779.47
624.234	45543.77
624.589	45640.95
624.945	45786.03
625.3	45580.16
625.655	45611.57
626.01	45470.78
626.365	45417
626.72	45390.33
627.075	45285.7
627.43	45212.94
627.785	45050
628.14	45107.4
628.495	45201.64
628.85	45054.52
629.205	45032.15
629.559	45016.1
629.914	45000.51
630.269	45083
630.623	45003.22
630.978	45014.07
631.332	45256.55
631.687	45387.85
632.041	45080.74
632.396	45332.03
632.75	45273.72
633.104	45468.52
633.459	45148.76
633.813	45287.74
634.167	45264.01
634.521	45202.31
634.875	45317.11
635.229	45166.61
635.583	44892.04
635.937	45051.36
636.291	45078.7
636.645	44935.43
636.999	44730.46
637.352	44786.51
637.706	44468.77
638.06	44476.46
638.413	44402.34
638.767	44142.23
639.121	44074.43
639.474	43752.63
639.828	43823.82
640.181	43964.61
640.534	44007.77
640.888	43787.89
641.241	43693.65
641.594	43741.79
641.947	43794.89
642.301	43833.31
642.654	43896.81
643.007	43799.41
643.36	43911.95
643.713	43852.07
644.066	44076.92
644.419	43928.45
644.771	43905.4
645.124	43837.83
645.477	43883.48
645.83	43617.5
646.182	43085.53
646.535	42676.73
646.888	42711.53
647.24	42381.15
647.593	42560.58
647.945	42374.59
648.298	42224.31
648.65	42163.3
649.002	41940.03
649.355	42146.12
649.707	42037.2
650.059	42242.17
650.411	42719.44
650.763	42869.49
651.115	43094.57
651.467	42828.37
651.819	42831.08
652.171	42804.64
652.523	42708.59
652.875	42779.55
653.227	42513.12
653.578	42983.84
653.93	42839.44
654.282	42697.3
654.633	42683.51
654.985	42651.87
655.337	42910.62
655.688	42671.76
656.039	42999.21
656.391	42685.54
656.742	42875.6
657.094	42933.67
657.445	43085.08
657.796	43067.23
658.147	43055.03
658.498	42967.34
658.849	43019.09
659.2	42947.68
659.551	42723.06
659.902	42994.01
660.253	42726.22
660.604	42862.26
660.955	42578.43
661.306	42626.79
661.656	42492.78
662.007	42262.73
662.358	42388.38
662.708	42090.31
663.059	42202.39
663.409	41791.1
663.76	42260.92
664.11	42024.77
664.461	42156.74
664.811	41885.11
665.161	42140.47
665.511	41996.75
665.862	41930.08
666.212	42236.97
666.562	42287.14
666.912	42244.2
667.262	42271.77
667.612	42324.65
667.962	42550.86
668.312	42417.53
668.662	42628.82
669.011	42692.78
669.361	42686.67
669.711	42646
670.06	42472.89
670.41	42651.42
670.76	42417.3
671.109	42608.03
671.459	42357.64
671.808	42408.49
672.157	42488.49
672.507	42054.83
672.856	42133.24
673.205	42229.96
673.554	42142.96
673.904	41993.81
674.253	42098.67
674.602	41867.94
674.951	41082.42
675.3	40806.72
675.649	41373.71
675.998	41364.22
676.346	41261.4
676.695	41419.14
677.044	40880.62
677.393	41097.34
677.741	41148.64
678.09	41043.55
678.438	41041.75
678.787	41024.57
679.135	41127.62
679.484	40716.56
679.832	41176.66
680.181	40977.57
680.529	41180.95
680.877	40998.81
681.225	41095.08
681.573	41405.8
681.922	41184.34
682.27	41136.43
682.618	41137.34
682.966	41145.47
683.314	41055.98
683.661	41005.36
684.009	40938.25
684.357	40752.71
684.705	40733.51
685.053	40667.07
685.4	40600.85
685.748	40321.99
686.095	40188.43
686.443	39970.36
686.79	39840.87
687.138	39931.94
687.485	39849.69
687.832	39531.73
688.18	39597.94
688.527	39301.45
688.874	39119.54
689.221	39024.85
689.568	39002.25
689.915	38752.77
690.262	38864.63
690.609	38703.73
690.956	38535.6
691.303	38453.34
691.65	38587.35
691.997	38531.08
692.344	38145.32
692.69	38269.84
693.037	38201.14
693.383	38049.96
693.73	38235.04
694.077	38160.47
694.423	38233.91
694.769	38077.08
695.116	37921.38
695.462	37855.84
695.808	37909.17
696.155	37820.59
696.501	37643.42
696.847	37633.47
697.193	37293.6
697.539	37504.89
697.885	37267.16
698.231	37116.2
698.577	37050.66
698.923	36918.92
699.269	36814.74
699.614	36435.31
699.96	36273.74
700.306	36256.11
700.651	35978.83
700.997	35757.36
701.342	35746.97
701.688	35585.62
702.033	35359.64
702.379	35353.08
702.724	35315.34
703.069	35337.26
703.415	34880.78
703.76	34947.89
704.105	34912.19
704.45	34785.19
704.795	34597.17
705.14	34497.96
705.485	34525.08
705.83	34415.25
706.175	34645.53
706.52	34390.85
706.865	34429.94
707.209	34375.03
707.554	34359.21
707.899	34470.17
708.243	34198.08
708.588	34370.96
708.932	34171.64
709.277	34144.3
709.621	34172.77
709.966	33910.86
710.31	34191.3
710.654	33871.09
710.998	33842.39
711.342	33999.22
711.687	33740.02
712.031	33665.44
712.375	33443.75
712.719	33535.28
713.063	33438.56
713.407	33354.49
713.75	33145.68
714.094	33061.84
714.438	32830.66
714.782	32967.16
715.125	32632.93
715.469	32716.54
715.812	32422.54
716.156	32219.83
716.499	32174.86
716.843	32026.39
717.186	31902.33
717.53	31853.74
717.873	31967.18
718.216	31981.42
718.559	31752.72
718.902	31585.27
719.246	31813.06
719.589	31679.96
719.932	31627.3
720.275	31705.95
720.617	31732.61
720.96	31754.98
721.303	31865.94
721.646	31858.94
721.989	31780.97
722.331	31933.74
722.674	31898.48
723.016	31877.01
723.359	31888.54
723.701	31705.49
724.044	31609
724.386	31379.4
724.729	31701.2
725.071	31710.24
725.413	31645.38
725.755	31717.25
726.097	31600.86
726.439	31437.93
726.782	31445.84
727.124	31449.68
727.465	31225.96
727.807	31134.66
728.149	31008.79
728.491	30899.41
728.833	31053.76
729.175	30754.33
729.516	30872.75
729.858	30776.25
730.199	30789.59
730.541	30708.23
730.882	30638.86
731.224	30677.72
731.565	30406.55
731.906	30578.52
732.248	30508.92
732.589	30251.07
732.93	30319.54
733.271	30304.17
733.612	30395.7
733.953	30459.88
734.294	30382.82
734.635	30337.17
734.976	30473.44
735.317	30240
735.658	30444.74
735.999	30417.17
736.339	30543.04
736.68	30583.72
737.021	30343.27
737.361	30397.96
737.702	30628.01
738.042	30554.79
738.383	30604.96
738.723	30835.23
739.063	30642.25
739.404	30743.49
739.744	30711.4
740.084	30506.88
740.424	30661
740.764	30803.82
741.104	30835.01
741.444	30535.13
741.784	30543.49
742.124	30578.97
742.464	30592.3
742.804	30597.27
743.143	30442.7
743.483	30489.48
743.823	30268.47
744.162	30173.56
744.502	30339.88
744.841	30097.85
745.181	30268.24
745.52	30062.15
745.86	30134.91
746.199	30051.98
746.538	30076.84
746.877	30139.66
747.216	30064.41
747.556	30026.22
747.895	30049.27
748.234	30034.35
748.573	30129.49
748.911	29954.35
749.25	30094.69
749.589	30078.64
749.928	30188.47
750.267	30214.91
750.605	30122.48
750.944	30172.2
751.283	30207.91
751.621	30324.97
751.96	30322.93
752.298	30430.73
752.636	30584.85
752.975	30419.43
753.313	30424.17
753.651	30571.74
753.989	30367.45
754.327	30437.96
754.666	30451.06
755.004	30710.72
755.342	30655.58
755.679	30757.04
756.017	30511.63
756.355	30736.93
756.693	30601.12
757.031	30587.11
757.368	30505.98
757.706	30451.74
758.044	30327
758.381	30432.31
758.719	30411.29
759.056	30450.39
759.394	30346.66
759.731	30321.12
760.068	30175.59
760.405	30135.59
760.743	30049.27
761.08	30284.97
761.417	30063.05
761.754	30016.72
762.091	29979.44
762.428	29925.88
762.765	29713
763.102	29976.73
763.438	29669.16
763.775	29678.88
764.112	29724.08
764.449	29749.84
764.785	29699.67
765.122	29703.06
765.458	29585.55
765.795	29489.96
766.131	29658.32
766.467	29453.35
766.804	29477.53
767.14	29496.06
767.476	29494.48
767.812	29421.26
768.148	29572.44
768.485	29456.51
768.821	29331.55
769.157	29292.9
769.492	29232.34
769.828	29223.53
770.164	29130.19
770.5	29067.82
770.836	29092.68
771.171	28814.95
771.507	28997.32
771.842	28776.53
772.178	28821.05
772.513	28790.09
772.849	28678.45
773.184	28479.36
773.519	28327.96
773.855	28293.83
774.19	28233.72
774.525	27993.95
774.86	28098.81
775.195	27952.6
775.53	28003.9
775.865	27806.39
776.2	27750.12
776.535	27429.22
776.87	27547.86
777.205	27245.5
777.539	27002.79
777.874	27115.78
778.209	26858.39
778.543	26812.74
778.878	26775.45
779.212	26684.84
779.547	26571.39
779.881	26655.46
780.215	26395.8
780.55	26430.6
780.884	26269.03
781.218	26221.34
781.552	26109.93
781.886	26010.28
782.22	25906.55
782.554	25821.81
782.888	25603.96
783.222	25486
783.556	25506.79
783.889	25525.54
784.223	25368.03
784.557	25212.78
784.89	25274.25
785.224	25078.78
785.557	25092.11
785.891	25020.25
786.224	25020.02
786.558	25117.64
786.891	24847.37
787.224	24792
787.557	24827.26
787.891	24819.57
788.224	24686.92
788.557	24782.74
788.89	24650.99
789.223	24649.63
789.556	24470.2
789.888	24378.46
790.221	24335.74
790.554	24260.49
790.887	24200.61
791.219	24037.22
791.552	23794.29
791.884	23840.62
792.217	23675.87
792.549	23519.95
792.882	23460.74
793.214	23482.43
793.546	23413.28
793.879	23254.87
794.211	23087.64
794.543	23213.29
794.875	23115.21
795.207	23088.09
795.539	22820.08
795.871	22801.55
796.203	22556.81
796.535	22416.02
796.867	22385.74
797.198	22389.58
797.53	22319.75
797.862	22180.77
798.193	22252.86
798.525	22062.58
798.856	22136.25
799.188	21831.18
799.519	21865.98
799.85	21673.22
800.182	21790.05
800.513	21718.41
800.844	21548.92
801.175	21658.98
801.506	21729.94
801.837	21571.75
802.168	21562.48
802.499	21399.78
802.83	21454.46
803.161	21378.99
803.491	21263.96
803.822	21317.07
804.153	21298.99
804.483	21109.61
804.814	21016.96
805.145	21075.94
805.475	21080.46
805.805	20958.21
806.136	20990.07
806.466	21041.82
806.796	20950.07
807.126	20882.5
807.457	20775.16
807.787	20807.48
808.117	20751.21
808.447	20563.64
808.777	20651.1
809.107	20541.27
809.436	20503.75
809.766	20550.76
810.096	20482.96
810.426	20289.3
810.755	20241.16
811.085	20191.22
811.414	20165.46
811.744	19915.3
812.073	19934.5
812.403	19949.19
812.732	19727.28
813.061	19731.12
813.39	19543.1
813.719	19477.34
814.049	19639.82
814.378	19422.43
814.707	19372.26
815.036	19339.94
815.365	19238.25
815.693	19083.9
816.022	19059.05
816.351	19155.99
816.68	18951.71
817.008	18993.96
817.337	18871.93
817.665	18812.5
817.994	18880.52
818.322	18847.75
818.651	18739.51
818.979	18673.97
819.307	18810.92
819.636	18681.43
819.964	18517.59
820.292	18663.58
820.62	18564.37
820.948	18590.81
821.276	18650.02
821.604	18563.24
821.932	18661.09
822.259	18676.91
822.587	18579.74
822.915	18642.33
823.243	18718.04
823.57	18600.3
823.898	18764.59
824.225	18657.25
824.553	18646.63
824.88	18716.91
825.207	18781.54
825.535	18723.91
825.862	18872.61
826.189	18604.37
826.516	18792.16
826.843	18868.09
827.17	18862.44
827.497	18909.9
827.824	18796.91
828.151	18825.38
828.478	18685.72
828.805	18906.06
829.131	18793.52
829.458	18731.6
829.785	18576.57
830.111	18586.52
830.438	18589
830.764	18566.63
831.09	18620.87
831.417	18530.02
831.743	18586.97
832.069	18636.23
832.395	18546.07
832.722	18569.12
833.048	18598.72
833.374	18495.9
833.7	18288.9
834.026	18319.18
834.351	18291.61
834.677	18229.92
835.003	18220.42
835.329	18260.42
835.654	18258.16
835.98	18131.84
836.306	18095.23
836.631	18065.4
836.956	18062.46
837.282	18027.21
837.607	17944.27
837.932	17900.21
838.258	17891.17
838.583	17887.33
838.908	17766.43
839.233	17888.91
839.558	17829.47
839.883	17824.5
840.208	17705.86
840.533	17741.12
840.858	17690.95
841.182	17805.97
841.507	17841
841.832	17715.58
842.156	17654.11
842.481	17736.14
842.805	17662.25
843.13	17616.37
843.454	17596.71
843.778	17530.27
844.103	17466.09
844.427	17443.5
844.751	17432.42
845.075	17435.59
845.399	17451.86
845.723	17355.14
846.047	17421.12
846.371	17252.54
846.695	17168.48
847.019	17121.24
847.343	16964.64
847.666	16915.6
847.99	16849.16
848.313	16880.8
848.637	16716.51
848.96	16749.73
849.284	16677.64
849.607	16551.09
849.931	16412.34
850.254	16345.22
850.577	16146.81
850.9	16163.76
851.223	16100.71
851.546	15980.26
851.869	15925.8
852.192	15933.48
852.515	15833.14
852.838	15672.02
853.161	15702.75
853.483	15605.58
853.806	15481.74
854.129	15453.04
854.451	15425.24
854.774	15326.04
855.096	15257.56
855.419	15173.73
855.741	15127.62
856.063	15042.88
856.385	14920.17
856.708	14928.53
857.03	14867.74
857.352	14894.86
857.674	14965.82
857.996	14788.88
858.318	14754.98
858.64	14766.05
858.961	14687.86
859.283	14744.58
859.605	14685.15
859.926	14684.25
860.248	14607.86
860.57	14582.55
860.891	14546.17
861.212	14603.34
861.534	14520.86
861.855	14450.58
862.176	14530.13
862.498	14404.03
862.819	14457.13
863.14	14387.08
863.461	14358.61
863.782	14400.41
864.103	14384.14
864.424	14460.3
864.745	14415.78
865.065	14386.4
865.386	14335.78
865.707	14316.12
866.027	14321.32
866.348	14259.63
866.668	14311.15
866.989	14248.78
867.309	14101.21
867.63	14121.78
867.95	14198.84
868.27	14117.26
868.59	14179.4
868.91	14084.04
869.23	14089.69
869.55	14013.53
869.87	13988.67
870.19	13966.53
870.51	13991.38
870.83	13904.15
871.15	13865.74
871.469	13905.74
871.789	13806.3
872.109	13800.88
872.428	13680.43
872.748	13683.6
873.067	13653.09
873.386	13597.27
873.706	13616.48
874.025	13591.85
874.344	13461.23
874.663	13503.03
874.982	13379.42
875.301	13324.28
875.62	13336.94
875.939	13315.02
876.258	13327.67
876.577	13197.96
876.896	13244.96
877.214	13245.64
877.533	13231.86
877.852	13164.96
878.17	13184.85
878.489	13072.99
878.807	13071.63
879.125	13072.99
879.444	13111.41
879.762	13049.49
880.08	13075.48
880.398	12962.48
880.716	13027.34
881.034	12927.46
881.352	12931.75
881.67	12940.79
881.988	12865.31
882.306	12837.74
882.624	12813.56
882.941	12851.07
883.259	12815.37
883.577	12774.24
883.894	12787.57
884.212	12789.61
884.529	12746.44
884.846	12744.64
885.164	12708.71
885.481	12642.72
885.798	12767.01
886.115	12696.05
886.432	12635.26
886.75	12549.39
887.067	12611.08
887.383	12584.41
887.7	12631.65
888.017	12579.44
888.334	12526.34
888.651	12547.35
888.967	12468.26
889.284	12501.93
889.6	12381.48
889.917	12278.89
890.233	12350.75
890.55	12284.08
890.866	12317.76
891.182	12245.67
891.498	12120.7
891.815	12064.43
892.131	12195.5
892.447	12065.11
892.763	11946.69
893.079	12007.93
893.395	11797.99
893.71	11849.52
894.026	11804.1
894.342	11839.58
894.657	11693.82
894.973	11691.11
895.289	11728.84
895.604	11617.21
895.92	11512.13
896.235	11419.47
896.55	11471.9
896.865	11412.24
897.181	11311.68
897.496	11298.57
897.811	11174.51
898.126	11223.55
898.441	11090.22
898.756	11087.51
899.071	11007.73
899.386	11158.24
899.7	10925.25
900.015	10916.89
900.33	10817
900.644	10873.05
900.959	10856.78
901.273	10804.35
901.588	10741.75
901.902	10751.02
902.216	10656.1
902.531	10742.2
902.845	10621.3
903.159	10576.33
903.473	10590.34
903.787	10530.46
904.101	10456.11
904.415	10421.76
904.729	10400.29
905.042	10355.55
905.356	10345.6
905.67	10330.01
905.984	10367.07
906.297	10369.33
906.611	10188.32
906.924	10225.83
907.237	10223.12
907.551	10128.89
907.864	10128.66
908.177	10145.38
908.491	10126.17
908.804	10092.05
909.117	10048.66
909.43	9894.09
909.743	9898.61
910.056	9946.74
910.368	9877.82
910.681	9854.32
910.994	9852.06
911.307	9763.92
911.619	9735.9
911.932	9744.72
912.244	9617.26
912.557	9681.89
912.869	9646.19
913.181	9554.44
913.494	9502.01
913.806	9473.99
914.118	9451.39
914.43	9348.79
914.742	9349.02
915.054	9250.94
915.366	9250.94
915.678	9171.4
915.99	9129.36
916.302	9072.19
916.613	9052.98
916.925	8986.77
917.236	9023.15
917.548	8907
917.859	8897.28
918.171	8784.06
918.482	8817.51
918.794	8728.25
919.105	8721.47
919.416	8611.64
919.727	8581.58
920.038	8562.15
920.349	8560.79
920.66	8521.02
920.971	8491.19
921.282	8386.33
921.593	8401.02
921.903	8348.59
922.214	8293
922.525	8300.91
922.835	8246.68
923.146	8184.08
923.456	8136.4
923.767	8075.15
924.077	8122.16
924.387	8166.23
924.697	8140.46
925.008	7998.09
925.318	7937.98
925.628	7921.71
925.938	7940.02
926.248	7864.99
926.558	7794.94
926.867	7813.92
927.177	7752.9
927.487	7701.15
927.796	7653.7
928.106	7711.55
928.416	7636.3
928.725	7610.08
929.034	7620.93
929.344	7567.6
929.653	7582.51
929.962	7552.91
930.271	7543.87
930.581	7488.96
930.89	7424.55
931.199	7441.73
931.508	7409.86
931.817	7374.16
932.125	7352.69
932.434	7307.94
932.743	7297.77
933.051	7227.72
933.36	7312.24
933.669	7238.34
933.977	7196.31
934.286	7151.34
934.594	7178.46
934.902	7116.99
935.21	7071.34
935.519	7063.66
935.827	7066.82
936.135	7012.36
936.443	6975.75
936.751	6962.42
937.059	6939.37
937.367	6880.38
937.674	6921.96
937.982	6800.84
938.29	6825.7
938.597	6799.26
938.905	6744.79
939.213	6680.39
939.52	6579.38
939.827	6632.03
940.135	6598.13
940.442	6617.11
940.749	6541.18
941.056	6508.87
941.363	6442.66
941.67	6473.84
941.977	6343.45
942.284	6342.55
942.591	6294.64
942.898	6328.76
943.205	6287.63
943.511	6197.92
943.818	6202.66
944.125	6160.85
944.431	6183.68
944.738	6070.24
945.044	6063.68
945.35	6052.61
945.657	5992.27
945.963	5966.28
946.269	5971.71
946.575	5984.81
946.881	5911.82
947.187	5907.08
947.493	5891.03
947.799	5880.41
948.105	5798.38
948.41	5715.22
948.716	5773.97
949.022	5678.83
949.327	5737.59
949.633	5688.33
949.938	5601.1
950.244	5595.9
950.549	5561.55
950.854	5559.51
951.16	5551.83
951.465	5547.54
951.77	5490.14
952.075	5466.18
952.38	5491.27
952.685	5473.19
952.99	5446.75
953.294	5413.53
953.599	5418.95
953.904	5392.51
954.209	5359.29
954.513	5355.68
954.818	5326.3
955.122	5287.21
955.426	5298.28
955.731	5331.72
956.035	5257.6
956.339	5206.53
956.643	5200.43
956.948	5216.47
957.252	5234.1
957.556	5157.94
957.86	5158.17
958.163	5164.72
958.467	5114.33
958.771	5069.13
959.075	5038.4
959.378	5049.25
959.682	5042.69
959.985	5039.53
960.289	5002.02
960.592	4936.48
960.896	4940.55
961.199	4933.77
961.502	4923.6
961.805	4840.89
962.108	4869.59
962.411	4835.24
962.714	4797.95
963.017	4757.95
963.32	4837.27
963.623	4766.09
963.926	4771.06
964.228	4690.61
964.531	4680.22
964.833	4647
965.136	4653.78
965.438	4644.51
965.741	4613.1
966.043	4547.79
966.345	4523.61
966.648	4514.12
966.95	4513.21
967.252	4480.9
967.554	4466.44
967.856	4405.87
968.158	4402.03
968.46	4364.07
968.761	4352.09
969.063	4339.66
969.365	4338.08
969.666	4349.83
969.968	4246.1
970.269	4250.62
970.571	4230.51
970.872	4254.24
971.174	4215.14
971.475	4175.6
971.776	4196.84
972.077	4144.64
972.378	4100.34
972.679	4143.05
972.98	4079.78
973.281	4062.83
973.582	4054.02
973.883	3969.5
974.183	3996.62
974.484	3953.23
974.785	3945.09
975.085	3987.13
975.386	3948.48
975.686	3863.97
975.986	3889.5
976.287	3880.24
976.587	3856.73
976.887	3800.92
977.187	3826.45
977.487	3871.65
977.787	3807.24
978.087	3777.41
978.387	3787.13
978.687	3757.75
978.987	3759.79
979.286	3732.9
979.586	3756.62
979.885	3699
980.185	3692.67
980.484	3673.24
980.784	3648.6
981.083	3651.09
981.382	3640.24
981.682	3620.81
981.981	3564.99
982.28	3626.46
982.579	3626.68
982.878	3595.05
983.177	3577.42
983.475	3586.46
983.774	3525.44
984.073	3521.38
984.372	3525.9
984.67	3497.2
984.969	3494.26
985.267	3489.06
985.566	3490.64
985.864	3453.58
986.162	3456.52
986.461	3426.69
986.759	3412
987.057	3377.88
987.355	3386.46
987.653	3343.75
987.951	3322.96
988.249	3277.09
988.547	3296.07
988.844	3288.39
989.142	3285.9
989.44	3251.33
989.737	3245.45
990.035	3203.64
990.332	3198.22
990.63	3223.98
990.927	3149.86
991.224	3141.5
991.521	3192.35
991.819	3094.95
992.116	3101.27
992.413	3093.36
992.71	3071.67
993.006	3066.47
993.303	3021.05
993.6	3011.56
993.897	2990.77
994.193	2989.86
994.49	2960.71
994.787	2961.84
995.083	2917.78
995.379	2944.44
995.676	2909.64
995.972	2912.13
996.268	2892.69
996.565	2907.61
996.861	2859.02
997.157	2849.53
997.453	2815.86
997.749	2808.4
998.044	2773.37
998.34	2773.15
998.636	2760.72
998.932	2754.84
999.227	2745.13
999.523	2726.82
999.818	2689.76
1000.114	2662.19
1000.409	2608.18
1000.704	2655.86
1001	2613.6
1001.295	2635.07
1001.59	2558.46
1001.885	2614.28
1002.18	2594.17
1002.475	2568.86
1002.77	2546.26
1003.065	2514.62
1003.359	2553.04
1003.654	2520.05
1003.949	2489.99
1004.243	2508.97
1004.538	2484.34
1004.832	2500.16
1005.127	2443.21
1005.421	2454.29
1005.715	2400.05
1006.009	2436.21
1006.304	2367.06
1006.598	2390.78
1006.892	2376.32
1007.186	2395.98
1007.48	2350.11
1007.773	2337
1008.067	2340.62
1008.361	2331.58
1008.655	2292.26
1008.948	2284.8
1009.242	2257.45
1009.535	2263.56
1009.829	2256.78
1010.122	2275.31
1010.415	2233.5
1010.708	2204.12
1011.001	2179.04
1011.295	2172.94
1011.588	2207.74
1011.881	2155.31
1012.173	2160.28
1012.466	2167.97
1012.759	2130.68
1013.052	2168.42
1013.344	2097.01
1013.637	2097.23
1013.93	2077.35
1014.222	2089.1
1014.514	2062.21
1014.807	2048.42
1015.099	2020.85
1015.391	2059.49
1015.683	2015.88
1015.976	2025.6
1016.268	1994.64
1016.56	1988.54
1016.851	1964.13
1017.143	1979.04
1017.435	1951.7
1017.727	1948.08
1018.018	1913.28
1018.31	1915.32
1018.602	1923.23
1018.893	1887.07
1019.185	1860.63
1019.476	1861.76
1019.767	1830.57
1020.058	1856.79
1020.35	1830.35
1020.641	1838.48
1020.932	1779.73
1021.223	1775.43
1021.514	1772.27
1021.804	1765.04
1022.095	1724.81
1022.386	1736.34
1022.677	1710.58
1022.967	1730.46
1023.258	1686.4
1023.548	1721.42
1023.839	1694.31
1024.129	1655.89
1024.419	1638.26
1024.709	1640.52
1025	1631.26
1025.29	1612.27
1025.58	1623.57
1025.87	1588.32
1026.16	1574.31
1026.449	1601.2
1026.739	1560.52
1027.029	1528.89
1027.319	1537.93
1027.608	1534.76
1027.898	1546.06
1028.187	1547.42
1028.477	1484.82
1028.766	1475.55
1029.055	1477.36
1029.344	1489.11
1029.634	1428.55
1029.923	1434.2
1030.212	1420.64
1030.501	1414.99
1030.79	1444.14
1031.078	1396.69
1031.367	1374.31
1031.656	1398.72
1031.945	1366.18
1032.233	1362.34
1032.522	1365.05
1032.81	1355.33
1033.099	1347.65
1033.387	1294.32
1033.675	1330.7
1033.963	1319.85
1034.251	1301.77
1034.54	1294.09
1034.828	1310.14
1035.116	1285.05
1035.403	1280.53
1035.691	1247.76
1035.979	1260.19
1036.267	1270.81
1036.554	1266.29
1036.842	1232.17
1037.129	1235.79
1037.417	1224.04
1037.704	1213.64
1037.992	1210.25
1038.279	1182.68
1038.566	1147.43
1038.853	1147.43
1039.14	1147.43
