Data from blue_shiny_book_FLMS001491_00078.txt Node
Date: Wed Feb 08 15:27:31 GMT 2017
User: dcchb
Spectrometer: FLMS00149
Trigger mode: 0
Integration Time (sec): 2.000000E-2
Scans to average: 10
Electric dark correction enabled: true
Nonlinearity correction enabled: false
Boxcar width: 0
XAxis mode: Wavelengths
Number of Pixels in Spectrum: 2048
>>>>>Begin Spectral Data<<<<<
341.393	-7.54
341.776	-7.54
342.16	-7.54
342.543	-72.85
342.927	-50.7
343.31	-78.73
343.693	-65.17
344.077	-60.87
344.46	-53.42
344.843	-60.2
345.226	-42.12
345.61	-42.57
345.993	-9.12
346.376	0.82
346.759	-7.09
347.142	46.02
347.525	59.57
347.908	54.15
348.291	70.2
348.674	83.08
349.057	105.45
349.44	137.99
349.823	152.45
350.206	160.14
350.588	206.46
350.971	220.02
351.354	212.79
351.737	239.46
352.119	253.24
352.502	267.03
352.884	271.32
353.267	268.61
353.65	284.2
354.032	312
354.414	303.41
354.797	322.84
355.179	326.69
355.562	342.73
355.944	337.31
356.326	330.3
356.709	348.83
357.091	356.74
357.473	339.79
357.855	362.17
358.238	352.9
358.62	355.39
359.002	344.76
359.384	342.96
359.766	350.64
360.148	336.4
360.53	338.44
360.912	331.88
361.294	354.71
361.676	341.38
362.057	325.1
362.439	335.05
362.821	344.99
363.203	333.01
363.584	361.49
363.966	322.84
364.348	344.09
364.729	342.73
365.111	332.56
365.493	343.64
365.874	339.12
366.256	316.29
366.637	319.45
367.019	328.04
367.4	316.74
367.781	310.19
368.163	319.45
368.544	309.96
368.925	333.24
369.306	340.7
369.688	345.22
370.069	342.51
370.45	337.31
370.831	331.66
371.212	339.57
371.593	330.75
371.974	343.86
372.355	343.18
372.736	327.14
373.117	337.08
373.498	339.34
373.879	344.54
374.26	340.47
374.641	333.69
375.021	348.83
375.402	330.75
375.783	333.24
376.163	362.39
376.544	351.77
376.925	336.4
377.305	337.31
377.686	341.83
378.066	345.89
378.447	353.8
378.827	342.51
379.208	373.46
379.588	360.58
379.968	359.68
380.349	372.56
380.729	378.89
381.109	359
381.489	371.66
381.87	376.4
382.25	394.93
382.63	375.05
383.01	371.43
383.39	375.95
383.77	400.81
384.15	382.5
384.53	398.77
384.91	397.19
385.29	415.5
385.67	383.63
386.049	412.33
386.429	406.91
386.809	399.45
387.189	408.04
387.568	399.68
387.948	402.39
388.328	420.02
388.707	400.13
389.087	407.59
389.466	412.11
389.846	412.79
390.225	411.66
390.605	434.25
390.984	440.13
391.363	450.3
391.743	443.07
392.122	454.37
392.501	433.8
392.881	445.55
393.26	473.8
393.639	465.67
394.018	464.08
394.397	469.06
394.776	486.91
395.155	469.28
395.534	510.18
395.913	512.22
396.292	488.04
396.671	501.6
397.05	500.47
397.429	513.8
397.808	468.6
398.186	487.81
398.565	527.58
398.944	495.5
399.323	518.32
399.701	548.15
400.08	528.71
400.458	513.8
400.837	537.3
401.215	575.27
401.594	560.13
401.972	579.79
402.351	575.95
402.729	564.87
403.107	596.28
403.486	587.47
403.864	599.45
404.242	588.15
404.62	601.48
404.999	618.43
405.377	611.2
405.755	611.65
406.133	629.73
406.511	619.79
406.889	642.16
407.267	656.17
407.645	648.94
408.023	664.76
408.401	670.63
408.779	697.52
409.156	693.46
409.534	699.78
409.912	702.27
410.29	708.37
410.667	711.31
411.045	714.92
411.422	727.13
411.8	739.78
412.178	765.09
412.555	780.23
412.933	788.82
413.31	798.76
413.687	810.06
414.065	795.37
414.442	810.97
414.819	820.91
415.197	851.87
415.574	845.99
415.951	849.61
416.328	874.24
416.705	881.47
417.082	887.58
417.46	905.65
417.837	892.55
418.214	919.21
418.591	912.21
418.967	916.5
419.344	927.57
419.721	946.33
420.098	943.85
420.475	976.84
420.852	978.42
421.228	980.23
421.605	1012.32
421.982	1022.04
422.358	1020.91
422.735	1050.51
423.111	1029.72
423.488	1072.66
423.864	1072.88
424.241	1071.98
424.617	1087.8
424.994	1073.33
425.37	1109.72
425.746	1126.21
426.123	1153.78
426.499	1154.01
426.875	1150.62
427.251	1208.7
427.627	1228.36
428.003	1219.77
428.379	1236.49
428.756	1270.62
429.132	1285.98
429.507	1284.85
429.883	1288.92
430.259	1316.49
430.635	1332.54
431.011	1373.44
431.387	1354.68
431.763	1419.09
432.138	1434.91
432.514	1442.59
432.89	1432.65
433.265	1496.6
433.641	1503.15
434.016	1504.28
434.392	1518.75
434.767	1559.42
435.143	1563.04
435.518	1565.98
435.894	1634.22
436.269	1639.42
436.644	1656.82
437.02	1696.14
437.395	1725.52
437.77	1726.2
438.145	1736.82
438.52	1757.16
438.895	1772.52
439.271	1782.69
439.646	1822.24
440.021	1857.95
440.395	1871.73
440.77	1862.01
441.145	1897.04
441.52	1951.5
441.895	1938.17
442.27	1930.71
442.645	1961.22
443.019	2003.03
443.394	1995.12
443.769	1996.7
444.143	1982.24
444.518	2076.02
444.892	2057.04
445.267	2043.03
445.641	2082.12
446.016	2135
446.39	2125.74
446.764	2143.81
447.139	2161.21
447.513	2175.68
447.887	2206.64
448.262	2193.98
448.636	2196.69
449.01	2258.16
449.384	2228.11
449.758	2288.67
450.132	2302.68
450.506	2311.72
450.88	2326.18
451.254	2336.13
451.628	2350.59
452.002	2454.09
452.376	2466.52
452.75	2490.47
453.123	2501.54
453.497	2520.07
453.871	2555.78
454.244	2594.65
454.618	2631.94
454.992	2636.68
455.365	2670.81
455.739	2686.85
456.112	2763.91
456.486	2770.92
456.859	2836.9
457.232	2894.53
457.606	2862.66
457.979	2929.1
458.352	3006.84
458.725	3031.93
459.099	3060.4
459.472	3088.42
459.845	3168.42
460.218	3112.38
460.591	3194.41
460.964	3190.34
461.337	3299.94
461.71	3341.3
462.083	3382.88
462.456	3395.31
462.829	3439.37
463.201	3502.42
463.574	3519.37
463.947	3608.86
464.32	3692.93
464.692	3664
465.065	3719.82
465.438	3734.73
465.81	3787.16
466.183	3861.73
466.555	3908.51
466.928	3980.83
467.3	3963.65
467.672	4036.42
468.045	4136.98
468.417	4178.56
468.789	4232.57
469.161	4318.9
469.534	4330.42
469.906	4462.4
470.278	4438.44
470.65	4536.07
471.022	4578.55
471.394	4664.65
471.766	4689.06
472.138	4780.58
472.51	4866.68
472.882	4967.24
473.253	5038.43
473.625	5104.87
473.997	5242.26
474.369	5241.13
474.74	5289.27
475.112	5417.63
475.484	5519.77
475.855	5609.49
476.227	5631.86
476.598	5815.36
476.97	5862.13
477.341	5973.09
477.713	6052.41
478.084	6063.03
478.455	6276.36
478.827	6348.9
479.198	6526.07
479.569	6507.77
479.94	6675.9
480.311	6752.05
480.682	6939.62
481.053	7090.8
481.424	7191.14
481.795	7287.18
482.166	7371.92
482.537	7481.75
482.908	7654.63
483.279	7726.49
483.65	7860.05
484.021	8018.69
484.391	8158.12
484.762	8258
485.133	8337.1
485.503	8418
485.874	8607.6
486.244	8709.29
486.615	8905.22
486.985	9068.83
487.356	9173.01
487.726	9259.56
488.097	9427.01
488.467	9461.59
488.837	9684.18
489.207	9789.71
489.578	9986.09
489.948	10045.07
490.318	10205.07
490.688	10326.2
491.058	10466.76
491.428	10555.12
491.798	10710.37
492.168	10875.11
492.538	11010.47
492.908	11163.01
493.278	11296.34
493.648	11250.92
494.017	11456.79
494.387	11577.92
494.757	11666.28
495.126	11723
495.496	11767.06
495.866	11952.37
496.235	12078.24
496.605	12217.45
496.974	12280.72
497.344	12481.85
497.713	12619.24
498.082	12637.32
498.452	12859.46
498.821	12876.86
499.19	12962.06
499.559	13080.25
499.928	13067.82
500.298	13180.13
500.667	13328.83
501.036	13236.18
501.405	13510.75
501.774	13468.26
502.143	13738.99
502.512	13757.07
502.88	13984.41
503.249	13889.04
503.618	14044.74
503.987	14193.67
504.356	14230.73
504.724	14356.15
505.093	14407.67
505.462	14504.17
505.83	14557.05
506.199	14665.52
506.567	14937.83
506.936	14882.91
507.304	15091.5
507.672	15129.46
508.041	15241.1
508.409	15266.86
508.777	15432.96
509.145	15627.07
509.514	15682.21
509.882	15867.52
510.25	15847.63
510.618	16086.95
510.986	16072.94
511.354	16268.19
511.722	16446.94
512.09	16569.2
512.458	16605.35
512.826	16693.94
513.193	16798.12
513.561	16765.35
513.929	16953.14
514.297	17100.48
514.664	17223.42
515.032	17135.06
515.4	17408.72
515.767	17484.43
516.135	17608.04
516.502	17585.67
516.869	17923.51
517.237	18034.02
517.604	18030.4
517.972	18355.59
518.339	18460.22
518.706	18502.93
519.073	18525.98
519.44	18714.45
519.808	18837.84
520.175	18775.24
520.542	19087.1
520.909	19169.58
521.276	19226.53
521.643	19404.38
522.009	19542
522.376	19689.57
522.743	19704.71
523.11	20048.2
523.477	20260.85
523.843	20451.81
524.21	20722.99
524.577	20939.93
524.943	20915.98
525.31	21136.53
525.676	21358.68
526.043	21481.16
526.409	21490.65
526.776	21725.45
527.142	21810.19
527.508	21931.09
527.874	21866.68
528.241	22043.18
528.607	22148.94
528.973	22320.91
529.339	22364.07
529.705	22532.88
530.071	22796.83
530.437	23057.39
530.803	23181.68
531.169	23434.55
531.535	23435.91
531.901	23569.69
532.267	23634.32
532.632	23837.93
532.998	24071.37
533.364	24065.95
533.73	24137.59
534.095	24326.96
534.461	24251.03
534.826	24470.23
535.192	24479.95
535.557	24513.17
535.923	24411.02
536.288	24571.92
536.653	24627.74
537.019	24701.86
537.384	24967.17
537.749	25154.06
538.114	25331
538.479	25357.67
538.845	25424.78
539.21	25500.94
539.575	25788.16
539.94	25883.08
540.305	25933.92
540.67	26113.58
541.034	26067.7
541.399	26177.53
541.764	26190.19
542.129	26160.58
542.494	26326.45
542.858	26307.25
543.223	26252.33
543.587	26352.44
543.952	26344.76
544.316	26511.76
544.681	26489.16
545.045	26621.14
545.41	26829.49
545.774	26801.92
546.138	26888.02
546.503	27052.99
546.867	27070.62
547.231	27537.5
547.595	27505.63
547.959	27598.06
548.324	27591.28
548.688	27816.81
549.052	27921.89
549.416	27800.99
549.779	27703.59
550.143	27697.27
550.507	27866.3
550.871	27834.89
551.235	27721.45
551.599	27935
551.962	28022.91
552.326	27978.16
552.689	28099.06
553.053	28147.88
553.417	28137.25
553.78	28554.42
554.143	28438.49
554.507	28756.22
554.87	28864.69
555.234	29146.04
555.597	29008.42
555.96	29229.2
556.323	29433.49
556.686	29358.69
557.05	29611.34
557.413	29574.96
557.776	29654.73
558.139	29842.07
558.502	29554.84
558.865	29581.96
559.228	29770.43
559.59	29706.03
559.953	29629.19
560.316	30149.4
560.679	30102.4
561.041	30245
561.404	30263.3
561.767	30691.99
562.129	30550.75
562.492	30831.65
562.854	30868.26
563.217	31099.21
563.579	31259.43
563.941	31479.31
564.304	31717.73
564.666	31919.3
565.028	31932.63
565.39	31930.15
565.753	32127.66
566.115	32169.01
566.477	32151.84
566.839	32225.28
567.201	32294.66
567.563	32243.59
567.925	32459.63
568.287	32289.69
568.648	32446.75
569.01	32512.51
569.372	32697.59
569.734	32473.64
570.095	32689.68
570.457	32982.1
570.819	33115.65
571.18	33151.59
571.542	33324.69
571.903	33544.12
572.265	33746.82
572.626	33958.57
572.987	33990.66
573.349	34260.03
573.71	34377.09
574.071	34276.3
574.432	34358.33
574.794	34613.02
575.155	34362.63
575.516	34362.63
575.877	34476.3
576.238	34519.01
576.599	34395.85
576.96	34448.95
577.32	34396.3
577.681	34621.38
578.042	34616.18
578.403	34622.73
578.763	34657.54
579.124	34601.27
579.485	34743.63
579.845	34923.52
580.206	35105.21
580.566	35178.2
580.927	35185.66
581.287	35426.33
581.648	35477.17
582.008	35542.26
582.368	35688.92
582.728	35722.59
583.089	35701.35
583.449	35615.7
583.809	35621.58
584.169	35684.63
584.529	35501.81
584.889	35704.74
585.249	35523.95
585.609	35215.03
585.969	35533.22
586.329	35382.71
586.688	35283.73
587.048	35182.94
587.408	35263.62
587.768	35308.82
588.127	35260.68
588.487	35383.84
588.846	35715.81
589.206	35314.24
589.565	35493.22
589.925	35724.4
590.284	35708.13
590.643	35834.23
591.003	36046.65
591.362	36272.18
591.721	36149.47
592.08	36241.9
592.44	36316.47
592.799	36278.96
593.158	36239.87
593.517	36095.69
593.876	36116.03
594.235	36046.43
594.593	36055.69
594.952	36005.52
595.311	35783.38
595.67	35797.39
596.029	35985.64
596.387	36043.04
596.746	35903.15
597.104	35695.25
597.463	35692.31
597.822	35966.65
598.18	35981.79
598.538	35943.83
598.897	36141.56
599.255	35831.97
599.613	36398.51
599.972	36398.28
600.33	36438.05
600.688	36483.93
601.046	36703.58
601.404	36749.23
601.762	36700.87
602.12	36815.44
602.478	36812.05
602.836	36903.35
603.194	36483.7
603.552	36678.27
603.91	36527.09
604.268	36523.7
604.625	36431.27
604.983	36473.98
605.341	36227.89
605.698	36355.12
606.056	36384.27
606.413	36424.27
606.771	36564.15
607.128	36569.35
607.485	36344.95
607.843	36546.98
608.2	36748.55
608.557	36869.23
608.914	36723.92
609.272	37080.97
609.629	37066.29
609.986	37234.64
610.343	37075.32
610.7	37419.27
611.057	37405.71
611.414	37441.87
611.771	37458.37
612.127	37793.72
612.484	37753.5
612.841	37799.6
613.198	37710.56
613.554	37769.77
613.911	37926.15
614.267	37736.32
614.624	37624.24
614.98	37664.01
615.337	37820.84
615.693	37537.23
616.05	37552.37
616.406	37751.01
616.762	37466.95
617.118	37566.84
617.475	37549.89
617.831	37736.1
618.187	37728.64
618.543	37825.59
618.899	38068.07
619.255	38010.89
619.611	38017.9
619.967	38134.96
620.323	38228.51
620.678	38092.25
621.034	38234.62
621.39	38457.89
621.746	38361.17
622.101	38771.55
622.457	38550.54
622.812	38501.73
623.168	38708.28
623.523	38668.73
623.879	38707.82
624.234	38416.98
624.589	38567.04
624.945	38663.53
625.3	38606.13
625.655	38472.58
626.01	38485.91
626.365	38382.41
626.72	38228.51
627.075	38220.38
627.43	38166.6
627.785	38025.36
628.14	38202.75
628.495	38148.52
628.85	38115.98
629.205	37982.65
629.559	38199.81
629.914	37974.74
630.269	38159.59
630.623	38186.26
630.978	38184.9
631.332	38277.78
631.687	38382.86
632.041	38286.82
632.396	38399.13
632.75	38199.36
633.104	38260.6
633.459	38214.28
633.813	38307.38
634.167	38113.04
634.521	37970.22
634.875	38023.77
635.229	37944.68
635.583	37754.85
635.937	37821.52
636.291	37784.91
636.645	37777.9
636.999	37472.15
637.352	37581.75
637.706	37253.17
638.06	37542.88
638.413	37464.01
638.767	37215.43
639.121	37165.04
639.474	36904.93
639.828	36886.63
640.181	36938.61
640.534	36962.33
640.888	36849.79
641.241	36757.14
641.594	36975.44
641.947	37017.7
642.301	36989.9
642.654	37101.76
643.007	37174.53
643.36	36964.37
643.713	37035.33
644.066	37255.88
644.419	37120.52
644.771	37004.82
645.124	36910.13
645.477	37059.05
645.83	36798.5
646.182	36460.88
646.535	36150.38
646.888	35983.83
647.24	35693.67
647.593	35733.21
647.945	35495.25
648.298	35413.45
648.65	35363.96
649.002	35370.74
649.355	35374.13
649.707	35392.43
650.059	35577.96
650.411	36158.06
650.763	36164.16
651.115	36460.43
651.467	36191.28
651.819	36160.09
652.171	36084.84
652.523	35984.05
652.875	36150.15
653.227	36067.89
653.578	36214.56
653.93	36188.12
654.282	36166.2
654.633	36038.74
654.985	36088.46
655.337	36199.87
655.688	36191.28
656.039	36420.88
656.391	36077.38
656.742	36404.38
657.094	36273.99
657.445	36348.56
657.796	36337.04
658.147	36353.31
658.498	36140.43
658.849	36163.03
659.2	36209.13
659.551	36094.11
659.902	36123.03
660.253	36056.82
660.604	35996.48
660.955	35852.08
661.306	35966.65
661.656	35784.51
662.007	35731.41
662.358	35640.33
662.708	35674.01
663.059	35658.64
663.409	35393.33
663.76	35659.54
664.11	35610.05
664.461	35491.86
664.811	35414.8
665.161	35435.14
665.511	35396.27
665.862	35456.61
666.212	35596.72
666.562	35605.53
666.912	35721.69
667.262	35720.56
667.612	35739.54
667.962	35962.59
668.312	35834.68
668.662	36052.75
669.011	35890.05
669.361	35920.1
669.711	35798.97
670.06	35748.35
670.41	35751.74
670.76	35704.51
671.109	35809.6
671.459	35639.88
671.808	35572.31
672.157	35615.48
672.507	35429.04
672.856	35398.08
673.205	35401.47
673.554	35458.42
673.904	35267.69
674.253	35290.06
674.602	35009.62
674.951	34492.79
675.3	34282.86
675.649	34920.8
675.998	34699.57
676.346	34772.56
676.695	34782.73
677.044	34455.28
677.393	34685.56
677.741	34728.04
678.09	34703.64
678.438	34552.91
678.787	34599.68
679.135	34610.98
679.484	34446.92
679.832	34672.45
680.181	34673.81
680.529	34769.17
680.877	34719.91
681.225	34687.14
681.573	34841.49
681.922	34652.11
682.27	34640.13
682.618	34722.62
682.966	34562.17
683.314	34689.17
683.661	34457.31
684.009	34255.74
684.357	34185.23
684.705	34168.06
685.053	34149.53
685.4	34042.64
685.748	33785.24
686.095	33755.86
686.443	33579.37
686.79	33520.62
687.138	33378.02
687.485	33422.99
687.832	33162.21
688.18	33142.32
688.527	32880.63
688.874	32785.95
689.221	32712.5
689.568	32606.29
689.915	32645.16
690.262	32544.82
690.609	32610.36
690.956	32475.9
691.303	32365.39
691.65	32269.58
691.997	32320.2
692.344	32132.63
692.69	32029.13
693.037	32096.7
693.383	31834.78
693.73	32094.21
694.077	31884.5
694.423	31988.23
694.769	31817.61
695.116	31822.58
695.462	31777.38
695.808	31722.47
696.155	31813.09
696.501	31505.08
696.847	31574.45
697.193	31229.15
697.539	31272.31
697.885	31070.51
698.231	30844.53
698.577	30845.66
698.923	30705.32
699.269	30520.47
699.614	30309.17
699.96	30239.8
700.306	30265.56
700.651	30080.03
700.997	29819.02
701.342	29805.01
701.688	29750.09
702.033	29471.68
702.379	29389.65
702.724	29344.91
703.069	29388.07
703.415	29129.54
703.76	28991.92
704.105	29020.62
704.45	29051.35
704.795	28858.14
705.14	28825.15
705.485	28756
705.83	28691.82
706.175	28850.91
706.52	28748.76
706.865	28698.6
707.209	28726.62
707.554	28720.29
707.899	28733.4
708.243	28608.2
708.588	28523.69
708.932	28390.36
709.277	28539.05
709.621	28609.78
709.966	28419.73
710.31	28478.26
710.654	28259.29
710.998	28152.4
711.342	28092.51
711.687	28104.26
712.031	27719.19
712.375	27673.09
712.719	27732.52
713.063	27681.45
713.407	27668.11
713.75	27397.39
714.094	27397.39
714.438	27092.76
714.782	27224.74
715.125	26831.07
715.469	26932.77
715.812	26781.36
716.156	26603.74
716.499	26635.83
716.843	26698.65
717.186	26431.76
717.53	26629.05
717.873	26602.15
718.216	26552.89
718.559	26471.99
718.902	26373.91
719.246	26508.37
719.589	26429.95
719.932	26513.34
720.275	26382.95
720.617	26625.2
720.96	26409.39
721.303	26440.35
721.646	26417.3
721.989	26408.49
722.331	26662.49
722.674	26425.21
723.016	26378.66
723.359	26478.54
723.701	26518.31
724.044	26318.09
724.386	26189.28
724.729	26398.32
725.071	26230.41
725.413	26226.12
725.755	26232.22
726.097	26119.91
726.439	26005.79
726.782	25964.88
727.124	25938.89
727.465	25862.74
727.807	25723.08
728.149	25659.58
728.491	25660.48
728.833	25595.85
729.175	25579.58
729.516	25385.69
729.858	25417.55
730.199	25429.3
730.541	25354.05
730.882	25353.15
731.224	25416.42
731.565	25142.98
731.906	25223.88
732.248	25147.28
732.589	25090.1
732.93	25111.12
733.271	25200.16
733.612	25249.87
733.953	25283.77
734.294	25150.89
734.635	25190.21
734.976	25371
735.317	25140.72
735.658	25349.98
735.999	25265.24
736.339	25403.09
736.68	25461.17
737.021	25427.72
737.361	25312.24
737.702	25460.94
738.042	25360.83
738.383	25507.95
738.723	25562.18
739.063	25396.08
739.404	25545.23
739.744	25678.79
740.084	25505.91
740.424	25493.93
740.764	25327.38
741.104	25516.98
741.444	25397.44
741.784	25185.47
742.124	25235.64
742.464	25195.41
742.804	25215.07
743.143	25193.83
743.483	25214.39
743.823	25086.71
744.162	25075.19
744.502	25121.97
744.841	24998.35
745.181	24929.43
745.52	24832.03
745.86	24862.31
746.199	24891.24
746.538	24956.77
746.877	24957.9
747.216	25003.78
747.556	25011.01
747.895	25045.13
748.234	24938.02
748.573	24860.28
748.911	25045.58
749.25	25074.74
749.589	24971.01
749.928	25159.25
750.267	25228.18
750.605	25130.1
750.944	25243.32
751.283	25232.47
751.621	25392.24
751.96	25244.9
752.298	25419.81
752.636	25422.98
752.975	25509.75
753.313	25473.37
753.651	25558.11
753.989	25602.18
754.327	25581.62
754.666	25569.64
755.004	25729.18
755.342	25835.39
755.679	25691.44
756.017	25596.98
756.355	25627.49
756.693	25570.77
757.031	25658.22
757.368	25616.42
757.706	25631.33
758.044	25525.8
758.381	25552.92
758.719	25498.91
759.056	25560.6
759.394	25507.04
759.731	25308.18
760.068	25364.45
760.405	25381.62
760.743	25235.41
761.08	25432.24
761.417	25266.14
761.754	25219.59
762.091	25144.56
762.428	25154.28
762.765	24981.41
763.102	25042.87
763.438	24992.7
763.775	24970.33
764.112	25058.47
764.449	25097.56
764.785	24938.02
765.122	24860.05
765.458	24832.48
765.795	24950.67
766.131	24898.47
766.467	24882.65
766.804	24849.43
767.14	24847.85
767.476	24840.17
767.812	24841.3
768.148	24882.65
768.485	24775.99
768.821	24706.16
769.157	24649.44
769.492	24680.4
769.828	24713.39
770.164	24458.26
770.5	24452.83
770.836	24459.39
771.171	24449.89
771.507	24265.94
771.842	24281.99
772.178	24300.29
772.513	24201.54
772.849	24136.23
773.184	24060.98
773.519	24039.74
773.855	23892.85
774.19	23741.89
774.525	23737.82
774.86	23714.77
775.195	23604.49
775.53	23560.65
775.865	23485.17
776.2	23237.5
776.535	23077.5
776.87	23109.36
777.205	23022.81
777.539	22988.46
777.874	22905.53
778.209	22736.72
778.543	22761.8
778.878	22515.93
779.212	22650.17
779.547	22512.09
779.881	22454.92
780.215	22382.15
780.55	22363.62
780.884	22235.04
781.218	22186.45
781.552	22188.03
781.886	21959.79
782.22	21911.43
782.554	21784.88
782.888	21524.1
783.222	21589.63
783.556	21661.49
783.889	21569.74
784.223	21488.62
784.557	21362.29
784.89	21440.48
785.224	21398.45
785.557	21194.16
785.891	21292.91
786.224	21249.3
786.558	21145.57
786.891	20999.14
787.224	20921.17
787.557	20844.79
787.891	20877.11
788.224	20857.67
788.557	20762.53
788.89	20753.72
789.223	20694.29
789.556	20634.85
789.888	20652.25
790.221	20488.19
790.554	20344.47
790.887	20297.01
791.219	20199.84
791.552	20135.43
791.884	20029.45
792.217	20001.42
792.549	19890.01
792.882	19795.33
793.214	19704.26
793.546	19894.31
793.879	19691.6
794.211	19454.09
794.543	19544.49
794.875	19438.95
795.207	19455.45
795.539	19252.74
795.871	19266.53
796.203	19100.66
796.535	19020.43
796.867	19012.3
797.198	18956.7
797.53	19009.36
797.862	18798.97
798.193	18897.27
798.525	18722.36
798.856	18758.74
799.188	18522.59
799.519	18439.43
799.85	18439.88
800.182	18490.05
800.513	18490.73
800.844	18248.02
801.175	18356.04
801.506	18424.74
801.837	18351.3
802.168	18202.6
802.499	18265.88
802.83	18087.58
803.161	18090.29
803.491	18108.59
803.822	18064.3
804.153	17950.18
804.483	17815.04
804.814	17910.86
805.145	17767.36
805.475	17902.27
805.805	17745.21
806.136	17821.14
806.466	17816.17
806.796	17804.42
807.126	17624.76
807.457	17591.09
807.787	17606.23
808.117	17525.33
808.447	17408.72
808.777	17471.77
809.107	17339.57
809.436	17344.09
809.766	17280.82
810.096	17184.1
810.426	17244.21
810.755	17176.19
811.085	17099.13
811.414	17125.11
811.744	16939.58
812.073	16860.49
812.403	16833.82
812.732	16731.45
813.061	16595.64
813.39	16537.11
813.719	16527.39
814.049	16632.47
814.378	16513.83
814.707	16470.22
815.036	16433.83
815.365	16412.37
815.693	16200.17
816.022	16268.41
816.351	16213.5
816.68	16090.57
817.008	16187.06
817.337	16053.96
817.665	15997.46
817.994	16020.28
818.322	15909.78
818.651	15810.12
818.979	15807.41
819.307	15894.41
819.636	15778.48
819.964	15684.93
820.292	15781.42
820.62	15771.7
820.948	15692.61
821.276	15771.25
821.604	15733.74
821.932	15731.93
822.259	15802.44
822.587	15750.91
822.915	15679.5
823.243	15816.67
823.57	15778.26
823.898	15804.25
824.225	15688.77
824.553	15715.43
824.88	15785.04
825.207	15956.33
825.535	15792.27
825.862	15918.14
826.189	15840.18
826.516	15900.29
826.843	15961.3
827.17	15915.65
827.497	15829.33
827.824	15845.15
828.151	15936.9
828.478	15867.52
828.805	15972.6
829.131	15832.49
829.458	15789.56
829.785	15799.5
830.111	15822.55
830.438	15825.04
830.764	15723.8
831.09	15765.15
831.417	15596.12
831.743	15699.16
832.069	15684.47
832.395	15657.13
832.722	15704.59
833.048	15580.07
833.374	15582.56
833.7	15453.75
834.026	15512.28
834.351	15537.36
834.677	15514.76
835.003	15493.97
835.329	15430.7
835.654	15384.82
835.98	15278.38
836.306	15291.94
836.631	15332.39
836.956	15300.53
837.282	15274.32
837.607	15199.97
837.932	15195.9
838.258	15179.4
838.583	15173.3
838.908	15141.21
839.233	15077.94
839.558	15056.47
839.883	14989.58
840.208	14938.96
840.533	15017.15
840.858	15021.67
841.182	15098.95
841.507	15024.38
841.832	14987.77
842.156	15046.75
842.481	14999.52
842.805	14978.5
843.13	14907.32
843.454	14923.59
843.778	14872.07
844.103	14781.22
844.427	14759.08
844.751	14774.89
845.075	14790.03
845.399	14722.01
845.723	14654.22
846.047	14658.74
846.371	14468.69
846.695	14512.98
847.019	14439.31
847.343	14399.08
847.666	14377.62
847.99	14328.35
848.313	14237.51
848.637	14191.86
848.96	14134.46
849.284	14174.91
849.607	14007
849.931	13934.01
850.254	13837.29
850.577	13844.3
850.9	13712.55
851.223	13657.18
851.546	13573.57
851.869	13404.53
852.192	13445.44
852.515	13306.46
852.838	13281.15
853.161	13220.81
853.483	13216.74
853.806	13131.32
854.129	13083.41
854.451	13002.74
854.774	12990.76
855.096	12935.17
855.419	12882.29
855.741	12793.93
856.063	12783.99
856.385	12768.39
856.708	12711.22
857.03	12738.56
857.352	12605.91
857.674	12645.68
857.996	12628.51
858.318	12532.92
858.64	12514.16
858.961	12479.59
859.283	12414.05
859.605	12360.95
859.926	12421.06
860.248	12360.49
860.57	12325.92
860.891	12386.48
861.212	12277.33
861.534	12309.65
861.855	12244.34
862.176	12196.43
862.498	12294.28
862.819	12211.57
863.14	12194.85
863.461	12243.44
863.782	12181.06
864.103	12212.48
864.424	12208.86
864.745	12193.27
865.065	12156.88
865.386	12067.85
865.707	12092.93
866.027	12075.53
866.348	11996.66
866.668	12045.47
866.989	12065.59
867.309	11861.75
867.63	11932.26
867.95	11916.89
868.27	11875.54
868.59	11973.16
868.91	11909.21
869.23	11873.28
869.55	11847.06
869.87	11873.5
870.19	11841.41
870.51	11793.05
870.83	11779.94
871.15	11669.89
871.469	11695.43
871.789	11710.12
872.109	11683.45
872.428	11593.06
872.748	11644.13
873.067	11600.29
873.386	11577.01
873.706	11585.83
874.025	11424.47
874.344	11390.35
874.663	11431.03
874.982	11318.26
875.301	11233.07
875.62	11213.18
875.939	11160.07
876.258	11264.48
876.577	11172.73
876.896	11159.17
877.214	11193.29
877.533	11178.38
877.852	11189.9
878.17	11149
878.489	11128.44
878.807	11084.82
879.125	11080.98
879.444	10965.5
879.762	11101.32
880.08	10992.39
880.398	10962.34
880.716	10915.11
881.034	10928.22
881.352	10934.54
881.67	10807.31
881.988	10865.84
882.306	10920.98
882.624	10848.22
882.941	10888.89
883.259	10814.55
883.577	10732.74
883.894	10882.57
884.212	10814.09
884.529	10827.2
884.846	10718.96
885.164	10728.45
885.481	10761.21
885.798	10804.6
886.115	10721.44
886.432	10659.07
886.75	10599.86
887.067	10671.95
887.383	10545.4
887.7	10637.6
888.017	10633.53
888.334	10561.9
888.651	10599.41
888.967	10591.05
889.284	10501.56
889.6	10464.72
889.917	10457.27
890.233	10426.31
890.55	10427.66
890.866	10427.44
891.182	10323.03
891.498	10318.06
891.815	10297.72
892.131	10230.15
892.447	10310.38
892.763	10207.1
893.079	10132.98
893.395	10080.78
893.71	10033.78
894.026	10059.76
894.342	9988.35
894.657	9810.73
894.973	9888.69
895.289	9852.31
895.604	9822.48
895.92	9750.39
896.235	9685.08
896.55	9697.51
896.865	9673.56
897.181	9604.18
897.496	9625.65
897.811	9495.03
898.126	9406.67
898.441	9431.53
898.756	9359.9
899.071	9323.96
899.386	9321.03
899.7	9245.77
900.015	9246
900.33	9163.74
900.644	9157.64
900.959	9145.21
901.273	9083.52
901.588	8994.48
901.902	9023.41
902.216	9045.78
902.531	8966.69
902.845	8990.19
903.159	8939.12
903.473	8917.19
903.787	8919.23
904.101	8835.62
904.415	8864.54
904.729	8818.89
905.042	8700.03
905.356	8750.87
905.67	8780.02
905.984	8784.54
906.297	8723.75
906.611	8748.16
906.924	8749.52
907.237	8621.38
907.551	8594.27
907.864	8535.51
908.177	8561.95
908.491	8542.29
908.804	8436.3
909.117	8416.42
909.43	8480.14
909.743	8403.31
910.056	8385.01
910.368	8366.7
910.681	8389.07
910.994	8277.89
911.307	8314.72
911.619	8197.44
911.932	8255.74
912.244	8171
912.557	8232.69
912.869	8118.35
913.181	8038.8
913.494	8074.73
913.806	8036.31
914.118	8023.66
914.43	7941.85
914.742	7886.71
915.054	7889.43
915.366	7839.48
915.678	7764.68
915.99	7765.36
916.302	7644.91
916.613	7620.28
916.925	7639.94
917.236	7630.22
917.548	7563.11
917.859	7545.25
918.171	7462.54
918.482	7451.24
918.794	7377.12
919.105	7381.64
919.416	7289.44
919.727	7337.8
920.038	7305.94
920.349	7152.27
920.66	7175.77
920.971	7142.78
921.282	7148.88
921.593	7068.43
921.903	6966.74
922.214	6985.49
922.525	7020.97
922.835	6930.81
923.146	6877.93
923.456	6839.51
923.767	6836.8
924.077	6811.04
924.387	6788.44
924.697	6759.51
925.008	6681.1
925.318	6744.14
925.628	6738.95
925.938	6670.7
926.248	6657.14
926.558	6549.57
926.867	6589.12
927.177	6552.06
927.487	6523.13
927.796	6459.63
928.106	6490.14
928.416	6452.17
928.725	6445.4
929.034	6402.01
929.344	6400.88
929.653	6355.45
929.962	6309.58
930.271	6297.15
930.581	6285.17
930.89	6348.9
931.199	6252.63
931.508	6249.47
931.817	6222.58
932.125	6243.14
932.434	6220.77
932.743	6143.71
933.051	6190.03
933.36	6116.14
933.669	6086.99
933.977	6120.43
934.286	6096.93
934.594	6051.73
934.902	5976.48
935.21	6008.12
935.519	5998.4
935.827	5983.71
936.135	5941
936.443	5909.59
936.751	5853.32
937.059	5851.96
937.367	5862.81
937.674	5845.86
937.982	5793.66
938.29	5721.57
938.597	5734.45
938.905	5644.74
939.213	5617.39
939.52	5649.48
939.827	5659.88
940.135	5585.31
940.442	5572.65
940.749	5504.18
941.056	5532.43
941.363	5489.26
941.67	5476.83
941.977	5411.75
942.284	5362.71
942.591	5333.79
942.898	5320.45
943.205	5325.42
943.511	5309.15
943.818	5279.55
944.125	5244.07
944.431	5163.17
944.738	5185.54
945.044	5125.66
945.35	5060.57
945.657	5086.79
945.963	5082.27
946.269	5025.09
946.575	5034.36
946.881	4980.8
947.187	4925.21
947.493	4937.64
947.799	4910.29
948.105	4879.79
948.41	4864.87
948.716	4833.01
949.022	4852.89
949.327	4753.24
949.633	4765.67
949.938	4747.81
950.244	4773.58
950.549	4708.94
950.854	4725.44
951.16	4688.83
951.465	4659
951.77	4655.39
952.075	4635.5
952.38	4637.08
952.685	4587.14
952.99	4568.38
953.294	4596.18
953.599	4532.68
953.904	4541.04
954.209	4489.51
954.513	4514.37
954.818	4457.2
955.122	4425.34
955.426	4483.19
955.731	4472.57
956.035	4463.3
956.339	4400.93
956.643	4417.88
956.948	4385.56
957.252	4413.81
957.556	4403.87
957.86	4391.66
958.163	4346.47
958.467	4304.21
958.771	4313.7
959.075	4324.77
959.378	4277.99
959.682	4251.1
959.985	4214.49
960.289	4241.16
960.592	4199.13
960.896	4177.21
961.199	4200.48
961.502	4179.69
961.805	4145.57
962.108	4168.62
962.411	4096.76
962.714	4041.16
963.017	4054.27
963.32	4089.53
963.623	4046.14
963.926	4036.87
964.228	3977.44
964.531	3964.56
964.833	3988.74
965.136	3949.64
965.438	3958.68
965.741	3904.67
966.043	3875.29
966.345	3824.9
966.648	3833.71
966.95	3804.11
967.252	3780.38
967.554	3779.25
967.856	3757.78
968.158	3712.13
968.46	3714.39
968.761	3665.81
969.063	3681.17
969.365	3644.79
969.666	3610.89
969.968	3590.1
970.269	3600.95
970.571	3606.15
970.872	3575.19
971.174	3527.96
971.475	3574.06
971.776	3554.17
972.077	3525.47
972.378	3524.12
972.679	3435.76
972.98	3440.05
973.281	3460.39
973.582	3424.91
973.883	3428.98
974.183	3362.54
974.484	3362.54
974.785	3341.97
975.085	3352.14
975.386	3340.39
975.686	3338.58
975.986	3309.88
976.287	3280.28
976.587	3237.8
976.887	3245.25
977.187	3242.77
977.487	3252.94
977.787	3213.84
978.087	3229.89
978.387	3223.79
978.687	3205.71
978.987	3175.42
979.286	3136.33
979.586	3114.18
979.885	3142.21
980.185	3211.36
980.484	3150.11
980.784	3160.06
981.083	3097.46
981.382	3091.81
981.682	3104.24
981.981	3072.15
982.28	3072.83
982.579	3051.13
982.878	3065.82
983.177	3012.49
983.475	3012.94
983.774	3020.63
984.073	3020.4
984.372	2988.76
984.67	2975.66
984.969	2963.45
985.267	2945.6
985.566	2971.59
985.864	2963.45
986.162	2945.37
986.461	2915.09
986.759	2932.04
987.057	2877.13
987.355	2861.31
987.653	2850.69
987.951	2818.6
988.249	2855.43
988.547	2824.02
988.844	2823.12
989.142	2794.87
989.44	2791.03
989.737	2802.55
990.035	2790.35
990.332	2740.86
990.63	2746.06
990.927	2737.02
991.224	2731.14
991.521	2664.03
991.819	2650.69
992.116	2621.54
992.413	2671.71
992.71	2633.97
993.006	2627.42
993.303	2568.89
993.6	2608.43
993.897	2597.59
994.193	2562.79
994.49	2576.12
994.787	2508.1
995.083	2523.46
995.379	2514.88
995.676	2481.88
995.972	2481.88
996.268	2439.17
996.565	2452.05
996.861	2448.44
997.157	2417.7
997.453	2429.46
997.749	2403.47
998.044	2348.33
998.34	2380.19
998.636	2352.4
998.932	2342.68
999.227	2286.63
999.523	2296.13
999.818	2275.56
1000.114	2308.56
1000.409	2269.46
1000.704	2259.29
1001	2262.45
1001.295	2223.36
1001.59	2217.94
1001.885	2241.66
1002.18	2205.28
1002.475	2198.5
1002.77	2169.8
1003.065	2158.73
1003.359	2126.19
1003.654	2152.63
1003.949	2155.56
1004.243	2150.37
1004.538	2118.73
1004.832	2114.89
1005.127	2104.49
1005.421	2103.36
1005.715	2062.91
1006.009	2050.93
1006.304	2067.66
1006.598	2047.77
1006.892	2025.4
1007.186	1994.21
1007.48	2013.65
1007.773	2027.66
1008.067	2013.87
1008.361	1985.63
1008.655	1978.85
1008.948	1980.65
1009.242	1953.99
1009.535	1936.81
1009.829	1932.75
1010.122	1942.69
1010.415	1947.66
1010.708	1934.78
1011.001	1947.21
1011.295	1916.02
1011.588	1889.58
1011.881	1850.04
1012.173	1842.35
1012.466	1889.13
1012.759	1865.4
1013.052	1865.18
1013.344	1856.59
1013.637	1820.43
1013.93	1825.86
1014.222	1796.25
1014.514	1814.56
1014.807	1800.77
1015.099	1808.46
1015.391	1794.22
1015.683	1740.66
1015.976	1755.12
1016.268	1686.42
1016.56	1709.93
1016.851	1695.46
1017.143	1677.16
1017.435	1685.52
1017.727	1660.21
1018.018	1675.58
1018.31	1660.21
1018.602	1624.05
1018.893	1632.19
1019.185	1639.42
1019.476	1606.65
1019.767	1619.53
1020.058	1608.91
1020.35	1577.05
1020.641	1581.79
1020.932	1544.51
1021.223	1563.72
1021.514	1549.93
1021.804	1530.5
1022.095	1522.36
1022.386	1526.43
1022.677	1484.17
1022.967	1483.49
1023.258	1472.19
1023.548	1490.05
1023.839	1459.09
1024.129	1426.09
1024.419	1455.7
1024.709	1427
1025	1422.02
1025.29	1434.23
1025.58	1408.01
1025.87	1375.7
1026.16	1389.48
1026.449	1384.29
1026.739	1337.73
1027.029	1368.01
1027.319	1337.73
1027.608	1325.53
1027.898	1320.11
1028.187	1322.59
1028.477	1307.9
1028.766	1299.09
1029.055	1281.24
1029.344	1298.64
1029.634	1251.18
1029.923	1250.73
1030.212	1275.14
1030.501	1231.3
1030.79	1233.56
1031.078	1197.4
1031.367	1208.7
1031.656	1207.12
1031.945	1198.3
1032.233	1225.19
1032.522	1196.95
1032.81	1201.69
1033.099	1168.47
1033.387	1159.66
1033.675	1146.33
1033.963	1163.95
1034.251	1150.39
1034.54	1156.5
1034.828	1133.22
1035.116	1181.81
1035.403	1143.39
1035.691	1117.17
1035.979	1109.72
1036.267	1104.52
1036.554	1109.72
1036.842	1080.34
1037.129	1076.72
1037.417	1083.95
1037.704	1069.94
1037.992	1068.81
1038.279	1056.38
1038.566	1050.28
1038.853	1050.28
1039.14	1050.28
