Data from blue_surface_keyboard_FLMS001491_087.txt Node
Date: Tue Feb 07 11:13:47 GMT 2017
User: dcchb
Spectrometer: FLMS00149
Trigger mode: 0
Integration Time (sec): 2.000000E-2
Scans to average: 10
Electric dark correction enabled: true
Nonlinearity correction enabled: false
Boxcar width: 0
XAxis mode: Wavelengths
Number of Pixels in Spectrum: 2048
>>>>>Begin Spectral Data<<<<<
341.393	-16.96
341.776	-16.96
342.16	-16.96
342.543	-76.62
342.927	-78.43
343.31	-82.95
343.693	-90.63
344.077	-79.79
344.46	-56.51
344.843	-59.22
345.226	-33.46
345.61	-6.79
345.993	-11.77
346.376	-0.92
346.759	15.35
347.142	25.3
347.525	40.89
347.908	75.46
348.291	90.15
348.674	86.99
349.057	87.89
349.44	134.67
349.823	142.58
350.206	157.27
350.588	158.63
350.971	185.07
351.354	225.29
351.737	209.92
352.119	232.52
352.502	226.65
352.884	245.4
353.267	277.49
353.65	289.7
354.032	279.07
354.414	295.8
354.797	297.15
355.179	313.42
355.562	294.44
355.944	299.64
356.326	314.78
356.709	315.01
357.091	316.59
357.473	322.69
357.855	324.5
358.238	335.57
358.62	319.07
359.002	319.3
359.384	312.52
359.766	321.33
360.148	314.55
360.53	308
360.912	324.72
361.294	308.68
361.676	305.97
362.057	310.03
362.439	311.39
362.821	299.64
363.203	284.72
363.584	295.8
363.966	298.06
364.348	310.94
364.729	299.41
365.111	283.82
365.493	295.57
365.874	313.2
366.256	287.66
366.637	312.97
367.019	283.59
367.4	313.65
367.781	283.59
368.163	281.79
368.544	305.97
368.925	289.47
369.306	290.6
369.688	275.01
370.069	271.17
370.45	292.41
370.831	293.54
371.212	308.45
371.593	276.81
371.974	293.31
372.355	276.59
372.736	258.28
373.117	273.2
373.498	287.44
373.879	290.83
374.26	281.11
374.641	285.18
375.021	276.14
375.402	280.2
375.783	307.32
376.163	273.65
376.544	300.32
376.925	298.06
377.305	289.92
377.686	276.59
378.066	304.61
378.447	297.83
378.827	299.86
379.208	282.69
379.588	289.7
379.968	294.67
380.349	315.01
380.729	310.49
381.109	304.38
381.489	311.84
381.87	301.67
382.25	295.8
382.63	290.15
383.01	312.52
383.39	314.55
383.77	305.74
384.15	302.12
384.53	311.84
384.91	300.99
385.29	328.56
385.67	307.1
386.049	299.64
386.429	318.62
386.809	309.13
387.189	303.71
387.568	315.91
387.948	316.59
388.328	306.42
388.707	308.23
389.087	314.33
389.466	291.96
389.846	336.93
390.225	333.99
390.605	305.74
390.984	316.14
391.363	327.43
391.743	334.44
392.122	295.12
392.501	326.98
392.881	326.98
393.26	336.7
393.639	330.82
394.018	326.76
394.397	310.71
394.776	340.54
395.155	352.07
395.534	322.46
395.913	327.89
396.292	341.67
396.671	330.15
397.05	327.89
397.429	341.45
397.808	346.87
398.186	339.86
398.565	341.67
398.944	330.82
399.323	352.74
399.701	346.64
400.08	336.25
400.458	317.72
400.837	351.84
401.215	339.86
401.594	357.72
401.972	338.51
402.351	340.77
402.729	345.74
403.107	351.62
403.486	353.65
403.864	372.18
404.242	363.14
404.62	351.84
404.999	347.32
405.377	356.36
405.755	370.15
406.133	354.55
406.511	355.23
406.889	360.2
407.267	364.27
407.645	354.78
408.023	353.65
408.401	368.56
408.779	349.81
409.156	365.63
409.534	363.59
409.912	354.78
410.29	350.26
410.667	362.69
411.045	363.37
411.422	357.72
411.8	382.35
412.178	385.51
412.555	366.53
412.933	372.63
413.31	385.29
413.687	369.47
414.065	377.83
414.442	396.59
414.819	378.28
415.197	377.15
415.574	380.54
415.951	386.19
416.328	389.13
416.705	385.51
417.082	401.11
417.46	391.39
417.837	380.31
418.214	399.75
418.591	411.5
418.967	409.24
419.344	399.3
419.721	381.44
420.098	402.24
420.475	395.23
420.852	410.37
421.228	420.31
421.605	421.67
421.982	403.14
422.358	404.95
422.735	434.1
423.111	398.62
423.488	405.85
423.864	418.96
424.241	413.08
424.617	433.87
424.994	429.58
425.37	410.14
425.746	432.29
426.123	427.55
426.499	431.39
426.875	413.53
427.251	447.21
427.627	442.23
428.003	433.87
428.379	419.86
428.756	438.17
429.132	457.6
429.507	446.3
429.883	451.95
430.259	444.95
430.635	451.73
431.011	438.39
431.387	458.5
431.763	447.66
432.138	444.72
432.514	459.86
432.89	442.69
433.265	456.92
433.641	463.7
434.016	463.7
434.392	495.34
434.767	473.87
435.143	493.53
435.518	464.61
435.894	478.39
436.269	490.14
436.644	505.28
437.02	498.28
437.395	484.94
437.77	490.37
438.145	498.96
438.52	493.31
438.895	500.99
439.271	512.29
439.646	503.25
440.021	527.66
440.395	515
440.77	496.47
441.145	496.92
441.52	515.9
441.895	508
442.27	522.01
442.645	538.05
443.019	525.62
443.394	528.56
443.769	547.99
444.143	512.74
444.518	527.43
444.892	521.78
445.267	543.47
445.641	560.88
446.016	520.88
446.39	534.66
446.764	541.89
447.139	543.7
447.513	546.41
447.887	552.06
448.262	545.73
448.636	560.65
449.01	573.76
449.384	555.68
449.758	577.82
450.132	571.27
450.506	555.45
450.88	556.13
451.254	571.95
451.628	549.58
452.002	586.86
452.376	575.79
452.75	576.69
453.123	601.78
453.497	589.57
453.871	594.09
454.244	587.32
454.618	595.22
454.992	598.16
455.365	607.43
455.739	606.75
456.112	641.32
456.486	614.66
456.859	624.6
457.232	602.23
457.606	632.51
457.979	620.31
458.352	638.61
458.725	635.9
459.099	627.99
459.472	647.2
459.845	640.2
460.218	645.62
460.591	658.05
460.964	662.34
461.337	670.02
461.71	684.71
462.083	672.06
462.456	665.05
462.829	700.53
463.201	687.2
463.574	673.41
463.947	691.95
464.32	691.04
464.692	687.2
465.065	708.22
465.438	716.35
465.81	723.13
466.183	743.02
466.555	719.97
466.928	740.31
467.3	746.86
467.672	732.85
468.045	744.83
468.417	768.55
468.789	765.39
469.161	736.01
469.534	776.69
469.906	785.73
470.278	766.52
470.65	794.77
471.022	791.6
471.394	790.02
471.766	804.94
472.138	830.02
472.51	804.03
472.882	822.56
473.253	825.05
473.625	825.95
473.997	858.27
474.369	867.99
474.74	876.12
475.112	876.12
475.484	883.13
475.855	874.54
476.227	897.36
476.598	895.56
476.97	906.4
477.341	917.48
477.713	912.73
478.084	943.46
478.455	971.26
478.827	960.64
479.198	969.23
479.569	987.3
479.94	976.23
480.311	975.55
480.682	981.43
481.053	1022.11
481.424	1010.35
481.795	1038.15
482.166	1022.56
482.537	1052.39
482.908	1066.85
483.279	1072.95
483.65	1073.4
484.021	1079.28
484.391	1086.74
484.762	1098.26
485.133	1083.8
485.503	1090.58
485.874	1122.44
486.244	1148.2
486.615	1181.2
486.985	1145.49
487.356	1185.27
487.726	1195.89
488.097	1168.77
488.467	1172.16
488.837	1168.54
489.207	1179.16
489.578	1208.32
489.948	1232.04
490.318	1215.1
490.688	1231.37
491.058	1255.09
491.428	1263.68
491.798	1274.53
492.168	1293.51
492.538	1255.09
492.908	1283.34
493.278	1301.87
493.648	1280.86
494.017	1285.38
494.387	1326.5
494.757	1308.88
495.126	1302.78
495.496	1310.46
495.866	1295.32
496.235	1304.81
496.605	1316.79
496.974	1333.28
497.344	1334.87
497.713	1360.18
498.082	1344.58
498.452	1362.21
498.821	1355.2
499.19	1347.97
499.559	1358.59
499.928	1365.83
500.298	1395.88
500.667	1375.54
501.036	1389.78
501.405	1371.25
501.774	1370.12
502.143	1398.82
502.512	1410.12
502.88	1401.3
503.249	1397.01
503.618	1396.11
503.987	1403.11
504.356	1398.37
504.724	1400.85
505.093	1387.29
505.462	1425.03
505.83	1431.13
506.199	1421.19
506.567	1415.99
506.936	1432.49
507.304	1439.04
507.672	1457.35
508.041	1430.91
508.409	1458.25
508.777	1500.96
509.145	1436.56
509.514	1474.3
509.882	1479.95
510.25	1458.25
510.618	1477.24
510.986	1485.37
511.354	1479.04
511.722	1505.26
512.09	1474.52
512.458	1472.72
512.826	1500.51
513.193	1499.38
513.561	1475.88
513.929	1514.75
514.297	1488.53
514.664	1507.97
515.032	1517.91
515.4	1513.62
515.767	1532.6
516.135	1541.19
516.502	1530.34
516.869	1506.39
517.237	1545.71
517.604	1508.65
517.972	1522.21
518.339	1521.08
518.706	1566.95
519.073	1545.48
519.44	1551.81
519.808	1577.12
520.175	1539.61
520.542	1558.14
520.909	1529.44
521.276	1548.65
521.643	1564.46
522.009	1551.58
522.376	1583.45
522.743	1554.52
523.11	1574.86
523.477	1597.23
523.843	1566.95
524.21	1621.64
524.577	1597.01
524.943	1605.14
525.31	1604.69
525.676	1618.25
526.043	1620.51
526.409	1624.8
526.776	1630.45
527.142	1624.8
527.508	1636.33
527.874	1633.84
528.241	1640.39
528.607	1628.64
528.973	1663.67
529.339	1642.2
529.705	1648.98
530.071	1653.05
530.437	1644.91
530.803	1654.86
531.169	1679.49
531.535	1666.38
531.901	1702.09
532.267	1668.64
532.632	1674.97
532.998	1692.14
533.364	1676.33
533.73	1668.87
534.095	1659.38
534.461	1697.57
534.826	1680.17
535.192	1711.13
535.557	1698.47
535.923	1686.72
536.288	1703.44
536.653	1677
537.019	1695.99
537.384	1686.04
537.749	1731.24
538.114	1728.3
538.479	1714.07
538.845	1707.29
539.21	1698.47
539.575	1698.02
539.94	1700.73
540.305	1706.83
540.67	1724.91
541.034	1693.73
541.399	1697.34
541.764	1715.2
542.129	1714.29
542.494	1724.01
542.858	1718.58
543.223	1710.22
543.587	1728.08
543.952	1721.97
544.316	1698.25
544.681	1742.76
545.045	1717
545.41	1727.85
545.774	1720.84
546.138	1715.65
546.503	1744.35
546.867	1714.07
547.231	1709.55
547.595	1708.87
547.959	1726.49
548.324	1741.86
548.688	1731.01
549.052	1754.06
549.416	1702.31
549.779	1730.56
550.143	1754.97
550.507	1731.24
550.871	1757.68
551.235	1735.31
551.599	1737.12
551.962	1758.13
552.326	1746.38
552.689	1741.86
553.053	1738.92
553.417	1753.61
553.78	1746.83
554.143	1765.59
554.507	1763.56
554.87	1726.72
555.234	1777.11
555.597	1757.23
555.96	1783.44
556.323	1771.24
556.686	1733.5
557.05	1743.44
557.413	1765.82
557.776	1743.89
558.139	1775.98
558.502	1780.5
558.865	1762.43
559.228	1773.95
559.59	1807.62
559.953	1776.89
560.316	1810.11
560.679	1799.26
561.041	1797
561.404	1772.37
561.767	1811.24
562.129	1822.08
562.492	1825.25
562.854	1801.52
563.217	1798.36
563.579	1774.18
563.941	1783.44
564.304	1797.68
564.666	1815.98
565.028	1795.64
565.39	1856.89
565.753	1824.8
566.115	1832.48
566.477	1808.3
566.839	1838.81
567.201	1845.36
567.563	1851.46
567.925	1832.93
568.287	1844.23
568.648	1867.06
569.01	1859.37
569.372	1848.07
569.734	1843.1
570.095	1854.85
570.457	1869.99
570.819	1843.55
571.18	1861.63
571.542	1874.51
571.903	1881.29
572.265	1875.64
572.626	1876.09
572.987	1872.7
573.349	1879.94
573.71	1880.16
574.071	1915.87
574.432	1895.08
574.794	1930.56
575.155	1919.94
575.516	1878.35
575.877	1889.88
576.238	1924.46
576.599	1900.05
576.96	1892.82
577.32	1900.5
577.681	1905.25
578.042	1924.23
578.403	1923.1
578.763	1908.41
579.124	1936.43
579.485	1896.21
579.845	1926.26
580.206	1908.41
580.566	1957.9
580.927	1916.55
581.287	1945.25
581.648	1947.28
582.008	1939.37
582.368	1919.94
582.728	1936.66
583.089	1925.58
583.449	1932.82
583.809	1959.93
584.169	1948.18
584.529	1908.41
584.889	1944.34
585.249	1966.26
585.609	1911.35
585.969	1938.01
586.329	1949.09
586.688	1958.13
587.048	1949.54
587.408	1962.42
587.768	1942.08
588.127	1948.64
588.487	1951.12
588.846	1917.22
589.206	1970.1
589.565	1957.9
589.925	1977.34
590.284	1950.44
590.643	1950.67
591.003	1975.98
591.362	1936.21
591.721	1962.87
592.08	1969.88
592.44	1998.8
592.799	1959.26
593.158	1975.3
593.517	1965.13
593.876	1967.17
594.235	1980.27
594.593	1961.06
594.952	1994.51
595.311	1974.62
595.67	1999.03
596.029	1999.71
596.387	1978.46
596.746	2000.61
597.104	2007.16
597.463	1964.45
597.822	1992.48
598.18	1989.99
598.538	1954.96
598.897	1946.38
599.255	1959.71
599.613	2050.33
599.972	2021.18
600.33	2032.47
600.688	2013.27
601.046	2010.1
601.404	1994.06
601.762	1979.14
602.12	2013.27
602.478	2007.39
602.836	2051.46
603.194	1994.96
603.552	1976.66
603.91	2028.41
604.268	2023.44
604.625	2004
604.983	2028.41
605.341	1997.45
605.698	2033.6
606.056	2039.03
606.413	2028.18
606.771	2044
607.128	2043.1
607.485	2023.21
607.843	2038.8
608.2	2030.44
608.557	2040.38
608.914	2023.89
609.272	2042.19
609.629	2085.81
609.986	2092.81
610.343	2072.25
610.7	2061.17
611.057	2075.86
611.414	2052.59
611.771	2058.46
612.127	2103.66
612.484	2080.84
612.841	2100.95
613.198	2092.13
613.554	2099.82
613.911	2087.61
614.267	2098.24
614.624	2109.53
614.98	2090.1
615.337	2093.72
615.693	2106.15
616.05	2091
616.406	2114.96
616.762	2131.68
617.118	2095.52
617.475	2103.89
617.831	2147.27
618.187	2136.88
618.543	2126.48
618.899	2124.68
619.255	2171.23
619.611	2136.2
619.967	2147.73
620.323	2151.34
620.678	2165.58
621.034	2128.29
621.39	2137.1
621.746	2127.84
622.101	2141.4
622.457	2160.38
622.812	2172.58
623.168	2178.23
623.523	2164.45
623.879	2200.83
624.234	2153.38
624.589	2189.76
624.945	2154.28
625.3	2169.42
625.655	2166.71
626.01	2207.39
626.365	2193.6
626.72	2191.79
627.075	2188.63
627.43	2218.23
627.785	2183.21
628.14	2194.05
628.495	2201.74
628.85	2168.29
629.205	2206.03
629.559	2189.31
629.914	2184.11
630.269	2211.91
630.623	2242.41
630.978	2208.74
631.332	2214.39
631.687	2218.68
632.041	2218.91
632.396	2202.19
632.75	2235.18
633.104	2248.51
633.459	2251.45
633.813	2290.55
634.167	2249.87
634.521	2225.46
634.875	2261.17
635.229	2249.42
635.583	2260.49
635.937	2237.89
636.291	2238.57
636.645	2283.54
636.999	2272.92
637.352	2283.32
637.706	2320.15
638.06	2302.07
638.413	2294.16
638.767	2291
639.121	2286.93
639.474	2278.8
639.828	2324.44
640.181	2314.28
640.534	2301.85
640.888	2309.08
641.241	2302.98
641.594	2341.62
641.947	2330.09
642.301	2317.21
642.654	2317.44
643.007	2347.72
643.36	2346.59
643.713	2375.52
644.066	2377.55
644.419	2370.32
644.771	2361.96
645.124	2355.4
645.477	2353.14
645.83	2353.37
646.182	2357.66
646.535	2350.66
646.888	2357.44
647.24	2343.65
647.593	2393.82
647.945	2380.49
648.298	2411
648.65	2387.04
649.002	2383.88
649.355	2418.68
649.707	2402.18
650.059	2438.34
650.411	2447.83
650.763	2476.98
651.115	2490.99
651.467	2508.85
651.819	2515.85
652.171	2560.37
652.523	2523.08
652.875	2559.69
653.227	2546.59
653.578	2580.03
653.93	2556.08
654.282	2591.56
654.633	2583.19
654.985	2629.3
655.337	2624.55
655.688	2632.46
656.039	2599.92
656.391	2614.38
656.742	2653.48
657.094	2657.77
657.445	2707.26
657.796	2670.65
658.147	2656.64
658.498	2666.13
658.849	2710.42
659.2	2706.13
659.551	2753.59
659.902	2745.22
660.253	2752.91
660.604	2754.94
660.955	2772.34
661.306	2805.11
661.656	2810.08
662.007	2785.45
662.358	2813.7
662.708	2841.27
663.059	2862.96
663.409	2875.16
663.76	2873.36
664.11	2912
664.461	2937.31
664.811	2875.62
665.161	2961.72
665.511	2940.7
665.862	2965.78
666.212	2934.37
666.562	2988.16
666.912	3000.13
667.262	2988.83
667.612	3024.31
667.962	3015.05
668.312	3062.28
668.662	3050.53
669.011	3060.7
669.361	3115.61
669.711	3093.92
670.06	3103.41
670.41	3097.08
670.76	3117.64
671.109	3152.22
671.459	3136.4
671.808	3125.78
672.157	3172.78
672.507	3156.74
672.856	3166.23
673.205	3161.48
673.554	3207.59
673.904	3241.93
674.253	3270.18
674.602	3237.19
674.951	3244.65
675.3	3219.11
675.649	3312.67
675.998	3300.69
676.346	3273.8
676.695	3291.42
677.044	3312.22
677.393	3298.66
677.741	3388.37
678.09	3359.67
678.438	3349.5
678.787	3408.03
679.135	3373.68
679.484	3387.24
679.832	3496.84
680.181	3434.7
680.529	3459.33
680.877	3462.72
681.225	3456.17
681.573	3523.96
681.922	3462.95
682.27	3469.27
682.618	3517.86
682.966	3484.87
683.314	3503.4
683.661	3493.91
684.009	3488.48
684.357	3554.92
684.705	3551.53
685.053	3527.8
685.4	3581.36
685.748	3559.89
686.095	3542.49
686.443	3545.66
686.79	3627.69
687.138	3579.55
687.485	3623.85
687.832	3592.43
688.18	3608.93
688.527	3593.11
688.874	3649.61
689.221	3629.95
689.568	3640.57
689.915	3661.13
690.262	3653.22
690.609	3630.17
690.956	3627.46
691.303	3652.55
691.65	3649.38
691.997	3652.55
692.344	3648.7
692.69	3667.01
693.037	3664.52
693.383	3664.07
693.73	3669.49
694.077	3654.81
694.423	3655.26
694.769	3635.37
695.116	3623.62
695.462	3644.86
695.808	3653.9
696.155	3661.58
696.501	3685.31
696.847	3641.47
697.193	3631.3
697.539	3685.31
697.885	3683.05
698.231	3621.36
698.577	3612.55
698.923	3677.63
699.269	3655.48
699.614	3622.49
699.96	3652.32
700.306	3610.51
700.651	3617.97
700.997	3608.25
701.342	3605.31
701.688	3574.13
702.033	3645.09
702.379	3664.97
702.724	3631.3
703.069	3625.43
703.415	3639.44
703.76	3610.96
704.105	3605.77
704.45	3567.35
704.795	3582.04
705.14	3559.89
705.485	3552.66
705.83	3535.94
706.175	3577.52
706.52	3596.5
706.865	3559.67
707.209	3534.58
707.554	3563.96
707.899	3556.95
708.243	3594.24
708.588	3563.73
708.932	3513.11
709.277	3553.11
709.621	3566.45
709.966	3521.02
710.31	3601.25
710.654	3514.02
710.998	3559.21
711.342	3551.3
711.687	3528.93
712.031	3528.93
712.375	3530.51
712.719	3542.04
713.063	3546.11
713.407	3515.6
713.75	3529.16
714.094	3492.55
714.438	3518.09
714.782	3499.78
715.125	3488.48
715.469	3489.39
715.812	3483.06
716.156	3510.85
716.499	3495.26
716.843	3516.96
717.186	3455.49
717.53	3491.87
717.873	3515.83
718.216	3484.41
718.559	3492.32
718.902	3475.15
719.246	3485.32
719.589	3510.63
719.932	3497.07
720.275	3509.72
720.617	3532.77
720.96	3508.37
721.303	3481.93
721.646	3495.04
721.989	3479.22
722.331	3507.46
722.674	3500.68
723.016	3472.44
723.359	3504.3
723.701	3483.28
724.044	3506.56
724.386	3474.92
724.729	3518.09
725.071	3487.8
725.413	3517.18
725.755	3478.54
726.097	3482.61
726.439	3496.62
726.782	3486.67
727.124	3530.29
727.465	3472.44
727.807	3495.26
728.149	3523.28
728.491	3495.26
728.833	3489.61
729.175	3477.86
729.516	3509.95
729.858	3530.74
730.199	3515.83
730.541	3512.44
730.882	3507.46
731.224	3525.32
731.565	3541.14
731.906	3489.84
732.248	3540.01
732.589	3517.63
732.93	3533
733.271	3530.74
733.612	3546.11
733.953	3518.09
734.294	3498.42
734.635	3503.17
734.976	3534.36
735.317	3515.15
735.658	3541.59
735.999	3567.8
736.339	3559.67
736.68	3550.63
737.021	3574.13
737.361	3611.42
737.702	3590.63
738.042	3601.7
738.383	3608.48
738.723	3621.81
739.063	3616.61
739.404	3588.37
739.744	3622.94
740.084	3610.96
740.424	3639.21
740.764	3650.06
741.104	3635.37
741.444	3646.67
741.784	3625.2
742.124	3662.04
742.464	3665.2
742.804	3678.76
743.143	3690.51
743.483	3712.66
743.823	3680.34
744.162	3705.43
744.502	3723.5
744.841	3731.87
745.181	3752.2
745.52	3791.75
745.86	3795.14
746.199	3794.91
746.538	3775.93
746.877	3808.7
747.216	3850.73
747.556	3833.11
747.895	3856.16
748.234	3880.34
748.573	3897.06
748.911	3923.95
749.25	3901.13
749.589	3938.64
749.928	3956.72
750.267	3933.89
750.605	3967.11
750.944	3994.68
751.283	3977.28
751.621	4055.7
751.96	4032.2
752.298	4064.29
752.636	4079.43
752.975	4105.87
753.313	4104.51
753.651	4124.62
753.989	4131.18
754.327	4143.38
754.666	4139.54
755.004	4162.14
755.342	4236.94
755.679	4257.5
756.017	4248.91
756.355	4276.26
756.693	4279.87
757.031	4273.55
757.368	4281
757.706	4317.61
758.044	4335.92
758.381	4321
758.719	4382.47
759.056	4433.09
759.394	4415.91
759.731	4445.97
760.068	4459.08
760.405	4414.11
760.743	4443.48
761.08	4504.95
761.417	4456.59
761.754	4523.48
762.091	4497.72
762.428	4522.8
762.765	4498.17
763.102	4551.5
763.438	4546.53
763.775	4500.43
764.112	4543.14
764.449	4591.96
764.785	4575.68
765.122	4594.67
765.458	4565.06
765.795	4586.53
766.131	4611.84
766.467	4564.16
766.804	4562.8
767.14	4558.51
767.476	4594.22
767.812	4590.37
768.148	4597.83
768.485	4595.12
768.821	4593.54
769.157	4558.28
769.492	4602.12
769.828	4619.07
770.164	4550.15
770.5	4610.71
770.836	4582.92
771.171	4559.64
771.507	4518.29
771.842	4543.14
772.178	4540.43
772.513	4561.45
772.849	4560.32
773.184	4543.82
773.519	4509.47
773.855	4497.27
774.19	4511.51
774.525	4490.94
774.86	4483.48
775.195	4486.42
775.53	4466.54
775.865	4478.74
776.2	4442.58
776.535	4411.62
776.87	4465.86
777.205	4398.06
777.539	4395.58
777.874	4391.06
778.209	4407.33
778.543	4377.05
778.878	4394.45
779.212	4390.6
779.547	4403.94
779.881	4363.26
780.215	4349.93
780.55	4402.58
780.884	4276.26
781.218	4275.58
781.552	4321.23
781.886	4262.25
782.22	4269.7
782.554	4240.78
782.888	4220.21
783.222	4205.98
783.556	4142.02
783.889	4237.61
784.223	4112.42
784.557	4188.35
784.89	4206.43
785.224	4165.75
785.557	4157.16
785.891	4133.44
786.224	4144.51
786.558	4139.76
786.891	4118.3
787.224	4079.65
787.557	4094.12
787.891	4062.93
788.224	4085.75
788.557	4036.49
788.89	4066.55
789.223	4034.91
789.556	4024.51
789.888	4036.26
790.221	3985.64
790.554	3958.53
790.887	3945.19
791.219	3926.66
791.552	3940
791.884	3941.13
792.217	3942.71
792.549	3947.23
792.882	3906.55
793.214	3872.88
793.546	3892.54
793.879	3895.48
794.211	3804.18
794.543	3890.96
794.875	3857.29
795.207	3849.38
795.539	3842.14
795.871	3827.23
796.203	3813.44
796.535	3800.56
796.867	3788.36
797.198	3766.44
797.53	3736.16
797.862	3706.33
798.193	3789.26
798.525	3740.9
798.856	3738.87
799.188	3695.93
799.519	3718.31
799.85	3709.04
800.182	3661.36
800.513	3717.4
800.844	3640.34
801.175	3641.02
801.506	3676.95
801.837	3593.11
802.168	3575.94
802.499	3643.96
802.83	3578.87
803.161	3561.47
803.491	3578.65
803.822	3575.71
804.153	3570.29
804.483	3542.72
804.814	3549.72
805.145	3562.83
805.475	3561.47
805.805	3518.09
806.136	3529.61
806.466	3492.32
806.796	3510.63
807.126	3473.57
807.457	3462.04
807.787	3498.88
808.117	3495.26
808.447	3448.71
808.777	3448.03
809.107	3445.32
809.436	3456.39
809.766	3427.47
810.096	3422.72
810.426	3444.19
810.755	3418.2
811.085	3389.5
811.414	3423.17
811.744	3366.68
812.073	3392.44
812.403	3344.53
812.732	3340.91
813.061	3384.08
813.39	3347.69
813.719	3313.57
814.049	3381.14
814.378	3324.87
814.707	3345.21
815.036	3292.78
815.365	3288.71
815.693	3274.02
816.022	3290.29
816.351	3281.71
816.68	3210.97
817.008	3282.16
817.337	3250.75
817.665	3221.37
817.994	3236.51
818.322	3229.28
818.651	3222.5
818.979	3229.96
819.307	3241.03
819.636	3192.9
819.964	3212.33
820.292	3213.91
820.62	3165.78
820.948	3181.82
821.276	3209.84
821.604	3228.83
821.932	3166.23
822.259	3208.94
822.587	3185.21
822.915	3222.95
823.243	3200.81
823.57	3183.18
823.898	3173.24
824.225	3172.11
824.553	3201.26
824.88	3147.25
825.207	3206.91
825.535	3183.63
825.862	3204.42
826.189	3167.81
826.516	3204.65
826.843	3232.44
827.17	3183.4
827.497	3169.85
827.824	3192.9
828.151	3226.57
828.478	3227.7
828.805	3231.09
829.131	3172.78
829.458	3172.11
829.785	3163.74
830.111	3146.57
830.438	3184.31
830.764	3183.18
831.09	3169.85
831.417	3172.33
831.743	3177.53
832.069	3172.78
832.395	3166.23
832.722	3162.16
833.048	3177.76
833.374	3156.51
833.7	3170.07
834.026	3194.25
834.351	3204.42
834.677	3174.82
835.003	3134.37
835.329	3143.41
835.654	3137.76
835.98	3125.78
836.306	3149.96
836.631	3122.84
836.956	3137.3
837.282	3138.66
837.607	3097.53
837.932	3140.92
838.258	3125.33
838.583	3096.4
838.908	3094.14
839.233	3097.31
839.558	3109.96
839.883	3085.78
840.208	3090.3
840.533	3045.33
840.858	3074.71
841.182	3080.58
841.507	3100.24
841.832	3042.62
842.156	3076.06
842.481	3050.98
842.805	3074.93
843.13	3033.8
843.454	2976.18
843.778	3015.27
844.103	3033.13
844.427	3036.97
844.751	3058.21
845.075	2964.65
845.399	3015.05
845.723	3003.3
846.047	2974.82
846.371	2948.83
846.695	2971.43
847.019	2930.98
847.343	2973.02
847.666	2945.22
847.99	2917.88
848.313	2915.16
848.637	2944.54
848.96	2850.76
849.284	2856.18
849.607	2863.87
849.931	2865.45
850.254	2838.33
850.577	2811.66
850.9	2816.41
851.223	2839.69
851.546	2817.54
851.869	2777.54
852.192	2807.6
852.515	2785
852.838	2768.73
853.161	2757.88
853.483	2767.82
853.806	2724.89
854.129	2719.69
854.451	2730.31
854.774	2718.33
855.096	2659.12
855.419	2686.24
855.741	2694.15
856.063	2673.36
856.385	2651.67
856.708	2705.45
857.03	2630.43
857.352	2659.35
857.674	2655.74
857.996	2679.24
858.318	2596.3
858.64	2632.01
858.961	2635.62
859.283	2629.75
859.605	2599.92
859.926	2598.79
860.248	2578.22
860.57	2603.08
860.891	2564.66
861.212	2573.48
861.534	2575.51
861.855	2560.82
862.176	2600.37
862.498	2558.56
862.819	2582.06
863.14	2531.44
863.461	2568.96
863.782	2529.41
864.103	2569.64
864.424	2566.92
864.745	2561.5
865.065	2548.85
865.386	2513.82
865.707	2543.2
866.027	2522.86
866.348	2490.09
866.668	2521.28
866.989	2512.01
867.309	2523.54
867.63	2529.41
867.95	2490.32
868.27	2498
868.59	2481.05
868.91	2491.67
869.23	2514.27
869.55	2504.33
869.87	2495.51
870.19	2449.19
870.51	2483.31
870.83	2477.21
871.15	2454.16
871.469	2453.25
871.789	2465.68
872.109	2453.48
872.428	2476.76
872.748	2459.58
873.067	2427.04
873.386	2463.2
873.706	2481.28
874.025	2445.8
874.344	2422.75
874.663	2431.79
874.982	2437.66
875.301	2429.75
875.62	2436.31
875.939	2413.71
876.258	2437.21
876.577	2398.57
876.896	2414.39
877.214	2396.08
877.533	2410.77
877.852	2383.65
878.17	2382.52
878.489	2396.76
878.807	2409.41
879.125	2367.38
879.444	2404.67
879.762	2361.51
880.08	2362.41
880.398	2377.55
880.716	2374.39
881.034	2366.93
881.352	2375.97
881.67	2359.25
881.988	2395.18
882.306	2356.08
882.624	2342.75
882.941	2271.34
883.259	2343.43
883.577	2363.77
883.894	2311.34
884.212	2331
884.529	2355.86
884.846	2308.4
885.164	2307.5
885.481	2306.14
885.798	2337.78
886.115	2291.45
886.432	2293.71
886.75	2305.69
887.067	2252.36
887.383	2280.38
887.7	2272.92
888.017	2278.57
888.334	2279.25
888.651	2248.97
888.967	2285.58
889.284	2227.05
889.6	2223.2
889.917	2257.33
890.233	2251
890.55	2216.42
890.866	2239.93
891.182	2224.56
891.498	2202.87
891.815	2218.23
892.131	2215.29
892.447	2207.61
892.763	2207.16
893.079	2182.98
893.395	2162.19
893.71	2178.69
894.026	2182.53
894.342	2182.98
894.657	2154.96
894.973	2168.74
895.289	2144.56
895.604	2128.97
895.92	2128.74
896.235	2099.37
896.55	2146.14
896.865	2117.44
897.181	2096.43
897.496	2119.03
897.811	2096.2
898.126	2104.79
898.441	2079.71
898.756	2076.09
899.071	2082.64
899.386	2094.39
899.7	2056.43
900.015	2062.3
900.33	2059.59
900.644	2055.3
900.959	2055.3
901.273	2015.53
901.588	2037.9
901.902	2004
902.216	2016.43
902.531	2007.62
902.845	1982.76
903.159	2004.23
903.473	1969.43
903.787	2015.07
904.101	1981.4
904.415	1964
904.729	1954.96
905.042	1974.62
905.356	1959.93
905.67	1925.81
905.984	1928.3
906.297	1929.43
906.611	1914.51
906.924	1937.79
907.237	1903.44
907.551	1872.48
907.864	1899.14
908.177	1895.08
908.491	1929.88
908.804	1881.97
909.117	1892.59
909.43	1892.14
909.743	1858.69
910.056	1875.87
910.368	1890.11
910.681	1837.68
910.994	1831.35
911.307	1827.96
911.619	1821.18
911.932	1843.78
912.244	1804.46
912.557	1833.16
912.869	1797.9
913.181	1807.4
913.494	1781.86
913.806	1787.74
914.118	1768.07
914.43	1784.57
914.742	1786.61
915.054	1751.35
915.366	1783.67
915.678	1766.04
915.99	1764.46
916.302	1752.71
916.613	1731.92
916.925	1756.55
917.236	1734.63
917.548	1716.55
917.859	1719.71
918.171	1700.73
918.482	1686.72
918.794	1674.52
919.105	1697.34
919.416	1697.57
919.727	1685.37
920.038	1674.52
920.349	1675.42
920.66	1651.02
920.971	1661.64
921.282	1643.56
921.593	1628.42
921.903	1624.58
922.214	1606.95
922.525	1670.45
922.835	1639.49
923.146	1624.35
923.456	1618.47
923.767	1611.24
924.077	1617.8
924.387	1614.63
924.697	1608.08
925.008	1611.02
925.318	1584.8
925.628	1570.79
925.938	1602.2
926.248	1547.74
926.558	1556.33
926.867	1582.32
927.177	1555.88
927.487	1537.35
927.796	1522.21
928.106	1529.89
928.416	1527.4
928.725	1519.72
929.034	1519.72
929.344	1502.09
929.653	1493.05
929.962	1503.22
930.271	1492.6
930.581	1476.11
930.89	1492.83
931.199	1488.31
931.508	1467.74
931.817	1488.99
932.125	1470.46
932.434	1472.04
932.743	1457.12
933.051	1454.18
933.36	1451.47
933.669	1432.49
933.977	1441.98
934.286	1455.54
934.594	1412.15
934.902	1402.43
935.21	1465.03
935.519	1422.32
935.827	1400.18
936.135	1427.97
936.443	1406.73
936.751	1357.69
937.059	1385.03
937.367	1386.16
937.674	1376.45
937.982	1354.07
938.29	1375.32
938.597	1347.3
938.905	1385.26
939.213	1373.51
939.52	1387.52
939.827	1352.49
940.135	1335.54
940.442	1338.26
940.749	1329.89
941.056	1329.44
941.363	1293.74
941.67	1312.04
941.977	1324.47
942.284	1287.64
942.591	1300.52
942.898	1287.86
943.205	1302.1
943.511	1305.49
943.818	1279.27
944.125	1307.97
944.431	1270.46
944.738	1293.96
945.044	1277.92
945.35	1260.52
945.657	1242.67
945.963	1266.62
946.269	1268.88
946.575	1288.99
946.881	1253.06
947.187	1245.83
947.493	1251.25
947.799	1243.79
948.105	1232.5
948.41	1223
948.716	1214.64
949.022	1210.8
949.327	1225.72
949.633	1198.37
949.938	1219.61
950.244	1193.4
950.549	1209.22
950.854	1199.73
951.16	1191.37
951.465	1196.34
951.77	1171.48
952.075	1174.42
952.38	1154.76
952.685	1168.99
952.99	1177.36
953.294	1146.62
953.599	1178.94
953.904	1151.82
954.209	1136.23
954.513	1119.96
954.818	1142.55
955.122	1129
955.426	1158.83
955.731	1174.87
956.035	1115.21
956.339	1126.51
956.643	1117.7
956.948	1105.49
957.252	1142.78
957.556	1119.73
957.86	1109.11
958.163	1108.66
958.467	1125.83
958.771	1103.69
959.075	1103.91
959.378	1078.38
959.682	1082.9
959.985	1065.49
960.289	1079.51
960.592	1083.8
960.896	1080.41
961.199	1060.75
961.502	1078.38
961.805	1064.14
962.108	1049.22
962.411	1062.1
962.714	1071.6
963.017	1081.99
963.32	1058.49
963.623	1038.15
963.926	1028.43
964.228	1044.48
964.531	1016.23
964.833	1033.63
965.136	1013.29
965.438	1018.04
965.741	1006.97
966.043	1000.41
966.345	1012.61
966.648	1022.56
966.95	1005.61
967.252	998.15
967.554	980.53
967.856	981.65
968.158	980.53
968.46	979.62
968.761	994.31
969.063	983.24
969.365	985.27
969.666	996.57
969.968	970.58
970.269	995.44
970.571	961.77
970.872	958.83
971.174	969
971.475	986.17
971.776	946.18
972.077	943.01
972.378	936.23
972.679	957.7
972.98	966.97
973.281	953.18
973.582	933.29
973.883	961.99
974.183	925.39
974.484	922.67
974.785	926.74
975.085	925.84
975.386	940.75
975.686	915.89
975.986	954.09
976.287	911.37
976.587	908.66
976.887	902.56
977.187	895.56
977.487	936.68
977.787	883.58
978.087	887.42
978.387	899.17
978.687	898.04
978.987	891.26
979.286	915.67
979.586	919.96
979.885	888.1
980.185	880.64
980.484	900.08
980.784	890.81
981.083	873.64
981.382	867.08
981.682	867.08
981.981	847.2
982.28	853.07
982.579	868.66
982.878	860.75
983.177	876.57
983.475	867.99
983.774	838.61
984.073	857.14
984.372	825.95
984.67	838.16
984.969	854.88
985.267	852.17
985.566	832.96
985.864	824.37
986.162	810.36
986.461	816.91
986.759	815.33
987.057	804.71
987.355	815.56
987.653	832.96
987.951	848.55
988.249	804.03
988.547	810.81
988.844	818.72
989.142	803.58
989.44	819.63
989.737	813.75
990.035	811.26
990.332	796.12
990.63	795.67
990.927	802
991.224	796.12
991.521	791.6
991.819	776.24
992.116	758.84
992.413	787.76
992.71	795.45
993.006	778.72
993.303	773.52
993.6	768.33
993.897	757.25
994.193	758.61
994.49	755.45
994.787	756.12
995.083	747.31
995.379	750.02
995.676	791.6
995.972	766.52
996.268	745.05
996.565	746.86
996.861	734.66
997.157	743.24
997.453	731.72
997.749	743.24
998.044	722
998.34	731.94
998.636	725.39
998.932	733.98
999.227	744.83
999.523	717.93
999.818	682.91
1000.114	709.8
1000.409	720.42
1000.704	711.15
1001	692.85
1001.295	685.17
1001.59	707.09
1001.885	703.47
1002.18	705.96
1002.475	701.89
1002.77	699.4
1003.065	692.17
1003.359	685.17
1003.654	694.43
1003.949	693.75
1004.243	676.8
1004.538	702.57
1004.832	667.99
1005.127	695.56
1005.421	677.48
1005.715	678.84
1006.009	662.12
1006.304	688.56
1006.598	665.73
1006.892	655.34
1007.186	663.92
1007.48	634.09
1007.773	638.39
1008.067	660.53
1008.361	630.48
1008.655	668.67
1008.948	651.27
1009.242	657.37
1009.535	644.04
1009.829	631.61
1010.122	644.26
1010.415	643.13
1010.708	630.03
1011.001	618.5
1011.295	634.77
1011.588	621.44
1011.881	606.52
1012.173	624.38
1012.466	607.65
1012.759	633.19
1013.052	609.46
1013.344	620.76
1013.637	607.88
1013.93	628.44
1014.222	616.47
1014.514	631.38
1014.807	580.08
1015.099	599.52
1015.391	592.96
1015.683	582.12
1015.976	588.9
1016.268	579.41
1016.56	605.85
1016.851	566.07
1017.143	575.79
1017.435	596.81
1017.727	573.98
1018.018	589.57
1018.31	554.1
1018.602	586.86
1018.893	585.73
1019.185	582.34
1019.476	586.86
1019.767	543.47
1020.058	577.82
1020.35	550.71
1020.641	555
1020.932	542.57
1021.223	554.32
1021.514	561.33
1021.804	560.2
1022.095	547.77
1022.386	541.89
1022.677	552.97
1022.967	551.38
1023.258	548.67
1023.548	538.95
1023.839	553.87
1024.129	521.55
1024.419	525.17
1024.709	536.02
1025	540.99
1025.29	534.66
1025.58	553.64
1025.87	514.1
1026.16	523.36
1026.449	518.62
1026.739	506.87
1027.029	518.84
1027.319	524.49
1027.608	505.51
1027.898	510.48
1028.187	504.15
1028.477	482.69
1028.766	513.19
1029.055	519.97
1029.344	513.64
1029.634	500.54
1029.923	507.32
1030.212	515.23
1030.501	535.79
1030.79	500.31
1031.078	475
1031.367	510.93
1031.656	501.89
1031.945	477.94
1032.233	481.78
1032.522	491.5
1032.81	503.48
1033.099	500.09
1033.387	463.48
1033.675	472.06
1033.963	494.21
1034.251	484.04
1034.54	472.06
1034.828	470.93
1035.116	474.32
1035.403	464.83
1035.691	484.04
1035.979	455.34
1036.267	490.59
1036.554	473.19
1036.842	441.78
1037.129	472.29
1037.417	474.32
1037.704	458.05
1037.992	461.89
1038.279	442.01
1038.566	440.65
1038.853	440.65
1039.14	440.65
