Data from blue_surface_keyboard_FLMS001491_025.txt Node
Date: Tue Feb 07 11:12:51 GMT 2017
User: dcchb
Spectrometer: FLMS00149
Trigger mode: 0
Integration Time (sec): 2.000000E-2
Scans to average: 10
Electric dark correction enabled: true
Nonlinearity correction enabled: false
Boxcar width: 0
XAxis mode: Wavelengths
Number of Pixels in Spectrum: 2048
>>>>>Begin Spectral Data<<<<<
341.393	-22.43
341.776	-22.43
342.16	-22.43
342.543	-52.03
342.927	-56.55
343.31	-72.37
343.693	-75.31
344.077	-57.68
344.46	-58.81
344.843	-27.85
345.226	-52.94
345.61	-21.07
345.993	-19.27
346.376	-2.09
346.759	9.43
347.142	26.16
347.525	54.63
347.908	48.53
348.291	62.31
348.674	74.97
349.057	111.35
349.44	135.76
349.823	142.31
350.206	155.19
350.588	180.28
350.971	190.22
351.354	207.85
351.737	231.12
352.119	240.39
352.502	225.47
352.884	261.41
353.267	251.91
353.65	262.08
354.032	300.05
354.414	288.52
354.797	299.14
355.179	305.47
355.562	292.82
355.944	288.3
356.326	287.85
356.709	299.82
357.091	295.3
357.473	330.56
357.855	313.16
358.238	327.84
358.62	303.89
359.002	320.39
359.384	312.93
359.766	327.62
360.148	319.94
360.53	311.12
360.912	333.27
361.294	298.92
361.676	311.8
362.057	312.48
362.439	310.9
362.821	310.67
363.203	309.77
363.584	303.44
363.966	293.27
364.348	298.01
364.729	298.47
365.111	276.09
365.493	311.8
365.874	293.72
366.256	292.82
366.637	296.21
367.019	283.1
367.4	307.96
367.781	284.46
368.163	291.01
368.544	275.87
368.925	270.9
369.306	294.17
369.688	291.46
370.069	295.53
370.45	296.21
370.831	292.37
371.212	298.24
371.593	291.24
371.974	294.63
372.355	285.13
372.736	291.69
373.117	284.91
373.498	301.63
373.879	303.21
374.26	291.91
374.641	295.75
375.021	290.56
375.402	285.13
375.783	304.12
376.163	303.89
376.544	293.72
376.925	296.21
377.305	296.21
377.686	290.78
378.066	291.01
378.447	292.82
378.827	288.75
379.208	301.18
379.588	317.9
379.968	281.29
380.349	288.98
380.729	283.1
381.109	292.14
381.489	290.11
381.87	286.49
382.25	307.73
382.63	303.66
383.01	315.19
383.39	316.09
383.77	299.82
384.15	300.5
384.53	319.94
384.91	298.01
385.29	307.28
385.67	304.79
386.049	288.75
386.429	303.21
386.809	318.13
387.189	311.35
387.568	323.1
387.948	286.04
388.328	319.48
388.707	316.55
389.087	323.32
389.466	303.89
389.846	306.83
390.225	313.61
390.605	320.39
390.984	323.78
391.363	300.05
391.743	311.35
392.122	318.58
392.501	324.45
392.881	325.81
393.26	330.56
393.639	318.35
394.018	316.32
394.397	334.85
394.776	326.04
395.155	338.47
395.534	345.92
395.913	308.86
396.292	339.6
396.671	326.49
397.05	346.15
397.429	344.34
397.808	347.05
398.186	351.57
398.565	334.4
398.944	334.4
399.323	323.55
399.701	318.81
400.08	312.48
400.458	336.66
400.837	341.4
401.215	348.18
401.594	336.21
401.972	337.11
402.351	344.57
402.729	340.73
403.107	341.86
403.486	349.54
403.864	345.25
404.242	330.56
404.62	344.79
404.999	361.74
405.377	346.15
405.755	338.47
406.133	355.64
406.511	356.32
406.889	351.35
407.267	355.41
407.645	360.39
408.023	380.05
408.401	375.98
408.779	368.07
409.156	373.94
409.534	353.15
409.912	358.58
410.29	343.44
410.667	340.95
411.045	360.84
411.422	376.88
411.8	359.03
412.178	336.88
412.555	367.62
412.933	382.76
413.31	383.21
413.687	373.27
414.065	395.19
414.442	381.85
414.819	409.88
415.197	390.89
415.574	394.51
415.951	382.53
416.328	375.07
416.705	380.05
417.082	378.01
417.46	381.85
417.837	386.37
418.214	369.88
418.591	389.99
418.967	397.9
419.344	382.53
419.721	390.22
420.098	415.98
420.475	399.71
420.852	394.51
421.228	400.38
421.605	395.87
421.982	400.84
422.358	424.79
422.735	415.98
423.111	405.58
423.488	392.25
423.864	439.03
424.241	417.11
424.617	422.31
424.994	403.77
425.37	432.25
425.746	427.73
426.123	415.53
426.499	442.64
426.875	423.21
427.251	412.59
427.627	425.47
428.003	422.08
428.379	429.08
428.756	440.84
429.132	416.66
429.507	414.85
429.883	428.41
430.259	452.14
430.635	444
431.011	449.65
431.387	463.21
431.763	459.37
432.138	466.6
432.514	471.8
432.89	458.24
433.265	458.01
433.641	448.29
434.016	476.54
434.392	485.13
434.767	477.9
435.143	487.39
435.518	482.64
435.894	442.64
436.269	469.54
436.644	477.22
437.02	488.29
437.395	453.04
437.77	496.2
438.145	470.89
438.52	488.52
438.895	492.13
439.271	494.17
439.646	490.33
440.021	505.92
440.395	507.05
440.77	477.9
441.145	503.89
441.52	505.92
441.895	516.31
442.27	512.47
442.645	509.08
443.019	517.44
443.394	525.35
443.769	517.9
444.143	526.26
444.518	527.39
444.892	514.05
445.267	519.03
445.641	538.69
446.016	526.71
446.39	538.23
446.764	529.2
447.139	533.94
447.513	555.41
447.887	547.95
448.262	529.65
448.636	553.6
449.01	540.04
449.384	569.87
449.758	535.07
450.132	542.98
450.506	560.15
450.88	557.89
451.254	556.31
451.628	547.27
452.002	552.25
452.376	553.6
452.75	563.09
453.123	563.54
453.497	600.83
453.871	579.59
454.244	599.02
454.618	584.79
454.992	595.41
455.365	587.27
455.739	613.94
456.112	610.55
456.486	612.36
456.859	614.84
457.232	601.96
457.606	606.71
457.979	645.58
458.352	614.62
458.725	617.33
459.099	629.08
459.472	632.24
459.845	614.62
460.218	618.68
460.591	641.06
460.964	639.25
461.337	642.86
461.71	636.76
462.083	688.74
462.456	660.72
462.829	672.02
463.201	654.62
463.574	645.58
463.947	678.34
464.32	696.42
464.692	691
465.065	663.65
465.438	688.96
465.81	694.61
466.183	701.62
466.555	715.63
466.928	701.39
467.3	723.09
467.672	720.15
468.045	703.88
468.417	723.77
468.789	730.77
469.161	752.01
469.534	736.65
469.906	738.91
470.278	775.52
470.65	741.62
471.022	777.55
471.394	775.52
471.766	766.48
472.138	779.36
472.51	794.5
472.882	795.4
473.253	795.85
473.625	804.89
473.997	797.44
474.369	807.38
474.74	828.62
475.112	829.98
475.484	848.28
475.855	862.07
476.227	874.04
476.598	859.58
476.97	866.36
477.341	868.17
477.713	875.4
478.084	899.58
478.455	900.48
478.827	902.74
479.198	894.84
479.569	941.61
479.94	967.38
480.311	941.61
480.682	956.08
481.053	977.77
481.424	988.84
481.795	995.85
482.166	987.94
482.537	1025
482.908	1015.06
483.279	1006.24
483.65	1010.99
484.021	1025.68
484.391	1054.38
484.762	1060.48
485.133	1057.99
485.503	1061.84
485.874	1077.66
486.244	1090.08
486.615	1078.79
486.985	1110.87
487.356	1108.16
487.726	1131.44
488.097	1144.09
488.467	1132.12
488.837	1137.31
489.207	1162.62
489.578	1163.75
489.948	1166.24
490.318	1165.56
490.688	1197.43
491.058	1206.24
491.428	1180.48
491.798	1207.37
492.168	1227.03
492.538	1194.94
492.908	1207.6
493.278	1199.01
493.648	1241.94
494.017	1247.14
494.387	1228.16
494.757	1231.55
495.126	1240.14
495.496	1251.66
495.866	1240.59
496.235	1234.26
496.605	1257.99
496.974	1267.93
497.344	1280.14
497.713	1252.11
498.082	1274.71
498.452	1294.37
498.821	1279.01
499.19	1310.19
499.559	1315.39
499.928	1281.04
500.298	1280.59
500.667	1311.77
501.036	1281.27
501.405	1305.45
501.774	1314.94
502.143	1318.33
502.512	1316.97
502.88	1318.1
503.249	1327.82
503.618	1340.25
503.987	1344.77
504.356	1337.54
504.724	1346.57
505.093	1331.43
505.462	1324.65
505.83	1338.89
506.199	1331.21
506.567	1345.9
506.936	1357.65
507.304	1373.01
507.672	1358.55
508.041	1363.07
508.409	1346.8
508.777	1371.88
509.145	1363.52
509.514	1382.73
509.882	1364.65
510.25	1385.9
510.618	1370.3
510.986	1394.03
511.354	1388.16
511.722	1383.86
512.09	1380.92
512.458	1385.67
512.826	1375.95
513.193	1363.98
513.561	1416.86
513.929	1398.1
514.297	1445.33
514.664	1411.21
515.032	1417.31
515.4	1432.67
515.767	1428.83
516.135	1435.16
516.502	1412.56
516.869	1435.39
517.237	1450.53
517.604	1413.69
517.972	1436.97
518.339	1430.41
518.706	1439.45
519.073	1440.13
519.44	1464.09
519.808	1473.13
520.175	1450.53
520.542	1484.65
520.909	1456.18
521.276	1463.86
521.643	1447.36
522.009	1477.19
522.376	1482.62
522.743	1471.54
523.11	1480.13
523.477	1495.72
523.843	1489.4
524.21	1477.87
524.577	1495.5
524.943	1510.86
525.31	1502.05
525.676	1510.41
526.043	1517.64
526.409	1519.45
526.776	1536.85
527.142	1533.24
527.508	1513.58
527.874	1533.46
528.241	1527.36
528.607	1538.89
528.973	1547.47
529.339	1532.56
529.705	1523.97
530.071	1541.15
530.437	1554.7
530.803	1560.13
531.169	1578.21
531.535	1572.56
531.901	1573.24
532.267	1574.37
532.632	1559.22
532.998	1557.87
533.364	1580.01
533.73	1567.59
534.095	1577.53
534.461	1563.29
534.826	1582.27
535.192	1582.27
535.557	1580.69
535.923	1566.91
536.288	1596.51
536.653	1608.71
537.019	1576.63
537.384	1599.45
537.749	1584.76
538.114	1594.7
538.479	1596.06
538.845	1608.71
539.21	1591.54
539.575	1595.38
539.94	1608.71
540.305	1604.87
540.67	1615.72
541.034	1596.06
541.399	1610.75
541.764	1589.96
542.129	1631.99
542.494	1596.06
542.858	1622.05
543.223	1641.93
543.587	1579.56
543.952	1595.16
544.316	1616.17
544.681	1607.36
545.045	1620.69
545.41	1617.98
545.774	1625.44
546.138	1595.61
546.503	1611.65
546.867	1587.47
547.231	1603.74
547.595	1629.73
547.959	1621.37
548.324	1607.58
548.688	1621.37
549.052	1643.97
549.416	1625.44
549.779	1637.19
550.143	1628.83
550.507	1637.87
550.871	1625.44
551.235	1651.65
551.599	1632.89
551.962	1664.53
552.326	1654.36
552.689	1626.12
553.053	1616.17
553.417	1632.67
553.78	1653.01
554.143	1646.91
554.507	1627.7
554.87	1621.37
555.234	1651.2
555.597	1628.15
555.96	1638.54
556.323	1647.81
556.686	1672.22
557.05	1679.67
557.413	1653.69
557.776	1639
558.139	1688.03
558.502	1660.92
558.865	1681.93
559.228	1684.87
559.59	1641.26
559.953	1656.85
560.316	1693.68
560.679	1648.04
561.041	1720.35
561.404	1699.56
561.767	1685.32
562.129	1681.03
562.492	1681.03
562.854	1666.57
563.217	1698.88
563.579	1674.25
563.941	1692.78
564.304	1721.48
564.666	1705.66
565.028	1729.84
565.39	1691.42
565.753	1718.32
566.115	1718.32
566.477	1737.98
566.839	1725.77
567.201	1724.87
567.563	1730.07
567.925	1728.26
568.287	1748.15
568.648	1734.81
569.01	1758.99
569.372	1744.3
569.734	1768.94
570.095	1763.74
570.457	1784.53
570.819	1775.72
571.18	1774.81
571.542	1778.65
571.903	1791.76
572.265	1747.47
572.626	1760.8
572.987	1785.43
573.349	1795.15
573.71	1801.25
574.071	1781.59
574.432	1786.79
574.794	1765.32
575.155	1777.07
575.516	1787.02
575.877	1826.34
576.238	1807.35
576.599	1767.58
576.96	1808.03
577.32	1806.45
577.681	1804.64
578.042	1829.05
578.403	1799.9
578.763	1780.91
579.124	1816.84
579.485	1808.03
579.845	1819.1
580.206	1829.5
580.566	1838.09
580.927	1834.25
581.287	1822.72
581.648	1801.93
582.008	1855.71
582.368	1840.8
582.728	1849.39
583.089	1792.21
583.449	1815.04
583.809	1866.79
584.169	1822.95
584.529	1828.37
584.889	1813.68
585.249	1808.03
585.609	1823.85
585.969	1862.49
586.329	1856.17
586.688	1856.17
587.048	1849.61
587.408	1833.34
587.768	1852.55
588.127	1818.43
588.487	1838.09
588.846	1815.94
589.206	1824.3
589.565	1838.77
589.925	1889.16
590.284	1850.52
590.643	1854.13
591.003	1850.74
591.362	1818.43
591.721	1835.83
592.08	1827.47
592.44	1847.13
592.799	1864.75
593.158	1846.45
593.517	1838.77
593.876	1847.8
594.235	1860.69
594.593	1847.58
594.952	1864.75
595.311	1855.26
595.67	1871.31
596.029	1872.66
596.387	1840.35
596.746	1878.99
597.104	1874.02
597.463	1879.67
597.822	1867.24
598.18	1871.76
598.538	1847.35
598.897	1898.88
599.255	1881.7
599.613	1875.6
599.972	1867.01
600.33	1878.31
600.688	1904.3
601.046	1900.68
601.404	1878.31
601.762	1875.6
602.12	1890.97
602.478	1892.78
602.836	1911.31
603.194	1895.26
603.552	1889.16
603.91	1908.59
604.268	1889.39
604.625	1899.33
604.983	1892.55
605.341	1908.37
605.698	1896.16
606.056	1907.01
606.413	1874.24
606.771	1914.24
607.128	1945.88
607.485	1906.33
607.843	1913.57
608.2	1931.19
608.557	1936.62
608.914	1929.84
609.272	1952.66
609.629	1942.04
609.986	1959.67
610.343	1918.76
610.7	1952.66
611.057	1935.71
611.414	1926.9
611.771	1932.77
612.127	1952.21
612.484	1930.29
612.841	1950.63
613.198	1955.37
613.554	1946.33
613.911	1983.85
614.267	1942.49
614.624	1950.4
614.98	1946.33
615.337	1961.25
615.693	1956.95
616.05	1965.99
616.406	1963.51
616.762	1987.46
617.118	1958.31
617.475	1975.71
617.831	1995.6
618.187	1989.27
618.543	1979.55
618.899	2028.14
619.255	1969.84
619.611	1994.69
619.967	2015.71
620.323	2016.61
620.678	2006.67
621.034	2022.72
621.39	1986.78
621.746	1994.02
622.101	2016.16
622.457	2022.26
622.812	2034.47
623.168	2009.83
623.523	2019.78
623.879	2031.08
624.234	2010.96
624.589	2040.12
624.945	2045.77
625.3	2040.79
625.655	2055.71
626.01	2032.88
626.365	2044.64
626.72	2040.34
627.075	2038.99
627.43	2060.45
627.785	2050.06
628.14	2057.29
628.495	2050.51
628.85	2068.14
629.205	2043.96
629.559	2037.18
629.914	2050.06
630.269	2035.6
630.623	2077.18
630.978	2067.91
631.332	2081.24
631.687	2057.29
632.041	2041.47
632.396	2078.31
632.75	2067.23
633.104	2062.94
633.459	2080.34
633.813	2096.16
634.167	2099.78
634.521	2089.15
634.875	2127.35
635.229	2097.74
635.583	2105.65
635.937	2093
636.291	2075.14
636.645	2114.92
636.999	2125.99
637.352	2098.87
637.706	2103.62
638.06	2127.35
638.413	2108.81
638.767	2132.32
639.121	2129.38
639.474	2126.67
639.828	2137.29
640.181	2151.3
640.534	2154.24
640.888	2107.01
641.241	2182.48
641.594	2182.26
641.947	2161.24
642.301	2199.21
642.654	2117.63
643.007	2174.8
643.36	2186.1
643.713	2191.75
644.066	2198.53
644.419	2179.32
644.771	2186.33
645.124	2162.6
645.477	2208.02
645.83	2220.22
646.182	2197.17
646.535	2181.58
646.888	2196.95
647.24	2199.66
647.593	2196.27
647.945	2200.56
648.298	2182.26
648.65	2201.24
649.002	2208.02
649.355	2242.37
649.707	2209.83
650.059	2261.35
650.411	2260.45
650.763	2263.61
651.115	2300.67
651.467	2328.24
651.819	2310.84
652.171	2373.44
652.523	2321.46
652.875	2346.1
653.227	2341.58
653.578	2344.51
653.93	2387.23
654.282	2326.21
654.633	2386.77
654.985	2390.84
655.337	2392.65
655.688	2426.77
656.039	2421.12
656.391	2390.62
656.742	2402.59
657.094	2456.15
657.445	2495.02
657.796	2436.72
658.147	2452.53
658.498	2470.16
658.849	2459.31
659.2	2491.4
659.551	2499.31
659.902	2540.67
660.253	2468.81
660.604	2515.36
660.955	2455.02
661.306	2584.06
661.656	2541.12
662.007	2545.19
662.358	2562.59
662.708	2603.94
663.059	2642.81
663.409	2602.36
663.76	2621.12
664.11	2638.07
664.461	2670.16
664.811	2658.4
665.161	2645.07
665.511	2698.18
665.862	2661.34
666.212	2702.47
666.562	2721
666.912	2741.79
667.262	2742.92
667.612	2725.97
667.962	2749.48
668.312	2716.26
668.662	2782.24
669.011	2781.57
669.361	2779.76
669.711	2797.16
670.06	2822.02
670.41	2798.29
670.76	2843.94
671.109	2824.05
671.459	2872.41
671.808	2846.87
672.157	2860.66
672.507	2871.73
672.856	2866.76
673.205	2899.98
673.554	2900.66
673.904	2949.24
674.253	2939.98
674.602	2945.63
674.951	2917.83
675.3	2934.33
675.649	2955.57
675.998	2948.79
676.346	3003.71
676.695	2976.81
677.044	3008.23
677.393	3007.1
677.741	3041.67
678.09	3037.38
678.438	3006.87
678.787	3107.66
679.135	3062.24
679.484	3045.29
679.832	3064.95
680.181	3078.73
680.529	3130.93
680.877	3082.57
681.225	3088
681.573	3137.49
681.922	3090.03
682.27	3116.25
682.618	3090.94
682.966	3172.29
683.314	3138.62
683.661	3180.88
684.009	3163.25
684.357	3123.7
684.705	3182.68
685.053	3192.63
685.4	3187.66
685.748	3184.49
686.095	3208.9
686.443	3187.43
686.79	3222.23
687.138	3206.41
687.485	3208.45
687.832	3235.11
688.18	3251.84
688.527	3244.83
688.874	3250.03
689.221	3191.72
689.568	3242.8
689.915	3249.12
690.262	3245.73
690.609	3205.96
690.956	3206.19
691.303	3255.68
691.65	3218.62
691.997	3239.86
692.344	3220.88
692.69	3203.7
693.037	3230.14
693.383	3259.29
693.73	3240.31
694.077	3220.2
694.423	3236.02
694.769	3224.72
695.116	3242.8
695.462	3205.73
695.808	3226.98
696.155	3254.1
696.501	3200.54
696.847	3242.12
697.193	3199.41
697.539	3200.09
697.885	3210.71
698.231	3207.99
698.577	3258.84
698.923	3201.89
699.269	3207.77
699.614	3178.17
699.96	3215.9
700.306	3231.27
700.651	3206.19
700.997	3211.38
701.342	3174.32
701.688	3183.81
702.033	3200.76
702.379	3199.86
702.724	3164.83
703.069	3168.9
703.415	3179.29
703.76	3157.6
704.105	3152.85
704.45	3195.79
704.795	3177.04
705.14	3147.66
705.485	3146.53
705.83	3140.88
706.175	3132.29
706.52	3151.05
706.865	3141.56
707.209	3100.88
707.554	3131.39
707.899	3135
708.243	3118.73
708.588	3110.14
708.932	3089.35
709.277	3103.14
709.621	3136.13
709.966	3084.16
710.31	3141.78
710.654	3124.38
710.998	3101.33
711.342	3108.79
711.687	3099.07
712.031	3083.7
712.375	3073.99
712.719	3109.47
713.063	3149.01
713.407	3092.52
713.75	3104.72
714.094	3122.8
714.438	3065.17
714.782	3111.73
715.125	3099.97
715.469	3102.69
715.812	3091.39
716.156	3092.52
716.499	3068.56
716.843	3099.97
717.186	3058.39
717.53	3082.8
717.873	3066.53
718.216	3108.34
718.559	3045.06
718.902	3085.29
719.246	3089.81
719.589	3057.72
719.932	3056.81
720.275	3070.82
720.617	3063.37
720.96	3063.14
721.303	3058.39
721.646	3050.94
721.989	3053.42
722.331	3094.1
722.674	3079.64
723.016	3097.94
723.359	3052.29
723.701	3060.65
724.044	3037.15
724.386	3087.09
724.729	3068.79
725.071	3082.8
725.413	3081.67
725.755	3083.25
726.097	3076.92
726.439	3039.86
726.782	3060.43
727.124	3077.15
727.465	3049.13
727.807	3078.96
728.149	3053.87
728.491	3070.37
728.833	3082.35
729.175	3109.92
729.516	3096.36
729.858	3064.04
730.199	3089.13
730.541	3089.13
730.882	3052.97
731.224	3109.69
731.565	3092.29
731.906	3080.31
732.248	3082.12
732.589	3103.82
732.93	3093.87
733.271	3074.89
733.612	3116.47
733.953	3099.97
734.294	3104.95
734.635	3097.72
734.976	3138.84
735.317	3067.66
735.658	3076.47
735.999	3091.61
736.339	3130.26
736.68	3153.98
737.021	3135.23
737.361	3170.48
737.702	3179.75
738.042	3120.54
738.383	3172.74
738.723	3166.41
739.063	3200.99
739.404	3175
739.744	3180.65
740.084	3210.25
740.424	3215.45
740.764	3235.34
741.104	3227.66
741.444	3228.33
741.784	3247.32
742.124	3244.15
742.464	3241.67
742.804	3227.43
743.143	3264.26
743.483	3209.35
743.823	3285.28
744.162	3294.77
744.502	3306.98
744.841	3365.05
745.181	3312.62
745.52	3331.83
745.86	3343.36
746.199	3363.47
746.538	3384.49
746.877	3384.94
747.216	3415.9
747.556	3441.66
747.895	3453.86
748.234	3445.95
748.573	3470.13
748.911	3477.82
749.25	3482.34
749.589	3509.46
749.928	3542.45
750.267	3549.91
750.605	3624.71
750.944	3583.13
751.283	3583.8
751.621	3581.77
751.96	3648.89
752.298	3691.15
752.636	3686.63
752.975	3667.87
753.313	3672.39
753.651	3710.58
753.989	3743.57
754.327	3773.63
754.666	3748.32
755.004	3826.74
755.342	3860.63
755.679	3830.8
756.017	3826.51
756.355	3866.28
756.693	3886.39
757.031	3935.89
757.368	3916.45
757.706	3965.04
758.044	3979.73
758.381	4021.76
758.719	4001.42
759.056	4028.54
759.394	4018.82
759.731	4029.22
760.068	4061.08
760.405	4069.67
760.743	4133.62
761.08	4142.89
761.417	4156.22
761.754	4161.87
762.091	4141.3
762.428	4153.28
762.765	4151.25
763.102	4206.84
763.438	4176.56
763.775	4213.17
764.112	4186.73
764.449	4207.52
764.785	4202.09
765.122	4265.82
765.458	4225.14
765.795	4250.91
766.131	4231.7
766.467	4237.35
766.804	4193.73
767.14	4218.59
767.476	4292.94
767.812	4259.27
768.148	4243.22
768.485	4287.06
768.821	4268.76
769.157	4271.02
769.492	4242.54
769.828	4266.05
770.164	4215.43
770.5	4270.79
770.836	4241.64
771.171	4242.32
771.507	4259.72
771.842	4234.86
772.178	4231.24
772.513	4195.77
772.849	4268.53
773.184	4188.53
773.519	4210
773.855	4192.6
774.19	4179.27
774.525	4205.26
774.86	4176.33
775.195	4203
775.53	4161.64
775.865	4164.58
776.2	4141.53
776.535	4111.02
776.87	4101.53
777.205	4115.32
777.539	4110.8
777.874	4112.83
778.209	4086.84
778.543	4119.61
778.878	4037.8
779.212	4075.99
779.547	4059.5
779.881	4070.34
780.215	4049.1
780.55	4017.46
780.884	3989.9
781.218	4038.03
781.552	4052.72
781.886	3998.93
782.22	4017.24
782.554	3966.84
782.888	3948.31
783.222	3955.32
783.556	3917.35
783.889	3939.5
784.223	3888.65
784.557	3906.06
784.89	3932.5
785.224	3868.54
785.557	3888.43
785.891	3876
786.224	3874.42
786.558	3890.24
786.891	3834.19
787.224	3808.88
787.557	3818.15
787.891	3793.52
788.224	3829.67
788.557	3789.22
788.89	3796.68
789.223	3758.71
789.556	3788.09
789.888	3765.04
790.221	3743.8
790.554	3696.34
790.887	3724.14
791.219	3730.47
791.552	3699.73
791.884	3702.67
792.217	3668.1
792.549	3680.3
792.882	3636.68
793.214	3670.58
793.546	3653.41
793.879	3641.66
794.211	3618.38
794.543	3601.43
794.875	3595.78
795.207	3635.33
795.539	3633.07
795.871	3590.58
796.203	3555.78
796.535	3544.48
796.867	3529.34
797.198	3539.96
797.53	3539.96
797.862	3530.47
798.193	3509.46
798.525	3541.09
798.856	3546.97
799.188	3467.87
799.519	3506.97
799.85	3436.01
800.182	3459.06
800.513	3433.07
800.844	3418.61
801.175	3450.93
801.506	3471.04
801.837	3401.66
802.168	3391.04
802.499	3430.36
802.83	3386.75
803.161	3353.98
803.491	3387.65
803.822	3369.12
804.153	3333.64
804.483	3370.02
804.814	3342.91
805.145	3317.82
805.475	3341.32
805.805	3325.51
806.136	3297.03
806.466	3307.2
806.796	3329.57
807.126	3294.32
807.457	3300.65
807.787	3301.55
808.117	3276.69
808.447	3290.03
808.777	3237.6
809.107	3234.21
809.436	3222.46
809.766	3237.15
810.096	3229.46
810.426	3219.97
810.755	3224.27
811.085	3193.31
811.414	3188.33
811.744	3182.46
812.073	3165.74
812.403	3154.89
812.732	3156.02
813.061	3151.05
813.39	3163.02
813.719	3134.32
814.049	3128.22
814.378	3144.95
814.707	3096.36
815.036	3132.29
815.365	3146.75
815.693	3064.27
816.022	3088.22
816.351	3102.01
816.68	3039.41
817.008	3083.93
817.337	3057.04
817.665	3033.99
817.994	3053.42
818.322	3021.11
818.651	3012.07
818.979	3046.19
819.307	3036.93
819.636	3027.43
819.964	3007.77
820.292	2979.3
820.62	3042.8
820.948	3018.85
821.276	3024.04
821.604	3020.2
821.932	3031.95
822.259	3037.38
822.587	3011.16
822.915	3007.55
823.243	3007.32
823.57	2994.44
823.898	3021.11
824.225	2964.39
824.553	2995.12
824.88	2972.29
825.207	2980.66
825.535	3024.95
825.862	2996.02
826.189	2980.43
826.516	3017.94
826.843	3004.84
827.17	2996.25
827.497	3008.68
827.824	3025.17
828.151	3038.06
828.478	2988.57
828.805	3039.64
829.131	3017.04
829.458	3036.25
829.785	2965.97
830.111	2977.27
830.438	3025.85
830.764	2999.41
831.09	2998.51
831.417	2988.11
831.743	2972.52
832.069	3013.88
832.395	2995.34
832.722	2996.7
833.048	2947.66
833.374	3013.65
833.7	2985.63
834.026	2969.81
834.351	2979.98
834.677	2961.22
835.003	3011.16
835.329	2964.39
835.654	2930.04
835.98	2957.38
836.306	2939.98
836.631	2935.46
836.956	2920.77
837.282	2955.12
837.607	2960.09
837.932	2943.37
838.258	2977.72
838.583	2965.29
838.908	2927.32
839.233	2908.57
839.558	2956.48
839.883	2898.4
840.208	2888.91
840.533	2895.69
840.858	2874.9
841.182	2930.71
841.507	2912.86
841.832	2842.13
842.156	2874.44
842.481	2876.7
842.805	2906.76
843.13	2829.02
843.454	2877.38
843.778	2853.43
844.103	2839.87
844.427	2822.92
844.751	2863.6
845.075	2837.16
845.399	2804.16
845.723	2845.07
846.047	2805.29
846.371	2789.25
846.695	2807.55
847.019	2818.63
847.343	2793.54
847.666	2765.07
847.99	2749.93
848.313	2735.24
848.637	2733.66
848.96	2730.27
849.284	2731.17
849.607	2725.97
849.931	2687.56
850.254	2683.71
850.577	2642.13
850.9	2673.55
851.223	2674
851.546	2632.19
851.869	2651.17
852.192	2640.55
852.515	2641.23
852.838	2641
853.161	2610.04
853.483	2611.17
853.806	2612.98
854.129	2616.82
854.451	2578.41
854.774	2583.15
855.096	2584.06
855.419	2547.45
855.741	2506.54
856.063	2567.11
856.385	2557.39
856.708	2538.86
857.03	2528.69
857.352	2521.69
857.674	2521.01
857.996	2511.74
858.318	2523.72
858.64	2485.53
858.961	2490.73
859.283	2497.73
859.605	2455.25
859.926	2444.17
860.248	2450.05
860.57	2425.19
860.891	2455.25
861.212	2453.44
861.534	2454.57
861.855	2448.47
862.176	2435.13
862.498	2423.38
862.819	2444.17
863.14	2404.4
863.461	2431.74
863.782	2411.63
864.103	2429.03
864.424	2412.76
864.745	2430.16
865.065	2422.48
865.386	2394.46
865.707	2381.35
866.027	2384.97
866.348	2369.15
866.668	2392.87
866.989	2380.22
867.309	2384.97
867.63	2375.93
867.95	2374.12
868.27	2370.95
868.59	2379.77
868.91	2409.6
869.23	2338.87
869.55	2341.8
869.87	2371.41
870.19	2357.17
870.51	2354.68
870.83	2354.91
871.15	2359.2
871.469	2334.57
871.789	2308.36
872.109	2306.78
872.428	2290.96
872.748	2302.93
873.067	2298.41
873.386	2323.72
873.706	2319.88
874.025	2340.22
874.344	2318.3
874.663	2326.21
874.982	2286.44
875.301	2297.06
875.62	2297.28
875.939	2269.71
876.258	2318.3
876.577	2278.08
876.896	2278.3
877.214	2270.17
877.533	2265.19
877.852	2308.58
878.17	2259.32
878.489	2297.74
878.807	2273.1
879.125	2270.84
879.444	2242.14
879.762	2260.45
880.08	2257.96
880.398	2242.6
880.716	2210.96
881.034	2247.12
881.352	2239.21
881.67	2223.84
881.988	2206.67
882.306	2221.58
882.624	2199.43
882.941	2210.28
883.259	2193.56
883.577	2196.95
883.894	2184.52
884.212	2169.83
884.529	2185.65
884.846	2168.7
885.164	2142.94
885.481	2159.66
885.798	2204.18
886.115	2215.93
886.432	2159.66
886.75	2159.66
887.067	2163.95
887.383	2190.39
887.7	2167.57
888.017	2123.96
888.334	2146.33
888.651	2123.73
888.967	2111.98
889.284	2125.76
889.6	2114.46
889.917	2140.68
890.233	2114.46
890.55	2081.24
890.866	2086.89
891.182	2102.94
891.498	2091.87
891.815	2097.29
892.131	2088.48
892.447	2083.05
892.763	2064.07
893.079	2086.22
893.395	2082.37
893.71	2073.11
894.026	2074.69
894.342	2082.83
894.657	2066.33
894.973	2045.99
895.289	2042.83
895.604	2060.23
895.92	2025.65
896.235	2006.22
896.55	2016.16
896.865	1998.54
897.181	2010.96
897.496	2017.97
897.811	2004.64
898.126	1980.46
898.441	1971.42
898.756	1940.91
899.071	1977.07
899.386	1978.65
899.7	1956.05
900.015	1935.03
900.33	1914.02
900.644	1924.64
900.959	1923.51
901.273	1957.63
901.588	1928.25
901.902	1918.99
902.216	1901.36
902.531	1920.8
902.845	1874.02
903.159	1905.66
903.473	1894.58
903.787	1886.22
904.101	1881.93
904.415	1893
904.729	1904.07
905.042	1842.15
905.356	1876.73
905.67	1855.04
905.984	1841.25
906.297	1826.56
906.611	1837.18
906.924	1829.73
907.237	1838.77
907.551	1827.24
907.864	1810.07
908.177	1796.51
908.491	1804.42
908.804	1761.48
909.117	1805.09
909.43	1782.5
909.743	1745.43
910.056	1763.96
910.368	1756.51
910.681	1760.12
910.994	1730.07
911.307	1766.22
911.619	1700.69
911.932	1726.68
912.244	1730.75
912.557	1730.52
912.869	1751.08
913.181	1715.38
913.494	1707.47
913.806	1695.72
914.118	1705.89
914.43	1712.21
914.742	1690.75
915.054	1675.83
915.366	1665.44
915.678	1663.18
915.99	1658.88
916.302	1642.84
916.613	1662.72
916.925	1631.77
917.236	1649.62
917.548	1638.32
917.859	1620.92
918.171	1622.95
918.482	1612.1
918.794	1609.84
919.105	1618.88
919.416	1600.58
919.727	1605.55
920.038	1568.04
920.349	1555.83
920.66	1584.53
920.971	1588.83
921.282	1579.11
921.593	1559
921.903	1557.87
922.214	1537.53
922.525	1549.51
922.835	1547.02
923.146	1541.37
923.456	1534.59
923.767	1512.9
924.077	1501.6
924.387	1558.09
924.697	1512.9
925.008	1524.2
925.318	1492.56
925.628	1513.12
925.938	1507.02
926.248	1498.21
926.558	1496.85
926.867	1449.85
927.177	1460.02
927.487	1475.16
927.796	1494.82
928.106	1462.96
928.416	1466.57
928.725	1396.06
929.034	1440.58
929.344	1450.07
929.653	1426.57
929.962	1406.91
930.271	1444.2
930.581	1446.69
930.89	1415.27
931.199	1387.7
931.508	1397.65
931.817	1406.69
932.125	1391.32
932.434	1369.85
932.743	1373.69
933.051	1380.25
933.36	1375.5
933.669	1376.63
933.977	1359.46
934.286	1342.96
934.594	1370.3
934.902	1368.5
935.21	1356.07
935.519	1330.98
935.827	1350.42
936.135	1348.61
936.443	1308.84
936.751	1345.9
937.059	1332.11
937.367	1331.43
937.674	1327.37
937.982	1323.98
938.29	1329.17
938.597	1290.53
938.905	1301.38
939.213	1298.44
939.52	1294.15
939.827	1316.97
940.135	1255.05
940.442	1258.22
940.749	1280.14
941.056	1259.35
941.363	1268.84
941.67	1262.51
941.977	1255.28
942.284	1211.89
942.591	1217.31
942.898	1249.63
943.205	1232.68
943.511	1225.45
943.818	1236.52
944.125	1228.61
944.431	1229.06
944.738	1226.35
945.044	1243.98
945.35	1216.18
945.657	1224.54
945.963	1201.04
946.269	1195.62
946.575	1219.8
946.881	1194.71
947.187	1180.03
947.493	1179.57
947.799	1195.39
948.105	1178.67
948.41	1189.74
948.716	1160.36
949.022	1174.83
949.327	1152.23
949.633	1158.33
949.938	1137.31
950.244	1138.22
950.549	1141.83
950.854	1147.71
951.16	1144.55
951.465	1138.9
951.77	1121.5
952.075	1130.31
952.38	1130.54
952.685	1138.22
952.99	1144.32
953.294	1108.16
953.599	1126.02
953.904	1127.6
954.209	1100.71
954.513	1093.7
954.818	1109.29
955.122	1108.16
955.426	1063.87
955.731	1087.82
956.035	1089.41
956.339	1072.01
956.643	1085.79
956.948	1067.71
957.252	1062.97
957.556	1035.62
957.86	1050.09
958.163	1072.46
958.467	1036.53
958.771	1043.98
959.075	1055.28
959.378	1048.73
959.682	1023.87
959.985	1036.75
960.289	1030.65
960.592	1039.69
960.896	1034.94
961.199	1047.15
961.502	1012.8
961.805	999.69
962.108	1030.65
962.411	1037.2
962.714	1020.48
963.017	1003.53
963.32	1022.74
963.623	1006.7
963.926	986.36
964.228	994.49
964.531	984.55
964.833	976.87
965.136	994.49
965.438	970.77
965.741	989.07
966.043	952.01
966.345	987.04
966.648	977.32
966.95	975.51
967.252	951.56
967.554	959.69
967.856	963.53
968.158	942.29
968.46	970.09
968.761	955.85
969.063	952.46
969.365	947.94
969.666	934.83
969.968	936.64
970.269	935.51
970.571	892.35
970.872	936.87
971.174	900.94
971.475	913.14
971.776	927.15
972.077	916.53
972.378	912.69
972.679	930.77
972.98	908.17
973.281	897.77
973.582	886.02
973.883	886.25
974.183	890.54
974.484	884.89
974.785	879.02
975.085	875.17
975.386	881.5
975.686	893.48
975.986	885.12
976.287	891.67
976.587	886.93
976.887	847.38
977.187	872.91
977.487	884.89
977.787	874.95
978.087	857.1
978.387	863.65
978.687	824.78
978.987	852.12
979.286	858
979.586	870.43
979.885	844.89
980.185	848.06
980.484	850.99
980.784	811.9
981.083	827.04
981.382	842.18
981.682	858.9
981.981	836.98
982.28	855.74
982.579	811.45
982.878	836.53
983.177	836.53
983.475	856.87
983.774	819.81
984.073	810.77
984.372	792.92
984.67	815.06
984.969	803.31
985.267	816.42
985.566	786.59
985.864	788.17
986.162	796.08
986.461	780.26
986.759	804.22
987.057	804.22
987.355	780.71
987.653	787.72
987.951	796.31
988.249	795.18
988.547	787.49
988.844	793.37
989.142	762.64
989.44	743.65
989.737	775.52
990.035	771
990.332	757.66
990.63	750.88
990.927	743.88
991.224	744.33
991.521	727.61
991.819	780.71
992.116	763.54
992.413	746.14
992.71	763.09
993.006	744.1
993.303	743.43
993.6	746.36
993.897	748.17
994.193	738
994.49	728.06
994.787	730.55
995.083	736.65
995.379	730.77
995.676	725.12
995.972	731.45
996.268	711.79
996.565	725.8
996.861	704.33
997.157	696.87
997.453	720.6
997.749	709.08
998.044	691
998.34	701.39
998.636	686.93
998.932	693.48
999.227	692.58
999.523	690.77
999.818	719.25
1000.114	694.39
1000.409	678.57
1000.704	688.51
1001	676.08
1001.295	661.4
1001.59	698
1001.885	669.98
1002.18	660.04
1002.475	658.01
1002.77	664.56
1003.065	666.59
1003.359	683.09
1003.654	669.08
1003.949	648.97
1004.243	661.62
1004.538	655.97
1004.832	633.6
1005.127	652.81
1005.421	648.97
1005.715	658.01
1006.009	671.11
1006.304	628.85
1006.598	622.53
1006.892	618.91
1007.186	620.72
1007.48	649.42
1007.773	644.67
1008.067	641.06
1008.361	624.56
1008.655	630.66
1008.948	627.72
1009.242	624.33
1009.535	605.58
1009.829	626.37
1010.122	626.14
1010.415	603.54
1010.708	602.87
1011.001	608.97
1011.295	597.22
1011.588	603.32
1011.881	599.7
1012.173	606.26
1012.466	592.47
1012.759	596.99
1013.052	588.4
1013.344	599.25
1013.637	592.7
1013.93	582.53
1014.222	579.14
1014.514	586.82
1014.807	594.96
1015.099	583.21
1015.391	566.26
1015.683	578.46
1015.976	598.8
1016.268	576.43
1016.56	588.18
1016.851	579.82
1017.143	541.62
1017.435	574.62
1017.727	554.28
1018.018	562.41
1018.31	564.45
1018.602	570.1
1018.893	559.7
1019.185	562.41
1019.476	564.45
1019.767	546.14
1020.058	559.02
1020.35	551.57
1020.641	545.92
1020.932	552.02
1021.223	538.69
1021.514	544.34
1021.804	543.21
1022.095	548.18
1022.386	539.14
1022.677	534.17
1022.967	515.64
1023.258	533.94
1023.548	527.61
1023.839	556.09
1024.129	533.71
1024.419	515.41
1024.709	522.87
1025	515.86
1025.29	519.03
1025.58	501.17
1025.87	509.31
1026.16	512.25
1026.449	520.61
1026.739	495.75
1027.029	518.8
1027.319	504.34
1027.608	505.69
1027.898	488.07
1028.187	495.75
1028.477	513.6
1028.766	502.98
1029.055	505.01
1029.344	490.55
1029.634	493.04
1029.923	490.33
1030.212	500.27
1030.501	499.82
1030.79	495.98
1031.078	494.39
1031.367	492.59
1031.656	472.93
1031.945	474.28
1032.233	462.76
1032.522	466.6
1032.81	478.35
1033.099	462.53
1033.387	467.28
1033.675	476.54
1033.963	477.45
1034.251	464.34
1034.54	456.2
1034.828	460.04
1035.116	469.76
1035.403	482.64
1035.691	482.42
1035.979	451.23
1036.267	459.59
1036.554	479.48
1036.842	461.63
1037.129	451.91
1037.417	456.65
1037.704	437.67
1037.992	465.24
1038.279	455.52
1038.566	434.51
1038.853	434.51
1039.14	434.51
