Data from blue_surface_keyboard_FLMS001491_063.txt Node
Date: Tue Feb 07 11:13:29 GMT 2017
User: dcchb
Spectrometer: FLMS00149
Trigger mode: 0
Integration Time (sec): 2.000000E-2
Scans to average: 10
Electric dark correction enabled: true
Nonlinearity correction enabled: false
Boxcar width: 0
XAxis mode: Wavelengths
Number of Pixels in Spectrum: 2048
>>>>>Begin Spectral Data<<<<<
341.393	2.67
341.776	2.67
342.16	2.67
342.543	-58.8
342.927	-50.66
343.31	-63.09
343.693	-58.57
344.077	-64
344.46	-71.9
344.843	-70.32
345.226	-54.5
345.61	-50.66
345.993	-19.93
346.376	15.78
346.759	10.13
347.142	22.33
347.525	41.54
347.908	67.75
348.291	86.28
348.674	90.58
349.057	118.6
349.44	126.06
349.823	151.14
350.206	154.76
350.588	179.39
350.971	183.46
351.354	195.21
351.737	216
352.119	224.36
352.502	248.31
352.884	263.68
353.267	263
353.65	257.13
354.032	296.9
354.414	292.15
354.797	297.58
355.179	305.71
355.562	303.45
355.944	299.16
356.326	312.94
356.709	312.04
357.091	309.33
357.473	338.25
357.855	305.03
358.238	311.81
358.62	304.58
359.002	324.47
359.384	326.95
359.766	327.41
360.148	341.19
360.53	315.66
360.912	339.16
361.294	320.18
361.676	305.71
362.057	314.75
362.439	316.56
362.821	307.52
363.203	326.05
363.584	310.68
363.966	263.45
364.348	308.42
364.729	309.55
365.111	290.57
365.493	306.16
365.874	289.22
366.256	296.67
366.637	294.87
367.019	316.11
367.4	306.84
367.781	312.49
368.163	304.81
368.544	301.42
368.925	279.27
369.306	296.9
369.688	285.37
370.069	319.05
370.45	284.7
370.831	299.61
371.212	292.83
371.593	284.7
371.974	278.37
372.355	289.44
372.736	290.12
373.117	299.84
373.498	273.85
373.879	285.15
374.26	286.05
374.641	295.77
375.021	300.06
375.402	300.29
375.783	289.89
376.163	296.45
376.544	305.94
376.925	297.8
377.305	287.63
377.686	302.1
378.066	288.99
378.447	279.72
378.827	292.83
379.208	298.03
379.588	307.29
379.968	306.39
380.349	299.16
380.729	300.29
381.109	320.85
381.489	307.97
381.87	288.99
382.25	287.86
382.63	285.37
383.01	314.3
383.39	319.95
383.77	298.93
384.15	312.72
384.53	319.95
384.91	300.29
385.29	298.03
385.67	292.61
386.049	300.74
386.429	288.99
386.809	331.02
387.189	305.26
387.568	324.02
387.948	320.4
388.328	314.53
388.707	306.16
389.087	324.24
389.466	330.8
389.846	320.18
390.225	336.22
390.605	320.4
390.984	329.44
391.363	329.89
391.743	323.11
392.122	330.34
392.501	338.71
392.881	319.5
393.26	324.02
393.639	313.4
394.018	331.93
394.397	320.4
394.776	336.22
395.155	319.05
395.534	363.34
395.913	317.92
396.292	334.64
396.671	333.73
397.05	329.67
397.429	335.54
397.808	353.39
398.186	342.1
398.565	335.99
398.944	347.07
399.323	336.9
399.701	356.11
400.08	334.41
400.458	332.6
400.837	370.34
401.215	330.8
401.594	343.45
401.972	339.38
402.351	334.19
402.729	348.42
403.107	335.54
403.486	350
403.864	355.65
404.242	354.07
404.62	350
404.999	361.3
405.377	361.98
405.755	353.85
406.133	350
406.511	352.72
406.889	369.67
407.267	361.98
407.645	372.6
408.023	376.67
408.401	380.06
408.779	358.14
409.156	381.64
409.534	380.06
409.912	360.63
410.29	363.11
410.667	384.81
411.045	399.04
411.422	395.2
411.8	356.11
412.178	375.54
412.555	356.56
412.933	379.16
413.31	374.86
413.687	394.3
414.065	388.87
414.442	386.39
414.819	406.5
415.197	373.73
415.574	392.94
415.951	405.82
416.328	371.25
416.705	385.03
417.082	386.39
417.46	397.24
417.837	424.35
418.214	380.29
418.591	392.26
418.967	387.52
419.344	400.4
419.721	399.95
420.098	401.08
420.475	428.87
420.852	382.55
421.228	414.41
421.605	418.7
421.982	397.01
422.358	406.95
422.735	407.86
423.111	409.89
423.488	428.65
423.864	412.38
424.241	420.51
424.617	429.1
424.994	422.77
425.37	425.71
425.746	424.13
426.123	446.5
426.499	436.33
426.875	441.53
427.251	429.1
427.627	429.55
428.003	440.17
428.379	464.58
428.756	446.95
429.132	453.05
429.507	448.08
429.883	438.59
430.259	464.13
430.635	477.46
431.011	438.82
431.387	456.67
431.763	448.31
432.138	466.39
432.514	461.19
432.89	484.92
433.265	488.53
433.641	491.02
434.016	474.07
434.392	480.17
434.767	487.85
435.143	479.72
435.518	500.96
435.894	484.46
436.269	483.11
436.644	492.37
437.02	515.42
437.395	483.79
437.77	501.41
438.145	500.96
438.52	527.18
438.895	508.87
439.271	526.72
439.646	495.09
440.021	506.84
440.395	509.32
440.77	517.01
441.145	496.67
441.52	518.81
441.895	529.21
442.27	524.24
442.645	513.16
443.019	518.81
443.394	520.85
443.769	521.98
444.143	509.55
444.518	541.64
444.892	538.7
445.267	541.64
445.641	574.63
446.016	545.48
446.39	549.55
446.764	536.44
447.139	540.73
447.513	545.03
447.887	540.06
448.262	535.31
448.636	546.61
449.01	556.55
449.384	580.96
449.758	554.07
450.132	562.65
450.506	560.39
450.88	542.09
451.254	577.12
451.628	583.22
452.002	573.28
452.376	595.42
452.75	585.25
453.123	597.91
453.497	583.45
453.871	572.15
454.244	610.11
454.618	609.43
454.992	615.31
455.365	602.65
455.739	614.18
456.112	607.85
456.486	611.02
456.859	618.02
457.232	611.69
457.606	638.13
457.979	623.44
458.352	633.39
458.725	647.4
459.099	649.66
459.472	655.31
459.845	651.92
460.218	664.8
460.591	665.02
460.964	652.37
461.337	672.71
461.71	650.11
462.083	680.17
462.456	664.35
462.829	682.2
463.201	676.32
463.574	674.52
463.947	681.3
464.32	672.26
464.692	696.66
465.065	722.42
465.438	703.89
465.81	724.46
466.183	725.36
466.555	721.29
466.928	707.96
467.3	710.9
467.672	747.28
468.045	721.75
468.417	759.94
468.789	756.77
469.161	761.07
469.534	744.57
469.906	773.27
470.278	802.87
470.65	782.54
471.022	804.46
471.394	787.51
471.766	778.92
472.138	805.81
472.51	772.82
472.882	813.04
473.253	857.79
473.625	818.47
473.997	854.85
474.369	842.65
474.74	881.06
475.112	893.27
475.484	837.45
475.855	863.89
476.227	864.79
476.598	909.54
476.97	893.49
477.341	936.43
477.713	895.3
478.084	927.16
478.455	944.34
478.827	940.95
479.198	968.52
479.569	961.29
479.94	973.94
480.311	992.47
480.682	973.72
481.053	1027.05
481.424	1021.85
481.795	1005.13
482.166	1032.92
482.537	1046.48
482.908	1066.37
483.279	1050.33
483.65	1073.15
484.021	1063.88
484.391	1076.54
484.762	1110.66
485.133	1083.09
485.503	1119.7
485.874	1120.15
486.244	1103.88
486.615	1125.58
486.985	1147.05
487.356	1156.76
487.726	1178.46
488.097	1186.82
488.467	1164.22
488.837	1181.17
489.207	1208.74
489.578	1196.31
489.948	1198.8
490.318	1218.91
490.688	1227.27
491.058	1200.6
491.428	1233.6
491.798	1255.97
492.168	1258.46
492.538	1255.07
492.908	1256.87
493.278	1288.29
493.648	1296.42
494.017	1252.35
494.387	1273.14
494.757	1297.55
495.126	1323.99
495.496	1321.05
495.866	1317.89
496.235	1288.96
496.605	1326.7
496.974	1327.38
497.344	1329.41
497.713	1348.62
498.082	1349.53
498.452	1377.32
498.821	1334.84
499.19	1352.24
499.559	1342.52
499.928	1366.02
500.298	1369.41
500.667	1383.2
501.036	1361.73
501.405	1391.11
501.774	1345.23
502.143	1371.22
502.512	1359.7
502.88	1415.29
503.249	1370.54
503.618	1406.47
503.987	1379.36
504.356	1413.48
504.724	1453.25
505.093	1404.21
505.462	1402.63
505.83	1408.06
506.199	1418.68
506.567	1413.71
506.936	1419.81
507.304	1434.5
507.672	1426.81
508.041	1453.93
508.409	1434.5
508.777	1424.1
509.145	1432.01
509.514	1462.52
509.882	1454.83
510.25	1396.98
510.618	1469.98
510.986	1464.78
511.354	1454.61
511.722	1466.36
512.09	1475.4
512.458	1455.74
512.826	1452.35
513.193	1485.12
513.561	1464.33
513.929	1472.46
514.297	1454.83
514.664	1507.49
515.032	1500.48
515.4	1500.94
515.767	1498.68
516.135	1484.89
516.502	1514.04
516.869	1528.05
517.237	1498.45
517.604	1486.47
517.972	1503.19
518.339	1510.65
518.706	1522.86
519.073	1482.4
519.44	1509.75
519.808	1514.49
520.175	1496.19
520.542	1517.43
520.909	1563.76
521.276	1555.85
521.643	1525.34
522.009	1548.17
522.376	1537.54
522.743	1561.27
523.11	1531.22
523.477	1575.51
523.843	1568.96
524.21	1585.23
524.577	1558.79
524.943	1586.81
525.31	1574.15
525.676	1572.8
526.043	1596.75
526.409	1583.64
526.776	1618.22
527.142	1585
527.508	1622.06
527.874	1582.51
528.241	1607.82
528.607	1604.44
528.973	1613.93
529.339	1596.75
529.705	1626.36
530.071	1648.05
530.437	1607.82
530.803	1619.12
531.169	1622.29
531.535	1638.78
531.901	1630.2
532.267	1637.2
532.632	1647.37
532.998	1645.34
533.364	1620.93
533.73	1617.09
534.095	1643.3
534.461	1649.63
534.826	1657.99
535.192	1691.66
535.557	1641.95
535.923	1668.16
536.288	1639.91
536.653	1670.87
537.019	1653.02
537.384	1669.74
537.749	1662.96
538.114	1674.72
538.479	1647.6
538.845	1651.89
539.21	1676.75
539.575	1647.15
539.94	1629.97
540.305	1656.41
540.67	1672.68
541.034	1653.93
541.399	1650.08
541.764	1664.55
542.129	1676.52
542.494	1664.77
542.858	1659.35
543.223	1676.75
543.587	1658.67
543.952	1664.77
544.316	1693.7
544.681	1653.7
545.045	1652.57
545.41	1692.57
545.774	1708.61
546.138	1674.04
546.503	1680.82
546.867	1675.62
547.231	1674.72
547.595	1679.91
547.959	1672
548.324	1691.66
548.688	1675.62
549.052	1683.98
549.416	1691.21
549.779	1676.75
550.143	1670.87
550.507	1702.29
550.871	1713.58
551.235	1687.82
551.599	1733.47
551.962	1684.43
552.326	1705
552.689	1684.89
553.053	1683.53
553.417	1714.04
553.78	1696.41
554.143	1677.43
554.507	1693.02
554.87	1709.29
555.234	1730.76
555.597	1721.04
555.96	1702.06
556.323	1721.27
556.686	1695.05
557.05	1709.52
557.413	1695.28
557.776	1719.01
558.139	1725.11
558.502	1755.17
558.865	1710.42
559.228	1723.08
559.59	1726.01
559.953	1727.6
560.316	1729.18
560.679	1733.47
561.041	1707.94
561.404	1724.66
561.767	1723.53
562.129	1725.34
562.492	1748.84
562.854	1743.87
563.217	1737.77
563.579	1768.95
563.941	1763.08
564.304	1745.45
564.666	1743.41
565.028	1770.98
565.39	1785.9
565.753	1784.77
566.115	1738.89
566.477	1782.28
566.839	1780.25
567.201	1802.17
567.563	1788.16
567.925	1754.04
568.287	1770.98
568.648	1803.53
569.01	1775.5
569.372	1796.97
569.734	1794.26
570.095	1759.23
570.457	1816.63
570.819	1773.92
571.18	1805.33
571.542	1814.37
571.903	1801.27
572.265	1793.36
572.626	1787.71
572.987	1816.18
573.349	1821.15
573.71	1817.08
574.071	1850.3
574.432	1839.46
574.794	1824.99
575.155	1836.29
575.516	1836.29
575.877	1828.61
576.238	1832.23
576.599	1874.71
576.96	1827.03
577.32	1833.36
577.681	1844.2
578.042	1860.7
578.403	1833.36
578.763	1834.03
579.124	1834.94
579.485	1856.18
579.845	1860.93
580.206	1855.05
580.566	1851.66
580.927	1876.97
581.287	1834.71
581.648	1832.68
582.008	1884.43
582.368	1874.48
582.728	1896.18
583.089	1864.32
583.449	1844.43
583.809	1857.54
584.169	1877.87
584.529	1853.02
584.889	1846.01
585.249	1848.72
585.609	1869.96
585.969	1859.57
586.329	1872.9
586.688	1884.88
587.048	1910.87
587.408	1837.88
587.768	1866.8
588.127	1871.32
588.487	1871.55
588.846	1878.55
589.206	1875.61
589.565	1864.32
589.925	1884.88
590.284	1910.87
590.643	1886.69
591.003	1911.55
591.362	1889.4
591.721	1914.71
592.08	1880.59
592.44	1862.96
592.799	1894.37
593.158	1886.69
593.517	1889.4
593.876	1904.09
594.235	1923.3
594.593	1914.03
594.952	1904.77
595.311	1916.97
595.67	1928.95
596.029	1919.68
596.387	1905.67
596.746	1955.61
597.104	1930.08
597.463	1912.22
597.822	1890.98
598.18	1927.14
598.538	1916.07
598.897	1915.84
599.255	1914.26
599.613	1933.47
599.972	1904.77
600.33	1924.65
600.688	1944.31
601.046	1927.82
601.404	1952.67
601.762	1945.44
602.12	1942.05
602.478	1963.07
602.836	1938.66
603.194	1942.51
603.552	1940.25
603.91	1942.96
604.268	1964.2
604.625	1933.01
604.983	1935.73
605.341	1921.04
605.698	1977.31
606.056	1949.96
606.413	1961.71
606.771	1969.62
607.128	1962.62
607.485	1973.01
607.843	1951.32
608.2	1956.06
608.557	1971.43
608.914	2001.71
609.272	1992.22
609.629	1991.09
609.986	1959.91
610.343	1990.41
610.7	1983.18
611.057	2002.16
611.414	2022.28
611.771	2015.5
612.127	2000.36
612.484	2010.3
612.841	2010.75
613.198	2002.84
613.554	2014.82
613.911	2014.14
614.267	2035.61
614.624	2036.51
614.98	2024.31
615.337	2035.61
615.693	2071.09
616.05	2041.26
616.406	2047.59
616.762	2033.58
617.118	2031.99
617.475	2020.47
617.831	2042.62
618.187	2083.52
618.543	2032.22
618.899	2081.48
619.255	2030.86
619.611	2067.02
619.967	2048.27
620.323	2077.42
620.678	2088.26
621.034	2066.57
621.39	2082.61
621.746	2097.76
622.101	2092.78
622.457	2083.97
622.812	2110.86
623.168	2082.61
623.523	2100.47
623.879	2118.55
624.234	2066.57
624.589	2099.34
624.945	2084.65
625.3	2106.57
625.655	2083.52
626.01	2116.51
626.365	2083.07
626.72	2097.08
627.075	2123.52
627.43	2127.81
627.785	2118.09
628.14	2140.92
628.495	2140.01
628.85	2136.62
629.205	2131.2
629.559	2135.49
629.914	2140.01
630.269	2150.41
630.623	2126.91
630.978	2161.03
631.332	2157.87
631.687	2154.93
632.041	2162.84
632.396	2160.13
632.75	2147.25
633.104	2178.66
633.459	2157.19
633.813	2172.33
634.167	2187.92
634.521	2168.94
634.875	2192.22
635.229	2229.05
635.583	2193.57
635.937	2184.53
636.291	2184.76
636.645	2162.16
636.999	2207.13
637.352	2229.5
637.706	2184.53
638.06	2208.04
638.413	2215.49
638.767	2236.51
639.121	2194.02
639.474	2234.48
639.828	2257.07
640.181	2277.41
640.534	2280.58
640.888	2241.71
641.241	2254.59
641.594	2293.91
641.947	2248.71
642.301	2253.91
642.654	2286.9
643.007	2320.35
643.36	2301.14
643.713	2268.82
644.066	2298.65
644.419	2298.43
644.771	2317.18
645.124	2295.94
645.477	2297.52
645.83	2283.74
646.182	2302.27
646.535	2302.72
646.888	2309.95
647.24	2285.55
647.593	2316.96
647.945	2329.61
648.298	2324.87
648.65	2354.25
649.002	2351.31
649.355	2392.89
649.707	2386.56
650.059	2381.14
650.411	2411.87
650.763	2420.91
651.115	2452.1
651.467	2479.89
651.819	2494.36
652.171	2495.71
652.523	2415.26
652.875	2502.04
653.227	2508.82
653.578	2502.04
653.93	2502.49
654.282	2484.19
654.633	2515.6
654.985	2571.19
655.337	2557.4
655.688	2565.54
656.039	2548.14
656.391	2555.14
656.742	2571.64
657.094	2580
657.445	2574.13
657.796	2590.17
658.147	2624.07
658.498	2626.33
658.849	2674.24
659.2	2653.22
659.551	2681.24
659.902	2682.6
660.253	2729.38
660.604	2736.61
660.955	2700
661.306	2766.89
661.656	2732.54
662.007	2789.71
662.358	2771.86
662.708	2740.68
663.059	2808.02
663.409	2805.99
663.76	2832.88
664.11	2833.33
664.461	2874.23
664.811	2857.51
665.161	2908.81
665.511	2887.11
665.862	2895.93
666.212	2936.15
666.562	2987
666.912	2956.49
667.262	2943.84
667.612	2987.68
667.962	2967.34
668.312	3011.18
668.662	3003.95
669.011	3024.06
669.361	3057.96
669.711	3071.74
670.06	3082.36
670.41	3022.7
670.76	3092.08
671.109	3123.27
671.459	3128.01
671.808	3178.18
672.157	3167.78
672.507	3177.5
672.856	3153.32
673.205	3167.56
673.554	3222.47
673.904	3240.32
674.253	3285.29
674.602	3252.3
674.951	3245.52
675.3	3232.19
675.649	3249.14
675.998	3292.98
676.346	3291.62
676.695	3284.62
677.044	3301.34
677.393	3313.32
677.741	3325.07
678.09	3359.42
678.438	3354.45
678.787	3393.54
679.135	3405.97
679.484	3388.12
679.832	3447.32
680.181	3410.26
680.529	3396.93
680.877	3432.41
681.225	3427.44
681.573	3490.71
681.922	3469.92
682.27	3471.05
682.618	3497.94
682.966	3499.3
683.314	3528.45
683.661	3503.14
684.009	3497.49
684.357	3505.63
684.705	3546.31
685.053	3547.43
685.4	3542.24
685.748	3578.39
686.095	3592.63
686.443	3597.83
686.79	3586.76
687.138	3610.48
687.485	3612.97
687.832	3602.8
688.18	3563.48
688.527	3603.03
688.874	3598.96
689.221	3639.86
689.568	3637.38
689.915	3609.13
690.262	3655
690.609	3626.08
690.956	3638.28
691.303	3649.35
691.65	3669.47
691.997	3654.32
692.344	3645.29
692.69	3661.56
693.037	3650.94
693.383	3645.51
693.73	3708.79
694.077	3625.63
694.423	3653.87
694.769	3646.19
695.116	3682.8
695.462	3660.65
695.808	3655.91
696.155	3696.13
696.501	3695.91
696.847	3703.36
697.193	3704.72
697.539	3714.44
697.885	3674.21
698.231	3665.85
698.577	3666.53
698.923	3659.3
699.269	3693.87
699.614	3665.17
699.96	3622.01
700.306	3660.2
700.651	3652.06
700.997	3666.08
701.342	3653.87
701.688	3615.68
702.033	3677.83
702.379	3646.19
702.724	3627.66
703.069	3661.78
703.415	3629.92
703.76	3607.32
704.105	3631.05
704.45	3631.95
704.795	3601.67
705.14	3625.63
705.485	3615.46
705.83	3588.56
706.175	3599.86
706.52	3639.18
706.865	3627.43
707.209	3576.36
707.554	3603.7
707.899	3595.57
708.243	3592.63
708.588	3548.11
708.932	3579.07
709.277	3581.11
709.621	3581.78
709.966	3543.37
710.31	3537.27
710.654	3550.37
710.998	3568.68
711.342	3551.5
711.687	3544.72
712.031	3544.05
712.375	3539.98
712.719	3563.71
713.063	3542.24
713.407	3576.36
713.75	3531.62
714.094	3549.47
714.438	3519.41
714.782	3563.25
715.125	3525.97
715.469	3560.77
715.812	3532.52
716.156	3529.36
716.499	3557.15
716.843	3536.36
717.186	3507.44
717.53	3509.02
717.873	3514.44
718.216	3543.59
718.559	3502.24
718.902	3525.97
719.246	3517.83
719.589	3525.51
719.932	3507.44
720.275	3511.28
720.617	3545.63
720.96	3533.2
721.303	3476.02
721.646	3524.84
721.989	3497.72
722.331	3544.27
722.674	3526.19
723.016	3530.94
723.359	3498.17
723.701	3538.62
724.044	3531.62
724.386	3525.51
724.729	3504.72
725.071	3496.59
725.413	3537.27
725.755	3537.49
726.097	3497.72
726.439	3525.06
726.782	3518.51
727.124	3591.05
727.465	3555.12
727.807	3538.62
728.149	3525.97
728.491	3544.72
728.833	3550.6
729.175	3546.98
729.516	3546.31
729.858	3550.6
730.199	3552.41
730.541	3540.88
730.882	3543.37
731.224	3552.63
731.565	3544.5
731.906	3531.84
732.248	3541.11
732.589	3570.26
732.93	3545.18
733.271	3575.23
733.612	3548.56
733.953	3550.15
734.294	3551.95
734.635	3600.09
734.976	3605.51
735.317	3582.91
735.658	3576.81
735.999	3600.31
736.339	3610.48
736.68	3607.32
737.021	3614.1
737.361	3580.88
737.702	3669.92
738.042	3603.93
738.383	3625.17
738.723	3617.26
739.063	3648.22
739.404	3662.01
739.744	3662.01
740.084	3683.93
740.424	3664.27
740.764	3688.67
741.104	3639.64
741.444	3631.5
741.784	3695.45
742.124	3693.87
742.464	3718.05
742.804	3705.4
743.143	3721.22
743.483	3723.93
743.823	3772.06
744.162	3770.93
744.502	3790.82
744.841	3798.95
745.181	3787.2
745.52	3842.34
745.86	3825.85
746.199	3826.07
746.538	3810.03
746.877	3848.22
747.216	3847.09
747.556	3866.52
747.895	3878.27
748.234	3880.99
748.573	3918.95
748.911	3961.66
749.25	3957.82
749.589	3950.59
749.928	3991.94
750.267	4024.26
750.605	3986.52
750.944	4021.55
751.283	4047.99
751.621	4064.94
751.96	4095.67
752.298	4113.52
752.636	4117.36
752.975	4151.71
753.313	4151.49
753.651	4194.65
753.989	4158.72
754.327	4179.06
754.666	4221.54
755.004	4255.66
755.342	4258.15
755.679	4280.98
756.017	4310.35
756.355	4331.82
756.693	4310.35
757.031	4347.87
757.368	4347.87
757.706	4366.85
758.044	4412.27
758.381	4440.74
758.719	4411.37
759.056	4440.29
759.394	4469.44
759.731	4497.01
760.068	4493.85
760.405	4486.62
760.743	4475.32
761.08	4528.2
761.417	4533.4
761.754	4542.21
762.091	4546.96
762.428	4568.65
762.765	4569.33
763.102	4624.69
763.438	4579.27
763.775	4575.66
764.112	4574.3
764.449	4575.66
764.785	4625.15
765.122	4609.55
765.458	4577.69
765.795	4654.07
766.131	4700.62
766.467	4627.63
766.804	4628.76
767.14	4648.2
767.476	4606.62
767.812	4653.85
768.148	4647.97
768.485	4617.69
768.821	4637.8
769.157	4701.75
769.492	4669.44
769.828	4675.09
770.164	4629.44
770.5	4621.31
770.836	4607.97
771.171	4608.2
771.507	4622.89
771.842	4565.26
772.178	4608.42
772.513	4584.7
772.849	4592.61
773.184	4595.09
773.519	4557.35
773.855	4559.61
774.19	4555.77
774.525	4604.13
774.86	4549.22
775.195	4508.99
775.53	4538.82
775.865	4527.52
776.2	4482.33
776.535	4501.99
776.87	4499.05
777.205	4504.47
777.539	4492.49
777.874	4446.62
778.209	4464.7
778.543	4436
778.878	4428.99
779.212	4388.77
779.547	4404.14
779.881	4413.17
780.215	4352.16
780.55	4405.94
780.884	4376.11
781.218	4350.13
781.552	4349.67
781.886	4330.01
782.22	4282.33
782.554	4273.52
782.888	4268.55
783.222	4269.22
783.556	4257.92
783.889	4281.2
784.223	4212.28
784.557	4233.97
784.89	4272.39
785.224	4180.64
785.557	4197.36
785.891	4196.91
786.224	4139.51
786.558	4219.96
786.891	4154.65
787.224	4138.61
787.557	4106.52
787.891	4113.75
788.224	4117.36
788.557	4074.65
788.89	4099.96
789.223	4103.35
789.556	4053.18
789.888	4051.6
790.221	4079.4
790.554	4016.12
790.887	4017.25
791.219	4046.4
791.552	4030.13
791.884	3984.94
792.217	3954.88
792.549	3986.29
792.882	3946.52
793.214	3929.8
793.546	3941.1
793.879	3886.86
794.211	3879.86
794.543	3919.4
794.875	3899.06
795.207	3915.11
795.539	3906.75
795.871	3897.48
796.203	3861.78
796.535	3822.23
796.867	3799.41
797.198	3834.89
797.53	3835.34
797.862	3808.67
798.193	3792.4
798.525	3753.08
798.856	3794.21
799.188	3760.54
799.519	3698.62
799.85	3716.02
800.182	3720.99
800.513	3671.05
800.844	3661.33
801.175	3703.36
801.506	3729.8
801.837	3656.81
802.168	3682.57
802.499	3672.18
802.83	3624.27
803.161	3666.08
803.491	3657.26
803.822	3647.32
804.153	3622.46
804.483	3591.05
804.814	3597.6
805.145	3575.23
805.475	3615.23
805.805	3505.4
806.136	3562.35
806.466	3554.44
806.796	3568
807.126	3514.44
807.457	3537.72
807.787	3516.25
808.117	3539.3
808.447	3495.01
808.777	3499.53
809.107	3495.46
809.436	3448.45
809.766	3425.18
810.096	3482.35
810.426	3398.51
810.755	3430.83
811.085	3433.99
811.414	3453.65
811.744	3431.96
812.073	3433.09
812.403	3425.63
812.732	3422.92
813.061	3386.99
813.39	3351.06
813.719	3360.1
814.049	3413.43
814.378	3354.9
814.707	3360.32
815.036	3379.08
815.365	3343.6
815.693	3304.5
816.022	3363.03
816.351	3307.89
816.68	3278.97
817.008	3281
817.337	3290.72
817.665	3280.1
817.994	3273.32
818.322	3303.83
818.651	3236.93
818.979	3249.36
819.307	3278.52
819.636	3227.9
819.964	3238.29
820.292	3247.33
820.62	3250.95
820.948	3260.44
821.276	3219.99
821.604	3206.43
821.932	3215.92
822.259	3257.27
822.587	3235.58
822.915	3232.64
823.243	3246.2
823.57	3214.34
823.898	3220.44
824.225	3227.22
824.553	3221.12
824.88	3236.71
825.207	3258.63
825.535	3233.32
825.862	3241.23
826.189	3221.57
826.516	3216.6
826.843	3264.05
827.17	3236.71
827.497	3201.68
827.824	3227.9
828.151	3260.44
828.478	3222.25
828.805	3241.68
829.131	3226.77
829.458	3205.98
829.785	3212.3
830.111	3222.47
830.438	3211.4
830.764	3224.73
831.09	3254.56
831.417	3233.77
831.743	3236.93
832.069	3213.88
832.395	3243.49
832.722	3247.33
833.048	3195.35
833.374	3197.61
833.7	3226.99
834.026	3186.99
834.351	3162.13
834.677	3199.42
835.003	3199.87
835.329	3201.46
835.654	3228.57
835.98	3158.07
836.306	3209.14
836.631	3191.29
836.956	3168.24
837.282	3169.37
837.607	3168.24
837.932	3140.44
838.258	3171.85
838.583	3153.55
838.908	3159.65
839.233	3115.36
839.558	3139.54
839.883	3143.83
840.208	3100.89
840.533	3120.55
840.858	3136.15
841.182	3145.41
841.507	3073.1
841.832	3088.24
842.156	3066.32
842.481	3100.89
842.805	3100.67
843.13	3072.65
843.454	3085.07
843.778	3092.08
844.103	3094.79
844.427	3071.52
844.751	3072.87
845.075	3041.46
845.399	3008.92
845.723	3014.34
846.047	3033.32
846.371	2970.28
846.695	3001.46
847.019	3032.65
847.343	2990.16
847.666	2964.4
847.99	2922.82
848.313	2937.51
848.637	2978.41
848.96	2931.41
849.284	2917.4
849.607	2893.67
849.931	2870.62
850.254	2881.24
850.577	2850.05
850.9	2866.32
851.223	2863.16
851.546	2847.79
851.869	2804.18
852.192	2828.36
852.515	2805.08
852.838	2826.78
853.161	2818.41
853.483	2787
853.806	2767.57
854.129	2776.61
854.451	2786.78
854.774	2752.88
855.096	2777.29
855.419	2765.76
855.741	2738.87
856.063	2714.01
856.385	2722.37
856.708	2747.23
857.03	2707.91
857.352	2703.16
857.674	2693.45
857.996	2729.6
858.318	2667.46
858.64	2686.89
858.961	2652.77
859.283	2666.55
859.605	2642.83
859.926	2670.17
860.248	2634.46
860.57	2628.14
860.891	2661.13
861.212	2635.14
861.534	2622.04
861.855	2617.52
862.176	2593.56
862.498	2575.48
862.819	2590.17
863.14	2602.83
863.461	2616.84
863.782	2594.47
864.103	2597.18
864.424	2581.36
864.745	2588.36
865.065	2558.99
865.386	2554.47
865.707	2530.74
866.027	2556.27
866.348	2567.57
866.668	2568.7
866.989	2546.56
867.309	2519.21
867.63	2502.26
867.95	2550.4
868.27	2514.92
868.59	2556.5
868.91	2505.88
869.23	2527.35
869.55	2487.12
869.87	2497.29
870.19	2545.65
870.51	2490.51
870.83	2495.03
871.15	2505.88
871.469	2477.86
871.789	2505.43
872.109	2501.36
872.428	2440.35
872.748	2496.39
873.067	2449.16
873.386	2488.48
873.706	2478.08
874.025	2465.66
874.344	2450.97
874.663	2471.76
874.982	2479.67
875.301	2443.06
875.62	2446
875.939	2440.8
876.258	2447.58
876.577	2467.46
876.896	2420.68
877.214	2443.96
877.533	2437.63
877.852	2426.11
878.17	2409.39
878.489	2450.06
878.807	2414.36
879.125	2417.07
879.444	2420.68
879.762	2377.3
880.08	2415.49
880.398	2400.12
880.716	2421.81
881.034	2364.87
881.352	2396.73
881.67	2401.7
881.988	2397.18
882.306	2398.31
882.624	2397.18
882.941	2363.74
883.259	2362.38
883.577	2388.37
883.894	2334.59
884.212	2334.81
884.529	2362.83
884.846	2360.57
885.164	2356.73
885.481	2352.66
885.798	2330.74
886.115	2295.49
886.432	2357.41
886.75	2304.53
887.067	2322.83
887.383	2293.46
887.7	2307.47
888.017	2300.46
888.334	2329.61
888.651	2316.51
888.967	2307.02
889.284	2284.42
889.6	2258.43
889.917	2250.75
890.233	2247.36
890.55	2245.55
890.866	2255.04
891.182	2240.8
891.498	2255.49
891.815	2211.65
892.131	2229.73
892.447	2241.93
892.763	2221.37
893.079	2208.49
893.395	2200.35
893.71	2195.15
894.026	2156.51
894.342	2229.28
894.657	2189.5
894.973	2175.04
895.289	2209.17
895.604	2163.97
895.92	2120.81
896.235	2169.84
896.55	2175.04
896.865	2163.29
897.181	2143.18
897.496	2166.45
897.811	2129.85
898.126	2090.07
898.441	2110.64
898.756	2117.87
899.071	2090.52
899.386	2079.45
899.7	2088.26
900.015	2047.36
900.33	2060.02
900.644	2087.13
900.959	2077.64
901.273	2049.62
901.588	2066.57
901.902	2047.81
902.216	2049.4
902.531	2062.5
902.845	2018.89
903.159	2017.98
903.473	2007.81
903.787	1992.67
904.101	1979.11
904.415	1974.14
904.729	1998.1
905.042	1984.76
905.356	1951.77
905.67	1975.72
905.984	2012.11
906.297	1980.47
906.611	1948.15
906.924	1965.33
907.237	1937.99
907.551	1950.41
907.864	1934.82
908.177	1927.14
908.491	1939.57
908.804	1923.97
909.117	1916.97
909.43	1898.21
909.743	1900.02
910.056	1902.51
910.368	1902.28
910.681	1875.16
910.994	1859.34
911.307	1855.05
911.619	1835.39
911.932	1887.14
912.244	1880.36
912.557	1836.07
912.869	1808.05
913.181	1822.96
913.494	1825.9
913.806	1791.32
914.118	1806.92
914.43	1805.11
914.742	1783.64
915.054	1801.94
915.366	1751.78
915.678	1778.44
915.99	1766.92
916.302	1746.58
916.613	1778.44
916.925	1764.43
917.236	1748.16
917.548	1715.62
917.859	1755.62
918.171	1755.17
918.482	1729.18
918.794	1734.83
919.105	1723.3
919.416	1724.88
919.727	1724.66
920.038	1706.58
920.349	1703.64
920.66	1666.35
920.971	1701.38
921.282	1686.24
921.593	1655.06
921.903	1658.67
922.214	1667.26
922.525	1665.68
922.835	1646.24
923.146	1636.3
923.456	1626.58
923.767	1648.05
924.077	1611.89
924.387	1623.87
924.697	1601.95
925.008	1618.67
925.318	1586.36
925.628	1584.1
925.938	1581.16
926.248	1589.29
926.558	1574.83
926.867	1561.05
927.177	1577.32
927.487	1560.14
927.796	1554.04
928.106	1576.19
928.416	1561.05
928.725	1557.2
929.034	1536.64
929.344	1533.25
929.653	1545.91
929.962	1522.86
930.271	1473.59
930.581	1499.58
930.89	1500.48
931.199	1478.79
931.508	1513.59
931.817	1489.18
932.125	1509.97
932.434	1478.11
932.743	1459.81
933.051	1479.01
933.36	1468.17
933.669	1468.62
933.977	1465.91
934.286	1449.19
934.594	1433.82
934.902	1426.59
935.21	1429.98
935.519	1427.72
935.827	1421.62
936.135	1437.89
936.443	1412.35
936.751	1393.14
937.059	1413.25
937.367	1378.23
937.674	1398.56
937.982	1398.56
938.29	1392.01
938.597	1394.72
938.905	1360.83
939.213	1389.53
939.52	1375.29
939.827	1373.71
940.135	1363.99
940.442	1379.13
940.749	1353.14
941.056	1347.27
941.363	1336.87
941.67	1350.88
941.977	1347.49
942.284	1331.67
942.591	1326.02
942.898	1330.32
943.205	1342.75
943.511	1301.17
943.818	1306.36
944.125	1297.32
944.431	1292.58
944.738	1304.1
945.044	1265.24
945.35	1289.64
945.657	1279.25
945.963	1286.03
946.269	1270.88
946.575	1234.05
946.881	1297.32
947.187	1242.64
947.493	1266.14
947.799	1274.95
948.105	1253.48
948.41	1243.77
948.716	1239.02
949.022	1233.15
949.327	1218.91
949.633	1222.07
949.938	1207.84
950.244	1213.94
950.549	1220.72
950.854	1216.87
951.16	1200.38
951.465	1196.31
951.77	1183.2
952.075	1201.06
952.38	1208.51
952.685	1175.52
952.99	1184.33
953.294	1195.41
953.599	1166.93
953.904	1147.27
954.209	1171.9
954.513	1182.98
954.818	1166.48
955.122	1154.96
955.426	1135.97
955.731	1133.49
956.035	1160.61
956.339	1111.11
956.643	1149.31
956.948	1143.43
957.252	1127.16
957.556	1128.06
957.86	1104.11
958.163	1109.53
958.467	1140.04
958.771	1127.39
959.075	1109.08
959.378	1125.8
959.682	1114.5
959.985	1080.61
960.289	1097.78
960.592	1079.25
960.896	1093.26
961.199	1100.72
961.502	1113.37
961.805	1077.67
962.108	1075.64
962.411	1079.25
962.714	1070.44
963.017	1059.36
963.32	1060.72
963.623	1055.3
963.926	1052.36
964.228	1050.33
964.531	1035.86
964.833	1053.49
965.136	1048.74
965.438	1012.13
965.741	1015.98
966.043	1043.32
966.345	1034.73
966.648	1043.09
966.95	998.8
967.252	1033.6
967.554	1044.9
967.856	1010.33
968.158	970.55
968.46	997.67
968.761	989.54
969.063	999.48
969.365	991.12
969.666	986.15
969.968	976.66
970.269	999.03
970.571	974.62
970.872	960.84
971.174	988.41
971.475	974.17
971.776	964.23
972.077	958.8
972.378	966.71
972.679	953.6
972.98	953.15
973.281	957.22
973.582	963.77
973.883	949.76
974.183	945.02
974.484	932.59
974.785	920.39
975.085	955.64
975.386	951.8
975.686	912.48
975.986	940.72
976.287	932.14
976.587	929.42
976.887	926.71
977.187	928.52
977.487	931.46
977.787	921.74
978.087	912.93
978.387	897.34
978.687	917.67
978.987	895.08
979.286	898.24
979.586	906.37
979.885	888.52
980.185	906.37
980.484	892.82
980.784	865.92
981.083	874.51
981.382	869.54
981.682	887.39
981.981	871.12
982.28	896.43
982.579	851.01
982.878	880.61
983.177	882.42
983.475	870.9
983.774	867.73
984.073	830.9
984.372	851.46
984.67	849.43
984.969	853.49
985.267	836.09
985.566	856.66
985.864	854.62
986.162	836.55
986.461	825.47
986.759	840.61
987.057	828.41
987.355	834.29
987.653	833.61
987.951	819.15
988.249	812.37
988.547	806.94
988.844	803.78
989.142	835.42
989.44	813.95
989.737	797.22
990.035	814.85
990.332	799.71
990.63	788.19
990.927	807.17
991.224	797.45
991.521	799.48
991.819	788.64
992.116	785.93
992.413	805.59
992.71	788.19
993.006	764.23
993.303	766.94
993.6	764.68
993.897	779.82
994.193	791.12
994.49	756.32
994.787	774.85
995.083	740.73
995.379	745.25
995.676	751.58
995.972	765.81
996.268	739.6
996.565	758.13
996.861	734.18
997.157	735.76
997.453	738.92
997.749	708.64
998.044	737.11
998.34	721.29
998.636	741.41
998.932	716.55
999.227	736.21
999.523	728.98
999.818	708.41
1000.114	722.2
1000.409	721.07
1000.704	698.02
1001	720.16
1001.295	734.85
1001.59	705.7
1001.885	707.51
1002.18	703.89
1002.475	710.22
1002.77	692.59
1003.065	705.7
1003.359	705.48
1003.654	699.83
1003.949	704.35
1004.243	697.11
1004.538	695.98
1004.832	683.33
1005.127	681.3
1005.421	704.8
1005.715	677.45
1006.009	660.05
1006.304	697.34
1006.598	681.52
1006.892	662.31
1007.186	662.09
1007.48	685.82
1007.773	653.73
1008.067	653.05
1008.361	676.55
1008.655	657.79
1008.948	653.5
1009.242	639.94
1009.535	646.27
1009.829	643.78
1010.122	636.33
1010.415	644.91
1010.708	629.32
1011.001	621.64
1011.295	632.03
1011.588	625.93
1011.881	624.8
1012.173	585.25
1012.466	614.63
1012.759	607.17
1013.052	631.81
1013.344	609.21
1013.637	652.14
1013.93	604.46
1014.222	617.34
1014.514	611.02
1014.807	619.83
1015.099	608.76
1015.391	637.23
1015.683	608.76
1015.976	598.13
1016.268	595.87
1016.56	599.26
1016.851	589.32
1017.143	589.32
1017.435	596.78
1017.727	594.97
1018.018	580.51
1018.31	594.74
1018.602	593.16
1018.893	571.69
1019.185	575.31
1019.476	563.11
1019.767	567.63
1020.058	571.47
1020.35	584.12
1020.641	558.59
1020.932	549.55
1021.223	552.26
1021.514	564.91
1021.804	566.27
1022.095	555.65
1022.386	570.11
1022.677	575.08
1022.967	559.49
1023.258	584.58
1023.548	562.88
1023.839	550.68
1024.129	510.9
1024.419	519.94
1024.709	522.66
1025	544.12
1025.29	547.97
1025.58	530.11
1025.87	546.61
1026.16	532.82
1026.449	543.9
1026.739	517.23
1027.029	526.05
1027.319	520.85
1027.608	522.2
1027.898	512.49
1028.187	509.77
1028.477	506.38
1028.766	528.08
1029.055	524.46
1029.344	521.75
1029.634	497.12
1029.923	488.08
1030.212	498.7
1030.501	522.43
1030.79	506.16
1031.078	511.58
1031.367	491.47
1031.656	505.26
1031.945	496.89
1032.233	495.09
1032.522	477.01
1032.81	473.84
1033.099	488.08
1033.387	483.11
1033.675	482.66
1033.963	472.71
1034.251	493.5
1034.54	502.32
1034.828	467.29
1035.116	481.53
1035.403	486.95
1035.691	484.92
1035.979	459.83
1036.267	472.94
1036.554	455.09
1036.842	460.51
1037.129	486.27
1037.417	463.45
1037.704	461.64
1037.992	477.23
1038.279	476.56
1038.566	451.47
1038.853	451.47
1039.14	451.47
