Data from blue_surface_keyboard_FLMS001491_064.txt Node
Date: Tue Feb 07 11:13:29 GMT 2017
User: dcchb
Spectrometer: FLMS00149
Trigger mode: 0
Integration Time (sec): 2.000000E-2
Scans to average: 10
Electric dark correction enabled: true
Nonlinearity correction enabled: false
Boxcar width: 0
XAxis mode: Wavelengths
Number of Pixels in Spectrum: 2048
>>>>>Begin Spectral Data<<<<<
341.393	-0.82
341.776	-0.82
342.16	-0.82
342.543	-60.25
342.927	-51.67
343.31	-73.13
343.693	-60.48
344.077	-54.83
344.46	-69.52
344.843	-38.78
345.226	-39.46
345.61	-22.06
345.993	-21.16
346.376	-10.76
346.759	20.88
347.142	4.83
347.525	31.72
347.908	60.42
348.291	78.73
348.674	92.51
349.057	101.1
349.44	149.69
349.823	139.06
350.206	167.54
350.588	178.39
350.971	177.03
351.354	196.92
351.737	228.1
352.119	252.96
352.502	237.82
352.884	243.24
353.267	282.11
353.65	272.17
354.032	281.66
354.414	284.82
354.797	280.08
355.179	285.27
355.562	304.94
355.944	279.85
356.326	276.91
356.709	304.03
357.091	301.77
357.473	309.23
357.855	326.4
358.238	309.23
358.62	326.86
359.002	316.69
359.384	320.53
359.766	323.69
360.148	306.52
360.53	319.17
360.912	311.71
361.294	312.62
361.676	310.81
362.057	301.55
362.439	315.56
362.821	302
363.203	311.26
363.584	320.53
363.966	297.7
364.348	293.18
364.729	290.02
365.111	311.94
365.493	274.65
365.874	287.76
366.256	272.85
366.637	296.35
367.019	280.3
367.4	301.32
367.781	275.78
368.163	299.29
368.544	285.95
368.925	283.02
369.306	305.84
369.688	285.05
370.069	288.66
370.45	278.27
370.831	286.86
371.212	287.76
371.593	296.8
371.974	296.57
372.355	278.27
372.736	295.67
373.117	308.55
373.498	294.09
373.879	285.73
374.26	262.68
374.641	303.13
375.021	282.56
375.402	285.95
375.783	301.55
376.163	273.75
376.544	292.51
376.925	303.81
377.305	279.4
377.686	281.43
378.066	295.67
378.447	296.8
378.827	302.45
379.208	269
379.588	299.74
379.968	290.7
380.349	296.8
380.729	307.42
381.109	299.51
381.489	289.57
381.87	321.43
382.25	300.19
382.63	318.95
383.01	316.01
383.39	302
383.77	304.48
384.15	286.86
384.53	299.51
384.91	305.39
385.29	311.04
385.67	323.01
386.049	314.88
386.429	294.77
386.809	309.46
387.189	293.64
387.568	302
387.948	324.37
388.328	330.47
388.707	296.35
389.087	313.75
389.466	332.96
389.846	327.76
390.225	318.27
390.605	317.14
390.984	325.5
391.363	324.14
391.743	326.86
392.122	325.5
392.501	328.89
392.881	339.74
393.26	320.98
393.639	303.58
394.018	323.24
394.397	344.48
394.776	326.86
395.155	330.02
395.534	320.53
395.913	329.57
396.292	326.4
396.671	344.71
397.05	326.18
397.429	332.96
397.808	334.77
398.186	349.23
398.565	341.77
398.944	348.1
399.323	332.73
399.701	323.24
400.08	342
400.458	342.22
400.837	341.09
401.215	348.78
401.594	340.41
401.972	337.7
402.351	345.16
402.729	350.81
403.107	332.05
403.486	355.78
403.864	331.83
404.242	366.18
404.62	330.47
404.999	344.26
405.377	337.93
405.755	337.48
406.133	356.69
406.511	348.1
406.889	351.94
407.267	357.82
407.645	368.66
408.023	372.96
408.401	369.11
408.779	364.82
409.156	364.59
409.534	366.63
409.912	350.81
410.29	371.83
410.667	373.41
411.045	349.45
411.422	365.5
411.8	361.43
412.178	352.62
412.555	377.25
412.933	382.45
413.31	379.96
413.687	383.13
414.065	381.32
414.442	393.07
414.819	389.45
415.197	401.43
415.574	373.18
415.951	389
416.328	386.74
416.705	382.9
417.082	380.87
417.46	399.4
417.837	389.91
418.214	398.72
418.591	388.32
418.967	395.55
419.344	413.63
419.721	412.73
420.098	392.62
420.475	379.28
420.852	401.88
421.228	403.46
421.605	403.92
421.982	412.73
422.358	397.59
422.735	427.19
423.111	410.92
423.488	415.22
423.864	411.37
424.241	423.58
424.617	412.96
424.994	439.62
425.37	419.51
425.746	431.71
426.123	413.41
426.499	394.88
426.875	412.96
427.251	433.75
427.627	449.79
428.003	428.1
428.379	431.49
428.756	433.52
429.132	427.19
429.507	438.04
429.883	451.82
430.259	450.69
430.635	450.24
431.011	436.01
431.387	448.89
431.763	452.05
432.138	461.09
432.514	444.37
432.89	467.87
433.265	465.38
433.641	462.9
434.016	470.81
434.392	493.18
434.767	482.56
435.143	483.01
435.518	473.74
435.894	478.49
436.269	479.85
436.644	497.25
437.02	490.02
437.395	476
437.77	507.87
438.145	504.7
438.52	495.44
438.895	512.16
439.271	488.66
439.646	527.08
440.021	512.61
440.395	525.04
440.77	507.19
441.145	491.37
441.52	542.67
441.895	516.68
442.27	530.47
442.645	533.18
443.019	527.75
443.394	526.62
443.769	508.09
444.143	507.64
444.518	523.91
444.892	547.87
445.267	521.43
445.641	563.91
446.016	537.25
446.39	520.52
446.764	543.8
447.139	518.26
447.513	556.68
447.887	555.1
448.262	559.62
448.636	564.36
449.01	571.82
449.384	539.28
449.758	567.75
450.132	558.71
450.506	558.04
450.88	557.36
451.254	577.47
451.628	557.58
452.002	564.82
452.376	580.18
452.75	567.75
453.123	563.69
453.497	606.85
453.871	608.66
454.244	604.14
454.618	612.5
454.992	587.41
455.365	620.63
455.739	614.76
456.112	605.27
456.486	596.91
456.859	598.04
457.232	630.12
457.606	619.73
457.979	608.2
458.352	638.26
458.725	625.38
459.099	641.88
459.472	639.84
459.845	649.11
460.218	655.21
460.591	638.71
460.964	665.15
461.337	671.48
461.71	669.9
462.083	687.75
462.456	675.55
462.829	680.07
463.201	675.77
463.574	682.78
463.947	693.4
464.32	701.76
464.692	714.42
465.065	710.12
465.438	692.95
465.81	732.95
466.183	720.29
466.555	716
466.928	731.14
467.3	731.14
467.672	763.68
468.045	751.03
468.417	741.08
468.789	753.29
469.161	755.55
469.534	760.74
469.906	776.11
470.278	758.03
470.65	778.37
471.022	772.27
471.394	780.86
471.766	808.65
472.138	824.7
472.51	817.01
472.882	837.58
473.253	827.18
473.625	831.02
473.997	854.3
474.369	857.69
474.74	862.89
475.112	858.37
475.484	866.5
475.855	848.65
476.227	899.95
476.598	897.24
476.97	876.45
477.341	927.07
477.713	914.64
478.084	928.2
478.455	930.46
478.827	949.21
479.198	949.44
479.569	967.97
479.94	957.8
480.311	970.91
480.682	980.85
481.053	1016.56
481.424	1037.57
481.795	1010.23
482.166	1004.8
482.537	1014.97
482.908	1046.61
483.279	1056.78
483.65	1066.95
484.021	1071.02
484.391	1091.58
484.762	1084.8
485.133	1094.52
485.503	1105.59
485.874	1108.08
486.244	1115.76
486.615	1115.76
486.985	1110.79
487.356	1137.23
487.726	1172.48
488.097	1199.15
488.467	1162.31
488.837	1171.81
489.207	1203.67
489.578	1201.18
489.948	1216.32
490.318	1219.04
490.688	1226.72
491.058	1224.69
491.428	1251.58
491.798	1257.9
492.168	1263.33
492.538	1241.63
492.908	1270.79
493.278	1289.99
493.648	1285.93
494.017	1279.83
494.387	1290.45
494.757	1300.16
495.126	1299.03
495.496	1292.48
495.866	1314.17
496.235	1303.78
496.605	1338.13
496.974	1353.95
497.344	1338.35
497.713	1332.03
498.082	1343.55
498.452	1343.78
498.821	1343.55
499.19	1346.26
499.559	1332.48
499.928	1324.8
500.298	1348.52
500.667	1379.48
501.036	1371.57
501.405	1378.58
501.774	1364.57
502.143	1378.58
502.512	1417.45
502.88	1400.05
503.249	1373.38
503.618	1399.6
503.987	1393.95
504.356	1394.62
504.724	1387.62
505.093	1395.3
505.462	1414.96
505.83	1399.14
506.199	1416.54
506.567	1430.56
506.936	1401.4
507.304	1433.72
507.672	1431.46
508.041	1428.97
508.409	1409.31
508.777	1424.23
509.145	1414.51
509.514	1430.33
509.882	1434.62
510.25	1462.42
510.618	1431.46
510.986	1458.35
511.354	1458.8
511.722	1457
512.09	1470.55
512.458	1457.22
512.826	1496.77
513.193	1486.6
513.561	1437.34
513.929	1489.09
514.297	1445.47
514.664	1455.64
515.032	1464.9
515.4	1503.32
515.767	1508.75
516.135	1489.76
516.502	1502.87
516.869	1519.59
517.237	1507.84
517.604	1488.18
517.972	1511.91
518.339	1500.61
518.706	1490.89
519.073	1509.42
519.44	1520.5
519.808	1535.19
520.175	1503.77
520.542	1532.47
520.909	1507.84
521.276	1519.82
521.643	1532.7
522.009	1534.96
522.376	1523.66
522.743	1523.43
523.11	1551
523.477	1533.15
523.843	1545.58
524.21	1546.26
524.577	1545.35
524.943	1561.17
525.31	1574.28
525.676	1586.71
526.043	1587.84
526.409	1616.31
526.776	1578.8
527.142	1602.98
527.508	1601.4
527.874	1584.68
528.241	1598.91
528.607	1611.12
528.973	1623.32
529.339	1613.83
529.705	1617.9
530.071	1595.07
530.437	1626.48
530.803	1634.17
531.169	1665.35
531.535	1614.96
531.901	1613.6
532.267	1639.14
532.632	1652.47
532.998	1657.22
533.364	1629.87
533.73	1634.62
534.095	1629.87
534.461	1668.74
534.826	1648.18
535.192	1645.01
535.557	1662.41
535.923	1646.6
536.288	1642.98
536.653	1647.73
537.019	1647.73
537.384	1676.88
537.749	1653.83
538.114	1635.07
538.479	1636.65
538.845	1655.18
539.21	1628.74
539.575	1631.45
539.94	1674.39
540.305	1648.85
540.67	1655.63
541.034	1677.1
541.399	1653.6
541.764	1652.7
542.129	1671.68
542.494	1686.82
542.858	1682.75
543.223	1662.64
543.587	1698.57
543.952	1638.23
544.316	1660.38
544.681	1679.81
545.045	1668.52
545.41	1682.3
545.774	1667.61
546.138	1657.44
546.503	1642.53
546.867	1671
547.231	1675.52
547.595	1651.79
547.959	1706.93
548.324	1674.39
548.688	1678.91
549.052	1664.67
549.416	1699.25
549.779	1682.98
550.143	1688.63
550.507	1690.66
550.871	1664.45
551.235	1684.56
551.599	1689.08
551.962	1665.8
552.326	1668.74
552.689	1688.85
553.053	1696.31
553.417	1676.2
553.78	1701.28
554.143	1711.45
554.507	1674.62
554.87	1699.25
555.234	1701.73
555.597	1692.47
555.96	1712.36
556.323	1679.36
556.686	1695.41
557.05	1731.79
557.413	1703.09
557.776	1674.62
558.139	1708.97
558.502	1722.98
558.865	1736.54
559.228	1695.41
559.59	1730.43
559.953	1692.24
560.316	1713.49
560.679	1725.92
561.041	1727.72
561.404	1740.83
561.767	1743.54
562.129	1738.57
562.492	1758.46
562.854	1745.35
563.217	1752.13
563.579	1744.45
563.941	1713.03
564.304	1759.81
564.666	1758.46
565.028	1775.86
565.39	1756.2
565.753	1769.53
566.115	1780.15
566.477	1769.08
566.839	1739.25
567.201	1754.61
567.563	1767.95
567.925	1803.88
568.287	1810.66
568.648	1788.06
569.01	1762.52
569.372	1786.93
569.734	1805.24
570.095	1790.32
570.457	1815.18
570.819	1814.27
571.18	1802.98
571.542	1809.3
571.903	1822.18
572.265	1798.91
572.626	1812.01
572.987	1805.69
573.349	1790.77
573.71	1821.28
574.071	1836.19
574.432	1862.41
574.794	1818.34
575.155	1830.77
575.516	1821.73
575.877	1841.39
576.238	1836.87
576.599	1839.36
576.96	1814.05
577.32	1837.55
577.681	1829.64
578.042	1829.87
578.403	1819.47
578.763	1829.64
579.124	1859.47
579.485	1866.25
579.845	1863.31
580.206	1854.5
580.566	1863.54
580.927	1861.96
581.287	1887.04
581.648	1856.08
582.008	1874.61
582.368	1841.62
582.728	1866.48
583.089	1831.9
583.449	1882.07
583.809	1861.73
584.169	1866.93
584.529	1860.83
584.889	1902.18
585.249	1872.35
585.609	1858.34
585.969	1913.25
586.329	1872.58
586.688	1870.32
587.048	1871.9
587.408	1910.32
587.768	1886.81
588.127	1862.18
588.487	1866.7
588.846	1884.33
589.206	1891.11
589.565	1898.11
589.925	1863.09
590.284	1885.91
590.643	1872.58
591.003	1906.25
591.362	1913.03
591.721	1871.9
592.08	1886.36
592.44	1880.71
592.799	1914.84
593.158	1890.66
593.517	1885.46
593.876	1880.04
594.235	1905.35
594.593	1890.88
594.952	1908.96
595.311	1903.09
595.67	1896.76
596.029	1927.94
596.387	1927.49
596.746	1916.19
597.104	1896.98
597.463	1931.11
597.822	1910.09
598.18	1892.24
598.538	1915.74
598.897	1914.84
599.255	1896.98
599.613	1936.08
599.972	1944.89
600.33	1926.14
600.688	1932.69
601.046	1935.63
601.404	1951.45
601.762	1942.63
602.12	1943.76
602.478	1937.66
602.836	1924.55
603.194	1951.22
603.552	1943.08
603.91	1936.31
604.268	1933.59
604.625	1971.11
604.983	1933.37
605.341	1942.63
605.698	1957.77
606.056	1953.71
606.413	1971.11
606.771	1925.23
607.128	1959.13
607.485	1943.99
607.843	1956.42
608.2	2004.33
608.557	1981.73
608.914	1988.96
609.272	1983.76
609.629	1947.15
609.986	1991.9
610.343	1993.48
610.7	2013.14
611.057	1996.64
611.414	2006.81
611.771	1976.53
612.127	1980.6
612.484	1981.5
612.841	2018.79
613.198	1993.7
613.554	2028.73
613.911	1991.9
614.267	2033.03
614.624	2016.75
614.98	2029.86
615.337	2046.13
615.693	2043.42
616.05	2059.24
616.406	2070.31
616.762	2018.11
617.118	2034.61
617.475	2052.69
617.831	2057.66
618.187	2078
618.543	2058.79
618.899	2087.94
619.255	2076.64
619.611	2068.28
619.967	2078.9
620.323	2100.82
620.678	2071.67
621.034	2028.05
621.39	2064.44
621.746	2089.3
622.101	2094.04
622.457	2084.78
622.812	2096.75
623.168	2077.77
623.523	2084.55
623.879	2086.36
624.234	2108.28
624.589	2107.15
624.945	2085.68
625.3	2115.28
625.655	2104.21
626.01	2109.41
626.365	2144.89
626.72	2101.27
627.075	2109.41
627.43	2136.98
627.785	2122.97
628.14	2113.7
628.495	2123.64
628.85	2132.23
629.205	2139.46
629.559	2169.07
629.914	2130.2
630.269	2155.06
630.623	2106.47
630.978	2184.43
631.332	2170.2
631.687	2159.12
632.041	2133.59
632.396	2184.89
632.75	2151.67
633.104	2156.64
633.459	2187.82
633.813	2168.39
634.167	2180.14
634.521	2191.89
634.875	2185.79
635.229	2199.57
635.583	2193.93
635.937	2173.81
636.291	2197.77
636.645	2181.04
636.999	2230.08
637.352	2227.14
637.706	2195.06
638.06	2204.09
638.413	2228.95
638.767	2211.55
639.121	2196.86
639.474	2222.63
639.828	2259.23
640.181	2249.29
640.534	2272.34
640.888	2270.31
641.241	2242.96
641.594	2250.42
641.947	2253.58
642.301	2263.08
642.654	2291.32
643.007	2289.74
643.36	2313.47
643.713	2304.88
644.066	2328.16
644.419	2333.36
644.771	2307.14
645.124	2301.04
645.477	2306.01
645.83	2314.83
646.182	2324.54
646.535	2306.69
646.888	2307.82
647.24	2323.19
647.593	2312.11
647.945	2329.97
648.298	2320.02
648.65	2340.59
649.002	2340.81
649.355	2347.37
649.707	2340.81
650.059	2361.38
650.411	2378.1
650.763	2448.83
651.115	2450.42
651.467	2468.27
651.819	2469.17
652.171	2494.03
652.523	2448.83
652.875	2485.9
653.227	2507.82
653.578	2549.17
653.93	2505.33
654.282	2517.31
654.633	2534.48
654.985	2515.72
655.337	2558.66
655.688	2562.73
656.039	2598.43
656.391	2569.51
656.742	2580.81
657.094	2604.08
657.445	2595.5
657.796	2633.46
658.147	2584.88
658.498	2616.51
658.849	2674.82
659.2	2661.94
659.551	2620.58
659.902	2689.51
660.253	2718.66
660.604	2720.92
660.955	2730.18
661.306	2740.8
661.656	2726.34
662.007	2779.67
662.358	2789.39
662.708	2804.53
663.059	2810.63
663.409	2827.81
663.76	2810.86
664.11	2852.44
664.461	2849.73
664.811	2892.44
665.161	2879.33
665.511	2895.15
665.862	2924.53
666.212	2935.37
666.562	2944.41
666.912	2966.11
667.262	2955.94
667.612	2999.55
667.962	2977.41
668.312	3018.31
668.662	3032.32
669.011	3009.27
669.361	3043.62
669.711	3080
670.06	3047.46
670.41	3038.2
670.76	3075.03
671.109	3097.86
671.459	3119.1
671.808	3096.27
672.157	3152.32
672.507	3134.69
672.856	3189.38
673.205	3193.9
673.554	3186.89
673.904	3233.9
674.253	3266.44
674.602	3236.16
674.951	3175.82
675.3	3214.92
675.649	3287.23
675.998	3264.63
676.346	3289.26
676.695	3321.81
677.044	3286.33
677.393	3320.45
677.741	3338.08
678.09	3379.43
678.438	3332.88
678.787	3376.95
679.135	3396.15
679.484	3373.56
679.832	3396.83
680.181	3409.49
680.529	3423.27
680.877	3443.61
681.225	3468.24
681.573	3489.03
681.922	3435.25
682.27	3457.17
682.618	3481.35
682.966	3487.9
683.314	3495.13
683.661	3494.91
684.009	3524.74
684.357	3536.49
684.705	3503.27
685.053	3579.65
685.4	3571.52
685.748	3542.14
686.095	3588.01
686.443	3574.68
686.79	3599.54
687.138	3572.87
687.485	3597.73
687.832	3596.6
688.18	3584.17
688.527	3616.94
688.874	3614.45
689.221	3600.67
689.568	3608.8
689.915	3637.73
690.262	3645.64
690.609	3636.83
690.956	3696.26
691.303	3627.11
691.65	3662.59
691.997	3646.77
692.344	3655.81
692.69	3670.27
693.037	3670.27
693.383	3629.82
693.73	3688.8
694.077	3672.3
694.423	3684.06
694.769	3692.42
695.116	3716.15
695.462	3647.67
695.808	3656.49
696.155	3677.05
696.501	3674.34
696.847	3704.62
697.193	3649.71
697.539	3699.65
697.885	3661.68
698.231	3638.41
698.577	3710.95
698.923	3680.89
699.269	3652.42
699.614	3641.34
699.96	3688.8
700.306	3655.13
700.651	3650.61
700.997	3620.55
701.342	3619.42
701.688	3666.66
702.033	3646.99
702.379	3618.97
702.724	3592.76
703.069	3656.71
703.415	3624.62
703.76	3603.83
704.105	3609.48
704.45	3651.74
704.795	3608.8
705.14	3581.01
705.485	3620.78
705.83	3625.3
706.175	3612.19
706.52	3564.06
706.865	3605.41
707.209	3562.02
707.554	3642.25
707.899	3601.8
708.243	3555.47
708.588	3577.84
708.932	3549.37
709.277	3599.76
709.621	3571.74
709.966	3572.87
710.31	3548.24
710.654	3518.86
710.998	3576.71
711.342	3574.91
711.687	3557.73
712.031	3560.67
712.375	3529.03
712.719	3523.61
713.063	3586.21
713.407	3542.36
713.75	3517.28
714.094	3508.47
714.438	3562.48
714.782	3538.97
715.125	3497.85
715.469	3538.52
715.812	3532.87
716.156	3510.73
716.499	3513.21
716.843	3530.84
717.186	3540.1
717.53	3566.54
717.873	3544.4
718.216	3529.48
718.559	3536.94
718.902	3476.6
719.246	3559.31
719.589	3506.66
719.932	3508.47
720.275	3503.95
720.617	3495.81
720.96	3540.56
721.303	3569.26
721.646	3537.62
721.989	3508.02
722.331	3548.01
722.674	3549.14
723.016	3521.8
723.359	3497.17
723.701	3523.38
724.044	3533.1
724.386	3516.15
724.729	3521.35
725.071	3479.32
725.413	3515.92
725.755	3504.85
726.097	3531.97
726.439	3513.66
726.782	3521.35
727.124	3567
727.465	3531.52
727.807	3530.61
728.149	3497.39
728.491	3530.39
728.833	3568.13
729.175	3536.04
729.516	3510.95
729.858	3542.14
730.199	3544.62
730.541	3570.39
730.882	3517.51
731.224	3546.66
731.565	3554.79
731.906	3558.41
732.248	3561.8
732.589	3568.35
732.93	3553.66
733.271	3555.92
733.612	3588.01
733.953	3602.25
734.294	3595.24
734.635	3530.61
734.976	3614.68
735.317	3574.91
735.658	3561.57
735.999	3608.35
736.339	3593.21
736.68	3595.24
737.021	3611.74
737.361	3586.66
737.702	3623.94
738.042	3615.13
738.383	3612.42
738.723	3668.91
739.063	3645.86
739.404	3640.44
739.744	3657.16
740.084	3620.78
740.424	3639.54
740.764	3638.41
741.104	3706.88
741.444	3668.91
741.784	3680.89
742.124	3698.97
742.464	3681.57
742.804	3721.57
743.143	3708.69
743.483	3753.66
743.823	3711.4
744.162	3771.51
744.502	3769.7
744.841	3763.38
745.181	3800.44
745.52	3759.76
745.86	3823.26
746.199	3792.75
746.538	3825.97
746.877	3858.51
747.216	3866.2
747.556	3837.05
747.895	3912.75
748.234	3904.39
748.573	3880.89
748.911	3897.84
749.25	3932.18
749.589	3927.44
749.928	3980.09
750.267	4027.55
750.605	4004.27
750.944	4071.62
751.283	4017.83
751.621	4126.08
751.96	4075.23
752.298	4103.03
752.636	4083.14
752.975	4121.56
753.313	4129.02
753.651	4167.66
753.989	4187.32
754.327	4204.27
754.666	4178.28
755.004	4281.33
755.342	4301.44
755.679	4277.26
756.017	4288.33
756.355	4317.26
756.693	4330.14
757.031	4360.2
757.368	4369.24
757.706	4376.47
758.044	4383.25
758.381	4423.25
758.719	4420.99
759.056	4454.88
759.394	4450.14
759.731	4446.3
760.068	4505.28
760.405	4514.54
760.743	4462.57
761.08	4528.78
761.417	4541.66
761.754	4566.07
762.091	4545.28
762.428	4543.24
762.765	4576.69
763.102	4553.64
763.438	4588.21
763.775	4531.49
764.112	4570.36
764.449	4610.58
764.785	4624.14
765.122	4633.86
765.458	4624.6
765.795	4615.33
766.131	4651.04
766.467	4645.16
766.804	4659.17
767.14	4671.15
767.476	4658.27
767.812	4635.22
768.148	4648.55
768.485	4648.1
768.821	4662.11
769.157	4570.36
769.492	4621.21
769.828	4600.42
770.164	4628.89
770.5	4589.12
770.836	4614.43
771.171	4648.1
771.507	4607.87
771.842	4590.47
772.178	4594.77
772.513	4591.83
772.849	4598.38
773.184	4591.38
773.519	4575.78
773.855	4542.56
774.19	4583.47
774.525	4526.75
774.86	4554.09
775.195	4559.96
775.53	4559.06
775.865	4514.54
776.2	4507.31
776.535	4497.14
776.87	4494.2
777.205	4464.83
777.539	4424.15
777.874	4475.9
778.209	4399.52
778.543	4460.76
778.878	4428.67
779.212	4427.09
779.547	4365.17
779.881	4373.98
780.215	4357.26
780.55	4369.91
780.884	4364.49
781.218	4321.55
781.552	4370.82
781.886	4317.94
782.22	4308.9
782.554	4296.92
782.888	4302.12
783.222	4307.99
783.556	4237.94
783.889	4260.76
784.223	4233.65
784.557	4252.18
784.89	4257.83
785.224	4183.25
785.557	4234.32
785.891	4196.13
786.224	4142.57
786.558	4154.1
786.891	4122.69
787.224	4148.22
787.557	4140.77
787.891	4096.47
788.224	4081.79
788.557	4105.29
788.89	4108
789.223	4056.48
789.556	4056.02
789.888	4050.37
790.221	4038.4
790.554	4053.76
790.887	4053.09
791.219	4025.52
791.552	4011.5
791.884	3991.17
792.217	4034.1
792.549	3952.3
792.882	3942.35
793.214	3917.04
793.546	3900.55
793.879	3889.47
794.211	3880.43
794.543	3885.41
794.875	3917.5
795.207	3910.49
795.539	3881.11
795.871	3879.98
796.203	3877.72
796.535	3813.32
796.867	3837.27
797.198	3861
797.53	3806.54
797.862	3806.54
798.193	3779.42
798.525	3753.88
798.856	3782.81
799.188	3770.38
799.519	3722.47
799.85	3695.35
800.182	3698.52
800.513	3719.76
800.844	3698.74
801.175	3713.43
801.506	3699.87
801.837	3697.84
802.168	3661.01
802.499	3643.15
802.83	3648.58
803.161	3678.63
803.491	3619.2
803.822	3656.49
804.153	3620.55
804.483	3566.54
804.814	3597.28
805.145	3567.9
805.475	3575.36
805.805	3528.35
806.136	3582.59
806.466	3521.8
806.796	3521.57
807.126	3529.71
807.457	3519.99
807.787	3533.1
808.117	3505.76
808.447	3501.46
808.777	3521.35
809.107	3502.82
809.436	3506.89
809.766	3447
810.096	3492.42
810.426	3441.35
810.755	3447.23
811.085	3475.47
811.414	3432.54
811.744	3409.03
812.073	3420.11
812.403	3362.93
812.732	3383.72
813.061	3375.59
813.39	3386.44
813.719	3343.05
814.049	3364.06
814.378	3343.27
814.707	3331.07
815.036	3339.43
815.365	3343.73
815.693	3322.94
816.022	3299.88
816.351	3314.12
816.68	3295.37
817.008	3280.22
817.337	3282.26
817.665	3286.78
817.994	3287.91
818.322	3298.76
818.651	3290.17
818.979	3243.16
819.307	3243.62
819.636	3270.51
819.964	3251.07
820.292	3263.95
820.62	3274.57
820.948	3265.99
821.276	3250.85
821.604	3207.91
821.932	3244.52
822.259	3214.24
822.587	3210.85
822.915	3209.49
823.243	3240
823.57	3221.92
823.898	3255.59
824.225	3255.37
824.553	3201.58
824.88	3216.72
825.207	3231.64
825.535	3216.5
825.862	3203.84
826.189	3213.56
826.516	3247.46
826.843	3232.77
827.17	3222.82
827.497	3262.37
827.824	3249.72
828.151	3197.29
828.478	3219.44
828.805	3241.81
829.131	3243.16
829.458	3222.15
829.785	3232.77
830.111	3197.97
830.438	3240.23
830.764	3215.14
831.09	3242.49
831.417	3205.88
831.743	3226.21
832.069	3214.01
832.395	3218.76
832.722	3197.29
833.048	3220.57
833.374	3239.32
833.7	3199.77
834.026	3223.95
834.351	3206.1
834.677	3176.05
835.003	3177.18
835.329	3200.23
835.654	3149.38
835.98	3188.02
836.306	3177.18
836.631	3169.72
836.956	3190.51
837.282	3162.94
837.607	3165.2
837.932	3151.19
838.258	3177.18
838.583	3172.88
838.908	3149.15
839.233	3125.88
839.558	3134.69
839.883	3116.84
840.208	3142.38
840.533	3118.87
840.858	3098.99
841.182	3111.19
841.507	3117.52
841.832	3093.56
842.156	3127.01
842.481	3067.12
842.805	3103.28
843.13	3078.42
843.454	3082.49
843.778	3058.99
844.103	3065.54
844.427	3056.5
844.751	3055.82
845.075	3056.28
845.399	3050.17
845.723	2996.16
846.047	3024.86
846.371	2999.1
846.695	2976.05
847.019	2998.2
847.343	3005.43
847.666	2941.02
847.99	2940.8
848.313	2930.63
848.637	2950.97
848.96	2927.47
849.284	2927.92
849.607	2942.15
849.931	2896.51
850.254	2881.14
850.577	2883.62
850.9	2823.51
851.223	2857.64
851.546	2861.25
851.869	2862.38
852.192	2842.27
852.515	2817.19
852.838	2767.02
853.161	2805.66
853.483	2796.4
853.806	2747.36
854.129	2763.4
854.451	2753.91
854.774	2769.96
855.096	2783.29
855.419	2744.19
855.741	2716.85
856.063	2691.77
856.385	2707.81
856.708	2699.45
857.03	2691.77
857.352	2701.26
857.674	2684.08
857.996	2670.52
858.318	2656.29
858.64	2656.06
858.961	2675.27
859.283	2653.57
859.605	2619.45
859.926	2627.81
860.248	2641.82
860.57	2645.44
860.891	2609.06
861.212	2637.98
861.534	2604.31
861.855	2611.54
862.176	2615.61
862.498	2605.44
862.819	2589.62
863.14	2600.92
863.461	2603.18
863.782	2594.14
864.103	2591.66
864.424	2580.58
864.745	2577.64
865.065	2564.99
865.386	2572.45
865.707	2584.42
866.027	2570.19
866.348	2560.92
866.668	2554.59
866.989	2528.38
867.309	2540.58
867.63	2526.8
867.95	2527.7
868.27	2517.76
868.59	2509.4
868.91	2547.14
869.23	2503.3
869.55	2504.2
869.87	2520.47
870.19	2541.71
870.51	2538.32
870.83	2517.98
871.15	2515.5
871.469	2509.4
871.789	2504.2
872.109	2434.37
872.428	2462.39
872.748	2508.04
873.067	2455.39
873.386	2475.27
873.706	2500.36
874.025	2463.52
874.344	2437.53
874.663	2448.16
874.982	2464.88
875.301	2425.11
875.62	2427.37
875.939	2441.15
876.258	2460.59
876.577	2451.77
876.896	2441.6
877.214	2419.46
877.533	2436.86
877.852	2454.94
878.17	2407.71
878.489	2384.2
878.807	2451.77
879.125	2431.43
879.444	2418.55
879.762	2398.44
880.08	2414.26
880.398	2383.98
880.716	2437.53
881.034	2376.97
881.352	2391.66
881.67	2386.69
881.988	2375.16
882.306	2387.14
882.624	2396.41
882.941	2359.12
883.259	2335.16
883.577	2334.49
883.894	2368.38
884.212	2356.63
884.529	2350.31
884.846	2377.2
885.164	2358.89
885.481	2337.42
885.798	2310.53
886.115	2303.98
886.432	2306.46
886.75	2329.52
887.067	2307.82
887.383	2291.78
887.7	2321.61
888.017	2286.8
888.334	2303.3
888.651	2270.53
888.967	2291.1
889.284	2252.23
889.6	2301.72
889.917	2251.1
890.233	2284.77
890.55	2240.48
890.866	2244.32
891.182	2246.58
891.498	2244.09
891.815	2266.92
892.131	2197.99
892.447	2236.18
892.763	2218.56
893.079	2228.95
893.395	2202.74
893.71	2200.7
894.026	2200.93
894.342	2199.57
894.657	2189.18
894.973	2168.84
895.289	2184.21
895.604	2168.16
895.92	2170.65
896.235	2161.38
896.55	2165.9
896.865	2130.88
897.181	2146.92
897.496	2153.93
897.811	2137.43
898.126	2108.73
898.441	2116.19
898.756	2113.02
899.071	2080.26
899.386	2111.89
899.7	2079.58
900.015	2070.31
900.33	2083.19
900.644	2072.57
900.959	2049.3
901.273	2044.32
901.588	2001.61
901.902	2043.42
902.216	2064.66
902.531	2068.96
902.845	2020.37
903.159	2027.83
903.473	2025.34
903.787	2028.51
904.101	2028.05
904.415	2013.37
904.729	1990.31
905.042	1988.51
905.356	1983.54
905.67	1951.22
905.984	1970.2
906.297	1967.26
906.611	1946.7
906.924	1961.16
907.237	1966.81
907.551	1924.78
907.864	1928.85
908.177	1917.32
908.491	1931.33
908.804	1922.29
909.117	1914.61
909.43	1884.33
909.743	1883.43
910.056	1900.37
910.368	1871
910.681	1875.74
910.994	1858.34
911.307	1865.12
911.619	1851.11
911.932	1877.32
912.244	1861.28
912.557	1855.18
912.869	1823.09
913.181	1840.49
913.494	1813.82
913.806	1801.62
914.118	1804.78
914.43	1786.48
914.742	1806.82
915.054	1779.7
915.366	1741.73
915.678	1791.9
915.99	1782.64
916.302	1759.59
916.613	1755.52
916.925	1746.25
917.236	1713.71
917.548	1733.82
917.859	1703.99
918.171	1741.96
918.482	1737.67
918.794	1732.92
919.105	1711.9
919.416	1732.47
919.727	1693.6
920.038	1703.54
920.349	1682.07
920.66	1677.55
920.971	1664.67
921.282	1648.63
921.593	1704.67
921.903	1643.66
922.214	1652.47
922.525	1652.02
922.835	1654.96
923.146	1631
923.456	1612.47
923.767	1645.92
924.077	1629.19
924.387	1614.96
924.697	1613.83
925.008	1597.56
925.318	1589.42
925.628	1574.28
925.938	1591.68
926.248	1559.14
926.558	1562.98
926.867	1578.57
927.177	1571.34
927.487	1565.47
927.796	1553.49
928.106	1549.42
928.416	1548.52
928.725	1561.85
929.034	1548.74
929.344	1531.57
929.653	1514.62
929.962	1524.34
930.271	1514.4
930.581	1501.97
930.89	1519.14
931.199	1478.69
931.508	1496.54
931.817	1498.8
932.125	1488.18
932.434	1507.62
932.743	1481.18
933.051	1470.78
933.36	1486.15
933.669	1440.95
933.977	1433.72
934.286	1453.38
934.594	1464.68
934.902	1456.09
935.21	1446.15
935.519	1457.9
935.827	1425.36
936.135	1439.37
936.443	1416.77
936.751	1413.83
937.059	1412.03
937.367	1382.65
937.674	1428.97
937.982	1407.05
938.29	1402.99
938.597	1374.06
938.905	1359.15
939.213	1351.24
939.52	1358.24
939.827	1370.22
940.135	1359.37
940.442	1366.83
940.749	1336.09
941.056	1335.42
941.363	1354.4
941.67	1338.13
941.977	1344.23
942.284	1323.44
942.591	1339.71
942.898	1326.15
943.205	1332.03
943.511	1330.9
943.818	1276.66
944.125	1282.54
944.431	1311.46
944.738	1308.07
945.044	1283.21
945.35	1264.91
945.657	1288.64
945.963	1287.51
946.269	1272.82
946.575	1276.66
946.881	1252.93
947.187	1263.78
947.493	1236.44
947.799	1261.52
948.105	1244.12
948.41	1257.68
948.716	1243.67
949.022	1223.78
949.327	1224.69
949.633	1211.35
949.938	1227.17
950.244	1235.08
950.549	1216.1
950.854	1225.59
951.16	1197.34
951.465	1209.32
951.77	1210.22
952.075	1179.71
952.38	1179.71
952.685	1189.43
952.99	1188.98
953.294	1169.55
953.599	1193.05
953.904	1167.96
954.209	1151.24
954.513	1153.5
954.818	1191.24
955.122	1165.7
955.426	1137.46
955.731	1165.7
956.035	1165.25
956.339	1128.87
956.643	1148.3
956.948	1165.25
957.252	1137.46
957.556	1135.65
957.86	1136.1
958.163	1117.34
958.467	1127.74
958.771	1116.89
959.075	1109.43
959.378	1088.42
959.682	1075.54
959.985	1070.11
960.289	1092.49
960.592	1096.78
960.896	1083.67
961.199	1101.3
961.502	1096.78
961.805	1045.03
962.108	1069.66
962.411	1052.49
962.714	1057.68
963.017	1075.76
963.32	1038.02
963.623	1044.13
963.926	1053.16
964.228	1052.26
964.531	1015.88
964.833	1061.07
965.136	1040.74
965.438	1036.22
965.741	1025.82
966.043	1028.76
966.345	1035.76
966.648	1030.57
966.95	1008.42
967.252	1009.32
967.554	1031.92
967.856	1002.77
968.158	995.31
968.46	997.35
968.761	1003.45
969.063	994.41
969.365	995.31
969.666	993.73
969.968	987.63
970.269	962.77
970.571	987.63
970.872	990.12
971.174	957.57
971.475	985.6
971.776	970.68
972.077	965.94
972.378	962.32
972.679	958.93
972.98	971.81
973.281	977.01
973.582	941.08
973.883	934.07
974.183	944.69
974.484	935.88
974.785	957.8
975.085	942.21
975.386	949.44
975.686	923.45
975.986	932.72
976.287	925.48
976.587	943.34
976.887	938.37
977.187	896.56
977.487	910.12
977.787	917.35
978.087	910.57
978.387	928.42
978.687	908.31
978.987	906.5
979.286	898.59
979.586	872.38
979.885	890.68
980.185	917.8
980.484	888.87
980.784	893.39
981.083	885.26
981.382	887.52
981.682	866.28
981.981	870.57
982.28	852.94
982.579	865.15
982.878	857.92
983.177	836.22
983.475	854.53
983.774	867.41
984.073	868.54
984.372	871.25
984.67	843
984.969	858.14
985.267	836.67
985.566	867.86
985.864	838.48
986.162	840.97
986.461	846.16
986.759	831.93
987.057	826.96
987.355	813.62
987.653	804.58
987.951	828.99
988.249	821.76
988.547	833.28
988.844	807.52
989.142	806.17
989.44	813.62
989.737	788.31
990.035	776.79
990.332	799.16
990.63	807.97
990.927	793.28
991.224	787.86
991.521	784.24
991.819	789.44
992.116	791.02
992.413	789.89
992.71	774.08
993.006	772.04
993.303	804.81
993.6	781.08
993.897	781.08
994.193	795.77
994.49	776.34
994.787	761.19
995.083	762.32
995.379	727.07
995.676	737.01
995.972	721.65
996.268	761.87
996.565	756.22
996.861	747.64
997.157	749.22
997.453	735.66
997.749	719.16
998.044	729.33
998.34	752.38
998.636	738.14
998.932	727.07
999.227	744.47
999.523	734.98
999.818	711.93
1000.114	722.55
1000.409	722.33
1000.704	716.9
1001	734.75
1001.295	727.3
1001.59	716
1001.885	716.45
1002.18	706.73
1002.475	694.3
1002.77	697.47
1003.065	688.65
1003.359	690.91
1003.654	688.43
1003.949	690.01
1004.243	694.76
1004.538	691.59
1004.832	670.8
1005.127	697.47
1005.421	694.3
1005.715	658.82
1006.009	673.97
1006.304	666.06
1006.598	671.48
1006.892	685.26
1007.186	650.92
1007.48	652.27
1007.773	644.14
1008.067	644.59
1008.361	637.58
1008.655	666.06
1008.948	633.29
1009.242	636
1009.535	633.74
1009.829	625.83
1010.122	631.03
1010.415	640.52
1010.708	624.93
1011.001	640.97
1011.295	636.68
1011.588	660.41
1011.881	613.4
1012.173	629.9
1012.466	611.59
1012.759	613.63
1013.052	636.45
1013.344	613.4
1013.637	633.97
1013.93	613.63
1014.222	605.27
1014.514	617.02
1014.807	604.59
1015.099	583.35
1015.391	598.04
1015.683	631.71
1015.976	619.96
1016.268	591.03
1016.56	588.54
1016.851	592.61
1017.143	596.68
1017.435	573.63
1017.727	558.94
1018.018	580.18
1018.31	586.28
1018.602	576.79
1018.893	560.97
1019.185	570.24
1019.476	591.93
1019.767	597.58
1020.058	580.86
1020.35	576.57
1020.641	570.47
1020.932	571.14
1021.223	581.31
1021.514	569.34
1021.804	548.77
1022.095	569.11
1022.386	546.96
1022.677	565.27
1022.967	560.75
1023.258	556.68
1023.548	537.7
1023.839	539.73
1024.129	534.53
1024.419	514.65
1024.709	555.55
1025	544.03
1025.29	543.12
1025.58	526.4
1025.87	524.14
1026.16	534.76
1026.449	522.78
1026.739	522.56
1027.029	534.31
1027.319	525.04
1027.608	509.22
1027.898	535.89
1028.187	509.22
1028.477	523.46
1028.766	521.88
1029.055	508.77
1029.344	511.48
1029.634	497.92
1029.923	496.79
1030.212	515.55
1030.501	509.45
1030.79	506.29
1031.078	463.35
1031.367	484.59
1031.656	490.02
1031.945	499.73
1032.233	495.44
1032.522	494.76
1032.81	489.56
1033.099	497.02
1033.387	469.22
1033.675	509.9
1033.963	473.52
1034.251	489.79
1034.54	480.98
1034.828	479.85
1035.116	478.72
1035.403	449.34
1035.691	471.71
1035.979	469.68
1036.267	505.16
1036.554	461.99
1036.842	450.47
1037.129	446.17
1037.417	472.61
1037.704	464.25
1037.992	474.65
1038.279	462.67
1038.566	469.68
1038.853	469.68
1039.14	469.68
