Data from blue_shiny_book_FLMS001491_00067.txt Node
Date: Wed Feb 08 15:27:22 GMT 2017
User: dcchb
Spectrometer: FLMS00149
Trigger mode: 0
Integration Time (sec): 2.000000E-2
Scans to average: 10
Electric dark correction enabled: true
Nonlinearity correction enabled: false
Boxcar width: 0
XAxis mode: Wavelengths
Number of Pixels in Spectrum: 2048
>>>>>Begin Spectral Data<<<<<
341.393	-26.31
341.776	-26.31
342.16	-26.31
342.543	-47.78
342.927	-84.84
343.31	-78.06
343.693	-66.99
344.077	-66.99
344.46	-68.35
344.843	-64.73
345.226	-47.1
345.61	-31.28
345.993	-10.04
346.376	10.97
346.759	8.49
347.142	38.54
347.525	28.83
347.908	58.66
348.291	63.18
348.674	110.63
349.057	114.25
349.44	121.03
349.823	149.28
350.206	170.74
350.588	201.03
350.971	214.58
351.354	236.05
351.737	256.84
352.119	245.32
352.502	246.67
352.884	291.87
353.267	303.4
353.65	309.27
354.032	321.02
354.414	325.99
354.797	309.05
355.179	326.9
355.562	341.59
355.944	333
356.326	344.98
356.709	340.68
357.091	333.23
357.473	374.35
357.855	359.44
358.238	370.96
358.62	349.95
359.002	338.2
359.384	367.35
359.766	358.31
360.148	351.98
360.53	380.23
360.912	361.47
361.294	355.15
361.676	358.76
362.057	361.47
362.439	372.32
362.821	361.25
363.203	359.21
363.584	335.49
363.966	334.81
364.348	358.08
364.729	362.15
365.111	366.67
365.493	368.7
365.874	364.86
366.256	355.15
366.637	329.38
367.019	339.1
367.4	351.3
367.781	352.21
368.163	335.26
368.544	357.41
368.925	353.79
369.306	349.5
369.688	337.29
370.069	347.91
370.45	369.38
370.831	349.5
371.212	369.61
371.593	331.87
371.974	335.26
372.355	345.2
372.736	339.33
373.117	352.21
373.498	361.93
373.879	384.52
374.26	362.15
374.641	358.76
375.021	369.38
375.402	366.67
375.783	349.27
376.163	370.06
376.544	377.74
376.925	366.9
377.305	372.32
377.686	385.43
378.066	379.1
378.447	404.64
378.827	387.01
379.208	384.3
379.588	392.89
379.968	384.75
380.349	389.95
380.729	394.69
381.109	392.66
381.489	382.72
381.87	420
382.25	416.84
382.63	412.77
383.01	401.92
383.39	422.04
383.77	436.27
384.15	430.4
384.53	439.21
384.91	422.94
385.29	445.77
385.67	435.82
386.049	450.28
386.429	448.02
386.809	431.53
387.189	442.83
387.568	443.28
387.948	451.19
388.328	464.75
388.707	480.79
389.087	470.62
389.466	481.24
389.846	491.87
390.225	472.88
390.605	488.02
390.984	500.68
391.363	489.61
391.743	498.87
392.122	519.89
392.501	511.3
392.881	520.79
393.26	497.97
393.639	518.53
394.018	516.95
394.397	523.28
394.776	547.91
395.155	568.47
395.534	558.08
395.913	551.3
396.292	531.41
396.671	579.32
397.05	562.82
397.429	579.09
397.808	576.16
398.186	577.51
398.565	594.91
398.944	566.44
399.323	589.72
399.701	598.98
400.08	622.48
400.458	605.99
400.837	627
401.215	607.79
401.594	647.57
401.972	664.97
402.351	667.91
402.729	657.74
403.107	655.48
403.486	675.82
403.864	690.28
404.242	670.62
404.62	721.01
404.999	693.89
405.377	720.33
405.755	695.93
406.133	715.59
406.511	723.5
406.889	774.8
407.267	759.66
407.645	774.8
408.023	791.52
408.401	801.46
408.779	809.6
409.156	794.23
409.534	818.41
409.912	819.99
410.29	843.49
410.667	848.01
411.045	873.1
411.422	878.3
411.8	894.79
412.178	903.15
412.555	920.55
412.933	956.49
413.31	967.33
413.687	984.51
414.065	980.67
414.442	1000.78
414.819	992.19
415.197	1007.33
415.574	1032.19
415.951	1049.82
416.328	1058.18
416.705	1062.47
417.082	1059.53
417.46	1092.98
417.837	1122.58
418.214	1103.83
418.591	1097.95
418.967	1104.05
419.344	1133.88
419.721	1169.36
420.098	1168.23
420.475	1182.69
420.852	1175.46
421.228	1204.84
421.605	1253.88
421.982	1250.94
422.358	1249.59
422.735	1262.01
423.111	1285.97
423.488	1288.68
423.864	1319.19
424.241	1328.68
424.617	1325.97
424.994	1345.63
425.37	1395.12
425.746	1396.7
426.123	1405.74
426.499	1438.28
426.875	1450.48
427.251	1453.2
427.627	1486.87
428.003	1515.12
428.379	1542.23
428.756	1515.12
429.132	1564.61
429.507	1589.24
429.883	1633.3
430.259	1692.74
430.635	1670.59
431.011	1678.73
431.387	1732.28
431.763	1780.19
432.138	1796.01
432.514	1788.78
432.89	1790.14
433.265	1842.56
433.641	1860.42
434.016	1908.1
434.392	1940.42
434.767	1968.66
435.143	1967.53
435.518	2051.15
435.894	2027.42
436.269	2100.86
436.644	2123.91
437.02	2124.14
437.395	2135.89
437.77	2183.57
438.145	2185.61
438.52	2221.76
438.895	2259.5
439.271	2247.07
439.646	2328.43
440.021	2341.53
440.395	2332.95
440.77	2349.44
441.145	2361.65
441.52	2443.9
441.895	2427.41
442.27	2475.99
442.645	2434.19
443.019	2513.73
443.394	2499.72
443.769	2537.01
444.143	2504.02
444.518	2588.53
444.892	2604.35
445.267	2606.16
445.641	2657.46
446.016	2711.02
446.39	2731.35
446.764	2747.17
447.139	2701.07
447.513	2761.18
447.887	2768.87
448.262	2792.6
448.636	2790.56
449.01	2845.02
449.384	2885.25
449.758	2909.2
450.132	2957.56
450.506	3003.44
450.88	2985.59
451.254	3068.97
451.628	3058.8
452.002	3071.91
452.376	3149.65
452.75	3165.02
453.123	3190.1
453.497	3197.78
453.871	3205.69
454.244	3350.1
454.618	3334.73
454.992	3374.73
455.365	3432.81
455.739	3528.62
456.112	3578.34
456.486	3600.26
456.859	3616.76
457.232	3716.87
457.606	3676.87
457.979	3715.51
458.352	3827.82
458.725	3881.83
459.099	3858.56
459.472	3913.02
459.845	4020.59
460.218	4074.14
460.591	4077.53
460.964	4185.33
461.337	4273.69
461.71	4312.56
462.083	4393.23
462.456	4461.48
462.829	4443.4
463.201	4519.78
463.574	4544.19
463.947	4584.87
464.32	4724.75
464.692	4734.24
465.065	4785.99
465.438	4863.95
465.81	4928.13
466.183	4964.74
466.555	5141.91
466.928	5175.81
467.3	5135.59
467.672	5288.8
468.045	5461.23
468.417	5420.1
468.789	5492.41
469.161	5521.56
469.534	5586.65
469.906	5711.16
470.278	5753.65
470.65	5818.51
471.022	5929.69
471.394	6075
471.766	6151.38
472.138	6196.12
472.51	6356.34
472.882	6469.79
473.253	6544.59
473.625	6678.37
473.997	6807.63
474.369	6827.29
474.74	6897.12
475.112	7047.17
475.484	7133.95
475.855	7295.75
476.227	7281.07
476.598	7516.99
476.97	7606.48
477.341	7776.42
477.713	7902.07
478.084	7977.77
478.455	8262.73
478.827	8333.47
479.198	8599.45
479.569	8623.63
479.94	8869.72
480.311	8897.29
480.682	9084.41
481.053	9308.58
481.424	9414.12
481.795	9532.31
482.166	9691.4
482.537	9765.52
482.908	10079.41
483.279	10177.03
483.65	10349.46
484.021	10648.43
484.391	10728.21
484.762	10850.24
485.133	10993.51
485.503	11106.73
485.874	11386.95
486.244	11423.33
486.615	11676.2
486.985	11841.85
487.356	12026.25
487.726	12151.9
488.097	12376.07
488.467	12512.34
488.837	12734.48
489.207	12901.93
489.578	13117.3
489.948	13197.07
490.318	13451.07
490.688	13518.19
491.058	13784.85
491.428	13984.62
491.798	14105.07
492.168	14459.41
492.538	14426.64
492.908	14656.01
493.278	14858.27
493.648	14819.4
494.017	15022.78
494.387	15253.06
494.757	15410.8
495.126	15566.5
495.496	15522.88
495.866	15718.36
496.235	15940.5
496.605	16217.33
496.974	16279.93
497.344	16433.82
497.713	16512.46
498.082	16612.35
498.452	16899.12
498.821	17020.24
499.19	16977.08
499.559	17110.86
499.928	17286.23
500.298	17371.2
500.667	17609.16
501.036	17642.6
501.405	17897.28
501.774	17958.07
502.143	18204.62
502.512	18233.55
502.88	18445.52
503.249	18372.53
503.618	18705.62
503.987	18750.14
504.356	18786.3
504.724	18932.74
505.093	19099.06
505.462	19207.08
505.83	19286.4
506.199	19414.08
506.567	19678.03
506.936	19722.77
507.304	19926.83
507.672	20116.89
508.041	20187.84
508.409	20376.99
508.777	20553.03
509.145	20790.31
509.514	20801.84
509.882	20954.15
510.25	21066.01
510.618	21174.26
510.986	21315.95
511.354	21362.05
511.722	21588.49
512.09	21942.15
512.458	21766.11
512.826	22025.99
513.193	22206.55
513.561	22377.39
513.929	22428.24
514.297	22744.84
514.664	22794.56
515.032	22936.7
515.4	23268.89
515.767	23252.85
516.135	23352.28
516.502	23456.23
516.869	23867.97
517.237	24029.78
517.604	23879.27
517.972	24181.41
518.339	24225.93
518.706	24348.87
519.073	24382.08
519.44	24681.51
519.808	25033.82
520.175	24969.19
520.542	25369.4
520.909	25468.38
521.276	25532.56
521.643	25844.65
522.009	25970.07
522.376	26241.25
522.743	26372.32
523.11	26735.7
523.477	26998.51
523.843	27008.23
524.21	27285.96
524.577	27538.61
524.943	27560.08
525.31	27777.93
525.676	27936.57
526.043	28104.47
526.409	28246.62
526.776	28617.68
527.142	28662.42
527.508	28966.15
527.874	29188.74
528.241	29410.43
528.607	29630.53
528.973	29788.04
529.339	29830.98
529.705	30143.74
530.071	30454.47
530.437	30538.53
530.803	30727.23
531.169	30981.01
531.535	30816.27
531.901	31067.33
532.267	31042.25
532.632	31351.62
532.998	31471.84
533.364	31523.14
533.73	31621.67
534.095	31866.63
534.461	32059.4
534.826	32161.09
535.192	32318.15
535.557	32696.22
535.923	32705.03
536.288	32905.93
536.653	33128.75
537.019	33115.19
537.384	33243.32
537.749	33478.79
538.114	33563.76
538.479	33553.82
538.845	33639.92
539.21	33409.87
539.575	33771.22
539.94	33801.5
540.305	34013.02
540.67	33922.62
541.034	33955.84
541.399	34138.44
541.764	34199.23
542.129	34271.54
542.494	34495.72
542.858	34689.16
543.223	34828.59
543.587	35127.79
543.952	35062.93
544.316	35336.37
544.681	35287.79
545.045	35552.41
545.41	35817.72
545.774	35695.69
546.138	35664.5
546.503	35742.92
546.867	35708.34
547.231	36006.64
547.595	35951.72
547.959	35951.95
548.324	35976.81
548.688	36040.31
549.052	36209.57
549.416	36238.95
549.779	36311.04
550.143	36407.08
550.507	36697.69
550.871	36713.74
551.235	36949.89
551.599	37251.35
551.962	37272.37
552.326	37458.8
552.689	37642.53
553.053	37435.08
553.417	37619.48
553.78	38023.76
554.143	37786.7
554.507	38042.29
554.87	38104.89
555.234	38351.21
555.597	38050.65
555.96	38245
556.323	38182.17
556.686	38169.52
557.05	38352.57
557.413	38449.29
557.776	38634.14
558.139	38844.76
558.502	39015.15
558.865	39063.05
559.228	39440.45
559.59	39462.59
559.953	39638.41
560.316	40012.63
560.679	40034.1
561.041	40320.42
561.404	40685.39
561.767	40750.02
562.129	40707.31
562.492	41090.35
562.854	40931.25
563.217	40830.69
563.579	40984.59
563.941	41052.61
564.304	41315.2
564.666	41227.97
565.028	41278.14
565.39	41417.8
565.753	41591.35
566.115	41765.36
566.477	41967.39
566.839	41997.21
567.201	42407.6
567.563	42344.78
567.925	42798.55
568.287	42853.69
568.648	43089.84
569.01	43399.66
569.372	43593.78
569.734	43344.98
570.095	43746.32
570.457	43834.91
570.819	43882.36
571.18	43765.3
571.542	43978.18
571.903	43986.99
572.265	43954.23
572.626	44081.45
572.987	44027.9
573.349	44035.13
573.71	44172.98
574.071	44308.11
574.432	44421.56
574.794	44739.74
575.155	44648.9
575.516	44604.15
575.877	44889.34
576.238	44934.09
576.599	45301.31
576.96	45468.31
577.32	45538.14
577.681	45707.17
578.042	45837.57
578.403	46006.83
578.763	45888.19
579.124	46008.86
579.485	46214.05
579.845	46311.45
580.206	46161.17
580.566	46096.77
580.927	46046.15
581.287	46164.79
581.648	45993.72
582.008	46047.73
582.368	45889.54
582.728	45956.88
583.089	45968.64
583.449	45946.04
583.809	46077.11
584.169	46131.8
584.529	46092.25
584.889	46475.74
585.249	46339.47
585.609	46426.48
585.969	46714.83
586.329	46565.23
586.688	46699.69
587.048	46750.08
587.408	46840.25
587.768	46727.71
588.127	46906.92
588.487	46716.86
588.846	47019.91
589.206	46819.24
589.565	46666.92
589.925	46743.98
590.284	46592.8
590.643	46579.02
591.003	46699.01
591.362	46752.8
591.721	46411.11
592.08	46501.5
592.44	46660.37
592.799	46652.91
593.158	46497.21
593.517	46530.66
593.876	46586.92
594.235	46692.46
594.593	46779.69
594.952	46929.06
595.311	46911.21
595.67	47090.87
596.029	47380.12
596.387	47447.02
596.746	47515.04
597.104	47332.22
597.463	47513.68
597.822	47529.05
598.18	47461.93
598.538	47416.51
598.897	47723.39
599.255	47166.34
599.613	47708.03
599.972	47237.76
600.33	47422.38
600.688	47136.97
601.046	47152.11
601.404	47226
601.762	47081.38
602.12	47313.69
602.478	47349.84
602.836	47360.24
603.194	47347.13
603.552	47385.32
603.91	47291.09
604.268	47522.27
604.625	47491.53
604.983	47656.73
605.341	47464.87
605.698	47765.65
606.056	48049.94
606.413	48060.78
606.771	48195.02
607.128	48229.37
607.485	48104.62
607.843	48239.54
608.2	48393.66
608.557	48500.77
608.914	48185.3
609.272	48406.76
609.629	48309.37
609.986	48399.08
610.343	48084.74
610.7	48297.61
611.057	48067.11
611.414	48017.17
611.771	48079.77
612.127	48353.88
612.484	48233.44
612.841	48280.44
613.198	48251.51
613.554	48339.42
613.911	48569.7
614.267	48588.91
614.624	48588.23
614.98	48803.82
615.337	49109.8
615.693	49034.09
616.05	48871.38
616.406	49264.14
616.762	49278.38
617.118	49313.63
617.475	49290.81
617.831	49388.66
618.187	49396.57
618.543	49420.3
618.899	49537.13
619.255	49445.38
619.611	49326.29
619.967	49405.16
620.323	49329.68
620.678	49189.79
621.034	49175.11
621.39	49110.93
621.746	48995
622.101	49395.21
622.457	48993.87
622.812	49107.99
623.168	49169.23
623.523	49122.68
623.879	49172.39
624.234	48989.8
624.589	49239.28
624.945	49380.3
625.3	49369.22
625.655	49319.06
626.01	49390.24
626.365	49497.81
626.72	49404.7
627.075	49637.24
627.43	49768.76
627.785	49537.81
628.14	49695.54
628.495	49760.17
628.85	49672.95
629.205	49498.49
629.559	49763.79
629.914	49388.21
630.269	49466.85
630.623	49317.25
630.978	49257.14
631.332	49313.18
631.687	49360.86
632.041	49107.99
632.396	49102.56
632.75	48752.74
633.104	48790.93
633.459	48735.79
633.813	48757.72
634.167	48775.12
634.521	48688.34
634.875	48619.19
635.229	48535.12
635.583	48526.53
635.937	48542.13
636.291	48606.76
636.645	48693.08
636.999	48652.86
637.352	48678.62
637.706	48559.3
638.06	48879.75
638.413	48675.01
638.767	48615.35
639.121	48613.09
639.474	48481.34
639.828	48514.56
640.181	48470.72
640.534	48545.52
640.888	48280.21
641.241	48213.77
641.594	48120.9
641.947	48134
642.301	48056.72
642.654	48070.05
643.007	47929.71
643.36	47824.41
643.713	47686.78
644.066	47797.97
644.419	47585.09
644.771	47470.52
645.124	47480.01
645.477	47360.69
645.83	47044.77
646.182	46753.7
646.535	46388.06
646.888	46330.66
647.24	45942.65
647.593	46134.51
647.945	46068.97
648.298	45869.66
648.65	45940.39
649.002	45858.58
649.355	46262.64
649.707	46331.79
650.059	46756.19
650.411	47260.58
650.763	47187.13
651.115	47539.67
651.467	47508.03
651.819	47561.59
652.171	47320.69
652.523	47166.57
652.875	47144.42
653.227	46969.97
653.578	47287.02
653.93	47147.36
654.282	46765.45
654.633	46617.66
654.985	46590.77
655.337	46582.41
655.688	46483.42
656.039	46598
656.391	46176.77
656.742	46423.99
657.094	46350.77
657.445	46527.72
657.796	46468.06
658.147	46340.15
658.498	46383.77
658.849	46370.66
659.2	46371.11
659.551	46352.13
659.902	46585.79
660.253	46723.64
660.604	46721.61
660.955	46553.48
661.306	46615.17
661.656	46715.06
662.007	46678.45
662.358	46664.21
662.708	46777.88
663.059	46691.78
663.409	46449.53
663.76	46665.57
664.11	46519.36
664.461	46497.21
664.811	46570.65
665.161	46402.75
665.511	46154.17
665.862	46266.26
666.212	46335.86
666.562	46277.55
666.912	46184.45
667.262	46200.95
667.612	46119.14
667.962	46072.59
668.312	45921.86
668.662	45962.08
669.011	45763.9
669.361	45859.49
669.711	45783.56
670.06	45680.06
670.41	45769.77
670.76	45581.53
671.109	45782.88
671.459	45704.91
671.808	45623.11
672.157	45789.43
672.507	45642.77
672.856	45739.04
673.205	45729.55
673.554	45944.91
673.904	45957.34
674.253	46135.86
674.602	45913.5
674.951	45294.98
675.3	45141.31
675.649	46000.05
675.998	45754.63
676.346	45717.57
676.695	45814.52
677.044	45513.05
677.393	45499.04
677.741	45406.62
678.09	45231.71
678.438	45127.53
678.787	45174.31
679.135	44857.03
679.484	44613.19
679.832	44734.54
680.181	44408.68
680.529	44668.11
680.877	44301.56
681.225	44442.57
681.573	44456.36
681.922	44247.1
682.27	44066.54
682.618	44183.6
682.966	43984.73
683.314	44069.25
683.661	43952.87
684.009	43868.35
684.357	43897.96
684.705	43681.01
685.053	43894.34
685.4	44027.67
685.748	43772.76
686.095	43871.52
686.443	43677.17
686.79	43689.83
687.138	43692.09
687.485	43929.37
687.832	43616.61
688.18	43702.71
688.527	43509.49
688.874	43299.33
689.221	43242.15
689.568	43091.2
689.915	43074.25
690.262	43051.42
690.609	42904.54
690.956	42594.71
691.303	42552
691.65	42262.74
691.997	42085.35
692.344	41891.68
692.69	41848.74
693.037	41759.93
693.383	41322.43
693.73	41389.55
694.077	41089.44
694.423	40921.76
694.769	40902.1
695.116	40695.55
695.462	40550.47
695.808	40578.72
696.155	40610.13
696.501	40423.02
696.847	40399.52
697.193	40210.82
697.539	40395
697.885	40111.16
698.231	39989.13
698.577	40079.53
698.923	40083.59
699.269	39993.2
699.614	39788.46
699.96	39876.59
700.306	39936.7
700.651	39829.14
700.997	39540.1
701.342	39536.71
701.688	39432.08
702.033	39351.63
702.379	39243.16
702.724	39312.31
703.069	39409.49
703.415	38856.28
703.76	38988.48
704.105	38691.99
704.45	38520.92
704.795	38323.41
705.14	38093.59
705.485	37889.3
705.83	37775.18
706.175	37586.94
706.52	37470.33
706.865	37265.14
707.209	37247.96
707.554	36996.67
707.899	36854.3
708.243	36688.88
708.588	36632.16
708.932	36592.61
709.277	36606.85
709.621	36643.23
709.966	36194.2
710.31	36558.71
710.654	36202.57
710.998	36432.16
711.342	36476.68
711.687	36276.01
712.031	36264.03
712.375	36180.19
712.719	36265.84
713.063	36186.07
713.407	36317.82
713.75	36246.41
714.094	36274.43
714.438	36241.66
714.782	36283.92
715.125	36186.75
715.469	36364.37
715.812	35928.22
716.156	35906.75
716.499	35862.69
716.843	35771.62
717.186	35492.3
717.53	35641.45
717.873	35425.41
718.216	35229.94
718.559	35076.49
718.902	34842.83
719.246	35055.25
719.589	34913.11
719.932	34733.23
720.275	34602.83
720.617	34556.28
720.96	34416.17
721.303	34337.76
721.646	34335.72
721.989	34124.2
722.331	34094.15
722.674	34033.58
723.016	33933.02
723.359	33954.49
723.701	34049.18
724.044	33886.69
724.386	33664.55
724.729	33917.43
725.071	33920.82
725.413	33803.98
725.755	33927.14
726.097	33831.55
726.439	33727.15
726.782	33784.32
727.124	33969.63
727.465	33842.18
727.807	33918.33
728.149	33863.42
728.491	33822.74
728.833	33985
729.175	33897.99
729.516	33928.27
729.858	33954.04
730.199	33879.24
730.541	33854.15
730.882	33853.25
731.224	33892.8
731.565	33674.5
731.906	33614.84
732.248	33735.51
732.589	33272.7
732.93	33271.34
733.271	33469.3
733.612	33298.91
733.953	33248.97
734.294	33027.06
734.635	33045.81
734.976	33077.45
735.317	32897.12
735.658	32831.81
735.999	32737.8
736.339	32547.29
736.68	32743.45
737.021	32628.2
737.361	32566.28
737.702	32732.15
738.042	32636.56
738.383	32560.17
738.723	32613.05
739.063	32516.11
739.404	32667.52
739.744	32535.32
740.084	32496.9
740.424	32559.27
740.764	32645.14
741.104	32825.03
741.444	32683.79
741.784	32716.78
742.124	32879.26
742.464	32899.38
742.804	32909.32
743.143	33016.89
743.483	33059.37
743.823	32914.06
744.162	32965.36
744.502	33178.69
744.841	32912.26
745.181	33026.6
745.52	32885.36
745.86	33299.82
746.199	33064.79
746.538	33100.05
746.877	33230.21
747.216	33135.98
747.556	32952.26
747.895	32859.6
748.234	32825.93
748.573	32740.96
748.911	32608.31
749.25	32708.65
749.589	32590.91
749.928	32605.82
750.267	32726.5
750.605	32507.07
750.944	32533.51
751.283	32489.89
751.621	32673.17
751.96	32486.05
752.298	32476.11
752.636	32589.33
752.975	32347.75
753.313	32411.7
753.651	32412.16
753.989	32244.7
754.327	32358.15
754.666	32233.63
755.004	32273.63
755.342	32429.56
755.679	32509.1
756.017	32387.75
756.355	32490.57
756.693	32483.11
757.031	32587.74
757.368	32517.92
757.706	32538.25
758.044	32528.76
758.381	32582.32
758.719	32600.17
759.056	32724.92
759.394	32585.49
759.731	32472.27
760.068	32657.12
760.405	32519.05
760.743	32431.59
761.08	32646.95
761.417	32454.87
761.754	32611.02
762.091	32602.21
762.428	32416.9
762.765	32316.11
763.102	32472.72
763.438	32241.31
763.775	32159.28
764.112	32155.44
764.449	32238.15
764.785	32036.12
765.122	31799.52
765.458	31831.83
765.795	31692.18
766.131	31668.45
766.467	31627.77
766.804	31366.53
767.14	31344.84
767.476	31232.75
767.812	31075.02
768.148	31313.2
768.485	31032.31
768.821	30924.06
769.157	30852.65
769.492	30629.38
769.828	30802.48
770.164	30517.52
770.5	30563.62
770.836	30444.75
771.171	30328.82
771.507	30298.99
771.842	30244.76
772.178	30223.29
772.513	30082.73
772.849	29991.2
773.184	30072.56
773.519	30145.32
773.855	29849.06
774.19	29760.02
774.525	29801.83
774.86	29803.64
775.195	29767.48
775.53	29569.52
775.865	29625.79
776.2	29583.53
776.535	29394.16
776.87	29375.85
777.205	29309.64
777.539	29084.33
777.874	29178.79
778.209	28911.23
778.543	28972.7
778.878	28751.24
779.212	28881.4
779.547	28669.88
779.881	28545.14
780.215	28524.57
780.55	28466.95
780.884	28263.11
781.218	28067.86
781.552	28068.32
781.886	27730.92
782.22	27728.89
782.554	27485.28
782.888	27292.06
783.222	27161.67
783.556	27206.19
783.889	27003.71
784.223	26907.44
784.557	26851.4
784.89	26854.34
785.224	26651.18
785.557	26602.14
785.891	26455.48
786.224	26461.8
786.558	26292.77
786.891	25963.29
787.224	25959.22
787.557	25854.14
787.891	25965.55
788.224	25896.4
788.557	25873.57
788.89	25685.78
789.223	25675.61
789.556	25605.78
789.888	25603.97
790.221	25530.3
790.554	25384.32
790.887	25332.57
791.219	25297.54
791.552	25341.61
791.884	25190.43
792.217	25130.54
792.549	24958.57
792.882	24869.76
793.214	24880.6
793.546	24907.04
793.879	24679.03
794.211	24656.65
794.543	24772.81
794.875	24603.55
795.207	24668.86
795.539	24441.07
795.871	24402.2
796.203	24223.67
796.535	24203.11
796.867	24094.63
797.198	23985.03
797.53	24066.16
797.862	23764.02
798.193	23720.41
798.525	23549.79
798.856	23681.99
799.188	23276.13
799.519	23328.55
799.85	23128.78
800.182	23121.55
800.513	23177.37
800.844	22843.82
801.175	23099.18
801.506	22996.36
801.837	22865.97
802.168	22674.79
802.499	22664.84
802.83	22601.11
803.161	22458.97
803.491	22547.78
803.822	22407.9
804.153	22312.08
804.483	22177.62
804.814	22113.44
805.145	22001.13
805.475	21953.67
805.805	21951.87
806.136	21955.03
806.466	21976.05
806.796	21932.43
807.126	21656.05
807.457	21717.07
807.787	21739.89
808.117	21657.64
808.447	21563.18
808.777	21642.27
809.107	21567.02
809.436	21397.98
809.766	21362.96
810.096	21300.81
810.426	21221.94
810.755	21326.12
811.085	21241.83
811.414	21202.28
811.744	21005.68
812.073	21062.4
812.403	20963.64
812.732	20967.94
813.061	20970.2
813.39	20758.45
813.719	20764.55
814.049	20962.29
814.378	20734.27
814.707	20724.55
815.036	20728.17
815.365	20555.29
815.693	20395.3
816.022	20353.04
816.351	20343.32
816.68	20129.99
817.008	20232.82
817.337	20065.14
817.665	20080.73
817.994	20091.12
818.322	20009.32
818.651	19921.64
818.979	19760.06
819.307	19871.24
819.636	19746.5
819.964	19630.12
820.292	19768.19
820.62	19652.49
820.948	19497.47
821.276	19684.81
821.604	19489.11
821.932	19533.4
822.259	19600.52
822.587	19545.38
822.915	19472.84
823.243	19511.48
823.57	19509.67
823.898	19451.82
824.225	19379.96
824.553	19346.29
824.88	19459.05
825.207	19518.94
825.535	19539.73
825.862	19440.07
826.189	19372.5
826.516	19590.8
826.843	19582.21
827.17	19589.44
827.497	19568.43
827.824	19589.67
828.151	19506.73
828.478	19504.02
828.805	19579.95
829.131	19560.97
829.458	19554.64
829.785	19394.19
830.111	19559.39
830.438	19607.75
830.764	19567.97
831.09	19604.81
831.417	19385.38
831.743	19591.7
832.069	19623.57
832.395	19527.07
832.722	19643.9
833.048	19483.46
833.374	19649.78
833.7	19457.24
834.026	19512.16
834.351	19487.52
834.677	19517.58
835.003	19520.29
835.329	19509.67
835.654	19477.81
835.98	19374.31
836.306	19401.65
836.631	19182
836.956	19280.52
837.282	19306.96
837.607	19158.72
837.932	19129.34
838.258	19039.85
838.583	18978.16
838.908	18891.16
839.233	18820.65
839.558	18773.19
839.883	18763.25
840.208	18672.63
840.533	18673.31
840.858	18695.23
841.182	18746.53
841.507	18641.9
841.832	18519.64
842.156	18419.53
842.481	18426.31
842.805	18406.87
843.13	18273.09
843.454	18162.36
843.778	18137.73
844.103	17955.59
844.427	17984.06
844.751	18089.82
845.075	17971.41
845.399	17942.25
845.723	17841.24
846.047	17909.26
846.371	17856.38
846.695	17841.69
847.019	17718.08
847.343	17624.75
847.666	17568.03
847.99	17578.65
848.313	17599.89
848.637	17383.4
848.96	17409.61
849.284	17292.1
849.607	17323.06
849.931	17183.18
850.254	17011.21
850.577	17058.66
850.9	16811.66
851.223	16903.86
851.546	16783.19
851.869	16634.72
852.192	16806.92
852.515	16610.09
852.838	16575.96
853.161	16597.43
853.483	16465.68
853.806	16468.39
854.129	16420.49
854.451	16397.21
854.774	16328.06
855.096	16183.43
855.419	16198.57
855.741	16137.78
856.063	16024.56
856.385	16011.46
856.708	15958.35
857.03	15944.57
857.352	15822.76
857.674	15745.7
857.996	15662.99
858.318	15718.81
858.64	15622.09
858.961	15579.6
859.283	15568.31
859.605	15403.56
859.926	15501.19
860.248	15356.79
860.57	15324.7
860.891	15392.72
861.212	15274.53
861.534	15230.69
861.855	15169.22
862.176	15124.93
862.498	15077.47
862.819	14949.34
863.14	14939.62
863.461	14887.87
863.782	14811.04
864.103	14790.25
864.424	14771.04
864.745	14800.42
865.065	14766.74
865.386	14736.46
865.707	14696.01
866.027	14745.28
866.348	14646.97
866.668	14656.69
866.989	14653.08
867.309	14590.03
867.63	14622.79
867.95	14605.84
868.27	14547.54
868.59	14551.16
868.91	14534.66
869.23	14609.91
869.55	14462.12
869.87	14561.33
870.19	14475.23
870.51	14435.23
870.83	14471.61
871.15	14333.99
871.469	14391.84
871.789	14517.94
872.109	14495.11
872.428	14366.98
872.748	14377.6
873.067	14436.13
873.386	14443.14
873.706	14326.53
874.025	14319.3
874.344	14335.12
874.663	14289.92
874.982	14200.21
875.301	14233.43
875.62	14202.47
875.939	14246.31
876.258	14228.45
876.577	14086.08
876.896	14072.98
877.214	14036.37
877.533	14068.23
877.852	14087.21
878.17	14009.48
878.489	14008.8
878.807	13967.9
879.125	13864.85
879.444	13855.58
879.762	13783.95
880.08	13826.88
880.398	13703.04
880.716	13654.46
881.034	13692.65
881.352	13654.91
881.67	13536.04
881.988	13591.86
882.306	13527.46
882.624	13347.35
882.941	13402.26
883.259	13287.46
883.577	13343.73
883.894	13373.11
884.212	13289.72
884.529	13194.13
884.846	13247.91
885.164	13169.27
885.481	13109.61
885.798	13104.87
886.115	13037.52
886.432	13011.76
886.75	12903.29
887.067	12899.67
887.383	12939.67
887.7	12941.93
888.017	12851.77
888.334	12931.09
888.651	12823.29
888.967	12779.9
889.284	12742.39
889.6	12816.29
889.917	12752.56
890.233	12731.09
890.55	12647.48
890.866	12704.2
891.182	12658.78
891.498	12609.06
891.815	12638.44
892.131	12509.4
892.447	12583.75
892.763	12512.57
893.079	12467.82
893.395	12385.56
893.71	12489.29
894.026	12369.52
894.342	12376.52
894.657	12300.14
894.973	12277.77
895.289	12224.44
895.604	12281.16
895.92	12155.74
896.235	12099.47
896.55	12116.19
896.865	12028.51
897.181	12026.93
897.496	12029.87
897.811	11964.11
898.126	11892.24
898.441	11816.77
898.756	11846.82
899.071	11736.54
899.386	11858.8
899.7	11714.85
900.015	11722.76
900.33	11612.25
900.644	11583.78
900.959	11579.71
901.273	11511.24
901.588	11428.75
901.902	11429.88
902.216	11338.81
902.531	11337.23
902.845	11225.59
903.159	11165.71
903.473	11106.73
903.787	11106.95
904.101	10954.19
904.415	11000.97
904.729	10896.79
905.042	10765.04
905.356	10720.07
905.67	10677.59
905.984	10727.3
906.297	10659.73
906.611	10575.67
906.924	10570.47
907.237	10560.08
907.551	10410.7
907.864	10409.12
908.177	10440.76
908.491	10378.61
908.804	10293.42
909.117	10244.6
909.43	10211.16
909.743	10104.72
910.056	10111.95
910.368	10094.32
910.681	10083.25
910.994	10061.33
911.307	9945.63
911.619	9986.31
911.932	9975.68
912.244	9842.81
912.557	9849.36
912.869	9779.53
913.181	9810.72
913.494	9732.98
913.806	9649.59
914.118	9695.47
914.43	9621.57
914.742	9618.86
915.054	9547.9
915.366	9627.44
915.678	9547.45
915.99	9525.3
916.302	9484.85
916.613	9452.31
916.925	9446.43
917.236	9468.13
917.548	9347
917.859	9365.76
918.171	9345.42
918.482	9352.88
918.794	9269.26
919.105	9298.64
919.416	9203.05
919.727	9125.31
920.038	9135.71
920.349	9111.07
920.66	9027.46
920.971	8968.03
921.282	9022.04
921.593	8979.78
921.903	8894.58
922.214	8860.46
922.525	8839.22
922.835	8745.21
923.146	8729.62
923.456	8681.71
923.767	8629.73
924.077	8656.62
924.387	8625.89
924.697	8534.37
925.008	8561.03
925.318	8476.74
925.628	8440.36
925.938	8309.29
926.248	8264.09
926.558	8232.9
926.867	8199.01
927.177	8158.33
927.487	8088.73
927.796	8118.33
928.106	8020.71
928.416	8029.97
928.725	7956.3
929.034	7805.35
929.344	7843.08
929.653	7755.18
929.962	7727.61
930.271	7755.63
930.581	7664.33
930.89	7744.78
931.199	7568.52
931.508	7560.61
931.817	7614.62
932.125	7553.37
932.434	7496.88
932.743	7427.73
933.051	7393.61
933.36	7380.27
933.669	7317.45
933.977	7338.69
934.286	7275.87
934.594	7198.81
934.902	7146.38
935.21	7200.39
935.519	7263.44
935.827	7118.81
936.135	7170.79
936.443	7086.49
936.751	7072.94
937.059	7027.96
937.367	7024.12
937.674	7142.99
937.982	7014.63
938.29	6990
938.597	7053.05
938.905	6892.38
939.213	6903
939.52	6896.89
939.827	6923.11
940.135	6877.23
940.442	6835.65
940.749	6839.5
941.056	6830.68
941.363	6732.38
941.67	6756.33
941.977	6679.73
942.284	6641.76
942.591	6665.71
942.898	6642.89
943.205	6625.72
943.511	6617.13
943.818	6545.49
944.125	6512.5
944.431	6479.5
944.738	6442.67
945.044	6411.94
945.35	6414.87
945.657	6352.73
945.963	6405.61
946.269	6353.63
946.575	6272.05
946.881	6256.23
947.187	6278.15
947.493	6244.03
947.799	6208.78
948.105	6165.16
948.41	6085.84
948.716	6085.39
949.022	6058.95
949.327	6058.95
949.633	5984.38
949.938	5978.5
950.244	5951.84
950.549	5903.93
950.854	5903.02
951.16	5877.26
951.465	5822.57
951.77	5791.39
952.075	5801.1
952.38	5731.05
952.685	5711.16
952.99	5633.65
953.294	5660.32
953.599	5622.35
953.904	5617.15
954.209	5505.97
954.513	5507.78
954.818	5457.61
955.122	5454.45
955.426	5434.56
955.731	5445.86
956.035	5361.12
956.339	5365.18
956.643	5359.99
956.948	5321.57
957.252	5312.53
957.556	5298.07
957.86	5242.48
958.163	5239.31
958.467	5223.94
958.771	5216.04
959.075	5158.64
959.378	5130.16
959.682	5120.22
959.985	5121.57
960.289	5075.93
960.592	5094
960.896	5075.02
961.199	4994.12
961.502	5039.54
961.805	5026.89
962.108	4956.38
962.411	4983.05
962.714	4960.22
963.017	4865.31
963.32	4919.77
963.623	4917.29
963.926	4883.39
964.228	4828.02
964.531	4824.86
964.833	4814.92
965.136	4809.94
965.438	4802.49
965.741	4774.01
966.043	4791.64
966.345	4795.03
966.648	4714.13
966.95	4679.33
967.252	4710.51
967.554	4691.08
967.856	4706.44
968.158	4620.8
968.46	4600.91
968.761	4638.88
969.063	4591.19
969.365	4522.27
969.666	4543.96
969.968	4501.25
970.269	4550.97
970.571	4464.64
970.872	4471.42
971.174	4438.2
971.475	4440.91
971.776	4408.15
972.077	4418.32
972.378	4401.59
972.679	4381.25
972.98	4354.59
973.281	4342.84
973.582	4275.49
973.883	4251.31
974.183	4188.49
974.484	4194.82
974.785	4169.28
975.085	4228.49
975.386	4144.42
975.686	4140.36
975.986	4093.13
976.287	4102.62
976.587	4022.17
976.887	4008.84
977.187	3994.37
977.487	3977.88
977.787	3977.65
978.087	3925.67
978.387	3934.94
978.687	3907.37
978.987	3895.62
979.286	3852.91
979.586	3884.32
979.885	3850.42
980.185	3800.71
980.484	3767.94
980.784	3720.93
981.083	3744.89
981.382	3688.39
981.682	3709.63
981.981	3686.58
982.28	3656.53
982.579	3645
982.878	3669.86
983.177	3642.29
983.475	3616.98
983.774	3614.27
984.073	3569.3
984.372	3562.07
984.67	3568.85
984.969	3566.59
985.267	3541.05
985.566	3545.57
985.864	3486.36
986.162	3497.44
986.461	3495.63
986.759	3481.39
987.057	3391.45
987.355	3401.85
987.653	3419.47
987.951	3409.75
988.249	3359.59
988.547	3402.52
988.844	3385.57
989.142	3378.57
989.44	3334.28
989.737	3306.03
990.035	3309.87
990.332	3291.34
990.63	3304.22
990.927	3236.88
991.224	3241.4
991.521	3232.13
991.819	3236.43
992.116	3238.69
992.413	3213.38
992.71	3205.24
993.006	3169.08
993.303	3165.24
993.6	3182.19
993.897	3181.74
994.193	3181.51
994.49	3152.81
994.787	3089.54
995.083	3113.49
995.379	3062.87
995.676	3091.12
995.972	3051.35
996.268	3038.24
996.565	3031.46
996.861	2966.83
997.157	3022.42
997.453	2984.68
997.749	2961.63
998.044	2944
998.34	2922.54
998.636	2902.2
998.932	2909.66
999.227	2892.71
999.523	2858.81
999.818	2859.49
1000.114	2824.91
1000.409	2774.74
1000.704	2828.98
1001	2776.1
1001.295	2746.72
1001.59	2728.87
1001.885	2741.3
1002.18	2740.17
1002.475	2700.4
1002.77	2629.44
1003.065	2605.26
1003.359	2652.26
1003.654	2616.56
1003.949	2588.76
1004.243	2614.52
1004.538	2592.83
1004.832	2546.27
1005.127	2552.6
1005.421	2491.81
1005.715	2487.29
1006.009	2507.18
1006.304	2441.19
1006.598	2475.99
1006.892	2449.78
1007.186	2414.75
1007.48	2375.66
1007.773	2385.15
1008.067	2360.52
1008.361	2381.08
1008.655	2344.25
1008.948	2312.38
1009.242	2315.77
1009.535	2301.31
1009.829	2276.45
1010.122	2268.32
1010.415	2253.4
1010.708	2254.76
1011.001	2264.7
1011.295	2245.94
1011.588	2204.36
1011.881	2196
1012.173	2192.39
1012.466	2182.89
1012.759	2177.25
1013.052	2175.44
1013.344	2140.64
1013.637	2164.36
1013.93	2113.97
1014.222	2124.37
1014.514	2128.88
1014.807	2131.6
1015.099	2079.85
1015.391	2063.58
1015.683	2052.73
1015.976	2030.36
1016.268	2051.37
1016.56	2067.42
1016.851	2008.66
1017.143	2010.92
1017.435	1991.94
1017.727	1996.23
1018.018	1994.88
1018.31	1969.34
1018.602	1993.52
1018.893	1954.65
1019.185	1927.99
1019.476	1942.45
1019.767	1940.64
1020.058	1926.18
1020.35	1908.33
1020.641	1902.45
1020.932	1909.46
1021.223	1873.98
1021.514	1874.65
1021.804	1838.5
1022.095	1824.49
1022.386	1825.39
1022.677	1823.81
1022.967	1811.83
1023.258	1782.68
1023.548	1758.05
1023.839	1760.98
1024.129	1744.49
1024.419	1779.74
1024.709	1721.66
1025	1721.66
1025.29	1682.34
1025.58	1696.58
1025.87	1696.35
1026.16	1675.56
1026.449	1643.47
1026.739	1647.77
1027.029	1629.69
1027.319	1613.19
1027.608	1619.07
1027.898	1612.51
1028.187	1582.46
1028.477	1555.57
1028.766	1563.48
1029.055	1553.31
1029.344	1550.37
1029.634	1508.56
1029.923	1518.05
1030.212	1502.23
1030.501	1486.42
1030.79	1467.21
1031.078	1459.98
1031.367	1454.78
1031.656	1472.4
1031.945	1443.93
1032.233	1431.05
1032.522	1417.04
1032.81	1418.17
1033.099	1405.06
1033.387	1388.79
1033.675	1397.15
1033.963	1336.82
1034.251	1367.77
1034.54	1334.33
1034.828	1311.51
1035.116	1347.66
1035.403	1313.31
1035.691	1345.85
1035.979	1319.19
1036.267	1289.13
1036.554	1296.59
1036.842	1276.48
1037.129	1276.25
1037.417	1261.79
1037.704	1264.73
1037.992	1246.87
1038.279	1235.12
1038.566	1212.07
1038.853	1212.07
1039.14	1212.07
