Data from blue_shiny_book_FLMS001491_00036.txt Node
Date: Wed Feb 08 15:26:53 GMT 2017
User: dcchb
Spectrometer: FLMS00149
Trigger mode: 0
Integration Time (sec): 2.000000E-2
Scans to average: 10
Electric dark correction enabled: true
Nonlinearity correction enabled: false
Boxcar width: 0
XAxis mode: Wavelengths
Number of Pixels in Spectrum: 2048
>>>>>Begin Spectral Data<<<<<
341.393	10.65
341.776	10.65
342.16	10.65
342.543	-72.06
342.927	-55.34
343.31	-44.49
343.693	-99.86
344.077	-62.57
344.46	-48.56
344.843	-55.11
345.226	-52.4
345.61	-37.71
345.993	1.38
346.376	0.48
346.759	14.49
347.142	3.42
347.525	41.61
347.908	56.52
348.291	61.5
348.674	105.79
349.057	115.51
349.44	108.73
349.823	141.49
350.206	173.13
350.588	202.06
350.971	191.89
351.354	233.02
351.737	242.06
352.119	250.87
352.502	243.41
352.884	280.92
353.267	302.17
353.65	299.23
354.032	286.35
354.414	308.95
354.797	322.96
355.179	322.73
355.562	342.62
355.944	313.01
356.326	351.43
356.709	335.84
357.091	330.19
357.473	357.08
357.855	348.95
358.238	333.35
358.62	367.48
359.002	320.02
359.384	352.56
359.766	350.3
360.148	334.48
360.53	340.36
360.912	362.73
361.294	346.46
361.676	356.63
362.057	340.81
362.439	345.56
362.821	330.19
363.203	343.07
363.584	342.62
363.966	348.95
364.348	332
364.729	337.19
365.111	336.06
365.493	321.6
365.874	326.35
366.256	332.9
366.637	321.15
367.019	323.41
367.4	338.32
367.781	316.4
368.163	313.01
368.544	317.08
368.925	322.96
369.306	314.14
369.688	326.8
370.069	321.6
370.45	340.81
370.831	331.09
371.212	341.26
371.593	338.32
371.974	329.96
372.355	323.64
372.736	343.97
373.117	341.04
373.498	356.18
373.879	351.43
374.26	325.67
374.641	327.03
375.021	333.8
375.402	344.88
375.783	328.83
376.163	355.27
376.544	360.47
376.925	344.65
377.305	350.75
377.686	358.89
378.066	349.85
378.447	361.83
378.827	359.57
379.208	358.44
379.588	367.93
379.968	377.87
380.349	369.74
380.729	373.13
381.109	369.28
381.489	371.54
381.87	381.71
382.25	375.16
382.63	373.13
383.01	374.26
383.39	396.18
383.77	382.84
384.15	387.59
384.53	376.52
384.91	393.24
385.29	425.1
385.67	423.29
386.049	390.98
386.429	412.22
386.809	407.7
387.189	388.27
387.568	405.67
387.948	438.89
388.328	415.84
388.707	412.45
389.087	436.63
389.466	449.06
389.846	427.81
390.225	444.99
390.605	436.4
390.984	458.77
391.363	451.09
391.743	456.97
392.122	470.52
392.501	448.38
392.881	461.94
393.26	461.26
393.639	482.05
394.018	451.54
394.397	477.98
394.776	515.72
395.155	490.41
395.534	501.48
395.913	481.37
396.292	521.82
396.671	497.87
397.05	540.35
397.429	528.6
397.808	512.11
398.186	544.42
398.565	530.18
398.944	536.29
399.323	530.64
399.701	548.26
400.08	551.88
400.458	565.21
400.837	581.03
401.215	563.86
401.594	575.83
401.972	563.18
402.351	586.91
402.729	605.44
403.107	611.09
403.486	609.05
403.864	606.79
404.242	600.46
404.62	607.92
404.999	635.27
405.377	632.33
405.755	615.38
406.133	642.27
406.511	656.51
406.889	660.8
407.267	654.93
407.645	659.45
408.023	692.67
408.401	687.92
408.779	715.49
409.156	727.69
409.534	723.63
409.912	713.68
410.29	732.66
410.667	768.6
411.045	734.47
411.422	769.05
411.8	774.47
412.178	775.38
412.555	803.62
412.933	795.94
413.31	845.88
413.687	853.79
414.065	839.78
414.442	838.88
414.819	853.34
415.197	886.78
415.574	892.43
415.951	903.51
416.328	901.7
416.705	913.68
417.082	910.06
417.46	938.31
417.837	950.74
418.214	944.86
418.591	952.55
418.967	974.01
419.344	1012.21
419.721	984.41
420.098	989.61
420.475	1008.36
420.852	1025.09
421.228	1011.98
421.605	1037.52
421.982	1050.62
422.358	1079.1
422.735	1083.39
423.111	1115.25
423.488	1097.63
423.864	1093.33
424.241	1093.56
424.617	1124.74
424.994	1119.77
425.37	1162.03
425.746	1153.22
426.123	1187.12
426.499	1223.72
426.875	1220.79
427.251	1243.84
427.627	1293.33
428.003	1270.96
428.379	1301.69
428.756	1307.56
429.132	1351.63
429.507	1356.38
429.883	1359.54
430.259	1392.53
430.635	1390.27
431.011	1407.9
431.387	1461.01
431.763	1475.92
432.138	1494.9
432.514	1487.22
432.89	1522.02
433.265	1559.31
433.641	1544.85
434.016	1593.88
434.392	1626.88
434.767	1656.93
435.143	1645.18
435.518	1661.91
435.894	1711.4
436.269	1731.28
436.644	1757.95
437.02	1755.46
437.395	1758.63
437.77	1805.86
438.145	1817.61
438.52	1824.16
438.895	1866.42
439.271	1893.09
439.646	1941.67
440.021	1957.94
440.395	1930.37
440.77	1943.25
441.145	1978.96
441.52	2034.33
441.895	2030.26
442.27	2022.35
442.645	2018.51
443.019	2052.18
443.394	2070.48
443.769	2112.97
444.143	2097.15
444.518	2124.72
444.892	2149.58
445.267	2178.95
445.641	2195.68
446.016	2209.01
446.39	2226.86
446.764	2239.74
447.139	2258.73
447.513	2326.97
447.887	2245.17
448.262	2308.67
448.636	2282
449.01	2349.8
449.384	2341.21
449.758	2366.29
450.132	2448.78
450.506	2452.62
450.88	2445.84
451.254	2483.13
451.628	2499.85
452.002	2561.09
452.376	2569
452.75	2583.24
453.123	2625.27
453.497	2651.94
453.871	2674.53
454.244	2738.94
454.618	2733.74
454.992	2755.21
455.365	2787.07
455.739	2850.57
456.112	2907.75
456.486	2905.71
456.859	2992.94
457.232	3005.6
457.606	2994.53
457.979	3065.71
458.352	3145.48
458.725	3193.16
459.099	3183.9
459.472	3248.08
459.845	3289.89
460.218	3304.12
460.591	3370.11
460.964	3361.3
461.337	3505.7
461.71	3529.43
462.083	3565.81
462.456	3571.01
462.829	3581.63
463.201	3648.75
463.574	3685.81
463.947	3737.78
464.32	3811.45
464.692	3825.46
465.065	3885.8
465.438	3949.3
465.81	4021.62
466.183	4037.66
466.555	4133.7
466.928	4179.35
467.3	4192.01
467.672	4251.44
468.045	4356.75
468.417	4385.22
468.789	4387.94
469.161	4469.29
469.534	4555.61
469.906	4620.92
470.278	4647.59
470.65	4739.34
471.022	4835.16
471.394	4922.38
471.766	4947.92
472.138	5020.46
472.51	5154.02
472.882	5219.55
473.253	5274.47
473.625	5348.81
473.997	5464.97
474.369	5483.05
474.74	5556.27
475.112	5679.2
475.484	5807.33
475.855	5847.11
476.227	5943.37
476.598	6069.93
476.97	6180.43
477.341	6286.19
477.713	6388.79
478.084	6425.17
478.455	6574.32
478.827	6674.2
479.198	6874.65
479.569	6836.23
479.94	7037.13
480.311	7118.71
480.682	7323.68
481.053	7398.93
481.424	7591.92
481.795	7662.88
482.166	7833.72
482.537	7903.1
482.908	8066.03
483.279	8164.11
483.65	8309.41
484.021	8501.5
484.391	8633.02
484.762	8640.03
485.133	8733.36
485.503	8898.78
485.874	9101.26
486.244	9122.95
486.615	9271.2
486.985	9388.71
487.356	9581.7
487.726	9749.83
488.097	9951.63
488.467	9955.25
488.837	10242.47
489.207	10364.95
489.578	10502.12
489.948	10626.64
490.318	10746.19
490.688	10807.43
491.058	10954.09
491.428	11133.07
491.798	11242.9
492.168	11421.65
492.538	11467.75
492.908	11604.69
493.278	11822.32
493.648	11813.28
494.017	12020.05
494.387	12148.64
494.757	12286.94
495.126	12419.81
495.496	12520.15
495.866	12619.58
496.235	12770.31
496.605	12910.42
496.974	12963.53
497.344	13088.95
497.713	13190.42
498.082	13255.05
498.452	13386.79
498.821	13497.53
499.19	13465.44
499.559	13617.52
499.928	13763.28
500.298	13748.37
500.667	14031.3
501.036	14008.25
501.405	14270.39
501.774	14326.43
502.143	14457.73
502.512	14653.88
502.88	14748.34
503.249	14664.5
503.618	14744.73
503.987	14833.76
504.356	14937.04
504.724	15001.22
505.093	15033.98
505.462	15106.3
505.83	15189.69
506.199	15349
506.567	15569.56
506.936	15624.93
507.304	15836.9
507.672	15918.71
508.041	16020.62
508.409	16276.89
508.777	16390.11
509.145	16434.17
509.514	16527.28
509.882	16577.9
510.25	16744.45
510.618	16852.92
510.986	16871.45
511.354	17008.39
511.722	17118.45
512.09	17225.56
512.458	17124.32
512.826	17376.75
513.193	17536.97
513.561	17633.46
513.929	17764.76
514.297	17960.46
514.664	18070.29
515.032	18214.01
515.4	18348.47
515.767	18544.17
516.135	18681.12
516.502	18602.03
516.869	18885.18
517.237	18956.59
517.604	18867.55
517.972	19141.22
518.339	19221.67
518.706	19267.77
519.073	19384.83
519.44	19530.14
519.808	19725.61
520.175	19695.33
520.542	19973.74
520.909	20071.36
521.276	20222.55
521.643	20448.76
522.009	20632.25
522.376	20802.87
522.743	20937.33
523.11	21185.69
523.477	21432.69
523.843	21518.11
524.21	21765.33
524.577	21843.3
524.943	21912.22
525.31	21828.15
525.676	22153.12
526.043	22225.88
526.409	22409.38
526.776	22483.5
527.142	22493.22
527.508	22793.1
527.874	23004.85
528.241	23215.46
528.607	23188.12
528.973	23516.47
529.339	23710.14
529.705	23859.51
530.071	24069.23
530.437	24157.36
530.803	24372.49
531.169	24594.64
531.535	24524.13
531.901	24652.26
532.267	24586.5
532.632	24802.99
532.998	24810
533.364	24979.03
533.73	25024
534.095	25148.97
534.461	25167.5
534.826	25444.1
535.192	25639.13
535.557	25676.87
535.923	25892.23
536.288	25995.5
536.653	26195.72
537.019	26168.15
537.384	26356.85
537.749	26671.87
538.114	26620.57
538.479	26569.27
538.845	26705.09
539.21	26711.64
539.575	26873.9
539.94	26753
540.305	26883.16
540.67	26920.68
541.034	27005.65
541.399	27024.85
541.764	27099.2
542.129	27082.03
542.494	27265.98
542.858	27357.95
543.223	27617.38
543.587	27637.49
543.952	27783.25
544.316	27936.47
544.681	27955.23
545.045	28127.65
545.41	28280.41
545.774	28246.52
546.138	28336.23
546.503	28441.09
546.867	28368.1
547.231	28609.9
547.595	28583.46
547.959	28572.61
548.324	28543.91
548.688	28727.41
549.052	28700.52
549.416	28776.67
549.779	28784.13
550.143	28808.54
550.507	29023.9
550.871	29123.78
551.235	29124.69
551.599	29342.76
551.962	29482.87
552.326	29573.71
552.689	29878.34
553.053	29779.36
553.417	29800.15
553.78	30368.95
554.143	30193.13
554.507	30273.58
554.87	30358.78
555.234	30684.42
555.597	30399.91
555.96	30434.48
556.323	30563.07
556.686	30499.57
557.05	30666.57
557.413	30624.53
557.776	30707.92
558.139	31042.6
558.502	30931.42
558.865	31100.23
559.228	31156.27
559.59	31253.44
559.953	31406.66
560.316	31815.69
560.679	31743.6
561.041	32135
561.404	32149.92
561.767	32270.82
562.129	32296.58
562.492	32580.41
562.854	32501.32
563.217	32593.75
563.579	32737.7
563.941	32907.64
564.304	32915.77
564.666	32960.07
565.028	33164.81
565.39	33070.12
565.753	33360.73
566.115	33328.19
566.477	33463.78
566.839	33591.24
567.201	33703.1
567.563	33808.4
567.925	33975.41
568.287	34006.59
568.648	34268.96
569.01	34371.1
569.372	34620.59
569.734	34530.65
570.095	34773.8
570.457	34886.79
570.819	34974.25
571.18	34977.64
571.542	35301.92
571.903	35245.88
572.265	35346.44
572.626	35448.36
572.987	35457.4
573.349	35642.48
573.71	35774.91
574.071	35734.23
574.432	35691.07
574.794	35889.48
575.155	35993.66
575.516	35695.36
575.877	36035.46
576.238	36122.92
576.599	36195.46
576.96	36210.6
577.32	36401.78
577.681	36592.74
578.042	36852.62
578.403	36798.83
578.763	36785.95
579.124	36839.51
579.485	37044.93
579.845	37127.41
580.206	37128.77
580.566	37073.63
580.927	37136.9
581.287	37346.62
581.648	37072.5
582.008	37231.14
582.368	37232.95
582.728	37195.89
583.089	37147.3
583.449	37153.4
583.809	37296.45
584.169	37327.18
584.529	37245.15
584.889	37506.84
585.249	37290.57
585.609	37267.52
585.969	37514.52
586.329	37364.47
586.688	37501.42
587.048	37474.52
587.408	37574.63
587.768	37594.07
588.127	37623.22
588.487	37658.25
588.846	38031.34
589.206	37569.89
589.565	37778.02
589.925	37774.4
590.284	37670.9
590.643	37771.01
591.003	37859.82
591.362	37804.91
591.721	37652.82
592.08	37570.34
592.44	37841.07
592.799	37754.06
593.158	37703.22
593.517	37745.02
593.876	37849.2
594.235	37739.15
594.593	37811.92
594.952	37915.42
595.311	37862.31
595.67	37791.35
596.029	37981.18
596.387	38095.07
596.746	38142.3
597.104	37896.66
597.463	38053.94
597.822	38380.49
598.18	38312.69
598.538	38149.53
598.897	38518.11
599.255	38093.94
599.613	38550.43
599.972	38369.64
600.33	38490.99
600.688	38331.9
601.046	38459.36
601.404	38568.96
601.762	38503.42
602.12	38604.66
602.478	38548.85
602.836	38592.46
603.194	38416.65
603.552	38480.82
603.91	38280.6
604.268	38470.2
604.625	38276.54
604.983	38517.66
605.341	38319.7
605.698	38539.81
606.056	38675.62
606.413	38786.81
606.771	38921.49
607.128	39015.73
607.485	38697.99
607.843	38822.96
608.2	39138.89
608.557	39280.35
608.914	39132.56
609.272	39296.62
609.629	39263.63
609.986	39471.98
610.343	39209.39
610.7	39565.32
611.057	39435.6
611.414	39412.33
611.771	39440.12
612.127	39506.33
612.484	39550.85
612.841	39550.17
613.198	39425.21
613.554	39522.15
613.911	39627.46
614.267	39550.63
614.624	39559.67
614.98	39697.52
615.337	39858.87
615.693	39770.96
616.05	39673.56
616.406	40184.28
616.762	39836.04
617.118	39964.4
617.475	39874.01
617.831	40138.41
618.187	40299.31
618.543	40252.53
618.899	40347.89
619.255	40210.72
619.611	40394.22
619.967	40332.98
620.323	40451.85
620.678	40214.11
621.034	40281.45
621.39	40393.99
621.746	40059.77
622.101	40558.96
622.457	40234.22
622.812	40363.03
623.168	40422.69
623.523	40356.03
623.879	40511.28
624.234	40346.76
624.589	40342.7
624.945	40370.94
625.3	40354.22
625.655	40279.87
626.01	40345.86
626.365	40358.29
626.72	40334.33
627.075	40416.82
627.43	40390.38
627.785	40393.77
628.14	40428.8
628.495	40404.39
628.85	40410.04
629.205	40246.88
629.559	40557.61
629.914	40354.45
630.269	40515.12
630.623	40334.56
630.978	40297.73
631.332	40344.73
631.687	40455.24
632.041	40214.79
632.396	40251.63
632.75	40234.9
633.104	40296.37
633.459	39940.45
633.813	39997.62
634.167	39909.26
634.521	39721.02
634.875	39789.94
635.229	39714.92
635.583	39584.52
635.937	39562.83
636.291	39625.43
636.645	39607.35
636.999	39489.61
637.352	39604.18
637.706	39374.59
638.06	39518.54
638.413	39329.62
638.767	39328.26
639.121	39295.49
639.474	38961.94
639.828	39189.96
640.181	39262.5
640.534	39294.81
640.888	39180.92
641.241	39039
641.594	39177.53
641.947	39245.55
642.301	39255.04
642.654	39288.03
643.007	39141.82
643.36	39234.93
643.713	39057.98
644.066	39118.77
644.419	38938.21
644.771	38818.67
645.124	38584.1
645.477	38693.93
645.83	38448.51
646.182	38015.3
646.535	37732.37
646.888	37472.49
647.24	37186.4
647.593	37334.41
647.945	37202.44
648.298	36892.17
648.65	36914.99
649.002	36919.74
649.355	37123.12
649.707	37299.61
650.059	37512.04
650.411	38144.11
650.763	38105.69
651.115	38462.75
651.467	38232.92
651.819	38292.58
652.171	38232.24
652.523	38093.04
652.875	38140.27
653.227	38145.47
653.578	38335.07
653.93	38285.12
654.282	38112.92
654.633	37760.84
654.985	37874.51
655.337	38023.89
655.688	37669.09
656.039	38156.09
656.391	37665.7
656.742	37897.79
657.094	37772.82
657.445	37776.89
657.796	37735.53
658.147	37548.19
658.498	37554.3
658.849	37728.75
659.2	37617.12
659.551	37544.8
659.902	37709.55
660.253	37636.1
660.604	37700.96
660.955	37466.84
661.306	37611.24
661.656	37522.21
662.007	37598.36
662.358	37484.69
662.708	37566.5
663.059	37659.83
663.409	37368.76
663.76	37686.95
664.11	37548.42
664.461	37659.38
664.811	37521.98
665.161	37680.17
665.511	37458.25
665.862	37597.91
666.212	37704.8
666.562	37757
666.912	37621.64
667.262	37486.73
667.612	37719.71
667.962	37721.3
668.312	37567.4
668.662	37762.43
669.011	37527.4
669.361	37411.93
669.711	37421.64
670.06	37237.69
670.41	37172.61
670.76	37136
671.109	37172.38
671.459	37032.73
671.808	36991.6
672.157	37193.4
672.507	36963.8
672.856	36908.44
673.205	37032.5
673.554	37177.58
673.904	36948.66
674.253	37137.81
674.602	36959.96
674.951	36474.55
675.3	36294.22
675.649	37023.24
675.998	36835.67
676.346	36799.96
676.695	36969.23
677.044	36769.46
677.393	36814.2
677.741	36806.97
678.09	36698.72
678.438	36586.41
678.787	36790.02
679.135	36630.93
679.484	36465.96
679.832	36573.08
680.181	36345.74
680.529	36326.98
680.877	36164.73
681.225	36146.65
681.573	36392.97
681.922	36106.88
682.27	35864.4
682.618	35902.59
682.966	35711.63
683.314	35805.87
683.661	35608.81
684.009	35385.09
684.357	35358.65
684.705	35300.79
685.053	35367.69
685.4	35407.68
685.748	35126.34
686.095	35211.08
686.443	35097.86
686.79	35102.61
687.138	35186.45
687.485	35042.95
687.832	35124.3
688.18	34952.33
688.527	34893.12
688.874	34714.6
689.221	34796.18
689.568	34627.14
689.915	34593.02
690.262	34534.04
690.609	34411.78
690.956	34360.25
691.303	34460.82
691.65	34113.03
691.997	34151.9
692.344	33910.55
692.69	33945.8
693.037	33732.93
693.383	33513.05
693.73	33613.16
694.077	33239.38
694.423	33305.82
694.769	33194.64
695.116	32952.38
695.462	32891.14
695.808	32955.77
696.155	32896.34
696.501	32664.93
696.847	32626.97
697.193	32325.51
697.539	32494.32
697.885	32238.95
698.231	32204.83
698.577	32157.6
698.923	32193.31
699.269	31986.76
699.614	31830.38
699.96	31770.94
700.306	31863.37
700.651	31645.07
700.997	31540.89
701.342	31525.75
701.688	31460.22
702.033	31340.67
702.379	31352.2
702.724	31344.51
703.069	31401.69
703.415	30965.99
703.76	31005.09
704.105	30845.32
704.45	30874.7
704.795	30607.36
705.14	30678.09
705.485	30391.09
705.83	30363.75
706.175	30370.98
706.52	30281.04
706.865	30166.47
707.209	30189.74
707.554	29913.37
707.899	30076.3
708.243	29768.06
708.588	29743.2
708.932	29560.15
709.277	29653.71
709.621	29627.5
709.966	29507.27
710.31	29484.68
710.654	29218.92
710.998	29328.52
711.342	29217.11
711.687	29168.75
712.031	29127.17
712.375	28976.22
712.719	29005.14
713.063	28948.65
713.407	29051.69
713.75	28956.56
714.094	28828.2
714.438	28690.35
714.782	28837.91
715.125	28693.06
715.469	28796.56
715.812	28569.45
716.156	28398.38
716.499	28511.59
716.843	28371.49
717.186	28214.65
717.53	28452.84
717.873	28318.15
718.216	28251.71
718.559	28152.06
718.902	28023.47
719.246	28165.39
719.589	28083.81
719.932	27887.88
720.275	27982.8
720.617	27856.24
720.96	27872.52
721.303	27761.56
721.646	27727.21
721.989	27492.19
722.331	27747.55
722.674	27624.39
723.016	27644.27
723.359	27644.73
723.701	27566.08
724.044	27300.1
724.386	27390.72
724.729	27409.03
725.071	27326.09
725.413	27297.62
725.755	27274.57
726.097	27331.74
726.439	27131.74
726.782	27234.34
727.124	27247.9
727.465	27106.43
727.807	27047.68
728.149	26981.92
728.491	27033.67
728.833	27079.09
729.175	26934.91
729.516	27017.62
729.858	27084.74
730.199	27029.83
730.541	27078.19
730.882	27097.62
731.224	27126.32
731.565	26933.56
731.906	27030.05
732.248	26985.53
732.589	26890.17
732.93	26837.06
733.271	26838.64
733.612	26869.83
733.953	26870.96
734.294	26791.87
734.635	26690.85
734.976	26703.73
735.317	26574.92
735.658	26733.79
735.999	26712.32
736.339	26638.88
736.68	26738.08
737.021	26615.37
737.361	26503.74
737.702	26658.99
738.042	26604.3
738.383	26619.89
738.723	26667.8
739.063	26588.48
739.404	26654.69
739.744	26648.37
740.084	26614.24
740.424	26558.65
740.764	26513.46
741.104	26564.98
741.444	26560.01
741.784	26549.84
742.124	26408.6
742.464	26547.35
742.804	26528.37
743.143	26491.76
743.483	26636.39
743.823	26600.01
744.162	26555.26
744.502	26768.14
744.841	26711.42
745.181	26704.64
745.52	26689.04
745.86	26655.37
746.199	26708.48
746.538	26722.26
746.877	26872.32
747.216	26878.64
747.556	26706.9
747.895	26680.46
748.234	26689.04
748.573	26689.27
748.911	26684.3
749.25	26831.87
749.589	26738.08
749.928	26799.1
750.267	26829.15
750.605	26768.82
750.944	26846.1
751.283	26872.09
751.621	26939.88
751.96	26765.43
752.298	26833.67
752.636	26936.72
752.975	26808.59
753.313	26828.93
753.651	27089.49
753.989	26780.34
754.327	26766.1
754.666	26754.13
755.004	26859.21
755.342	26940.34
755.679	26944.86
756.017	26910.73
756.355	26875.71
756.693	26820.79
757.031	27041.8
757.368	26809.04
757.706	26847.46
758.044	26823.5
758.381	26902.15
758.719	26938.3
759.056	26956.61
759.394	26932.2
759.731	26721.81
760.068	26829.83
760.405	26854.01
760.743	26889.72
761.08	26910.28
761.417	26758.65
761.754	26900.34
762.091	26971.3
762.428	26835.48
762.765	26703.51
763.102	26934.24
763.438	26673.45
763.775	26725.43
764.112	26597.75
764.449	26756.61
764.785	26609.05
765.122	26456.96
765.458	26415.38
765.795	26457.86
766.131	26595.26
766.467	26485.21
766.804	26430.07
767.14	26339.45
767.476	26509.16
767.812	26301.03
768.148	26321.6
768.485	26095.39
768.821	25999.57
769.157	25941.95
769.492	25959.35
769.828	25923.64
770.164	25770.65
770.5	25713.02
770.836	25714.15
771.171	25494.95
771.507	25626.47
771.842	25411.56
772.178	25464.22
772.513	25441.17
772.849	25288.63
773.184	25037.56
773.519	25128.18
773.855	24990.56
774.19	24914.18
774.525	24908.98
774.86	25006.15
775.195	24948.98
775.53	24807.51
775.865	24728.87
776.2	24804.12
776.535	24544.69
776.87	24607.52
777.205	24567.74
777.539	24372.95
777.874	24335.43
778.209	24198.26
778.543	24154.2
778.878	23966.86
779.212	24028.77
779.547	23943.58
779.881	23883.92
780.215	23770.02
780.55	23908.78
780.884	23704.26
781.218	23567.32
781.552	23654.77
781.886	23549.01
782.22	23412.75
782.554	23233.09
782.888	23067.44
783.222	23052.53
783.556	22917.39
783.889	22970.27
784.223	22772.31
784.557	22702.03
784.89	22750.84
785.224	22509.49
785.557	22424.3
785.891	22428.14
786.224	22319.89
786.558	22266.79
786.891	22050.75
787.224	21969.17
787.557	21988.15
787.891	22015.95
788.224	21925.78
788.557	21906.8
788.89	21819.34
789.223	21797.87
789.556	21707.25
789.888	21605.11
790.221	21491.89
790.554	21419.35
790.887	21326.93
791.219	21303.2
791.552	21198.79
791.884	21108.63
792.217	20912.47
792.549	20980.27
792.882	20892.13
793.214	20862.53
793.546	20955.86
793.879	20880.84
794.211	20646.49
794.543	20783.44
794.875	20634.06
795.207	20498.7
795.539	20466.61
795.871	20448.08
796.203	20270
796.535	20236.56
796.867	20216.9
797.198	20271.81
797.53	20207.63
797.862	20089.67
798.193	20134.19
798.525	19948.88
798.856	19988.88
799.188	19762.9
799.519	19793.41
799.85	19643.81
800.182	19651.26
800.513	19722.45
800.844	19524.26
801.175	19539.63
801.506	19462.79
801.837	19393.87
802.168	19323.14
802.499	19178.51
802.83	19156.81
803.161	19124.5
803.491	19061
803.822	19019.87
804.153	18960.89
804.483	18746.43
804.814	18742.81
805.145	18741.23
805.475	18756.6
805.805	18579.43
806.136	18656.03
806.466	18646.32
806.796	18494.68
807.126	18320.9
807.457	18283.16
807.787	18380.34
808.117	18319.55
808.447	18241.13
808.777	18284.75
809.107	18119.33
809.436	18073.9
809.766	18120.46
810.096	18011.31
810.426	17961.59
810.755	18045.43
811.085	17955.94
811.414	17917.07
811.744	17683.41
812.073	17836.62
812.403	17788.26
812.732	17619.9
813.061	17562.5
813.39	17531.32
813.719	17485.9
814.049	17575.16
814.378	17434.6
814.707	17465.33
815.036	17429.4
815.365	17278.44
815.693	17238.67
816.022	17134.49
816.351	17146.02
816.68	17015.4
817.008	17092.46
817.337	16913.26
817.665	16846.59
817.994	16991.9
818.322	16870.09
818.651	16872.8
818.979	16835.52
819.307	16795.29
819.636	16787.61
819.964	16626.94
820.292	16792.81
820.62	16670.78
820.948	16612.02
821.276	16741.06
821.604	16582.42
821.932	16653.15
822.259	16643.66
822.587	16543.77
822.915	16538.35
823.243	16504.45
823.57	16545.36
823.898	16530.89
824.225	16386.72
824.553	16537.22
824.88	16575.41
825.207	16586.26
825.535	16472.82
825.862	16597.33
826.189	16481.63
826.516	16632.81
826.843	16567.28
827.17	16597.56
827.497	16629.2
827.824	16545.13
828.151	16613.6
828.478	16545.13
828.805	16532.93
829.131	16410.22
829.458	16545.13
829.785	16305.59
830.111	16498.35
830.438	16614.05
830.764	16462.87
831.09	16591.23
831.417	16428.07
831.743	16544.9
832.069	16560.5
832.395	16465.13
832.722	16569.08
833.048	16522.98
833.374	16437.56
833.7	16443.66
834.026	16444.34
834.351	16528.86
834.677	16486.6
835.003	16466.71
835.329	16449.31
835.654	16459.93
835.98	16333.84
836.306	16379.03
836.631	16305.36
836.956	16340.62
837.282	16336.1
837.607	16294.29
837.932	16232.14
838.258	16141.07
838.583	16099.04
838.908	16016.33
839.233	16072.15
839.558	16053.62
839.883	15972.94
840.208	15843.45
840.533	15958.7
840.858	15867.63
841.182	15883.23
841.507	15928.42
841.832	15675.77
842.156	15752.38
842.481	15796.9
842.805	15622.89
843.13	15559.17
843.454	15563.46
843.778	15479.62
844.103	15455.22
844.427	15361.21
844.751	15413.86
845.075	15377.48
845.399	15316.24
845.723	15237.82
846.047	15220.87
846.371	15161.21
846.695	15186.52
847.019	14970.71
847.343	14980.65
847.666	14882.57
847.99	14753.31
848.313	14854.55
848.637	14722.13
848.96	14746.76
849.284	14680.32
849.607	14542.24
849.931	14624.5
850.254	14441.68
850.577	14438.07
850.9	14348.8
851.223	14285.98
851.546	14206.21
851.869	14115.36
852.192	14213.67
852.515	14102.26
852.838	14048.92
853.161	14019.55
853.483	13946.55
853.806	13859.55
854.129	13908.82
854.451	13804.41
854.774	13751.98
855.096	13765.32
855.419	13620.24
855.741	13664.53
856.063	13512.44
856.385	13535.04
856.708	13541.59
857.03	13406.68
857.352	13494.14
857.674	13433.35
857.996	13380.69
858.318	13360.58
858.64	13377.53
858.961	13248.49
859.283	13193.13
859.605	13045.79
859.926	13170.08
860.248	13104.77
860.57	13030.19
860.891	13041.27
861.212	12977.09
861.534	12956.07
861.855	12953.13
862.176	12964.21
862.498	12908.62
862.819	12822.74
863.14	12745.46
863.461	12756.3
863.782	12707.72
864.103	12784.55
864.424	12699.81
864.745	12694.84
865.065	12631.56
865.386	12573.26
865.707	12545.24
866.027	12547.49
866.348	12603.54
866.668	12567.61
866.989	12451.23
867.309	12360.38
867.63	12417.33
867.95	12427.5
868.27	12354.51
868.59	12441.06
868.91	12361.51
869.23	12360.38
869.55	12260.27
869.87	12361.74
870.19	12311.79
870.51	12331.23
870.83	12351.79
871.15	12167.84
871.469	12251.23
871.789	12246.03
872.109	12230.22
872.428	12193.38
872.748	12146.83
873.067	12169.43
873.386	12124.68
873.706	12154.28
874.025	12165.81
874.344	12124.23
874.663	12174.17
874.982	12039.49
875.301	12062.76
875.62	11987.51
875.939	11897.34
876.258	11929.88
876.577	11889.66
876.896	11957.68
877.214	11845.59
877.533	11907.74
877.852	11866.16
878.17	11839.26
878.489	11874.74
878.807	11810.57
879.125	11905.48
879.444	11824.12
879.762	11794.97
880.08	11757.01
880.398	11657.8
880.716	11706.39
881.034	11617.12
881.352	11589.1
881.67	11613.96
881.988	11549.1
882.306	11534.41
882.624	11426.85
882.941	11434.3
883.259	11445.83
883.577	11375.55
883.894	11370.12
884.212	11330.35
884.529	11326.96
884.846	11330.35
885.164	11288.54
885.481	11189.11
885.798	11190.47
886.115	11187.53
886.432	11152.96
886.75	11171.26
887.067	11140.53
887.383	11176.01
887.7	11020.08
888.017	10990.47
888.334	11082.45
888.651	10878.84
888.967	10899.63
889.284	10900.76
889.6	10924.26
889.917	10816.69
890.233	10847.88
890.55	10802.46
890.866	10787.77
891.182	10764.04
891.498	10730.14
891.815	10654.44
892.131	10693.98
892.447	10699.18
892.763	10598.62
893.079	10623.03
893.395	10550.03
893.71	10512.29
894.026	10490.37
894.342	10596.59
894.657	10394.33
894.973	10448.79
895.289	10428.91
895.604	10390.72
895.92	10366.99
896.235	10327.21
896.55	10293.99
896.865	10286.31
897.181	10206.54
897.496	10279.08
897.811	10156.82
898.126	10075.7
898.441	10082.25
898.756	10049.26
899.071	9948.92
899.386	9997.05
899.7	9950.5
900.015	9866.66
900.33	9777.62
900.644	9813.33
900.959	9813.56
901.273	9751.41
901.588	9692.65
901.902	9671.86
902.216	9684.97
902.531	9643.84
902.845	9596.84
903.159	9531.3
903.473	9560.68
903.787	9486.33
904.101	9402.04
904.415	9458.99
904.729	9408.59
905.042	9276.62
905.356	9193.01
905.67	9231.65
905.984	9241.37
906.297	9186.68
906.611	9120.24
906.924	9118.21
907.237	8974.71
907.551	8954.37
907.864	8952.56
908.177	8888.16
908.491	8897.65
908.804	8792.11
909.117	8721.38
909.43	8679.8
909.743	8723.19
910.056	8705.56
910.368	8663.08
910.681	8635.28
910.994	8616.52
911.307	8574.94
911.619	8524.78
911.932	8495.62
912.244	8429.19
912.557	8456.3
912.869	8407.26
913.181	8408.62
913.494	8364.55
913.806	8325.23
914.118	8341.73
914.43	8301.96
914.742	8232.58
915.054	8144.45
915.366	8173.82
915.678	8167.27
915.99	8048.4
916.302	8076.88
916.613	8079.82
916.925	8031.68
917.236	7964.79
917.548	7934.28
917.859	7992.36
918.171	7891.57
918.482	7904
918.794	7810.44
919.105	7787.39
919.416	7775.19
919.727	7712.37
920.038	7734.51
920.349	7677.79
920.66	7610.68
920.971	7710.33
921.282	7624.69
921.593	7600.51
921.903	7493.16
922.214	7490
922.525	7482.77
922.835	7458.36
923.146	7385.6
923.456	7355.77
923.767	7360.06
924.077	7356.9
924.387	7273.28
924.697	7241.19
925.008	7257.92
925.318	7164.81
925.628	7170.91
925.938	7108.09
926.248	7026.96
926.558	7038.71
926.867	6969.11
927.177	6971.6
927.487	6946.06
927.796	6873.52
928.106	6845.5
928.416	6822.9
928.725	6868.1
929.034	6776.12
929.344	6730.25
929.653	6696.58
929.962	6719.63
930.271	6614.77
930.581	6636.69
930.89	6619.97
931.199	6562.12
931.508	6504.49
931.817	6540.2
932.125	6493.19
932.434	6463.59
932.743	6409.8
933.051	6402.8
933.36	6389.01
933.669	6293.65
933.977	6297.72
934.286	6290.71
934.594	6291.84
934.902	6189.92
935.21	6215.91
935.519	6243.25
935.827	6147.66
936.135	6135.69
936.443	6142.24
936.751	6116.25
937.059	6134.56
937.367	6082.58
937.674	6055.01
937.982	6077.16
938.29	6035.58
938.597	6020.66
938.905	5919.87
939.213	5975.92
939.52	5874.68
939.827	5888.01
940.135	5881.68
940.442	5902.02
940.749	5844.85
941.056	5855.24
941.363	5777.28
941.67	5751.74
941.977	5707
942.284	5662.7
942.591	5680.33
942.898	5636.49
943.205	5666.32
943.511	5556.94
943.818	5548.36
944.125	5592.42
944.431	5482.37
944.738	5488.02
945.044	5500.67
945.35	5423.84
945.657	5405.31
945.963	5422.48
946.269	5401.24
946.575	5416.83
946.881	5387.01
947.187	5342.26
947.493	5306.56
947.799	5326.44
948.105	5311.75
948.41	5225.88
948.716	5261.13
949.022	5196.28
949.327	5140.01
949.633	5170.29
949.938	5086.67
950.244	5144.07
950.549	5080.8
950.854	5034.92
951.16	4998.99
951.465	4979.78
951.77	4988.15
952.075	4925.55
952.38	4926.23
952.685	4918.09
952.99	4889.17
953.294	4863.63
953.599	4838.32
953.904	4816.62
954.209	4760.36
954.513	4778.43
954.818	4747.47
955.122	4731.66
955.426	4737.08
955.731	4711.77
956.035	4633.35
956.339	4664.54
956.643	4636.29
956.948	4609.85
957.252	4578.66
957.556	4591.09
957.86	4565.56
958.163	4534.15
958.467	4507.93
958.771	4489.85
959.075	4506.58
959.378	4481.04
959.682	4475.39
959.985	4415.28
960.289	4371.89
960.592	4357.88
960.896	4346.13
961.199	4396.3
961.502	4342.29
961.805	4303.19
962.108	4325.34
962.411	4284.89
962.714	4281.05
963.017	4274.72
963.32	4283.98
963.623	4227.49
963.926	4220.26
964.228	4203.99
964.531	4200.37
964.833	4182.97
965.136	4112.24
965.438	4135.06
965.741	4106.36
966.043	4076.76
966.345	4103.2
966.648	4070.66
966.95	4063.65
967.252	4024.56
967.554	4001.05
967.856	4040.83
968.158	3946.14
968.46	3954.05
968.761	3937.78
969.063	3947.72
969.365	3924.22
969.666	3870.43
969.968	3912.02
970.269	3856.65
970.571	3881.06
970.872	3856.42
971.174	3838.8
971.475	3807.39
971.776	3766.93
972.077	3821.85
972.378	3744.11
972.679	3753.15
972.98	3741.85
973.281	3712.25
973.582	3691.91
973.883	3664.34
974.183	3608.29
974.484	3639.71
974.785	3611.68
975.085	3629.09
975.386	3559.03
975.686	3581.4
975.986	3543.21
976.287	3526.94
976.587	3510.22
976.887	3507.73
977.187	3453.95
977.487	3456.89
977.787	3440.39
978.087	3404.46
978.387	3441.52
978.687	3412.37
978.987	3404.01
979.286	3345.93
979.586	3345.7
979.885	3312.03
980.185	3303.9
980.484	3293.5
980.784	3290.56
981.083	3232.03
981.382	3217.57
981.682	3230.9
981.981	3237.91
982.28	3213.28
982.579	3168.98
982.878	3176.67
983.177	3185.48
983.475	3180.06
983.774	3152.49
984.073	3113.39
984.372	3123.79
984.67	3105.48
984.969	3073.17
985.267	3097.57
985.566	3075.43
985.864	3064.81
986.162	3031.36
986.461	3027.29
986.759	3040.17
987.057	2956.79
987.355	2948.2
987.653	2996.79
987.951	2992.72
988.249	2932.61
988.547	2964.7
988.844	2934.19
989.142	2922.66
989.44	2895.32
989.737	2890.35
990.035	2867.75
990.332	2871.82
990.63	2844.7
990.927	2841.54
991.224	2825.04
991.521	2849.44
991.819	2796.56
992.116	2796.79
992.413	2777.81
992.71	2756.57
993.006	2758.37
993.303	2748.88
993.6	2726.06
993.897	2739.17
994.193	2703.01
994.49	2680.18
994.787	2680.18
995.083	2676.79
995.379	2656.23
995.676	2664.59
995.972	2597.02
996.268	2611.26
996.565	2644.48
996.861	2637.92
997.157	2576.91
997.453	2561.54
997.749	2581.66
998.044	2517.02
998.34	2526.52
998.636	2520.64
998.932	2530.13
999.227	2483.13
999.523	2489.23
999.818	2487.42
1000.114	2455.56
1000.409	2417.59
1000.704	2418.5
1001	2398.61
1001.295	2362.9
1001.59	2374.88
1001.885	2418.72
1002.18	2361.1
1002.475	2341.21
1002.77	2305.05
1003.065	2317.26
1003.359	2298.27
1003.654	2319.29
1003.949	2299.63
1004.243	2235.45
1004.538	2256.24
1004.832	2229.12
1005.127	2215.34
1005.421	2196.35
1005.715	2160.65
1006.009	2187.09
1006.304	2154.55
1006.598	2179.18
1006.892	2119.29
1007.186	2162.23
1007.48	2106.87
1007.773	2103.7
1008.067	2093.98
1008.361	2061.44
1008.655	2075.23
1008.948	2035.68
1009.242	2054.21
1009.535	2063.48
1009.829	2034.1
1010.122	2017.6
1010.415	2005.17
1010.708	1980.32
1011.001	1978.73
1011.295	1984.38
1011.588	1955.23
1011.881	1952.97
1012.173	1917.27
1012.466	1952.07
1012.759	1948.9
1013.052	1915.68
1013.344	1901.22
1013.637	1872.75
1013.93	1884.05
1014.222	1886.98
1014.514	1858.74
1014.807	1863.93
1015.099	1814.44
1015.391	1822.13
1015.683	1817.16
1015.976	1814.9
1016.268	1812.86
1016.56	1781
1016.851	1750.72
1017.143	1752.07
1017.435	1757.04
1017.727	1739.42
1018.018	1736.03
1018.31	1712.3
1018.602	1736.03
1018.893	1726.76
1019.185	1701.9
1019.476	1684.96
1019.767	1681.34
1020.058	1644.28
1020.35	1651.28
1020.641	1664.62
1020.932	1658.97
1021.223	1632.08
1021.514	1601.34
1021.804	1623.26
1022.095	1604.51
1022.386	1596.6
1022.677	1582.81
1022.967	1581.68
1023.258	1546.43
1023.548	1559.31
1023.839	1562.25
1024.129	1538.29
1024.419	1529.48
1024.709	1514.34
1025	1490.16
1025.29	1503.27
1025.58	1463.27
1025.87	1470.05
1026.16	1450.84
1026.449	1463.94
1026.739	1454
1027.029	1448.8
1027.319	1409.26
1027.608	1423.72
1027.898	1424.4
1028.187	1395.02
1028.477	1395.02
1028.766	1374.46
1029.055	1341.91
1029.344	1355.02
1029.634	1358.86
1029.923	1343.5
1030.212	1300.11
1030.501	1297.85
1030.79	1316.83
1031.078	1276.15
1031.367	1272.31
1031.656	1284.29
1031.945	1255.36
1032.233	1242.93
1032.522	1264.4
1032.81	1276.38
1033.099	1238.41
1033.387	1220.34
1033.675	1239.09
1033.963	1201.13
1034.251	1205.65
1034.54	1167.46
1034.828	1227.11
1035.116	1165.65
1035.403	1166.1
1035.691	1175.59
1035.979	1159.77
1036.267	1136.27
1036.554	1152.09
1036.842	1134.69
1037.129	1145.99
1037.417	1116.16
1037.704	1115.93
1037.992	1122.03
1038.279	1106.21
1038.566	1117.51
1038.853	1117.51
1039.14	1117.51
