Data from blue_clamp_base_FLMS001491_00082.txt Node
Date: Wed Feb 08 15:16:37 GMT 2017
User: dcchb
Spectrometer: FLMS00149
Trigger mode: 0
Integration Time (sec): 2.000000E-2
Scans to average: 10
Electric dark correction enabled: true
Nonlinearity correction enabled: false
Boxcar width: 0
XAxis mode: Wavelengths
Number of Pixels in Spectrum: 2048
>>>>>Begin Spectral Data<<<<<
341.393	-3.88
341.776	-3.88
342.16	-3.88
342.543	-70.77
342.927	-71.45
343.31	-58.8
343.693	-61.28
344.077	-78.91
344.46	-58.8
344.843	-67.84
345.226	-28.74
345.61	-47.95
345.993	-13.15
346.376	-1.62
346.759	12.84
347.142	24.82
347.525	45.38
347.908	55.1
348.291	62.55
348.674	103.23
349.057	113.17
349.44	123.34
349.823	141.87
350.206	164.47
350.588	210.57
350.971	217.81
351.354	251.93
351.737	239.73
352.119	252.15
352.502	269.1
352.884	267.07
353.267	314.75
353.65	313.62
354.032	317.69
354.414	305.49
354.797	315.88
355.179	331.93
355.562	309.1
355.944	319.5
356.326	345.94
356.709	332.83
357.091	343.45
357.473	368.08
357.855	355.43
358.238	351.81
358.62	370.8
359.002	367.41
359.384	341.19
359.766	368.08
360.148	324.69
360.53	354.75
360.912	352.04
361.294	355.88
361.676	346.39
362.057	353.62
362.439	342.55
362.821	349.55
363.203	340.29
363.584	365.82
363.966	342.55
364.348	350.68
364.729	355.2
365.111	361.76
365.493	321.31
365.874	345.26
366.256	336.22
366.637	307.97
367.019	323.11
367.4	343.23
367.781	339.16
368.163	354.3
368.544	334.64
368.925	335.32
369.306	356.33
369.688	330.34
370.069	342.32
370.45	330.12
370.831	329.67
371.212	340.74
371.593	338.71
371.974	335.99
372.355	355.88
372.736	351.59
373.117	377.12
373.498	354.52
373.879	345.26
374.26	351.59
374.641	340.97
375.021	357.69
375.402	346.62
375.783	350.91
376.163	352.49
376.544	377.35
376.925	368.31
377.305	388.42
377.686	374.41
378.066	356.33
378.447	378.48
378.827	370.57
379.208	360.85
379.588	384.35
379.968	388.2
380.349	387.29
380.729	361.76
381.109	387.52
381.489	391.36
381.87	382.32
382.25	406.27
382.63	402.43
383.01	407.18
383.39	404.24
383.77	407.18
384.15	403.56
384.53	405.6
384.91	432.49
385.29	394.75
385.67	408.76
386.049	438.59
386.429	423.68
386.809	439.27
387.189	430
387.568	423.9
387.948	438.36
388.328	437.01
388.707	441.75
389.087	413.96
389.466	454.86
389.846	443.79
390.225	463
390.605	476.1
390.984	466.16
391.363	461.41
391.743	458.02
392.122	464.35
392.501	466.84
392.881	475.88
393.26	500.28
393.639	486.05
394.018	497.57
394.397	501.87
394.776	500.28
395.155	525.82
395.534	517.01
395.913	517.68
396.292	528.76
396.671	516.33
397.05	534.41
397.429	551.81
397.808	543.45
398.186	552.03
398.565	573.73
398.944	578.93
399.323	552.94
399.701	559.26
400.08	565.37
400.458	586.16
400.837	597.46
401.215	585.93
401.594	612.14
401.972	614.86
402.351	603.78
402.729	628.42
403.107	623.44
403.486	652.82
403.864	616.66
404.242	654.63
404.62	671.35
404.999	655.08
405.377	687.85
405.755	681.52
406.133	703.67
406.511	706.83
406.889	676.78
407.267	696.21
407.645	737.57
408.023	738.92
408.401	740.28
408.779	748.64
409.156	776.66
409.534	766.72
409.912	780.73
410.29	808.3
410.667	825.02
411.045	817.11
411.422	815.3
411.8	835.87
412.178	829.31
412.555	860.05
412.933	889.43
413.31	900.72
413.687	881.06
414.065	889.65
414.442	897.79
414.819	939.59
415.197	925.81
415.574	919.93
415.951	947.28
416.328	978.69
416.705	966.49
417.082	977.33
417.46	988.18
417.837	986.82
418.214	1007.84
418.591	1000.61
418.967	1016.88
419.344	1027.95
419.721	1060.04
420.098	1069.76
420.475	1046.26
420.852	1037.67
421.228	1098.91
421.605	1107.73
421.982	1108.4
422.358	1123.32
422.735	1106.14
423.111	1139.14
423.488	1145.24
423.864	1162.86
424.241	1180.04
424.617	1193.6
424.994	1232.02
425.37	1226.37
425.746	1203.99
426.123	1257.78
426.499	1252.58
426.875	1264.33
427.251	1269.3
427.627	1320.83
428.003	1333.48
428.379	1345.46
428.756	1381.84
429.132	1359.24
429.507	1387.27
429.883	1425
430.259	1413.93
430.635	1452.57
431.011	1469.07
431.387	1499.58
431.763	1549.52
432.138	1516.53
432.514	1546.36
432.89	1566.02
433.265	1591.78
433.641	1603.31
434.016	1630.2
434.392	1674.04
434.767	1689.86
435.143	1692.79
435.518	1707.26
435.894	1730.53
436.269	1746.8
436.644	1762.4
437.02	1797.42
437.395	1805.56
437.77	1833.36
438.145	1848.27
438.52	1873.35
438.895	1891.66
439.271	1893.92
439.646	1944.09
440.021	1957.19
440.395	1988.61
440.77	1967.14
441.145	1990.64
441.52	2031.32
441.895	2002.62
442.27	2049.17
442.645	2060.92
443.019	2081.48
443.394	2095.95
443.769	2112.22
444.143	2126.91
444.518	2144.76
444.892	2139.56
445.267	2173.01
445.641	2196.51
446.016	2182.05
446.39	2195.38
446.764	2245.77
447.139	2245.32
447.513	2269.73
447.887	2276.73
448.262	2332.1
448.636	2337.3
449.01	2324.42
449.384	2326.22
449.758	2385.66
450.132	2417.3
450.506	2456.62
450.88	2454.36
451.254	2465.66
451.628	2462.94
452.002	2490.06
452.376	2512.66
452.75	2594.69
453.123	2582.26
453.497	2600.57
453.871	2650.06
454.244	2729.38
454.618	2713.78
454.992	2694.12
455.365	2713.11
455.739	2815.93
456.112	2840.33
456.486	2844.63
456.859	2888.24
457.232	2951.97
457.606	2952.65
457.979	2962.59
458.352	3040.1
458.725	3085.3
459.099	3066.54
459.472	3139.31
459.845	3140.21
460.218	3228.35
460.591	3213.88
460.964	3216.37
461.337	3328.68
461.71	3342.02
462.083	3404.84
462.456	3403.03
462.829	3401.22
463.201	3473.99
463.574	3455.23
463.947	3519.41
464.32	3634.44
464.692	3618.85
465.065	3654.55
465.438	3702.46
465.81	3818.61
466.183	3794.43
466.555	3892.74
466.928	3910.59
467.3	3876.92
467.672	3929.12
468.045	4052.96
468.417	4058.61
468.789	4042.34
469.161	4109.45
469.534	4184.71
469.906	4249.11
470.278	4310.8
470.65	4321.43
471.022	4440.07
471.394	4497.47
471.766	4538.82
472.138	4568.65
472.51	4669.21
472.882	4707.18
473.253	4732.04
473.625	4823.11
473.997	4907.85
474.369	4944.69
474.74	4993.27
475.112	5060.39
475.484	5102.87
475.855	5251.57
476.227	5270.78
476.598	5425.35
476.97	5424.22
477.341	5509.42
477.713	5616.53
478.084	5623.54
478.455	5758.68
478.827	5866.7
479.198	5967.48
479.569	5934.72
479.94	6124.54
480.311	6185.78
480.682	6280.92
481.053	6384.65
481.424	6471.43
481.795	6476.85
482.166	6646.11
482.537	6691.08
482.908	6827.57
483.279	6848.37
483.65	6926.33
484.021	7113.67
484.391	7182.82
484.762	7207.23
485.133	7240.45
485.503	7307.79
485.874	7426.2
486.244	7471.85
486.615	7675.91
486.985	7736.93
487.356	7824.38
487.726	7876.59
488.097	8039.75
488.467	8017.83
488.837	8186.41
489.207	8258.95
489.578	8345.95
489.948	8359.74
490.318	8479.96
490.688	8512.73
491.058	8601.77
491.428	8735.32
491.798	8763.34
492.168	8893.74
492.538	8914.53
492.908	8986.16
493.278	9093.73
493.648	9074.75
494.017	9171.92
494.387	9294.63
494.757	9256.44
495.126	9386.15
495.496	9336.21
495.866	9401.29
496.235	9513.83
496.605	9583.43
496.974	9649.2
497.344	9705.47
497.713	9747.95
498.082	9807.84
498.452	9875.86
498.821	9926.02
499.19	9868.85
499.559	9978
499.928	9999.92
500.298	10040.37
500.667	10164.89
501.036	10073.37
501.405	10142.74
501.774	10163.53
502.143	10216.64
502.512	10201.5
502.88	10405.11
503.249	10347.26
503.618	10388.84
503.987	10429.74
504.356	10453.24
504.724	10558.78
505.093	10560.36
505.462	10570.98
505.83	10611.66
506.199	10757.64
506.567	10843.51
506.936	10785.21
507.304	10911.31
507.672	10880.12
508.041	10959.9
508.409	11015.04
508.777	11064.3
509.145	11090.06
509.514	11154.69
509.882	11217.74
510.25	11224.07
510.618	11328.47
510.986	11282.15
511.354	11399.88
511.722	11495.47
512.09	11625.64
512.458	11506.77
512.826	11589.71
513.193	11659.76
513.561	11666.32
513.929	11714
514.297	11845.75
514.664	11841.91
515.032	11927.78
515.4	11904.73
515.767	12047.1
516.135	12096.14
516.502	12020.21
516.869	12254.32
517.237	12199.86
517.604	12220.2
517.972	12235.79
518.339	12291.84
518.706	12396.24
519.073	12483.92
519.44	12501.32
519.808	12670.13
520.175	12629.23
520.542	12718.04
520.909	12775.44
521.276	12735.22
521.643	12910.35
522.009	13007.53
522.376	13079.16
522.743	12980.63
523.11	13186.96
523.477	13316.9
523.843	13331.58
524.21	13385.59
524.577	13523.44
524.943	13609.77
525.31	13614.74
525.676	13723.21
526.043	13770.89
526.409	13714.17
526.776	13897.67
527.142	13969.76
527.508	13988.97
527.874	14056.09
528.241	14197.32
528.607	14263.31
528.973	14287.49
529.339	14378.56
529.705	14426.02
530.071	14487.49
530.437	14585.34
530.803	14674.15
531.169	14719.12
531.535	14776.52
531.901	14841.83
532.267	14808.83
532.632	15034.59
532.998	15045.66
533.364	15099.67
533.73	15085.21
534.095	15233.23
534.461	15115.94
534.826	15355.94
535.192	15364.07
535.557	15449.95
535.923	15392.32
536.288	15457.4
536.653	15628.93
537.019	15490.62
537.384	15622.15
537.749	15717.96
538.114	15638.19
538.479	15738.98
538.845	15864.85
539.21	15861.91
539.575	15899.65
539.94	15897.39
540.305	16027.78
540.67	15990.5
541.034	16053.77
541.399	16160.66
541.764	16169.02
542.129	16180.32
542.494	16258.97
542.858	16378.28
543.223	16287.66
543.587	16386.87
543.952	16357.72
544.316	16507.77
544.681	16478.62
545.045	16517.72
545.41	16643.36
545.774	16587.54
546.138	16651.95
546.503	16751.38
546.867	16667.99
547.231	16803.13
547.595	16788.89
547.959	16874.54
548.324	16971.71
548.688	17019.62
549.052	17019.62
549.416	17071.15
549.779	17098.72
550.143	17138.94
550.507	17250.8
550.871	17250.58
551.235	17219.17
551.599	17449.44
551.962	17363.79
552.326	17327.86
552.689	17509.55
553.053	17445.37
553.417	17520.85
553.78	17848.08
554.143	17732.37
554.507	17688.53
554.87	17884.23
555.234	17946.83
555.597	17849.88
555.96	17820.05
556.323	18028.86
556.686	17958.13
557.05	18172.59
557.413	18108.86
557.776	18173.94
558.139	18249.87
558.502	18335.52
558.865	18352.92
559.228	18478.34
559.59	18479.7
559.953	18481.96
560.316	18631.56
560.679	18660.26
561.041	18717.88
561.404	18902.96
561.767	18931.44
562.129	18912
562.492	19136.18
562.854	19054.82
563.217	19145.44
563.579	19164.65
563.941	19274.48
564.304	19305.44
564.666	19412.55
565.028	19495.49
565.39	19623.85
565.753	19628.14
566.115	19752.21
566.477	19850.96
566.839	19795.6
567.201	20027.23
567.563	19938.42
567.925	20089.6
568.287	20157.17
568.648	20247.79
569.01	20324.39
569.372	20359.87
569.734	20388.57
570.095	20418.63
570.457	20526.88
570.819	20589.7
571.18	20608.91
571.542	20700.88
571.903	20789.47
572.265	20864.95
572.626	20854.32
572.987	20859.97
573.349	21034.21
573.71	21006.86
574.071	21025.39
574.432	21183.81
574.794	21339.28
575.155	21241.21
575.516	21239.4
575.877	21355.1
576.238	21406.63
576.599	21555.32
576.96	21393.97
577.32	21467.19
577.681	21650.24
578.042	21659.73
578.403	21597.36
578.763	21658.6
579.124	21757.13
579.485	21846.16
579.845	21808.65
580.206	21833.28
580.566	21895.2
580.927	21934.3
581.287	21981.07
581.648	21917.35
582.008	22042.32
582.368	22013.84
582.728	21998.25
583.089	21946.27
583.449	22025.59
583.809	22114.63
584.169	22149.88
584.529	22088.42
584.889	22303.55
585.249	22136.32
585.609	22125.93
585.969	22216.32
586.329	22161.63
586.688	22194.4
587.048	22258.13
587.408	22188.53
587.768	22161.63
588.127	22179.04
588.487	22113.05
588.846	22349.65
589.206	22171.58
589.565	22143.1
589.925	22294.96
590.284	22162.31
590.643	22292.25
591.003	22268.07
591.362	22430.1
591.721	22325.47
592.08	22362.08
592.44	22458.12
592.799	22390.33
593.158	22451.8
593.517	22377.67
593.876	22337.9
594.235	22417.9
594.593	22349.88
594.952	22527.95
595.311	22354.4
595.67	22557.33
596.029	22588.29
596.387	22643.43
596.746	22630.78
597.104	22494.96
597.463	22538.35
597.822	22604.11
598.18	22532.02
598.538	22569.31
598.897	22679.36
599.255	22431.23
599.613	22894.04
599.972	22783.09
600.33	22699.93
600.688	22593.49
601.046	22705.58
601.404	22838.68
601.762	22777.21
602.12	22848.62
602.478	22795.06
602.836	22908.96
603.194	22740.38
603.552	22773.14
603.91	22732.69
604.268	22855.18
604.625	22793.71
604.983	22864.22
605.341	22724.56
605.698	22979.69
606.056	22908.28
606.413	22892.24
606.771	23026.47
607.128	23025.34
607.485	22866.02
607.843	22978.11
608.2	23053.14
608.557	23165.45
608.914	22982.18
609.272	23146.92
609.629	23146.24
609.986	23259.69
610.343	23107.82
610.7	23326.12
611.057	23237.09
611.414	23238.44
611.771	23296.97
612.127	23321.83
612.484	23414.71
612.841	23465.1
613.198	23342.17
613.554	23355.95
613.911	23530.41
614.267	23439.79
614.624	23431.88
614.98	23493.13
615.337	23569.51
615.693	23527.02
616.05	23406.12
616.406	23594.59
616.762	23493.13
617.118	23535.38
617.475	23627.58
617.831	23619.22
618.187	23710.29
618.543	23738.54
618.899	23810.41
619.255	23781.93
619.611	23723.85
619.967	23764.08
620.323	23866.45
620.678	23820.8
621.034	23724.98
621.39	23736.73
621.746	23655.15
622.101	24006.11
622.457	23898.54
622.812	23886.56
623.168	23893.57
623.523	23957.07
623.879	24096.27
624.234	23938.99
624.589	23934.7
624.945	24051.3
625.3	24006.11
625.655	23974.02
626.01	23915.26
626.365	24033
626.72	24028.25
627.075	23980.57
627.43	24051.98
627.785	23918.65
628.14	23989.84
628.495	24113.45
628.85	24031.64
629.205	23944.64
629.559	24196.16
629.914	23913
630.269	24151.64
630.623	24098.76
630.978	23999.78
631.332	24112.54
631.687	24229.83
632.041	24029.83
632.396	24064.18
632.75	24003.62
633.104	24082.26
633.459	24024.64
633.813	23984.41
634.167	23922.27
634.521	23929.72
634.875	23956.62
635.229	24032.32
635.583	23938.99
635.937	23924.98
636.291	23957.29
636.645	23867.8
636.999	23969.04
637.352	24034.13
637.706	23847.24
638.06	23949.16
638.413	23850.86
638.767	23769.28
639.121	23909.61
639.474	23745.32
639.828	23859.9
640.181	23927.92
640.534	23924.53
640.888	23872.32
641.241	23719.79
641.594	23842.72
641.947	23774.7
642.301	23743.97
642.654	23845.88
643.007	23914.13
643.36	23829.16
643.713	23828.03
644.066	23917.52
644.419	23821.48
644.771	23633.46
645.124	23466.91
645.477	23446.35
645.83	23284.32
646.182	23186.01
646.535	23233.02
646.888	23240.7
647.24	23234.83
647.593	23345.56
647.945	23317.99
648.298	23311.21
648.65	23160.25
649.002	23190.08
649.355	23186.69
649.707	23367.03
650.059	23340.59
650.411	23535.16
650.763	23654.25
651.115	23997.29
651.467	23873.91
651.819	23860.35
652.171	23875.04
652.523	23840.46
652.875	23870.52
653.227	23724.53
653.578	24034.35
653.93	23802.95
654.282	23873.23
654.633	23742.38
654.985	23825.77
655.337	23913
655.688	23876.39
656.039	23910.74
656.391	23839.78
656.742	23891.31
657.094	23883.4
657.445	23931.76
657.796	23890.85
658.147	23924.75
658.498	23847.69
658.849	23916.62
659.2	23908.26
659.551	23783.74
659.902	23858.99
660.253	23879.1
660.604	23953.45
660.955	23839.33
661.306	24089.72
661.656	23746.9
662.007	23947.35
662.358	23884.98
662.708	23887.92
663.059	23739.45
663.409	23638.43
663.76	23908.48
664.11	23819.44
664.461	23897.18
664.811	23880.69
665.161	23796.62
665.511	23750.29
665.862	23812.44
666.212	23829.84
666.562	23905.32
666.912	23807.02
667.262	23755.94
667.612	23757.3
667.962	23766.79
668.312	23601.37
668.662	23795.26
669.011	23736.28
669.361	23617.42
669.711	23673.91
670.06	23580.81
670.41	23495.84
670.76	23569.06
671.109	23639.79
671.459	23545.78
671.808	23485.89
672.157	23568.38
672.507	23438.21
672.856	23429.17
673.205	23350.3
673.554	23479.57
673.904	23317.99
674.253	23360.25
674.602	23310.53
674.951	22908.06
675.3	22904.44
675.649	23257.2
675.998	22980.14
676.346	23134.26
676.695	23176.07
677.044	23012.91
677.393	23072.12
677.741	23038.45
678.09	22921.39
678.438	22933.59
678.787	22963.2
679.135	22938.34
679.484	22784.44
679.832	22840.49
680.181	22617.22
680.529	22717.78
680.877	22606.59
681.225	22596.65
681.573	22720.26
681.922	22558.91
682.27	22544
682.618	22557.1
682.966	22513.49
683.314	22451.34
683.661	22408.18
684.009	22341.29
684.357	22312.82
684.705	22195.31
685.053	22243.67
685.4	22212.93
685.748	22068.76
686.095	21983.33
686.443	21957.57
686.79	22001.86
687.138	21990.79
687.485	22007.29
687.832	21912.83
688.18	22085.48
688.527	21847.74
688.874	21678.71
689.221	21628.54
689.568	21633.51
689.915	21710.35
690.262	21636.9
690.609	21645.72
690.956	21540.63
691.303	21563.46
691.65	21526.17
691.997	21451.82
692.344	21248.66
692.69	21298.83
693.037	21342.67
693.383	21171.83
693.73	21286.63
694.077	21102.23
694.423	21157.82
694.769	21078.95
695.116	21029.46
695.462	20995.56
695.808	21025.62
696.155	20966.64
696.501	20833.76
696.847	20868.11
697.193	20658.4
697.539	20849.58
697.885	20675.35
698.231	20633.54
698.577	20645.97
698.923	20583.6
699.269	20533.43
699.614	20384.73
699.96	20393.77
700.306	20452.75
700.651	20365.3
700.997	20384.51
701.342	20295.02
701.688	20230.84
702.033	20197.39
702.379	20169.6
702.724	20191.97
703.069	20131.86
703.415	20017.51
703.76	20030.62
704.105	20040.56
704.45	19916.95
704.795	19938.42
705.14	19825.43
705.485	19777.74
705.83	19785.65
706.175	19762.38
706.52	19690.29
706.865	19684.19
707.209	19707.46
707.554	19626.56
707.899	19568.93
708.243	19530.29
708.588	19529.61
708.932	19397.41
709.277	19520.12
709.621	19467.92
709.966	19223.18
710.31	19336.85
710.654	19259.11
710.998	19334.36
711.342	19334.14
711.687	19258.21
712.031	19241.26
712.375	19185.89
712.719	19198.55
713.063	19182.73
713.407	19289.85
713.75	19144.54
714.094	19105.67
714.438	19003.98
714.782	19089.85
715.125	19035.84
715.469	19046.24
715.812	18956.75
716.156	18905
716.499	18820.93
716.843	18919.46
717.186	18819.12
717.53	19022.06
717.873	18920.36
718.216	18818.9
718.559	18803.08
718.902	18739.8
719.246	18714.49
719.589	18674.72
719.932	18638.56
720.275	18695.06
720.617	18632.91
720.96	18614.61
721.303	18639.69
721.646	18647.83
721.989	18519.47
722.331	18669.75
722.674	18527.61
723.016	18522.63
723.359	18496.87
723.701	18566.02
724.044	18347.72
724.386	18348.63
724.729	18486.25
725.071	18413.03
725.413	18475.4
725.755	18352.24
726.097	18335.07
726.439	18243.77
726.782	18262.08
727.124	18387.72
727.465	18325.35
727.807	18294.62
728.149	18332.36
728.491	18235.41
728.833	18237.44
729.175	18166.26
729.516	18138.92
729.858	18246.03
730.199	18243.09
730.541	18234.96
730.882	18217.11
731.224	18196.54
731.565	18140.95
731.906	18179.82
732.248	18227.5
732.589	18153.38
732.93	18092.36
733.271	18181.85
733.612	18136.66
733.953	18196.32
734.294	18073.83
734.635	18106.37
734.976	18138.92
735.317	17999.48
735.658	18165.13
735.999	18027.96
736.339	18044.91
736.68	18131.23
737.021	18046.71
737.361	18025.25
737.702	18170.78
738.042	18160.61
738.383	18069.54
738.723	18108.41
739.063	18140.5
739.404	18272.25
739.744	18139.37
740.084	18141.18
740.424	18125.36
740.764	18053.27
741.104	18265.69
741.444	18242.64
741.784	18168.97
742.124	18204.68
742.464	18251.23
742.804	18241.06
743.143	18295.52
743.483	18312.02
743.823	18274.05
744.162	18206.94
744.502	18318.35
744.841	18396.99
745.181	18369.87
745.52	18271.12
745.86	18400.83
746.199	18454.16
746.538	18481.96
746.877	18456.65
747.216	18536.19
747.556	18435.41
747.895	18507.95
748.234	18439.47
748.573	18417.33
748.911	18519.02
749.25	18563.09
749.589	18542.29
749.928	18587.94
750.267	18640.6
750.605	18552.69
750.944	18587.72
751.283	18582.97
751.621	18643.08
751.96	18567.15
752.298	18715.85
752.636	18707.49
752.975	18622.52
753.313	18606.25
753.651	18806.92
753.989	18639.69
754.327	18766.24
754.666	18699.35
755.004	18754.27
755.342	18840.37
755.679	18825.68
756.017	18717.21
756.355	18788.39
756.693	18815.96
757.031	18898.22
757.368	18729.18
757.706	18801.95
758.044	18796.75
758.381	18902.74
758.719	18774.83
759.056	18905.68
759.394	18856.18
759.731	18825.23
760.068	18886.92
760.405	18768.5
760.743	18777.09
761.08	18835.17
761.417	18755.62
761.754	18825.23
762.091	18867.71
762.428	18792.01
762.765	18666.13
763.102	18801.05
763.438	18726.24
763.775	18705.45
764.112	18761.27
764.449	18818.22
764.785	18680.14
765.122	18652.12
765.458	18629.75
765.795	18731.67
766.131	18775.96
766.467	18778.67
766.804	18631.33
767.14	18528.06
767.476	18562.41
767.812	18563.09
768.148	18678.11
768.485	18540.26
768.821	18572.35
769.157	18561.5
769.492	18466.36
769.828	18596.3
770.164	18495.29
770.5	18393.37
770.836	18444.9
771.171	18351.11
771.507	18352.47
771.842	18264.11
772.178	18321.28
772.513	18338.23
772.849	18387.27
773.184	18219.14
773.519	18310.89
773.855	18313.83
774.19	18297.78
774.525	18179.14
774.86	18241.96
775.195	18256.65
775.53	18155.41
775.865	18073.61
776.2	18006.04
776.535	17981.41
776.87	17927.85
777.205	17895.08
777.539	17807.62
777.874	17931.92
778.209	17727.85
778.543	17810.11
778.878	17732.6
779.212	17842.2
779.547	17746.84
779.881	17773.73
780.215	17734.86
780.55	17796.55
780.884	17664.8
781.218	17662.09
781.552	17646.5
781.886	17574.41
782.22	17534.86
782.554	17450.8
782.888	17443.79
783.222	17387.75
783.556	17256.68
783.889	17359.5
784.223	17201.54
784.557	17159.05
784.89	17302.33
785.224	17172.39
785.557	17124.93
785.891	17132.84
786.224	17146.63
786.558	17054.88
786.891	16911.6
787.224	16870.93
787.557	16921.77
787.891	16925.61
788.224	16944.14
788.557	16950.47
788.89	16858.72
789.223	16825.73
789.556	16806.07
789.888	16813.07
790.221	16747.09
790.554	16604.04
790.887	16690.37
791.219	16598.62
791.552	16652.63
791.884	16498.05
792.217	16484.27
792.549	16394.33
792.882	16503.25
793.214	16271.17
793.546	16479.52
793.879	16334.44
794.211	16242.47
794.543	16332.64
794.875	16247.89
795.207	16269.81
795.539	16238.63
795.871	16265.52
796.203	16102.13
796.535	16104.84
796.867	15995.7
797.198	16007.22
797.53	16039.76
797.862	15940.78
798.193	15941.46
798.525	15920.67
798.856	15869.14
799.188	15773.33
799.519	15825.98
799.85	15675.7
800.182	15639.09
800.513	15659.88
800.844	15634.57
801.175	15642.71
801.506	15678.87
801.837	15480.23
802.168	15597.06
802.499	15530.62
802.83	15432.32
803.161	15477.97
803.491	15432.32
803.822	15345.99
804.153	15331.53
804.483	15291.31
804.814	15213.12
805.145	15204.76
805.475	15196.62
805.805	15158.66
806.136	15182.16
806.466	15146.68
806.796	15074.59
807.126	15030.97
807.457	14993.01
807.787	14937.19
808.117	14931.54
808.447	14917.08
808.777	14982.61
809.107	14937.19
809.436	14848.83
809.766	14892.67
810.096	14741.72
810.426	14756.86
810.755	14819.23
811.085	14712.34
811.414	14754.37
811.744	14692
812.073	14634.15
812.403	14600.48
812.732	14520.48
813.061	14544.89
813.39	14361.16
813.719	14366.81
814.049	14482.29
814.378	14442.74
814.707	14348.96
815.036	14394.61
815.365	14344.89
815.693	14174.05
816.022	14238.91
816.351	14195.06
816.68	14205.69
817.008	14137.44
817.337	14064.45
817.665	14034.62
817.994	14096.08
818.322	14033.94
818.651	13930.21
818.979	13893.6
819.307	14011.34
819.636	13937.9
819.964	13850.21
820.292	13901.74
820.62	13993.94
820.948	13882.98
821.276	13933.83
821.604	13866.94
821.932	13852.93
822.259	13873.49
822.587	13957.33
822.915	13805.24
823.243	13855.19
823.57	13820.84
823.898	13826.03
824.225	13756.66
824.553	13832.36
824.88	13930.66
825.207	13892.7
825.535	13885.92
825.862	13933.6
826.189	13832.36
826.516	13921.4
826.843	13991.91
827.17	13942.19
827.497	13892.7
827.824	13958.01
828.151	13930.66
828.478	13973.83
828.805	14045.24
829.131	13909.42
829.458	13980.83
829.785	13830.1
830.111	13922.53
830.438	13972.7
830.764	13911
831.09	13936.31
831.417	13865.81
831.743	13975.41
832.069	13937.9
832.395	13880.27
832.722	13925.69
833.048	13860.61
833.374	13862.87
833.7	13878.24
834.026	13826.94
834.351	13934.51
834.677	13878.24
835.003	13903.32
835.329	13817.67
835.654	13864.68
835.98	13783.1
836.306	13761.4
836.631	13749.43
836.956	13793.49
837.282	13782.19
837.607	13690.45
837.932	13599.15
838.258	13737.22
838.583	13708.75
838.908	13610.22
839.233	13653.16
839.558	13686.38
839.883	13554.86
840.208	13522.77
840.533	13672.59
840.858	13560.28
841.182	13659.49
841.507	13540.17
841.832	13423.79
842.156	13463.56
842.481	13484.12
842.805	13299.04
843.13	13316.67
843.454	13325.03
843.778	13304.47
844.103	13258.37
844.427	13240.29
844.751	13192.15
845.075	13201.42
845.399	13206.16
845.723	13149.67
846.047	13140.18
846.371	12991.25
846.695	13007.75
847.019	12892.05
847.343	12872.16
847.666	12777.25
847.99	12756.23
848.313	12696.35
848.637	12617.03
848.96	12632.39
849.284	12613.19
849.607	12483.7
849.931	12513.07
850.254	12388.78
850.577	12373.87
850.9	12263.14
851.223	12268.56
851.546	12182.01
851.869	12158.06
852.192	12236.92
852.515	12086.19
852.838	12050.71
853.161	12057.27
853.483	11951.96
853.806	12001
854.129	11950.83
854.451	11909.47
854.774	11688.24
855.096	11830.38
855.419	11787.22
855.741	11709.71
856.063	11653.89
856.385	11690.5
856.708	11619.54
857.03	11507.45
857.352	11576.38
857.674	11454.57
857.996	11491.63
858.318	11390.84
858.64	11391.52
858.961	11220.68
859.283	11290.96
859.605	11254.8
859.926	11272.2
860.248	11222.49
860.57	11149.04
860.891	11251.64
861.212	11262.26
861.534	11116.5
861.855	11118.31
862.176	11167.8
862.498	11131.64
862.819	11087.35
863.14	11063.85
863.461	11095.26
863.782	11075.15
864.103	11006.22
864.424	10894.81
864.745	11002.61
865.065	10984.08
865.386	10998.76
865.707	10839.22
866.027	10879.9
866.348	10881.48
866.668	10855.04
866.989	10905.43
867.309	10784.53
867.63	10810.97
867.95	10789.05
868.27	10730.07
868.59	10679.9
868.91	10695.27
869.23	10685.78
869.55	10630.86
869.87	10714.93
870.19	10636.97
870.51	10628.6
870.83	10590.41
871.15	10533.24
871.469	10575.27
871.789	10534.6
872.109	10565.56
872.428	10540.25
872.748	10606.91
873.067	10510.19
873.386	10486.69
873.706	10499.57
874.025	10413.47
874.344	10416.18
874.663	10423.41
874.982	10430.19
875.301	10392.23
875.62	10391.1
875.939	10336.63
876.258	10377.54
876.577	10327.14
876.896	10309.52
877.214	10265.9
877.533	10232.91
877.852	10234.94
878.17	10291.89
878.489	10243.3
878.807	10234.94
879.125	10244.43
879.444	10151.33
879.762	10167.83
880.08	10152.23
880.398	10148.17
880.716	10157.66
881.034	10090.99
881.352	10097.77
881.67	10033.37
881.988	10059.81
882.306	9980.26
882.624	10007.15
882.941	9968.96
883.259	9927.15
883.577	9919.47
883.894	9879.47
884.212	9885.35
884.529	9844.9
884.846	9830.21
885.164	9793.37
885.481	9742.53
885.798	9793.15
886.115	9791.79
886.432	9754.05
886.75	9681.28
887.067	9692.36
887.383	9653.04
887.7	9689.87
888.017	9605.35
888.334	9638.35
888.651	9523.78
888.967	9520.61
889.284	9484
889.6	9459.6
889.917	9437.9
890.233	9438.58
890.55	9350.67
890.866	9349.32
891.182	9371.69
891.498	9277.45
891.815	9313.61
892.131	9298.47
892.447	9254.63
892.763	9116.55
893.079	9157.91
893.395	9154.75
893.71	9148.42
894.026	9022.55
894.342	9064.8
894.657	9001.75
894.973	9030
895.289	9009.21
895.604	8965.37
895.92	8935.99
896.235	8879.5
896.55	8884.24
896.865	8860.74
897.181	8791.36
897.496	8780.74
897.811	8744.59
898.126	8714.3
898.441	8678.6
898.756	8677.24
899.071	8619.39
899.386	8663.46
899.7	8573.74
900.015	8519.51
900.33	8477.47
900.644	8425.72
900.959	8486.74
901.273	8389.34
901.588	8421.21
901.902	8391.83
902.216	8277.71
902.531	8352.05
902.845	8307.99
903.159	8207.65
903.473	8208.33
903.787	8195.67
904.101	8147.99
904.415	8213.08
904.729	8107.77
905.042	8066.86
905.356	8071.61
905.67	8027.77
905.984	8047.66
906.297	7909.13
906.611	7849.24
906.924	7900.77
907.237	7834.1
907.551	7849.47
907.864	7855.34
908.177	7831.16
908.491	7721.34
908.804	7691.05
909.117	7700.09
909.43	7637.72
909.743	7618.97
910.056	7564.05
910.368	7575.8
910.681	7528.57
910.994	7476.37
911.307	7461.68
911.619	7375.36
911.932	7415.13
912.244	7327.67
912.557	7321.35
912.869	7263.72
913.181	7242.48
913.494	7272.08
913.806	7231.41
914.118	7201.12
914.43	7148.92
914.742	7151.18
915.054	7043.16
915.366	7084.74
915.678	7066.21
915.99	6993.67
916.302	7010.39
916.613	6875.03
916.925	6964.29
917.236	6920
917.548	6859.89
917.859	6910.96
918.171	6781.93
918.482	6783.06
918.794	6755.26
919.105	6738.99
919.416	6723.62
919.727	6744.64
920.038	6602.5
920.349	6677.75
920.66	6551.42
920.971	6577.64
921.282	6556.85
921.593	6515.27
921.903	6475.95
922.214	6413.8
922.525	6425.55
922.835	6430.3
923.146	6386
923.456	6371.32
923.767	6264.65
924.077	6308.04
924.387	6251.32
924.697	6201.38
925.008	6222.84
925.318	6194.15
925.628	6156.86
925.938	6183.75
926.248	6051.1
926.558	6049.74
926.867	6054.49
927.177	6037.09
927.487	5979.24
927.796	5978.11
928.106	5967.48
928.416	5928.84
928.725	5874.15
929.034	5875.28
929.344	5868.96
929.653	5881.38
929.962	5799.35
930.271	5752.12
930.581	5727.49
930.89	5714.38
931.199	5630.77
931.508	5632.35
931.817	5679.13
932.125	5618.11
932.434	5642.52
932.743	5584.67
933.051	5549.87
933.36	5501.28
933.669	5503.09
933.977	5538.8
934.286	5472.36
934.594	5445.24
934.902	5419.48
935.21	5372.25
935.519	5356.2
935.827	5377.9
936.135	5290.44
936.443	5282.98
936.751	5267.62
937.059	5222.19
937.367	5251.12
937.674	5269.88
937.982	5217.67
938.29	5163.44
938.597	5184
938.905	5105.81
939.213	5075.3
939.52	5062.88
939.827	5062.42
940.135	5028.3
940.442	5040.5
940.749	4981.75
941.056	5020.39
941.363	4950.34
941.67	4927.74
941.977	4907.63
942.284	4931.35
942.591	4866.27
942.898	4790.34
943.205	4829.21
943.511	4837.8
943.818	4851.36
944.125	4765.26
944.431	4752.83
944.738	4779.04
945.044	4711.25
945.35	4714.41
945.657	4699.72
945.963	4641.19
946.269	4623.11
946.575	4653.39
946.881	4561.19
947.187	4613.4
947.493	4539.27
947.799	4556.9
948.105	4499.05
948.41	4499.95
948.716	4471.03
949.022	4443.23
949.327	4442.33
949.633	4425.38
949.938	4402.1
950.244	4370.46
950.549	4328.43
950.854	4349
951.16	4344.25
951.465	4304.48
951.77	4267.19
952.075	4234.87
952.38	4212.95
952.685	4224.48
952.99	4163.01
953.294	4158.27
953.599	4109.23
953.904	4177.7
954.209	4087.31
954.513	4140.64
954.818	4069.46
955.122	4094.31
955.426	4043.24
955.731	4057.93
956.035	4029.91
956.339	4031.49
956.643	3966.86
956.948	3957.82
957.252	3924.15
957.556	3943.58
957.86	3923.47
958.163	3894.09
958.467	3891.83
958.771	3858.84
959.075	3861.78
959.378	3800.31
959.682	3846.64
959.985	3810.03
960.289	3768.45
960.592	3760.08
960.896	3746.75
961.199	3713.08
961.502	3710.37
961.805	3676.47
962.108	3656.58
962.411	3677.83
962.714	3681.89
963.017	3670.37
963.32	3670.6
963.623	3600.09
963.926	3603.25
964.228	3583.82
964.531	3576.36
964.833	3545.4
965.136	3530.94
965.438	3484.16
965.741	3516.93
966.043	3468.57
966.345	3496.81
966.648	3462.69
966.95	3433.31
967.252	3388.12
967.554	3419.53
967.856	3406.65
968.158	3376.59
968.46	3346.54
968.761	3346.31
969.063	3353.99
969.365	3339.98
969.666	3270.15
969.968	3314.67
970.269	3281.68
970.571	3291.85
970.872	3271.28
971.174	3240.78
971.475	3235.13
971.776	3203.49
972.077	3174.11
972.378	3200.78
972.679	3157.84
972.98	3117.16
973.281	3126.2
973.582	3097.73
973.883	3149.93
974.183	3074
974.484	3109.03
974.785	3053.66
975.085	3057.73
975.386	3036.94
975.686	3024.06
975.986	3020.22
976.287	3000.78
976.587	2993.78
976.887	2955.36
977.187	2950.84
977.487	2951.74
977.787	2900.9
978.087	2927.56
978.387	2896.15
978.687	2887.79
978.987	2869.03
979.286	2846.44
979.586	2872.65
979.885	2826.55
980.185	2794.46
980.484	2792.88
980.784	2824.52
981.083	2848.7
981.382	2808.02
981.682	2764.63
981.981	2740
982.28	2707.46
982.579	2734.8
982.878	2737.06
983.177	2735.7
983.475	2720.11
983.774	2707.91
984.073	2688.25
984.372	2648.7
984.67	2665.88
984.969	2658.42
985.267	2652.09
985.566	2631.53
985.864	2602.38
986.162	2574.58
986.461	2581.58
986.759	2583.39
987.057	2566.9
987.355	2561.02
987.653	2544.98
987.951	2531.64
988.249	2516.28
988.547	2484.64
988.844	2475.6
989.142	2497.97
989.44	2451.64
989.737	2438.99
990.035	2453.45
990.332	2413.23
990.63	2396.28
990.927	2439.22
991.224	2414.81
991.521	2383.17
991.819	2351.31
992.116	2370.52
992.413	2378.65
992.71	2322.38
993.006	2325.55
993.303	2314.47
993.6	2307.69
993.897	2317.86
994.193	2298.2
994.49	2288.71
994.787	2271.08
995.083	2260.92
995.379	2260.69
995.676	2220.69
995.972	2242.16
996.268	2212.33
996.565	2218.43
996.861	2193.35
997.157	2190.86
997.453	2188.6
997.749	2159.22
998.044	2185.21
998.34	2132.56
998.636	2114.25
998.932	2132.78
999.227	2103.86
999.523	2106.34
999.818	2120.13
1000.114	2059.34
1000.409	2064.99
1000.704	2016.63
1001	2042.39
1001.295	2057.53
1001.59	2047.59
1001.885	2006.68
1002.18	1984.76
1002.475	2000.13
1002.77	2003.07
1003.065	1954.26
1003.359	1943.86
1003.654	1939.12
1003.949	1930.3
1004.243	1919.23
1004.538	1915.16
1004.832	1898.66
1005.127	1902.05
1005.421	1888.72
1005.715	1878.55
1006.009	1895.28
1006.304	1829.51
1006.598	1826.12
1006.892	1849.63
1007.186	1841.72
1007.48	1813.02
1007.773	1808.5
1008.067	1788.16
1008.361	1786.58
1008.655	1766.24
1008.948	1755.84
1009.242	1775.28
1009.535	1752.45
1009.829	1748.39
1010.122	1712.23
1010.415	1747.71
1010.708	1731.66
1011.001	1685.34
1011.295	1703.87
1011.588	1668.16
1011.881	1635.39
1012.173	1661.61
1012.466	1666.81
1012.759	1654.15
1013.052	1654.6
1013.344	1602.18
1013.637	1625.23
1013.93	1582.29
1014.222	1583.64
1014.514	1603.76
1014.807	1586.13
1015.099	1558.56
1015.391	1555.4
1015.683	1548.39
1015.976	1531.44
1016.268	1553.59
1016.56	1517.43
1016.851	1529.63
1017.143	1523.53
1017.435	1493.03
1017.727	1489.64
1018.018	1480.37
1018.31	1492.57
1018.602	1451.44
1018.893	1447.15
1019.185	1427.49
1019.476	1428.39
1019.767	1439.47
1020.058	1415.97
1020.35	1395.63
1020.641	1382.07
1020.932	1359.24
1021.223	1375.06
1021.514	1355.63
1021.804	1364.89
1022.095	1332.13
1022.386	1331
1022.677	1316.53
1022.967	1323.54
1023.258	1297.55
1023.548	1298.23
1023.839	1291.22
1024.129	1276.99
1024.419	1283.31
1024.709	1271.79
1025	1266.59
1025.29	1262.52
1025.58	1246.93
1025.87	1234.28
1026.16	1227.95
1026.449	1221.85
1026.739	1238.12
1027.029	1217.1
1027.319	1204.67
1027.608	1194.73
1027.898	1171.23
1028.187	1191.11
1028.477	1156.09
1028.766	1172.58
1029.055	1148.4
1029.344	1155.63
1029.634	1113.15
1029.923	1127.84
1030.212	1149.98
1030.501	1109.31
1030.79	1142.07
1031.078	1135.3
1031.367	1098.23
1031.656	1073.38
1031.945	1074.28
1032.233	1077.67
1032.522	1061.85
1032.81	1071.34
1033.099	1052.36
1033.387	1021.85
1033.675	1024.11
1033.963	1027.28
1034.251	1028.41
1034.54	1030.44
1034.828	1015.75
1035.116	997.9
1035.403	999.93
1035.691	1008.29
1035.979	985.47
1036.267	987.73
1036.554	966.03
1036.842	960.16
1037.129	975.07
1037.417	933.49
1037.704	953.38
1037.992	939.59
1038.279	942.31
1038.566	931.68
1038.853	931.68
1039.14	931.68
