Data from blue_surface_keyboard_FLMS001491_031.txt Node
Date: Tue Feb 07 11:12:59 GMT 2017
User: dcchb
Spectrometer: FLMS00149
Trigger mode: 0
Integration Time (sec): 2.000000E-2
Scans to average: 10
Electric dark correction enabled: true
Nonlinearity correction enabled: false
Boxcar width: 0
XAxis mode: Wavelengths
Number of Pixels in Spectrum: 2048
>>>>>Begin Spectral Data<<<<<
341.393	-25.54
341.776	-25.54
342.16	-25.54
342.543	-41.58
342.927	-59.89
343.31	-61.69
343.693	-76.83
344.077	-73.22
344.46	-65.53
344.843	-47.23
345.226	-29.15
345.61	-29.6
345.993	-28.02
346.376	-0.23
346.759	9.72
347.142	18.08
347.525	36.61
347.908	55.14
348.291	65.99
348.674	92.88
349.057	133.1
349.44	128.36
349.823	130.39
350.206	145.98
350.588	168.81
350.971	181.46
351.354	192.31
351.737	197.28
352.119	222.37
352.502	218.53
352.884	252.42
353.267	270.5
353.65	267.79
354.032	278.18
354.414	274.12
354.797	289.71
355.179	294.68
355.562	285.19
355.944	316.15
356.326	312.99
356.709	306.43
357.091	297.62
357.473	320.22
357.855	317.73
358.238	305.98
358.62	317.51
359.002	311.18
359.384	319.09
359.766	310.73
360.148	309.6
360.53	294.91
360.912	325.42
361.294	307.34
361.676	321.57
362.057	300.56
362.439	290.16
362.821	300.56
363.203	297.62
363.584	299.88
363.966	299.88
364.348	302.14
364.729	303.04
365.111	290.16
365.493	295.13
365.874	287
366.256	294.68
366.637	283.16
367.019	286.55
367.4	292.65
367.781	269.37
368.163	268.47
368.544	273.67
368.925	273.21
369.306	258.3
369.688	288.35
370.069	275.25
370.45	271.18
370.831	295.59
371.212	294
371.593	289.94
371.974	305.3
372.355	308.92
372.736	281.12
373.117	283.83
373.498	285.42
373.879	292.65
374.26	290.84
374.641	286.55
375.021	278.64
375.402	290.16
375.783	295.36
376.163	279.99
376.544	301.46
376.925	296.94
377.305	289.03
377.686	284.96
378.066	304.4
378.447	309.37
378.827	326.55
379.208	298.75
379.588	290.84
379.968	311.63
380.349	307.56
380.729	292.42
381.109	301.69
381.489	295.81
381.87	303.27
382.25	324.74
382.63	313.89
383.01	304.85
383.39	312.76
383.77	302.14
384.15	305.3
384.53	310.5
384.91	291.07
385.29	301.24
385.67	303.27
386.049	318.41
386.429	320.22
386.809	312.76
387.189	320.44
387.568	302.59
387.948	298.3
388.328	283.38
388.707	303.04
389.087	325.64
389.466	316.38
389.846	300.56
390.225	319.54
390.605	300.11
390.984	315.47
391.363	331.06
391.743	332.42
392.122	319.99
392.501	321.8
392.881	324.51
393.26	330.16
393.639	332.65
394.018	315.02
394.397	314.34
394.776	327.68
395.155	324.06
395.534	298.98
395.913	319.09
396.292	324.51
396.671	325.87
397.05	316.83
397.429	335.58
397.808	325.42
398.186	332.42
398.565	327.45
398.944	334
399.323	334.45
399.701	326.55
400.08	341.91
400.458	316.38
400.837	329.26
401.215	321.12
401.594	334.23
401.972	339.88
402.351	321.8
402.729	337.17
403.107	341.23
403.486	351.63
403.864	347.56
404.242	359.31
404.62	352.99
404.999	349.14
405.377	354.79
405.755	334.23
406.133	338.07
406.511	337.84
406.889	362.48
407.267	364.74
407.645	351.86
408.023	359.31
408.401	375.36
408.779	364.74
409.156	385.53
409.534	366.09
409.912	378.97
410.29	370.39
410.667	388.92
411.045	359.54
411.422	375.13
411.8	375.58
412.178	372.42
412.555	360.67
412.933	385.53
413.31	363.61
413.687	372.87
414.065	376.26
414.442	363.61
414.819	377.62
415.197	368.58
415.574	399.54
415.951	373.32
416.328	398.18
416.705	393.44
417.082	378.07
417.46	369.26
417.837	386.66
418.214	391.63
418.591	378.52
418.967	373.55
419.344	377.84
419.721	382.14
420.098	389.37
420.475	406.99
420.852	395.47
421.228	391.85
421.605	414.23
421.982	389.59
422.358	395.7
422.735	398.18
423.111	402.02
423.488	414
423.864	415.13
424.241	392.53
424.617	439.54
424.994	401.12
425.37	430.5
425.746	413.55
426.123	422.14
426.499	419.88
426.875	410.61
427.251	417.62
427.627	419.2
428.003	431.18
428.379	443.83
428.756	433.66
429.132	438.63
429.507	423.72
429.883	450.61
430.259	437.5
430.635	435.92
431.011	464.39
431.387	435.02
431.763	459.87
432.138	444.96
432.514	464.17
432.89	458.52
433.265	463.72
433.641	469.14
434.016	471.17
434.392	454.9
434.767	477.05
435.143	466.2
435.518	466.88
435.894	491.06
436.269	477.05
436.644	497.16
437.02	479.99
437.395	498.29
437.77	496.03
438.145	477.05
438.52	486.54
438.895	479.08
439.271	504.62
439.646	501.91
440.021	489.93
440.395	508.01
440.77	533.09
441.145	517.95
441.52	496.48
441.895	517.5
442.27	522.02
442.645	510.95
443.019	511.4
443.394	506.2
443.769	512.3
444.143	505.3
444.518	528.8
444.892	519.76
445.267	523.15
445.641	551.4
446.016	525.86
446.39	541.68
446.764	532.42
447.139	524.51
447.513	541.45
447.887	542.81
448.262	543.26
448.636	548.01
449.01	545.07
449.384	545.07
449.758	552.53
450.132	573.32
450.506	552.75
450.88	561.34
451.254	554.79
451.628	579.42
452.002	562.7
452.376	555.24
452.75	589.36
453.123	574.22
453.497	595.92
453.871	556.37
454.244	587.33
454.618	576.26
454.992	600.66
455.365	588.46
455.739	598.63
456.112	604.28
456.486	590.94
456.859	599.53
457.232	616.03
457.606	583.49
457.979	620.55
458.352	620.77
458.725	628.68
459.099	636.14
459.472	629.59
459.845	624.62
460.218	623.26
460.591	639.53
460.964	650.38
461.337	656.48
461.71	637.27
462.083	658.51
462.456	660.32
462.829	678.63
463.201	652.19
463.574	661
463.947	667.78
464.32	672.52
464.692	686.31
465.065	679.76
465.438	697.38
465.81	703.94
466.183	699.42
466.555	708
466.928	700.55
467.3	715.69
467.672	728.79
468.045	744.39
468.417	735.12
468.789	723.6
469.161	748.45
469.534	745.07
469.906	764.73
470.278	737.61
470.65	771.73
471.022	755.91
471.394	785.97
471.766	787.55
472.138	766.08
472.51	790.49
472.882	794.56
473.253	811.05
473.625	785.97
473.997	808.57
474.369	819.64
474.74	834.1
475.112	821.45
475.484	841.56
475.855	849.7
476.227	876.36
476.598	863.71
476.97	870.26
477.341	882.69
477.713	901.22
478.084	898.96
478.455	906.64
478.827	922.91
479.198	926.76
479.569	924.72
479.94	958.62
480.311	957.94
480.682	962.23
481.053	952.97
481.424	1010.37
481.795	999.3
482.166	1004.72
482.537	1020.99
482.908	1024.83
483.279	1032.97
483.65	1059.63
484.021	1033.42
484.391	1056.47
484.762	1052.63
485.133	1079.07
485.503	1074.32
485.874	1086.98
486.244	1092.17
486.615	1089.69
486.985	1108.67
487.356	1110.25
487.726	1146.64
488.097	1164.72
488.467	1160.2
488.837	1162
489.207	1164.04
489.578	1162
489.948	1166.52
490.318	1174.88
490.688	1180.76
491.058	1225.5
491.428	1213.75
491.798	1205.62
492.168	1256.92
492.538	1241.55
492.908	1207.43
493.278	1242.45
493.648	1268.44
494.017	1268.67
494.387	1274.99
494.757	1269.57
495.126	1294.43
495.496	1274.54
495.866	1264.15
496.235	1281.77
496.605	1289.23
496.974	1296.24
497.344	1317.71
497.713	1329.68
498.082	1303.92
498.452	1309.8
498.821	1314.99
499.19	1306.41
499.559	1327.87
499.928	1298.04
500.298	1314.54
500.667	1327.65
501.036	1369.91
501.405	1332.85
501.774	1305.5
502.143	1332.62
502.512	1335.56
502.88	1360.19
503.249	1331.49
503.618	1338.27
503.987	1345.05
504.356	1351.38
504.724	1344.82
505.093	1347.76
505.462	1366.07
505.83	1376.01
506.199	1366.29
506.567	1377.82
506.936	1361.09
507.304	1404.03
507.672	1400.64
508.041	1395.44
508.409	1419.17
508.777	1408.1
509.145	1414.65
509.514	1395.44
509.882	1402.9
510.25	1405.39
510.618	1410.58
510.986	1411.04
511.354	1404.03
511.722	1434.99
512.09	1451.94
512.458	1442.22
512.826	1444.71
513.193	1430.47
513.561	1409.45
513.929	1454.88
514.297	1462.56
514.664	1448.55
515.032	1438.15
515.4	1452.84
515.767	1432.96
516.135	1471.6
516.502	1451.94
516.869	1469.57
517.237	1497.14
517.604	1463.69
517.972	1490.81
518.339	1489.45
518.706	1465.5
519.073	1467.98
519.44	1459.85
519.808	1491.03
520.175	1527.42
520.542	1503.46
520.909	1480.41
521.276	1499.4
521.643	1514.31
522.009	1501.66
522.376	1511.82
522.743	1524.71
523.11	1523.12
523.477	1505.72
523.843	1552.73
524.21	1549.34
524.577	1538.04
524.943	1558.38
525.31	1566.74
525.676	1563.8
526.043	1571.03
526.409	1564.25
526.776	1567.87
527.142	1566.29
527.508	1581.65
527.874	1545.95
528.241	1553.63
528.607	1586.62
528.973	1567.64
529.339	1576.91
529.705	1601.31
530.071	1613.52
530.437	1625.04
530.803	1619.84
531.169	1618.26
531.535	1593.4
531.901	1605.83
532.267	1591.37
532.632	1611.48
532.998	1642.22
533.364	1609.22
533.73	1609.9
534.095	1609
534.461	1622.33
534.826	1646.96
535.192	1641.76
535.557	1621.43
535.923	1637.7
536.288	1660.07
536.653	1594.53
537.019	1634.31
537.384	1638.15
537.749	1640.86
538.114	1664.36
538.479	1638.15
538.845	1660.52
539.21	1639.96
539.575	1622.1
539.94	1667.3
540.305	1629.56
540.67	1653.74
541.034	1625.95
541.399	1660.75
541.764	1663.46
542.129	1646.74
542.494	1641.99
542.858	1677.24
543.223	1648.54
543.587	1656
543.952	1648.09
544.316	1656.68
544.681	1670.24
545.045	1686.06
545.41	1663.01
545.774	1664.81
546.138	1668.88
546.503	1650.58
546.867	1637.7
547.231	1690.8
547.595	1630.47
547.959	1672.72
548.324	1674.53
548.688	1666.4
549.052	1675.66
549.416	1657.36
549.779	1681.54
550.143	1677.7
550.507	1704.14
550.871	1678.37
551.235	1650.13
551.599	1679.96
551.962	1705.04
552.326	1702.1
552.689	1703.68
553.053	1693.51
553.417	1689
553.78	1700.75
554.143	1685.38
554.507	1692.84
554.87	1697.58
555.234	1700.07
555.597	1680.63
555.96	1673.4
556.323	1695.77
556.686	1733.97
557.05	1730.8
557.413	1718.37
557.776	1696
558.139	1753.85
558.502	1726.73
558.865	1740.07
559.228	1714.31
559.59	1715.44
559.953	1719.28
560.316	1732.38
560.679	1727.19
561.041	1744.36
561.404	1703.01
561.767	1728.09
562.129	1726.06
562.492	1738.03
562.854	1780.74
563.217	1764.25
563.579	1756.79
563.941	1752.04
564.304	1752.5
564.666	1755.89
565.028	1779.39
565.39	1783.91
565.753	1764.47
566.115	1785.26
566.477	1782.33
566.839	1786.39
567.201	1798.14
567.563	1752.27
567.925	1821.42
568.287	1811.03
568.648	1807.41
569.01	1794.98
569.372	1797.92
569.734	1821.87
570.095	1794.98
570.457	1831.59
570.819	1835.66
571.18	1825.71
571.542	1827.07
571.903	1818.03
572.265	1844.02
572.626	1838.6
572.987	1842.44
573.349	1827.97
573.71	1844.02
574.071	1881.98
574.432	1846.96
574.794	1856.45
575.155	1848.76
575.516	1827.97
575.877	1878.59
576.238	1856.45
576.599	1851.7
576.96	1862.78
577.32	1876.11
577.681	1858.93
578.042	1847.64
578.403	1856.45
578.763	1855.09
579.124	1846.28
579.485	1852.15
579.845	1859.39
580.206	1868.2
580.566	1861.87
580.927	1881.08
581.287	1906.16
581.648	1858.93
582.008	1883.11
582.368	1896.45
582.728	1876.33
583.089	1855.09
583.449	1901.42
583.809	1898.26
584.169	1895.54
584.529	1872.27
584.889	1892.38
585.249	1881.31
585.609	1895.09
585.969	1911.14
586.329	1878.14
586.688	1884.47
587.048	1883.34
587.408	1871.82
587.768	1892.15
588.127	1900.29
588.487	1866.39
588.846	1897.8
589.206	1880.18
589.565	1879.95
589.925	1881.31
590.284	1912.04
590.643	1881.76
591.003	1928.08
591.362	1939.38
591.721	1903.9
592.08	1894.87
592.44	1894.41
592.799	1916.33
593.158	1902.1
593.517	1935.99
593.876	1905.26
594.235	1921.31
594.593	1903.9
594.952	1931.02
595.311	1943.45
595.67	1916.33
596.029	1918.37
596.387	1935.32
596.746	1968.08
597.104	1951.36
597.463	1925.83
597.822	1930.12
598.18	1925.15
598.538	1917.69
598.897	1917.46
599.255	1927.41
599.613	1949.78
599.972	1953.62
600.33	1917.92
600.688	1952.27
601.046	1956.56
601.404	1953.85
601.762	1962.66
602.12	1975.77
602.478	1970.12
602.836	1972.38
603.194	1964.24
603.552	1966.73
603.91	1944.81
604.268	1999.95
604.625	1973.96
604.983	1946.62
605.341	1934.41
605.698	1987.29
606.056	1958.82
606.413	1971.93
606.771	1966.05
607.128	1985.48
607.485	1988.2
607.843	1969.67
608.2	1990.46
608.557	1967.18
608.914	1978.93
609.272	1997.01
609.629	2013.05
609.986	2012.83
610.343	1997.69
610.7	2008.31
611.057	2012.38
611.414	2001.98
611.771	2033.84
612.127	2048.31
612.484	2015.31
612.841	2034.3
613.198	2043.79
613.554	2038.14
613.911	2033.39
614.267	2074.07
614.624	2001.3
614.98	2019.38
615.337	2032.49
615.693	2041.98
616.05	2034.75
616.406	2009.21
616.762	2034.97
617.118	2030.91
617.475	2050.79
617.831	2061.87
618.187	2086.5
618.543	2040.85
618.899	2070.91
619.255	2040.4
619.611	2064.35
619.967	2077.01
620.323	2063.9
620.678	2053.28
621.034	2085.82
621.39	2094.18
621.746	2052.38
622.101	2084.92
622.457	2072.49
622.812	2092.6
623.168	2105.71
623.523	2104.35
623.879	2095.76
624.234	2078.82
624.589	2099.15
624.945	2067.52
625.3	2099.38
625.655	2082.43
626.01	2106.61
626.365	2139.15
626.72	2119.27
627.075	2131.92
627.43	2145.03
627.785	2097.35
628.14	2101.64
628.495	2105.48
628.85	2132.6
629.205	2146.38
629.559	2154.97
629.914	2155.88
630.269	2153.62
630.623	2159.04
630.978	2140.96
631.332	2162.88
631.687	2168.53
632.041	2164.24
632.396	2177.34
632.75	2153.84
633.104	2166.95
633.459	2161.75
633.813	2138.93
634.167	2206.04
634.521	2180.06
634.875	2164.01
635.229	2157.68
635.583	2159.72
635.937	2202.43
636.291	2182.77
636.645	2193.84
636.999	2174.41
637.352	2169.21
637.706	2203.56
638.06	2174.86
638.413	2221.41
638.767	2198.81
639.121	2201.3
639.474	2189.32
639.828	2233.84
640.181	2199.72
640.534	2225.7
640.888	2225.03
641.241	2221.18
641.594	2256.66
641.947	2245.59
642.301	2252.82
642.654	2226.16
643.007	2257.12
643.36	2283.78
643.713	2249.88
644.066	2283.56
644.419	2293.5
644.771	2276.1
645.124	2250.79
645.477	2268.64
645.83	2263.9
646.182	2245.59
646.535	2263.67
646.888	2298.47
647.24	2276.55
647.593	2295.31
647.945	2253.27
648.298	2300.73
648.65	2296.21
649.002	2274.06
649.355	2313.84
649.707	2293.05
650.059	2310
650.411	2365.81
650.763	2375.3
651.115	2354.51
651.467	2420.05
651.819	2415.53
652.171	2387.96
652.523	2460.5
652.875	2438.13
653.227	2417.11
653.578	2451.91
653.93	2454.4
654.282	2460.95
654.633	2470.22
654.985	2466.15
655.337	2498.01
655.688	2519.71
656.039	2488.3
656.391	2497.56
656.742	2523.78
657.094	2529.65
657.445	2549.09
657.796	2492.82
658.147	2565.81
658.498	2559.48
658.849	2556.54
659.2	2612.81
659.551	2596.99
659.902	2625.02
660.253	2623.89
660.604	2678.8
660.955	2633.83
661.306	2614.17
661.656	2670.21
662.007	2667.95
662.358	2716.99
662.708	2702.3
663.059	2681.06
663.409	2693.94
663.76	2734.39
664.11	2724.45
664.461	2731.68
664.811	2766.25
665.161	2752.02
665.511	2785.69
665.862	2796.76
666.212	2797.21
666.562	2813.03
666.912	2845.57
667.262	2842.86
667.612	2872.47
667.962	2899.58
668.312	2845.57
668.662	2898.23
669.011	2930.32
669.361	2906.14
669.711	2952.46
670.06	2947.49
670.41	2935.97
670.76	2922.86
671.109	2959.02
671.459	2967.61
671.808	2935.52
672.157	2976.42
672.507	2965.12
672.856	3014.61
673.205	2992.69
673.554	3083.08
673.904	3049.86
674.253	3020.26
674.602	3045.8
674.951	2987.49
675.3	3015.29
675.649	3076.76
675.998	3111.78
676.346	3133.48
676.695	3118.56
677.044	3113.59
677.393	3133.48
677.741	3167.83
678.09	3140.26
678.438	3163.08
678.787	3181.61
679.135	3223.42
679.484	3172.8
679.832	3217.77
680.181	3188.84
680.529	3198.11
680.877	3208.05
681.225	3237.43
681.573	3269.52
681.922	3275.39
682.27	3260.25
682.618	3248.73
682.966	3274.94
683.314	3264.32
683.661	3282.63
684.009	3265.22
684.357	3275.17
684.705	3263.64
685.053	3300.25
685.4	3324.21
685.748	3288.05
686.095	3317.2
686.443	3314.49
686.79	3351.78
687.138	3323.98
687.485	3376.18
687.832	3332.57
688.18	3372.11
688.527	3354.26
688.874	3356.52
689.221	3361.72
689.568	3332.79
689.915	3389.97
690.262	3325.56
690.609	3356.3
690.956	3354.94
691.303	3384.32
691.65	3360.59
691.997	3348.61
692.344	3377.99
692.69	3374.15
693.037	3369.63
693.383	3342.74
693.73	3402.17
694.077	3369.18
694.423	3391.1
694.769	3387.48
695.116	3383.64
695.462	3394.49
695.808	3384.54
696.155	3380.02
696.501	3348.16
696.847	3346.8
697.193	3325.34
697.539	3365.79
697.885	3334.15
698.231	3369.85
698.577	3341.16
698.923	3330.53
699.269	3333.92
699.614	3343.19
699.96	3307.48
700.306	3330.53
700.651	3315.85
700.997	3329.63
701.342	3315.17
701.688	3312
702.033	3326.01
702.379	3313.59
702.724	3328.27
703.069	3286.92
703.415	3248.95
703.76	3293.47
704.105	3297.77
704.45	3317.2
704.795	3253.25
705.14	3292.57
705.485	3262.29
705.83	3288.73
706.175	3238.11
706.52	3213.02
706.865	3256.19
707.209	3254.38
707.554	3213.93
707.899	3213.7
708.243	3245.34
708.588	3230.2
708.932	3272.23
709.277	3214.15
709.621	3214.38
709.966	3211.89
710.31	3246.02
710.654	3214.15
710.998	3218.45
711.342	3204.89
711.687	3216.64
712.031	3243.76
712.375	3187.71
712.719	3206.92
713.063	3208.28
713.407	3219.58
713.75	3226.81
714.094	3222.97
714.438	3191.78
714.782	3203.98
715.125	3172.8
715.469	3236.98
715.812	3188.16
716.156	3184.55
716.499	3157.21
716.843	3188.62
717.186	3185.9
717.53	3196.07
717.873	3197.88
718.216	3179.8
718.559	3141.84
718.902	3142.97
719.246	3168.05
719.589	3135.28
719.932	3145.68
720.275	3224.1
720.617	3186.13
720.96	3182.06
721.303	3203.08
721.646	3185.23
721.989	3216.86
722.331	3176.19
722.674	3169.63
723.016	3184.55
723.359	3166.02
723.701	3170.09
724.044	3140.93
724.386	3162.85
724.729	3205.34
725.071	3207.15
725.413	3168.96
725.755	3195.62
726.097	3194.04
726.439	3146.36
726.782	3184.55
727.124	3147.26
727.465	3189.52
727.807	3162.4
728.149	3164.44
728.491	3187.94
728.833	3150.88
729.175	3177.32
729.516	3145.23
729.858	3192.91
730.199	3201.5
730.541	3173.48
730.882	3187.49
731.224	3199.46
731.565	3182.52
731.906	3202.18
732.248	3206.7
732.589	3223.19
732.93	3166.7
733.271	3210.09
733.612	3218.9
733.953	3234.72
734.294	3171.22
734.635	3207.83
734.976	3228.62
735.317	3229.29
735.658	3196.75
735.999	3240.37
736.339	3256.19
736.68	3235.85
737.021	3248.5
737.361	3250.08
737.702	3290.99
738.042	3208.73
738.383	3264.55
738.723	3309.07
739.063	3272.68
739.404	3230.42
739.744	3307.48
740.084	3307.03
740.424	3289.63
740.764	3297.31
741.104	3346.13
741.444	3324.43
741.784	3340.93
742.124	3295.05
742.464	3348.39
742.804	3356.52
743.143	3354.71
743.483	3374.83
743.823	3397.65
744.162	3360.59
744.502	3396.07
744.841	3389.52
745.181	3410.98
745.52	3405.56
745.86	3431.77
746.199	3438.1
746.538	3447.37
746.877	3505.22
747.216	3499.34
747.556	3530.3
747.895	3557.42
748.234	3544.99
748.573	3545.9
748.911	3525.33
749.25	3560.36
749.589	3613.92
749.928	3584.54
750.267	3610.53
750.605	3614.82
750.944	3659.79
751.283	3662.73
751.621	3681.26
751.96	3730.98
752.298	3698.89
752.636	3738.43
752.975	3753.12
753.313	3761.93
753.651	3822.72
753.989	3821.14
754.327	3794.48
754.666	3849.16
755.004	3878.54
755.342	3864.08
755.679	3916.28
756.017	3911.08
756.355	3965.55
756.693	3925.32
757.031	3955.38
757.368	3984.08
757.706	3985.88
758.044	4041.93
758.381	4051.19
758.719	4086.9
759.056	4102.04
759.394	4103.17
759.731	4110.17
760.068	4141.59
760.405	4130.06
760.743	4162.83
761.08	4168.7
761.417	4183.17
761.754	4163.05
762.091	4182.26
762.428	4203.28
762.765	4192.88
763.102	4211.64
763.438	4219.55
763.775	4225.65
764.112	4242.15
764.449	4256.16
764.785	4287.8
765.122	4260.23
765.458	4235.59
765.795	4235.59
766.131	4296.16
766.467	4248.02
766.804	4264.75
767.14	4217.06
767.476	4269.49
767.812	4279.44
768.148	4289.83
768.485	4271.53
768.821	4256.39
769.157	4297.51
769.492	4272.43
769.828	4283.5
770.164	4219.55
770.5	4257.97
770.836	4271.98
771.171	4245.99
771.507	4247.8
771.842	4282.83
772.178	4255.48
772.513	4211.41
772.849	4227.46
773.184	4193.56
773.519	4190.4
773.855	4211.64
774.19	4243.73
774.525	4180.68
774.86	4200.79
775.195	4169.16
775.53	4119.21
775.865	4146.11
776.2	4181.58
776.535	4130.96
776.87	4139.55
777.205	4138.2
777.539	4092.32
777.874	4122.83
778.209	4091.87
778.543	4095.49
778.878	4096.84
779.212	4113.34
779.547	4069.5
779.881	4044.87
780.215	4043.06
780.55	4080.8
780.884	4043.96
781.218	3962.38
781.552	4040.12
781.886	3980.69
782.22	3967.35
782.554	3976.84
782.888	3918.99
783.222	3947.47
783.556	3975.71
783.889	3930.29
784.223	3920.12
784.557	3913.12
784.89	3909.73
785.224	3874.25
785.557	3916.96
785.891	3931.2
786.224	3866.79
786.558	3873.57
786.891	3824.76
787.224	3824.53
787.557	3823.4
787.891	3811.88
788.224	3793.35
788.557	3787.7
788.89	3818.2
789.223	3802.84
789.556	3740.01
789.888	3743.18
790.221	3741.14
790.554	3726
790.887	3752.9
791.219	3735.95
791.552	3699.11
791.884	3725.78
792.217	3690.07
792.549	3643.97
792.882	3629.51
793.214	3643.97
793.546	3662.95
793.879	3600.81
794.211	3636.74
794.543	3607.81
794.875	3599.45
795.207	3626.8
795.539	3599.91
795.871	3558.32
796.203	3580.02
796.535	3540.7
796.867	3516.97
797.198	3547.48
797.53	3494.82
797.862	3530.75
798.193	3527.36
798.525	3507.93
798.856	3493.02
799.188	3448.04
799.519	3452.34
799.85	3424.54
800.182	3474.26
800.513	3445.33
800.844	3396.07
801.175	3445.11
801.506	3412.34
801.837	3414.15
802.168	3393.81
802.499	3410.98
802.83	3381.38
803.161	3369.4
803.491	3388.61
803.822	3366.24
804.153	3326.69
804.483	3354.94
804.814	3302.29
805.145	3314.04
805.475	3348.84
805.805	3299.8
806.136	3276.07
806.466	3297.31
806.796	3300.25
807.126	3296.86
807.457	3284.89
807.787	3279.69
808.117	3262.29
808.447	3248.95
808.777	3233.81
809.107	3211.67
809.436	3215.96
809.766	3267.71
810.096	3225.9
810.426	3201.27
810.755	3176.64
811.085	3203.31
811.414	3165.79
811.744	3192.91
812.073	3176.19
812.403	3162.85
812.732	3144.55
813.061	3133.7
813.39	3136.64
813.719	3135.28
814.049	3138.9
814.378	3119.01
814.707	3137.32
815.036	3106.13
815.365	3133.25
815.693	3082.63
816.022	3064.55
816.351	3058
816.68	3058.45
817.008	3105.91
817.337	3032.91
817.665	2999.47
817.994	3048.28
818.322	3012.35
818.651	3024.33
818.979	3015.51
819.307	3006.47
819.636	3060.03
819.964	2975.74
820.292	3015.51
820.62	2984.33
820.948	2995.85
821.276	2988.17
821.604	3016.87
821.932	2989.53
822.259	3020.26
822.587	2996.76
822.915	2981.62
823.243	2963.09
823.57	2969.19
823.898	2988.17
824.225	3030.65
824.553	2992.69
824.88	2954.27
825.207	2978.23
825.535	2991.33
825.862	2961.28
826.189	2996.76
826.516	2990.2
826.843	2976.19
827.17	3023.65
827.497	2995.63
827.824	2994.05
828.151	3001.28
828.478	3009.86
828.805	2999.24
829.131	2978.45
829.458	2979.36
829.785	2972.8
830.111	3018.45
830.438	2978.68
830.764	2973.48
831.09	2985.46
831.417	2989.07
831.743	2944.1
832.069	2965.8
832.395	2970.32
832.722	2960.83
833.048	2978.68
833.374	3001.5
833.7	2957.44
834.026	2962.63
834.351	2967.38
834.677	2945.01
835.003	2955.63
835.329	2952.92
835.654	2960.15
835.98	2942.07
836.306	2949.75
836.631	2926.7
836.956	2933.03
837.282	2928.96
837.607	2941.17
837.932	2901.84
838.258	2907.95
838.583	2938.23
838.908	2921.51
839.233	2952.01
839.558	2933.93
839.883	2904.33
840.208	2882.41
840.533	2913.82
840.858	2880.6
841.182	2886.48
841.507	2882.86
841.832	2894.16
842.156	2908.17
842.481	2885.8
842.805	2859.81
843.13	2859.59
843.454	2859.13
843.778	2818.01
844.103	2813.03
844.427	2828.85
844.751	2849.19
845.075	2851.9
845.399	2806.48
845.723	2785.69
846.047	2798.34
846.371	2795.63
846.695	2766.25
847.019	2762.87
847.343	2751.57
847.666	2772.13
847.99	2733.71
848.313	2707.27
848.637	2727.84
848.96	2724
849.284	2725.35
849.607	2698.91
849.931	2685.13
850.254	2650.55
850.577	2677.44
850.9	2606.71
851.223	2634.06
851.546	2645.81
851.869	2651.23
852.192	2598.8
852.515	2608.97
852.838	2612.59
853.161	2579.59
853.483	2600.61
853.806	2579.37
854.129	2597.22
854.451	2556.54
854.774	2543.66
855.096	2523.1
855.419	2551.35
855.741	2537.33
856.063	2525.36
856.385	2516.54
856.708	2536.88
857.03	2533.72
857.352	2532.59
857.674	2505.92
857.996	2500.5
858.318	2511.35
858.64	2494.4
858.961	2448.07
859.283	2484.45
859.605	2453.49
859.926	2471.12
860.248	2459.37
860.57	2442.2
860.891	2419.15
861.212	2418.92
861.534	2434.96
861.855	2409.88
862.176	2437.45
862.498	2456.21
862.819	2418.47
863.14	2422.08
863.461	2395.42
863.782	2381.86
864.103	2400.16
864.424	2400.61
864.745	2387.51
865.065	2397.9
865.386	2418.92
865.707	2356.77
866.027	2370.56
866.348	2412.82
866.668	2404.23
866.989	2355.19
867.309	2373.95
867.63	2375.53
867.95	2351.58
868.27	2357.68
868.59	2361.97
868.91	2370.33
869.23	2352.03
869.55	2340.73
869.87	2374.63
870.19	2307.74
870.51	2324.23
870.83	2323.1
871.15	2334.63
871.469	2357.23
871.789	2331.46
872.109	2319.94
872.428	2329.2
872.748	2280.17
873.067	2318.81
873.386	2292.6
873.706	2311.8
874.025	2296.44
874.344	2312.71
874.663	2298.92
874.982	2274.74
875.301	2267.06
875.62	2269.77
875.939	2255.08
876.258	2258.7
876.577	2274.74
876.896	2250.56
877.214	2265.7
877.533	2283.56
877.852	2239.04
878.17	2268.19
878.489	2249.88
878.807	2277.68
879.125	2263.22
879.444	2264.8
879.762	2243.33
880.08	2203.11
880.398	2240.85
880.716	2286.49
881.034	2239.72
881.352	2249.21
881.67	2233.84
881.988	2237.23
882.306	2243.1
882.624	2225.7
882.941	2227.51
883.259	2181.86
883.577	2208.76
883.894	2175.31
884.212	2174.63
884.529	2168.3
884.846	2176.44
885.164	2189.55
885.481	2178.25
885.798	2186.38
886.115	2159.04
886.432	2159.04
886.75	2135.99
887.067	2134.18
887.383	2113.39
887.7	2157.91
888.017	2130.57
888.334	2131.24
888.651	2165.59
888.967	2102.77
889.284	2129.89
889.6	2132.83
889.917	2075.65
890.233	2123.11
890.55	2074.3
890.866	2114.52
891.182	2061.87
891.498	2105.03
891.815	2083.34
892.131	2081.75
892.447	2068.65
892.763	2078.14
893.079	2062.09
893.395	2063.9
893.71	2035.43
894.026	2041.08
894.342	2030.68
894.657	2023.22
894.973	2034.75
895.289	2014.64
895.604	2008.99
895.92	2025.94
896.235	1996.33
896.55	2006.95
896.865	2001.76
897.181	1987.74
897.496	1996.11
897.811	1972.38
898.126	1945.94
898.441	1963.34
898.756	1980.51
899.071	1979.16
899.386	1912.04
899.7	1919.72
900.015	1957.69
900.33	1950.91
900.644	1916.56
900.959	1944.13
901.273	1896.67
901.588	1919.95
901.902	1919.05
902.216	1889.44
902.531	1868.2
902.845	1892.15
903.159	1894.41
903.473	1842.89
903.787	1864.58
904.101	1844.02
904.415	1840.86
904.729	1867.97
905.042	1837.47
905.356	1830.69
905.67	1841.76
905.984	1837.01
906.297	1797.69
906.611	1842.89
906.924	1834.3
907.237	1822.32
907.551	1808.31
907.864	1814.64
908.177	1783
908.491	1795.43
908.804	1780.07
909.117	1775.77
909.43	1740.75
909.743	1765.6
910.056	1763.12
910.368	1754.08
910.681	1750.01
910.994	1770.12
911.307	1766.51
911.619	1730.8
911.932	1748.43
912.244	1708.66
912.557	1682.67
912.869	1708.88
913.181	1696.68
913.494	1713.18
913.806	1701.2
914.118	1653.97
914.43	1677.92
914.742	1673.85
915.054	1682.67
915.366	1661.2
915.678	1674.31
915.99	1661.43
916.302	1635.21
916.613	1622.1
916.925	1648.32
917.236	1606.96
917.548	1625.95
917.859	1599.73
918.171	1595.21
918.482	1608.77
918.794	1618.04
919.105	1583.24
919.416	1613.74
919.727	1601.99
920.038	1587.98
920.349	1564.03
920.66	1552.05
920.971	1563.12
921.282	1551.15
921.593	1553.63
921.903	1549.11
922.214	1536.68
922.525	1555.21
922.835	1566.96
923.146	1526.97
923.456	1545.95
923.767	1537.13
924.077	1540.07
924.387	1504.37
924.697	1509.79
925.008	1514.54
925.318	1505.05
925.628	1505.72
925.938	1488.55
926.248	1491.94
926.558	1489.9
926.867	1478.15
927.177	1477.02
927.487	1482.67
927.796	1437.25
928.106	1427.99
928.416	1448.32
928.725	1438.15
929.034	1431.83
929.344	1406.29
929.653	1455.1
929.962	1400.87
930.271	1410.81
930.581	1402
930.89	1414.65
931.199	1399.29
931.508	1384.6
931.817	1412.17
932.125	1401.32
932.434	1394.77
932.743	1373.3
933.051	1383.92
933.36	1350.02
933.669	1387.53
933.977	1347.76
934.286	1356.8
934.594	1366.52
934.902	1353.41
935.21	1344.6
935.519	1338.72
935.827	1325.84
936.135	1321.1
936.443	1324.03
936.751	1323.13
937.059	1332.39
937.367	1321.77
937.674	1310.47
937.982	1287.42
938.29	1290.14
938.597	1287.88
938.905	1270.7
939.213	1284.71
939.52	1297.59
939.827	1258.5
940.135	1260.08
940.442	1271.15
940.749	1267.76
941.056	1255.11
941.363	1273.41
941.67	1262.11
941.977	1247.42
942.284	1239.97
942.591	1232.51
942.898	1205.84
943.205	1248.1
943.511	1252.4
943.818	1233.87
944.125	1220.31
944.431	1213.08
944.738	1200.65
945.044	1199.06
945.35	1207.65
945.657	1206.75
945.963	1186.41
946.269	1179.4
946.575	1200.42
946.881	1176.24
947.187	1214.66
947.493	1197.48
947.799	1187.77
948.105	1152.06
948.41	1166.75
948.716	1182.79
949.022	1162
949.327	1134.21
949.633	1140.76
949.938	1128.56
950.244	1172.4
950.549	1148.44
950.854	1139.63
951.16	1127.65
951.465	1138.73
951.77	1137.6
952.075	1143.92
952.38	1110.71
952.685	1115.9
952.99	1114.32
953.294	1108.67
953.599	1107.54
953.904	1062.12
954.209	1140.08
954.513	1107.54
954.818	1079.52
955.122	1077.03
955.426	1104.6
955.731	1079.75
956.035	1071.16
956.339	1060.31
956.643	1068.9
956.948	1070.03
957.252	1041.78
957.556	1050.14
957.86	1048.11
958.163	1048.33
958.467	1028.9
958.771	1078.84
959.075	1036.81
959.378	1054.89
959.682	1038.39
959.985	997.71
960.289	1034.78
960.592	1042.91
960.896	1024.38
961.199	1007.43
961.502	1016.7
961.805	1033.42
962.108	1024.38
962.411	999.52
962.714	1011.5
963.017	1007.43
963.32	1017.83
963.623	978.73
963.926	1001.56
964.228	989.13
964.531	999.97
964.833	978.73
965.136	963.59
965.438	977.6
965.741	1001.78
966.043	957.49
966.345	932.18
966.648	1005.85
966.95	973.31
967.252	977.15
967.554	965.4
967.856	964.27
968.158	949.13
968.46	936.02
968.761	946.19
969.063	949.13
969.365	944.83
969.666	933.08
969.968	917.26
970.269	919.52
970.571	912.07
970.872	938.05
971.174	920.65
971.475	929.47
971.776	922.24
972.077	919.98
972.378	903.03
972.679	900.09
972.98	904.16
973.281	920.2
973.582	917.49
973.883	891.5
974.183	913.2
974.484	903.03
974.785	880.88
975.085	887.66
975.386	897.15
975.686	891.28
975.986	893.76
976.287	866.87
976.587	876.14
976.887	845.18
977.187	855.34
977.487	864.61
977.787	864.38
978.087	850.83
978.387	864.61
978.687	868
978.987	839.98
979.286	841.11
979.586	826.64
979.885	851.95
980.185	825.97
980.484	823.03
980.784	846.31
981.083	849.24
981.382	831.39
981.682	840.43
981.981	823.03
982.28	821.67
982.579	806.08
982.878	831.62
983.177	804.72
983.475	821
983.774	810.15
984.073	806.53
984.372	828.68
984.67	799.08
984.969	812.63
985.267	804.5
985.566	791.39
985.864	787.78
986.162	796.59
986.461	775.35
986.759	783.03
987.057	775.12
987.355	772.64
987.653	780.77
987.951	758.62
988.249	797.72
988.547	773.31
988.844	768.12
989.142	767.89
989.44	781
989.737	759.98
990.035	748.45
990.332	742.81
990.63	757.04
990.927	741.22
991.224	766.31
991.521	761.79
991.819	735.57
992.116	749.36
992.413	738.96
992.71	735.12
993.006	727.89
993.303	731.51
993.6	744.61
993.897	705.07
994.193	699.19
994.49	731.96
994.787	739.19
995.083	728.79
995.379	711.85
995.676	717.27
995.972	692.86
996.268	695.57
996.565	734.9
996.861	703.48
997.157	699.87
997.453	701.9
997.749	705.97
998.044	696.7
998.34	674.56
998.636	700.77
998.932	689.47
999.227	701.9
999.523	669.59
999.818	683.15
1000.114	683.37
1000.409	690.83
1000.704	671.85
1001	696.48
1001.295	693.09
1001.59	678.17
1001.885	661
1002.18	676.82
1002.475	671.85
1002.77	667.1
1003.065	659.42
1003.359	652.41
1003.654	660.1
1003.949	646.76
1004.243	650.6
1004.538	642.24
1004.832	666.42
1005.127	664.62
1005.421	639.53
1005.715	627.55
1006.009	627.33
1006.304	632.3
1006.598	632.3
1006.892	627.78
1007.186	622.36
1007.48	626.42
1007.773	637.72
1008.067	603.83
1008.361	625.75
1008.655	619.19
1008.948	603.37
1009.242	621.68
1009.535	629.81
1009.829	618.29
1010.122	620.77
1010.415	597.5
1010.708	621.9
1011.001	596.37
1011.295	600.89
1011.588	589.82
1011.881	582.13
1012.173	609.25
1012.466	594.56
1012.759	590.72
1013.052	571.96
1013.344	599.31
1013.637	588.01
1013.93	581.68
1014.222	573.09
1014.514	577.61
1014.807	565.18
1015.099	569.48
1015.391	576.26
1015.683	561.34
1015.976	583.26
1016.268	566.76
1016.56	556.37
1016.851	560.21
1017.143	544.62
1017.435	561.34
1017.727	557.05
1018.018	555.92
1018.31	571.51
1018.602	571.96
1018.893	561.12
1019.185	541.91
1019.476	561.12
1019.767	571.96
1020.058	520.66
1020.35	563.38
1020.641	550.49
1020.932	527.44
1021.223	540.78
1021.514	553.66
1021.804	505.3
1022.095	537.16
1022.386	536.26
1022.677	517.05
1022.967	526.54
1023.258	526.09
1023.548	505.3
1023.839	532.87
1024.129	526.09
1024.419	512.98
1024.709	536.71
1025	533.32
1025.29	512.3
1025.58	500.55
1025.87	523.83
1026.16	509.37
1026.449	523.38
1026.739	497.61
1027.029	506.43
1027.319	518.86
1027.608	500.78
1027.898	488.12
1028.187	475.02
1028.477	479.54
1028.766	486.99
1029.055	484.96
1029.344	480.21
1029.634	489.7
1029.923	502.59
1030.212	487.67
1030.501	479.99
1030.79	503.49
1031.078	482.02
1031.367	471.85
1031.656	471.17
1031.945	476.82
1032.233	481.34
1032.522	449.48
1032.81	468.91
1033.099	478.63
1033.387	484.73
1033.675	478.18
1033.963	463.72
1034.251	451.74
1034.54	465.52
1034.828	463.26
1035.116	469.82
1035.403	482.25
1035.691	443.15
1035.979	466.88
1036.267	450.16
1036.554	467.56
1036.842	456.26
1037.129	437.95
1037.417	467.56
1037.704	452.87
1037.992	439.54
1038.279	431.85
1038.566	425.75
1038.853	425.75
1039.14	425.75
