Data from blue_shiny_book_FLMS001491_00081.txt Node
Date: Wed Feb 08 15:27:39 GMT 2017
User: dcchb
Spectrometer: FLMS00149
Trigger mode: 0
Integration Time (sec): 2.000000E-2
Scans to average: 10
Electric dark correction enabled: true
Nonlinearity correction enabled: false
Boxcar width: 0
XAxis mode: Wavelengths
Number of Pixels in Spectrum: 2048
>>>>>Begin Spectral Data<<<<<
341.393	-12.06
341.776	-12.06
342.16	-12.06
342.543	-48.22
342.927	-74.89
343.31	-85.51
343.693	-69.46
344.077	-77.14
344.46	-76.01
344.843	-55.9
345.226	-27.43
345.61	-42.34
345.993	10.99
346.376	6.02
346.759	6.69
347.142	13.7
347.525	57.77
347.908	48.05
348.291	85.11
348.674	96.41
349.057	109.06
349.44	138.89
349.823	150.42
350.206	175.96
350.588	189.06
350.971	213.24
351.354	234.71
351.737	236.07
352.119	239.01
352.502	271.55
352.884	272
353.267	296.86
353.65	300.02
354.032	303.86
354.414	321.71
354.797	305.9
355.179	303.86
355.562	315.39
355.944	353.13
356.326	311.55
356.709	317.65
357.091	334.6
357.473	363.3
357.855	349.74
358.238	361.71
358.62	342.96
359.002	352.9
359.384	373.69
359.766	369.62
360.148	359.68
360.53	346.12
360.912	338.21
361.294	344.54
361.676	324.88
362.057	353.35
362.439	343.18
362.821	327.14
363.203	331.66
363.584	323.07
363.966	337.99
364.348	343.64
364.729	340.25
365.111	322.17
365.493	344.76
365.874	323.3
366.256	322.17
366.637	331.66
367.019	333.47
367.4	340.7
367.781	351.32
368.163	340.7
368.544	352.9
368.925	334.82
369.306	338.21
369.688	309.29
370.069	329.4
370.45	334.6
370.831	333.92
371.212	366.01
371.593	334.82
371.974	340.47
372.355	333.47
372.736	351.32
373.117	331.21
373.498	348.83
373.879	349.96
374.26	360.81
374.641	325.78
375.021	341.15
375.402	342.73
375.783	356.06
376.163	357.19
376.544	348.83
376.925	369.62
377.305	358.55
377.686	354.93
378.066	360.36
378.447	379.11
378.827	367.36
379.208	383.41
379.588	398.1
379.968	373.01
380.349	372.56
380.729	390.87
381.109	395.16
381.489	392
381.87	389.06
382.25	404.42
382.63	409.62
383.01	402.16
383.39	414.14
383.77	394.48
384.15	419.34
384.53	409.17
384.91	397.87
385.29	427.02
385.67	436.51
386.049	419.11
386.429	439.9
386.809	442.16
387.189	426.34
387.568	427.47
387.948	452.33
388.328	431.32
388.707	447.81
389.087	450.98
389.466	473.58
389.846	459.11
390.225	487.59
390.605	467.47
390.984	469.96
391.363	478.09
391.743	453.46
392.122	469.73
392.501	496.63
392.881	507.92
393.26	506.34
393.639	524.2
394.018	505.89
394.397	505.21
394.776	513.12
395.155	504.99
395.534	532.78
395.913	542.05
396.292	542.95
396.671	544.53
397.05	544.53
397.429	527.81
397.808	550.64
398.186	542.73
398.565	563.97
398.944	553.35
399.323	583.85
399.701	582.95
400.08	597.87
400.458	585.89
400.837	598.32
401.215	621.14
401.594	608.26
401.972	618.2
402.351	613.01
402.729	631.09
403.107	657.3
403.486	637.19
403.864	648.49
404.242	662.5
404.62	657.98
404.999	704.53
405.377	683.06
405.755	674.47
406.133	687.58
406.511	702.72
406.889	730.74
407.267	752.44
407.645	760.57
408.023	756.51
408.401	751.76
408.779	760.35
409.156	807.13
409.534	820.91
409.912	793.79
410.29	805.32
410.667	817.97
411.045	823.62
411.422	851.64
411.8	853.45
412.178	882.38
412.555	884.64
412.933	915.6
413.31	934.13
413.687	918.08
414.065	944.75
414.442	966.9
414.819	975.03
415.197	956.95
415.574	976.39
415.951	982.94
416.328	1023.62
416.705	1003.05
417.082	1018.42
417.46	1024.97
417.837	1054.8
418.214	1058.87
418.591	1063.39
418.967	1077.63
419.344	1091.41
419.721	1118.3
420.098	1102.03
420.475	1122.15
420.852	1147
421.228	1176.16
421.605	1189.71
421.982	1184.06
422.358	1196.49
422.735	1229.04
423.111	1256.38
423.488	1241.01
423.864	1234.23
424.241	1279.66
424.617	1269.71
424.994	1303.38
425.37	1327.11
425.746	1334.12
426.123	1347.9
426.499	1355.13
426.875	1384.74
427.251	1422.02
427.627	1413.21
428.003	1466.32
428.379	1458.41
428.756	1454.79
429.132	1473.1
429.507	1507.22
429.883	1525.07
430.259	1547.9
430.635	1602.13
431.011	1605.75
431.387	1636.93
431.763	1677.39
432.138	1646.2
432.514	1725.29
432.89	1709.02
433.265	1766.65
433.641	1765.74
434.016	1790.38
434.392	1836.48
434.767	1862.47
435.143	1883.71
435.518	1880.09
435.894	1947.21
436.269	1964.84
436.644	2000.99
437.02	1987.21
437.395	2021.56
437.77	2049.13
438.145	2080.54
438.52	2124.38
438.895	2113.31
439.271	2148.79
439.646	2199.63
440.021	2225.62
440.395	2189.91
440.77	2217.03
441.145	2247.09
441.52	2302.45
441.895	2287.99
442.27	2335.22
442.645	2334.54
443.019	2390.81
443.394	2379.74
443.769	2408.21
444.143	2391.49
444.518	2449.34
444.892	2451.6
445.267	2488.66
445.641	2517.59
446.016	2546.97
446.39	2553.75
446.764	2603.46
447.139	2559.4
447.513	2599.62
447.887	2626.51
448.262	2637.81
448.636	2640.75
449.01	2701.09
449.384	2733.63
449.758	2726.62
450.132	2781.31
450.506	2799.84
450.88	2821.99
451.254	2822.21
451.628	2866.96
452.002	2949.89
452.376	2938.37
452.75	2947.18
453.123	2997.35
453.497	3068.31
453.871	3050.68
454.244	3143.34
454.618	3166.39
454.992	3221.98
455.365	3207.29
455.739	3299.04
456.112	3376.55
456.486	3340.17
456.859	3417.23
457.232	3526.6
457.606	3466.49
457.979	3542.87
458.352	3608.63
458.725	3688.63
459.099	3702.42
459.472	3737.9
459.845	3812.47
460.218	3774.28
460.591	3885.46
460.964	3914.16
461.337	4054.5
461.71	4089.98
462.083	4117.32
462.456	4172.46
462.829	4138.56
463.201	4258.33
463.574	4268.5
463.947	4339.46
464.32	4415.17
464.692	4426.47
465.065	4495.84
465.438	4562.06
465.81	4673.46
466.183	4694.03
466.555	4834.82
466.928	4842.5
467.3	4830.07
467.672	4906.9
468.045	5072.32
468.417	5082.72
468.789	5148.03
469.161	5188.03
469.534	5261.7
469.906	5388.93
470.278	5373.56
470.65	5506.21
471.022	5602.71
471.394	5728.13
471.766	5782.14
472.138	5838.63
472.51	5966.31
472.882	6068.23
473.253	6152.07
473.625	6254.67
473.997	6357.49
474.369	6424.83
474.74	6531.95
475.112	6670.02
475.484	6760.87
475.855	6944.59
476.227	6896.23
476.598	7113.4
476.97	7173.29
477.341	7367.86
477.713	7390
478.084	7436.1
478.455	7665.02
478.827	7807.62
479.198	8002.87
479.569	8019.37
479.94	8359.7
480.311	8401.05
480.682	8582.74
481.053	8731.89
481.424	8926.46
481.795	8955.61
482.166	9162.16
482.537	9266.34
482.908	9510.85
483.279	9561.47
483.65	9747.23
484.021	9974.34
484.391	10080.33
484.762	10173.21
485.133	10266.76
485.503	10442.35
485.874	10746.3
486.244	10779.07
486.615	11024.03
486.985	11112.39
487.356	11350.13
487.726	11401.65
488.097	11634.19
488.467	11689.1
488.837	12012.48
489.207	12132.7
489.578	12327.05
489.948	12382.87
490.318	12654.5
490.688	12657.66
491.058	12982.4
491.428	13207.48
491.798	13325.21
492.168	13650.86
492.538	13662.83
492.908	13841.59
493.278	13914.13
493.648	13957.97
494.017	14190.28
494.387	14286.77
494.757	14454.68
495.126	14603.83
495.496	14765.4
495.866	14725.18
496.235	15016.24
496.605	15168.33
496.974	15320.87
497.344	15451.71
497.713	15521.54
498.082	15675.21
498.452	15859.61
498.821	15928.31
499.19	16024.13
499.559	16188.64
499.928	16364.23
500.298	16332.14
500.667	16505.47
501.036	16507.73
501.405	16693.04
501.774	16844.22
502.143	17044.21
502.512	17141.39
502.88	17372.11
503.249	17262.74
503.618	17580.92
503.987	17636.74
504.356	17639.45
504.724	17786.79
505.093	17985.88
505.462	18049.38
505.83	18105.88
506.199	18343.84
506.567	18370.73
506.936	18425.19
507.304	18640.33
507.672	18751.96
508.041	18852.98
508.409	18989.47
508.777	19159.64
509.145	19407.54
509.514	19519.18
509.882	19576.58
510.25	19682.56
510.618	19887.75
510.986	19906.74
511.354	20067.86
511.722	20400.96
512.09	20507.62
512.458	20445.71
512.826	20666.26
513.193	20650.45
513.561	20767.28
513.929	20935.41
514.297	21109.87
514.664	21290.2
515.032	21332.91
515.4	21563.64
515.767	21699.01
516.135	21860.36
516.502	21810.64
516.869	22259.22
517.237	22389.84
517.604	22428.25
517.972	22764.74
518.339	22953.21
518.706	22944.62
519.073	23113.21
519.44	23151.62
519.808	23410.15
520.175	23389.81
520.542	23642.23
520.909	23737.14
521.276	23743.47
521.643	24027.98
522.009	24029.34
522.376	24318.6
522.743	24546.61
523.11	24887.17
523.477	25055.98
523.843	25222.98
524.21	25558.11
524.577	25737.77
524.943	26012.56
525.31	26003.53
525.676	26220.47
526.043	26498.43
526.409	26539.56
526.776	26748.36
527.142	26843.96
527.508	27060.9
527.874	27184.74
528.241	27342.02
528.607	27397.39
528.973	27612.52
529.339	27577.27
529.705	27974.09
530.071	28204.15
530.437	28406.63
530.803	28563.46
531.169	28780.63
531.535	28891.58
531.901	29051.13
532.267	29210.67
532.632	29505.35
532.998	29587.84
533.364	29690.21
533.73	29791.22
534.095	30119.35
534.461	30016.75
534.826	30145.11
535.192	30253.36
535.557	30363.64
535.923	30307.59
536.288	30458.32
536.653	30579.68
537.019	30584.65
537.384	30825.09
537.749	30917.52
538.114	31100.11
538.479	31079.32
538.845	31460.33
539.21	31423.04
539.575	31723.37
539.94	31917.72
540.305	32070.26
540.67	31977.83
541.034	32107.77
541.399	32237.26
541.764	32296.69
542.129	32311.83
542.494	32471.6
542.858	32418.95
543.223	32435.9
543.587	32571.49
543.952	32741.43
544.316	32657.81
544.681	32712.73
545.045	32877.69
545.41	33046.05
545.774	33067.29
546.138	33110.23
546.503	33238.14
546.867	33317.46
547.231	33625.47
547.595	33772.13
547.959	33977.33
548.324	33984.56
548.688	34067.27
549.052	34214.83
549.416	34283.99
549.779	34222.97
550.143	34330.09
550.507	34528.5
550.871	34431.33
551.235	34401.04
551.599	34596.97
551.962	34636.52
552.326	34657.08
552.689	34767.14
553.053	34669.51
553.417	34803.07
553.78	35265.65
554.143	35082.61
554.507	35343.17
554.87	35512.88
555.234	35993.55
555.597	35858.18
555.96	36015.69
556.323	36241.9
556.686	36408.45
557.05	36532.51
557.413	36646.41
557.776	36808.66
558.139	36773.64
558.502	36806.18
558.865	36747.42
559.228	37011.82
559.59	36898.15
559.953	36877.59
560.316	37117.36
560.679	37251.14
561.041	37499.95
561.404	37657.23
561.767	37866.94
562.129	37786.94
562.492	38191
562.854	38194.62
563.217	38177.67
563.579	38609.3
563.941	38767.03
564.304	39086.12
564.666	39282.72
565.028	39405.21
565.39	39525.66
565.753	39764.52
566.115	39860.79
566.477	39906.44
566.839	39964.74
567.201	40110.5
567.563	39978.3
567.925	40206.77
568.287	40277.95
568.648	40242.47
569.01	40358.63
569.372	40627.77
569.734	40247.22
570.095	40750.93
570.457	40818.73
570.819	40919.52
571.18	40950.02
571.542	41293.52
571.903	41397.47
572.265	41556.79
572.626	41858.25
572.987	41905.25
573.349	42192.48
573.71	42349.54
574.071	42377.56
574.432	42471.34
574.794	42795.17
575.155	42633.14
575.516	42559.25
575.877	42716.31
576.238	42668.85
576.599	42818.9
576.96	42784.33
577.32	42781.62
577.681	42907.04
578.042	42848.96
578.403	42946.36
578.763	42945.45
579.124	42992.91
579.485	43252.34
579.845	43374.82
580.206	43385.22
580.566	43461.6
580.927	43486
581.287	43912.21
581.648	43625.43
582.008	43960.79
582.368	43880.34
582.728	44147.91
583.089	44126.44
583.449	44119.21
583.809	44193.33
584.169	44278.07
584.529	44123.73
584.889	44290.5
585.249	44057.74
585.609	43830.18
585.969	44057.97
586.329	43765.77
586.688	43945.88
587.048	43842.6
587.408	43922.38
587.768	43798.09
588.127	43724.87
588.487	43676.51
588.846	44054.35
589.206	43945.88
589.565	44039.66
589.925	44217.74
590.284	43935.71
590.643	44105.42
591.003	44369.6
591.362	44678.29
591.721	44541.79
592.08	44341.57
592.44	44635.13
592.799	44707.89
593.158	44712.64
593.517	44651.62
593.876	44591.51
594.235	44425.41
594.593	44492.3
594.952	44473.55
595.311	44375.47
595.67	44407.34
596.029	44598.74
596.387	44446.66
596.746	44481.46
597.104	44264.51
597.463	44258.86
597.822	44474.45
598.18	44418.41
598.538	44428.8
598.897	44686.2
599.255	44284.4
599.613	44920.99
599.972	44800.55
600.33	44958.06
600.688	44826.99
601.046	45025.17
601.404	45368.89
601.762	45124.38
602.12	45421.32
602.478	45480.98
602.836	45481.21
603.194	45181.78
603.552	45332.51
603.91	45013.87
604.268	45156.92
604.625	45081.22
604.983	45158.73
605.341	44872.18
605.698	45115.79
606.056	45090.93
606.413	45092.51
606.771	45093.64
607.128	45212.51
607.485	45015.23
607.843	45096.13
608.2	45242.79
608.557	45375.9
608.914	45323.92
609.272	45520.07
609.629	45582.9
609.986	45760.29
610.343	45559.4
610.7	46053.62
611.057	45814.76
611.414	45919.84
611.771	45927.75
612.127	46193.5
612.484	46260.39
612.841	46369.54
613.198	46344.01
613.554	46366.38
613.911	46366.61
614.267	46421.52
614.624	46408.64
614.98	46411.8
615.337	46594.85
615.693	46428.75
616.05	46265.37
616.406	46429.43
616.762	46339.49
617.118	46338.36
617.475	46399.6
617.831	46386.72
618.187	46412.71
618.543	46437.79
618.899	46522.76
619.255	46528.18
619.611	46562.53
619.967	46665.35
620.323	46754.62
620.678	46722.53
621.034	46713.26
621.39	46756.43
621.746	46746.03
622.101	47135.63
622.457	46897.44
622.812	46987.61
623.168	47175.4
623.523	47091.33
623.879	47282.74
624.234	47059.92
624.589	47263.08
624.945	47343.53
625.3	47378.1
625.655	47085
626.01	47235.51
626.365	47018.57
626.72	46948.29
627.075	46807.05
627.43	46960.94
627.785	46736.54
628.14	46815.86
628.495	46671.68
628.85	46636.43
629.205	46585.81
629.559	46697.9
629.914	46522.31
630.269	46543.32
630.623	46412.93
630.978	46461.07
631.332	46687.5
631.687	46693.83
632.041	46478.47
632.396	46805.92
632.75	46631.68
633.104	46684.34
633.459	46621.51
633.813	46564.11
634.167	46552.14
634.521	46423.78
634.875	46573.61
635.229	46431.46
635.583	46359.6
635.937	46330.22
636.291	46259.04
636.645	46278.25
636.999	46120.28
637.352	46174.07
637.706	45935.2
638.06	46165.03
638.413	45964.13
638.767	45880.52
639.121	45803.46
639.474	45435.33
639.828	45465.61
640.181	45475.78
640.534	45463.8
640.888	45302.45
641.241	45135.45
641.594	45179.97
641.947	45406.86
642.301	45257.71
642.654	45352.4
643.007	45296.8
643.36	45410.25
643.713	45151.5
644.066	45421.32
644.419	45238.05
644.771	45159.63
645.124	45223.13
645.477	45308.55
645.83	44936.59
646.182	44647.55
646.535	44365.3
646.888	44180
647.24	43622.72
647.593	43892.55
647.945	43629.95
648.298	43461.82
648.65	43385.89
649.002	43243.07
649.355	43648.03
649.707	43599.22
650.059	43814.58
650.411	44386.77
650.763	44420.67
651.115	44702.69
651.467	44331.18
651.819	44225.87
652.171	44204.4
652.523	44331.86
652.875	44283.27
653.227	43996.05
653.578	44272.88
653.93	44255.25
654.282	44118.53
654.633	43997.4
654.985	44198.3
655.337	44187.23
655.688	44123.5
656.039	44355.36
656.391	44019.55
656.742	44288.92
657.094	44420.44
657.445	44517.16
657.796	44494.34
658.147	44319.43
658.498	44331.18
658.849	44616.6
659.2	44292.08
659.551	44293.89
659.902	44429.26
660.253	44160.34
660.604	44354.46
660.955	43930.06
661.306	43949.27
661.656	43847.8
662.007	43948.14
662.358	43899.1
662.708	43729.39
663.059	43686
663.409	43352.9
663.76	43625.21
664.11	43433.8
664.461	43501.14
664.811	43298.66
665.161	43441.48
665.511	43363.97
665.862	43521.26
666.212	43608.94
666.562	43675.83
666.912	43623.4
667.262	43664.53
667.612	43785.2
667.962	43791.98
668.312	43722.16
668.662	44005.31
669.011	43921.02
669.361	43923.28
669.711	43849.61
670.06	44017.74
670.41	43816.62
670.76	43816.62
671.109	43843.51
671.459	43827.24
671.808	43663.4
672.157	43743.85
672.507	43502.27
672.856	43513.35
673.205	43357.19
673.554	43387.02
673.904	43126.24
674.253	43447.81
674.602	43185.67
674.951	42588.63
675.3	42303.89
675.649	42849.41
675.998	42666.14
676.346	42639.7
676.695	42827.49
677.044	42527.61
677.393	42469.08
677.741	42540.72
678.09	42447.16
678.438	42405.13
678.787	42322.19
679.135	42423.88
679.484	42225.7
679.832	42597.44
680.181	42310.67
680.529	42506.37
680.877	42447.84
681.225	42312.93
681.573	42631.79
681.922	42487.16
682.27	42340.72
682.618	42470.89
682.966	42350.44
683.314	42422.3
683.661	42317.67
684.009	42037.23
684.357	41922.2
684.705	41902.32
685.053	41794.3
685.4	41896.89
685.748	41614.64
686.095	41468.88
686.443	41431.37
686.79	41201.77
687.138	41301.43
687.485	41163.13
687.832	40937.37
688.18	40900.08
688.527	40772.18
688.874	40403.82
689.221	40286.54
689.568	40406.99
689.915	40175.36
690.262	40094.68
690.609	40078.18
690.956	39803.39
691.303	39815.82
691.65	39554.58
691.997	39738.31
692.344	39411.76
692.69	39384.87
693.037	39519.33
693.383	39305.32
693.73	39453.79
694.077	39228.71
694.423	39120.47
694.769	39078.44
695.116	39005.22
695.462	39042.96
695.808	39104.88
696.155	39268.04
696.501	38738.11
696.847	38812.68
697.193	38502.86
697.539	38652.68
697.885	38532.01
698.231	38361.62
698.577	38308.06
698.923	38187.84
699.269	38003.21
699.614	37731.35
699.96	37552.37
700.306	37594.18
700.651	37266.51
700.997	37065.83
701.342	36829.91
701.688	36800.76
702.033	36620.87
702.379	36596.69
702.724	36520.31
703.069	36623.81
703.415	36151.51
703.76	36062.47
704.105	35889.82
704.45	35872.64
704.795	35645.08
705.14	35594.91
705.485	35640.56
705.83	35467.23
706.175	35533.22
706.52	35452.77
706.865	35360.79
707.209	35275.37
707.554	35391.08
707.899	35444.86
708.243	35173.91
708.588	35257.52
708.932	35095.49
709.277	35109.73
709.621	35186.11
709.966	34949.96
710.31	35209.16
710.654	34611.21
710.998	34807.14
711.342	34863.18
711.687	34682.85
712.031	34535.05
712.375	34467.03
712.719	34345.9
713.063	34338.67
713.407	34321.5
713.75	34157.89
714.094	34152.01
714.438	33789.99
714.782	33832.47
715.125	33631.8
715.469	33707.96
715.812	33360.62
716.156	33270.23
716.499	33058.03
716.843	33300.28
717.186	33030.46
717.53	32931.48
717.873	32925.15
718.216	32812.16
718.559	32650.36
718.902	32574.2
719.246	32708.89
719.589	32762.44
719.932	32710.69
720.275	32513.18
720.617	32538.95
720.96	32580.3
721.303	32599.28
721.646	32687.87
721.989	32479.51
722.331	32757.02
722.674	32748.88
723.016	32780.3
723.359	32718.15
723.701	32739.85
724.044	32584.82
724.386	32551.6
724.729	32699.39
725.071	32591.6
725.413	32665.27
725.755	32634.99
726.097	32365.17
726.439	32194.1
726.782	32233.42
727.124	32247.2
727.465	32065.96
727.807	31951.17
728.149	31864.16
728.491	31870.94
728.833	31921.56
729.175	31760.21
729.516	31637.05
729.858	31553.89
730.199	31659.65
730.541	31563.15
730.882	31458.52
731.224	31525.87
731.565	31313.67
731.906	31336.27
732.248	31470.95
732.589	31198.64
732.93	31129.72
733.271	31206.1
733.612	31130.85
733.953	31234.12
734.294	31208.81
734.635	31056.73
734.976	31253.56
735.317	31035.26
735.658	31020.79
735.999	31141.92
736.339	31142.37
736.68	31367.23
737.021	31270.73
737.361	31060.12
737.702	31253.1
738.042	31168.59
738.383	31175.59
738.723	31413.78
739.063	31436.83
739.404	31547.33
739.744	31359.32
740.084	31250.84
740.424	31493.32
740.764	31266.89
741.104	31242.48
741.444	31230.73
741.784	31154.8
742.124	31145.76
742.464	31173.33
742.804	31067.57
743.143	31158.19
743.483	31170.62
743.823	30917.07
744.162	30911.42
744.502	31119.1
744.841	30967.24
745.181	30980.12
745.52	30919.78
745.86	30817.86
746.199	30905.09
746.538	30846.34
746.877	30912.32
747.216	30875.26
747.556	30810.63
747.895	30776.73
748.234	30606.79
748.573	30669.17
748.911	30654.48
749.25	30831.65
749.589	30666.23
749.928	30837.97
750.267	30809.5
750.605	30829.16
750.944	30840.69
751.283	30947.8
751.621	31069.38
751.96	30909.84
752.298	31017.4
752.636	31131.75
752.975	31141.24
753.313	31040.23
753.651	31253.33
753.989	31192.09
754.327	31121.81
754.666	31067.12
755.004	31135.82
755.342	31256.04
755.679	31244.29
756.017	31254.23
756.355	31374.23
756.693	31189.38
757.031	31448.81
757.368	31198.19
757.706	31118.19
758.044	31043.39
758.381	31086.56
758.719	31087.01
759.056	31155.93
759.394	30979.44
759.731	30773.8
760.068	30771.99
760.405	30674.36
760.743	30654.25
761.08	30813.57
761.417	30560.69
761.754	30599.11
762.091	30552.33
762.428	30444.54
762.765	30278.89
763.102	30362.51
763.438	30243.19
763.775	30146.69
764.112	30162.51
764.449	30238.44
764.785	30040.93
765.122	29928.85
765.458	29848.17
765.795	29960.71
766.131	29880.71
766.467	29953.03
766.804	29849.53
767.14	29733.37
767.476	29988.96
767.812	29808.4
768.148	29796.87
768.485	29607.72
768.821	29630.55
769.157	29528.18
769.492	29519.14
769.828	29584.22
770.164	29414.51
770.5	29379.03
770.836	29276.21
771.171	29298.35
771.507	29252.71
771.842	29124.35
772.178	29104.23
772.513	29042.77
772.849	28985.14
773.184	28848.2
773.519	28873.05
773.855	28674.42
774.19	28518.04
774.525	28413.18
774.86	28502.44
775.195	28443.91
775.53	28381.32
775.865	28264.71
776.2	28205.5
776.535	27888.22
776.87	27972.51
777.205	27725.97
777.539	27570.04
777.874	27599.64
778.209	27286.66
778.543	27293.66
778.878	27019.09
779.212	27036.04
779.547	26916.95
779.881	26973.44
780.215	26723.28
780.55	26750.62
780.884	26523.74
781.218	26443.74
781.552	26484.42
781.886	26323.97
782.22	26126.01
782.554	26033.13
782.888	25874.72
783.222	25824.32
783.556	25700.71
783.889	25563.54
784.223	25530.77
784.557	25509.3
784.89	25655.74
785.224	25520.6
785.557	25371
785.891	25357.67
786.224	25275.86
786.558	25278.57
786.891	25040.39
787.224	24942.08
787.557	25052.82
787.891	25111.12
788.224	25019.37
788.557	24915.19
788.89	24881.07
789.223	24889.2
789.556	24721.07
789.888	24757
790.221	24634.3
790.554	24407.18
790.887	24420.29
791.219	24393.17
791.552	24173.97
791.884	24170.81
792.217	24083.8
792.549	23865.73
792.882	23818.05
793.214	23789.35
793.546	23779.4
793.879	23630.71
794.211	23519.75
794.543	23437.27
794.875	23358.62
795.207	23292.64
795.539	23027.11
795.871	23068.91
796.203	22869.37
796.535	22725.65
796.867	22640.9
797.198	22738.07
797.53	22628.47
797.862	22540.11
798.193	22438.65
798.525	22338.08
798.856	22395.26
799.188	22100.13
799.519	22069.62
799.85	21825.33
800.182	21915.95
800.513	21905.1
800.844	21751.66
801.175	21793.92
801.506	21819.23
801.837	21704.66
802.168	21721.38
802.499	21610.42
802.83	21698.1
803.161	21641.38
803.491	21731.55
803.822	21640.48
804.153	21373.82
804.483	21328.85
804.814	21244.1
805.145	21169.98
805.475	21328.39
805.805	21099.25
806.136	21094.73
806.466	21094.95
806.796	21021.74
807.126	20910.1
807.457	20826.26
807.787	20938.12
808.117	20786.71
808.447	20722.53
808.777	20758.24
809.107	20613.16
809.436	20568.19
809.766	20695.87
810.096	20509.88
810.426	20433.73
810.755	20394.86
811.085	20373.84
811.414	20275.09
811.744	20093.85
812.073	20078.48
812.403	20207.29
812.732	19899.05
813.061	19902.44
813.39	19727.08
813.719	19680.53
814.049	19816.57
814.378	19629
814.707	19540.87
815.036	19438.5
815.365	19337.26
815.693	19195.12
816.022	19332.74
816.351	19120.77
816.68	18998.51
817.008	19028.12
817.337	18952.86
817.665	18916.71
817.994	18922.36
818.322	18881.68
818.651	18786.77
818.979	18784.96
819.307	18807.78
819.636	18737.05
819.964	18646.2
820.292	18746.31
820.62	18795.58
820.948	18672.64
821.276	18805.3
821.604	18767.78
821.932	18685.53
822.259	18813.66
822.587	18756.71
822.915	18794.9
823.243	18846.88
823.57	18752.42
823.898	18823.38
824.225	18750.61
824.553	18772.98
824.88	18808.46
825.207	18898.85
825.535	18853.43
825.862	18852.98
826.189	18812.53
826.516	18881
826.843	18942.69
827.17	19066.53
827.497	18982.47
827.824	19040.54
828.151	18961
828.478	18857.5
828.805	18968.23
829.131	18890.94
829.458	18849.36
829.785	18702.02
830.111	18861.79
830.438	18963.26
830.764	18859.31
831.09	18801.23
831.417	18582.48
831.743	18751.29
832.069	18775.47
832.395	18614.57
832.722	18685.07
833.048	18633.78
833.374	18467.23
833.7	18381.35
834.026	18457.51
834.351	18457.74
834.677	18357.62
835.003	18366.66
835.329	18373.9
835.654	18329.6
835.98	18259.32
836.306	18231.75
836.631	18191.53
836.956	18276.5
837.282	18196.27
837.607	18154.01
837.932	18102.94
838.258	18082.15
838.583	18051.19
838.908	17856.62
839.233	17928.03
839.558	17889.16
839.883	17848.71
840.208	17795.83
840.533	17858.43
840.858	17809.62
841.182	17893.23
841.507	17810.97
841.832	17755.61
842.156	17803.74
842.481	17771.43
842.805	17663.63
843.13	17610.53
843.454	17658.89
843.778	17654.37
844.103	17592.67
844.427	17611.43
844.751	17593.12
845.075	17561.49
845.399	17467.25
845.723	17375.96
846.047	17404.2
846.371	17261.38
846.695	17230.42
847.019	17103.87
847.343	17086.25
847.666	17048.05
847.99	16939.81
848.313	16904.1
848.637	16801.73
848.96	16881.05
849.284	16735.29
849.607	16597.67
849.931	16609.42
850.254	16426.38
850.577	16361.52
850.9	16220.73
851.223	16169.66
851.546	16108.87
851.869	15994.3
852.192	16107.97
852.515	15920.85
852.838	15765.15
853.161	15834.53
853.483	15686.51
853.806	15600.41
854.129	15582.56
854.451	15393.63
854.774	15333.98
855.096	15226.63
855.419	15281.77
855.741	15173.3
856.063	15199.06
856.385	15086.3
856.708	15034.32
857.03	14912.97
857.352	15028.45
857.674	14886.53
857.996	14836.14
858.318	14815.8
858.64	14798.17
858.961	14770.6
859.283	14715.23
859.605	14602.92
859.926	14586.65
860.248	14567.67
860.57	14554.79
860.891	14590.04
861.212	14613.09
861.534	14486.77
861.855	14504.62
862.176	14476.6
862.498	14481.12
862.819	14470.27
863.14	14419.42
863.461	14359.99
863.782	14414.23
864.103	14491.29
864.424	14430.27
864.745	14517.5
865.065	14468.24
865.386	14324.28
865.707	14356.37
866.027	14373.32
866.348	14276.38
866.668	14328.58
866.989	14389.59
867.309	14199.54
867.63	14187.34
867.95	14233.89
868.27	14138.07
868.59	14119.54
868.91	14167.68
869.23	14118.41
869.55	14075.25
869.87	14153.67
870.19	14004.29
870.51	13934.46
870.83	14036.61
871.15	13903.73
871.469	13835.71
871.789	13887.23
872.109	13835.48
872.428	13735.83
872.748	13887.69
873.067	13751.42
873.386	13758.65
873.706	13748.48
874.025	13611.76
874.344	13534.93
874.663	13574.02
874.982	13495.83
875.301	13500.13
875.62	13363.63
875.939	13395.5
876.258	13419.45
876.577	13348.72
876.896	13352.33
877.214	13220.58
877.533	13250.41
877.852	13228.49
878.17	13259.91
878.489	13160.47
878.807	13154.15
879.125	13112.79
879.444	13204.54
879.762	13093.81
880.08	13047.71
880.398	13022.62
880.716	12972.23
881.034	13019.69
881.352	13105.56
881.67	12974.94
881.988	13005
882.306	13059.46
882.624	12890.2
882.941	12894.04
883.259	12823.31
883.577	12897.2
883.894	12901.04
884.212	12846.58
884.529	12823.31
884.846	12801.84
885.164	12872.8
885.481	12740.37
885.798	12795.29
886.115	12739.24
886.432	12700.82
886.75	12734.72
887.067	12687.04
887.383	12636.65
887.7	12733.59
888.017	12624.22
888.334	12693.14
888.651	12588.51
888.967	12563.43
889.284	12506.25
889.6	12598.68
889.917	12329.31
890.233	12480.27
890.55	12335.64
890.866	12444.56
891.182	12324.34
891.498	12346.03
891.815	12238.46
892.131	12151.91
892.447	12195.07
892.763	12102.87
893.079	12087.51
893.395	12002.54
893.71	12012.25
894.026	11958.24
894.342	11968.87
894.657	11816.78
894.973	11801.64
895.289	11733.39
895.604	11704.47
895.92	11598.93
896.235	11504.92
896.55	11560.06
896.865	11497.01
897.181	11474.19
897.496	11388.54
897.811	11356.45
898.126	11213.18
898.441	11181.09
898.756	11115.1
899.071	11108.55
899.386	11050.92
899.7	11007.99
900.015	10953.98
900.33	10888.22
900.644	10856.35
900.959	10832.62
901.273	10784.94
901.588	10724.38
901.902	10711.27
902.216	10683.02
902.531	10740.2
902.845	10621.78
903.159	10627.66
903.473	10582.01
903.787	10542.24
904.101	10474.22
904.415	10517.83
904.729	10544.27
905.042	10370.04
905.356	10362.13
905.67	10358.96
905.984	10321.68
906.297	10303.37
906.611	10279.42
906.924	10306.08
907.237	10230.61
907.551	10204.62
907.864	10177.5
908.177	10118.29
908.491	10248.23
908.804	10078.07
909.117	9957.85
909.43	10001.01
909.743	9886.21
910.056	9913.1
910.368	9845.98
910.681	9832.88
910.994	9871.97
911.307	9793.1
911.619	9796.04
911.932	9824.52
912.244	9666.78
912.557	9711.3
912.869	9543.17
913.181	9595.6
913.494	9586.56
913.806	9486.9
914.118	9432.44
914.43	9420.91
914.742	9392.44
915.054	9312.89
915.366	9302.04
915.678	9274.7
915.99	9250.75
916.302	9139.56
916.613	9136.62
916.925	9128.71
917.236	8982.73
917.548	8933.92
917.859	9006.23
918.171	8987.7
918.482	8835.16
918.794	8802.4
919.105	8775.05
919.416	8705
919.727	8635.85
920.038	8691.89
920.349	8560.59
920.66	8500.71
920.971	8519.01
921.282	8467.72
921.593	8424.1
921.903	8421.61
922.214	8284.9
922.525	8335.29
922.835	8297.78
923.146	8211.45
923.456	8139.59
923.767	8141.17
924.077	8122.19
924.387	8144.56
924.697	8058.01
925.008	8028.18
925.318	7918.58
925.628	7964.9
925.938	7895.07
926.248	7802.2
926.558	7832.7
926.867	7794.51
927.177	7747.73
927.487	7766.04
927.796	7701.18
928.106	7721.07
928.416	7682.2
928.725	7659.6
929.034	7655.53
929.344	7643.78
929.653	7542.32
929.962	7537.12
930.271	7502.54
930.581	7463.9
930.89	7528.08
931.199	7437.01
931.508	7370.12
931.817	7404.01
932.125	7341.19
932.434	7368.76
932.743	7289.44
933.051	7288.09
933.36	7275.43
933.669	7190.01
933.977	7159.73
934.286	7179.61
934.594	7166.96
934.902	7119.28
935.21	7009.67
935.519	7062.33
935.827	7055.55
936.135	7030.24
936.443	6988.43
936.751	6980.52
937.059	6958.15
937.367	6916.57
937.674	6884.71
937.982	6853.97
938.29	6822.56
938.597	6844.26
938.905	6773.52
939.213	6633.87
939.52	6639.97
939.827	6664.37
940.135	6636.8
940.442	6557.48
940.749	6532.62
941.056	6479.74
941.363	6405.62
941.67	6438.39
941.977	6323.82
942.284	6339.41
942.591	6332.86
942.898	6331.27
943.205	6258.96
943.511	6242.91
943.818	6174.44
944.125	6094.67
944.431	6117.72
944.738	6103.48
945.044	6096.48
945.35	6070.49
945.657	6010.6
945.963	5995.01
946.269	5961.34
946.575	5959.31
946.881	5945.75
947.187	5903.26
947.493	5872.98
947.799	5853.09
948.105	5867.33
948.41	5797.05
948.716	5754.34
949.022	5739.65
949.327	5734.68
949.633	5674.57
949.938	5629.6
950.244	5668.01
950.549	5618.75
950.854	5594.12
951.16	5560.9
951.465	5568.58
951.77	5545.08
952.075	5529.04
952.38	5488.81
952.685	5446.33
952.99	5394.8
953.294	5440.9
953.599	5444.29
953.904	5389.38
954.209	5351.19
954.513	5371.53
954.818	5373.11
955.122	5287.01
955.426	5314.8
955.731	5245.65
956.035	5220.57
956.339	5228.03
956.643	5247.01
956.948	5172.89
957.252	5165.66
957.556	5191.87
957.86	5119.78
958.163	5138.76
958.467	5144.86
958.771	5129.5
959.075	5110.52
959.378	5084.3
959.682	5070.97
959.985	5004.53
960.289	4967.69
960.592	4971.54
960.896	4939.67
961.199	4914.14
961.502	4966.11
961.805	4901.48
962.108	4815.83
962.411	4818.77
962.714	4835.04
963.017	4815.16
963.32	4782.61
963.623	4747.14
963.926	4716.63
964.228	4719.79
964.531	4705.1
964.833	4639.57
965.136	4628.49
965.438	4601.15
965.741	4605.67
966.043	4563.41
966.345	4497.2
966.648	4559.57
966.95	4496.97
967.252	4463.98
967.554	4447.03
967.856	4427.14
968.158	4351.89
968.46	4390.99
968.761	4355.73
969.063	4355.96
969.365	4301.27
969.666	4323.19
969.968	4263.76
970.269	4268.5
970.571	4239.35
970.872	4229.41
971.174	4191.44
971.475	4177.21
971.776	4177.88
972.077	4132.24
972.378	4127.26
972.679	4132.24
972.98	4093.37
973.281	4043.2
973.582	4037.78
973.883	4014.95
974.183	4012.92
974.484	3936.76
974.785	3988.51
975.085	3971.34
975.386	3960.04
975.686	3915.74
975.986	3897.89
976.287	3906.25
976.587	3822.19
976.887	3845.46
977.187	3809.76
977.487	3852.92
977.787	3799.36
978.087	3790.78
978.387	3770.66
978.687	3775.18
978.987	3756.43
979.286	3757.56
979.586	3701.96
979.885	3720.5
980.185	3694.28
980.484	3648.41
980.784	3658.58
981.083	3625.81
981.382	3612.25
981.682	3620.16
981.981	3662.87
982.28	3551.01
982.579	3576.09
982.878	3593.95
983.177	3546.49
983.475	3549.2
983.774	3548.97
984.073	3529.31
984.372	3466.49
984.67	3478.69
984.969	3446.15
985.267	3473.5
985.566	3443.89
985.864	3438.47
986.162	3419.03
986.461	3404.8
986.759	3358.47
987.057	3347.4
987.355	3342.65
987.653	3381.75
987.951	3344.46
988.249	3334.52
988.547	3324.57
988.844	3295.42
989.142	3282.31
989.44	3231.69
989.737	3241.41
990.035	3180.17
990.332	3208.19
990.63	3163.67
990.927	3160.96
991.224	3128.19
991.521	3133.84
991.819	3086.61
992.116	3105.37
992.413	3123
992.71	3074.41
993.006	3018.82
993.303	2994.19
993.6	2991.7
993.897	3004.36
994.193	2997.12
994.49	2957.8
994.787	2976.56
995.083	2951.93
995.379	2928.43
995.676	2915.32
995.972	2875.09
996.268	2851.59
996.565	2858.6
996.861	2848.65
997.157	2822.89
997.453	2798.26
997.749	2787.64
998.044	2734.76
998.34	2775.21
998.636	2720.97
998.932	2716.23
999.227	2678.26
999.523	2730.92
999.818	2680.52
1000.114	2657.02
1000.409	2671.94
1000.704	2633.74
1001	2648.43
1001.295	2617.47
1001.59	2633.07
1001.885	2592.39
1002.18	2604.82
1002.475	2551.26
1002.77	2545.84
1003.065	2556.46
1003.359	2504.48
1003.654	2504.93
1003.949	2489.12
1004.243	2454.99
1004.538	2469
1004.832	2463.58
1005.127	2434.43
1005.421	2419.29
1005.715	2377.48
1006.009	2398.04
1006.304	2380.42
1006.598	2375.9
1006.892	2371.6
1007.186	2338.16
1007.48	2291.83
1007.773	2319.18
1008.067	2309.69
1008.361	2276.47
1008.655	2281.89
1008.948	2282.79
1009.242	2285.96
1009.535	2268.78
1009.829	2261.78
1010.122	2236.01
1010.415	2236.69
1010.708	2206.64
1011.001	2192.17
1011.295	2169.12
1011.588	2141.1
1011.881	2167.54
1012.173	2166.41
1012.466	2146.98
1012.759	2113.76
1013.052	2123.93
1013.344	2083.25
1013.637	2094.1
1013.93	2085.74
1014.222	2050.48
1014.514	2059.97
1014.807	2072.63
1015.099	2032.63
1015.391	2017.26
1015.683	2012.97
1015.976	1979.07
1016.268	1977.04
1016.56	1966.64
1016.851	1945.17
1017.143	1942.46
1017.435	1940.2
1017.727	1930.94
1018.018	1888.68
1018.31	1917.83
1018.602	1871.5
1018.893	1862.47
1019.185	1848
1019.476	1869.24
1019.767	1844.84
1020.058	1815.69
1020.35	1808.91
1020.641	1778.17
1020.932	1789.47
1021.223	1779.3
1021.514	1761.45
1021.804	1764.16
1022.095	1759.42
1022.386	1702.24
1022.677	1733.2
1022.967	1714.9
1023.258	1706.09
1023.548	1724.39
1023.839	1662.92
1024.129	1664.73
1024.419	1680.32
1024.709	1622.7
1025	1590.61
1025.29	1608.01
1025.58	1586.09
1025.87	1568.24
1026.16	1555.13
1026.449	1582.92
1026.739	1535.47
1027.029	1559.42
1027.319	1529.37
1027.608	1525.98
1027.898	1508.12
1028.187	1500.89
1028.477	1508.58
1028.766	1511.74
1029.055	1478.97
1029.344	1470.39
1029.634	1436.04
1029.923	1425.64
1030.212	1437.62
1030.501	1398.97
1030.79	1410.27
1031.078	1375.25
1031.367	1352.65
1031.656	1391.97
1031.945	1379.31
1032.233	1380.9
1032.522	1357.62
1032.81	1325.08
1033.099	1341.57
1033.387	1333.89
1033.675	1299.09
1033.963	1288.02
1034.251	1300.9
1034.54	1301.58
1034.828	1306.32
1035.116	1274.01
1035.403	1265.19
1035.691	1243.95
1035.979	1234.91
1036.267	1221.58
1036.554	1223.61
1036.842	1253.22
1037.129	1217.06
1037.417	1205.76
1037.704	1225.42
1037.992	1199.21
1038.279	1176.38
1038.566	1191.97
1038.853	1191.97
1039.14	1191.97
