Data from blue_chair_FLMS001491_00059.txt Node
Date: Wed Feb 08 10:31:19 GMT 2017
User: dcchb
Spectrometer: FLMS00149
Trigger mode: 0
Integration Time (sec): 2.000000E-2
Scans to average: 10
Electric dark correction enabled: true
Nonlinearity correction enabled: false
Boxcar width: 0
XAxis mode: Wavelengths
Number of Pixels in Spectrum: 2048
>>>>>Begin Spectral Data<<<<<
341.393	-6.69
341.776	-6.69
342.16	-6.69
342.543	-64.09
342.927	-66.13
343.31	-70.2
343.693	-76.75
344.077	-57.99
344.46	-51.21
344.843	-46.47
345.226	-40.37
345.61	-36.98
345.993	-20.93
346.376	-20.93
346.759	-1.05
347.142	12.97
347.525	54.32
347.908	62.68
348.291	73.08
348.674	107.88
349.057	111.95
349.44	116.92
349.823	145.17
350.206	188.55
350.588	189.46
350.971	197.37
351.354	196.69
351.737	221.32
352.119	231.27
352.502	250.7
352.884	244.37
353.267	267.87
353.65	265.61
354.032	277.14
354.414	287.53
354.797	286.86
355.179	296.57
355.562	297.25
355.944	308.33
356.326	309
356.709	332.51
357.091	313.3
357.473	325.73
357.855	321.21
358.238	324.14
358.62	326.86
359.002	317.36
359.384	306.97
359.766	309.46
360.148	307.42
360.53	332.05
360.912	304.26
361.294	313.97
361.676	320.3
362.057	308.1
362.439	312.84
362.821	302.9
363.203	287.76
363.584	300.87
363.966	310.13
364.348	280.76
364.729	297.93
365.111	279.63
365.493	306.29
365.874	297.7
366.256	267.87
366.637	280.53
367.019	292.51
367.4	295.67
367.781	283.24
368.163	287.53
368.544	287.31
368.925	274.88
369.306	280.3
369.688	295.22
370.069	294.09
370.45	297.48
370.831	264.94
371.212	280.76
371.593	276.91
371.974	277.59
372.355	282.34
372.736	275.78
373.117	283.92
373.498	280.76
373.879	263.58
374.26	268.1
374.641	281.89
375.021	287.76
375.402	284.37
375.783	300.19
376.163	281.89
376.544	280.98
376.925	277.14
377.305	278.95
377.686	280.53
378.066	279.85
378.447	310.13
378.827	305.39
379.208	289.12
379.588	286.63
379.968	290.25
380.349	274.2
380.729	285.27
381.109	273.07
381.489	281.43
381.87	306.07
382.25	282.79
382.63	291.83
383.01	297.48
383.39	320.53
383.77	299.06
384.15	282.56
384.53	319.4
384.91	306.07
385.29	298.16
385.67	289.79
386.049	318.95
386.429	313.97
386.809	309
387.189	300.42
387.568	311.04
387.948	307.65
388.328	328.66
388.707	322.11
389.087	292.73
389.466	300.42
389.846	292.28
390.225	297.25
390.605	321.43
390.984	327.99
391.363	297.7
391.743	299.29
392.122	322.11
392.501	306.29
392.881	317.36
393.26	317.82
393.639	298.83
394.018	328.66
394.397	341.32
394.776	316.69
395.155	315.56
395.534	322.56
395.913	325.05
396.292	345.16
396.671	325.95
397.05	316.91
397.429	327.99
397.808	320.08
398.186	336.12
398.565	338.83
398.944	333.18
399.323	337.93
399.701	327.08
400.08	347.87
400.458	353.75
400.837	339.28
401.215	346.06
401.594	347.19
401.972	353.97
402.351	325.27
402.729	352.39
403.107	349.91
403.486	350.13
403.864	348.55
404.242	344.93
404.62	343.13
404.999	353.97
405.377	362.79
405.755	359.17
406.133	361.88
406.511	364.82
406.889	399.4
407.267	372.28
407.645	360.08
408.023	358.72
408.401	372.05
408.779	393.07
409.156	389
409.534	384.03
409.912	392.84
410.29	381.54
410.667	371.37
411.045	405.05
411.422	381.77
411.8	398.49
412.178	407.76
412.555	396.23
412.933	401.43
413.31	411.6
413.687	407.31
414.065	394.65
414.442	426.74
414.819	416.8
415.197	403.46
415.574	407.53
415.951	441.2
416.328	421.09
416.705	427.64
417.082	440.98
417.46	413.41
417.837	420.41
418.214	424.48
418.591	432.62
418.967	431.03
419.344	428.77
419.721	431.26
420.098	451.37
420.475	439.62
420.852	466.74
421.228	452.95
421.605	439.85
421.982	457.47
422.358	464.93
422.735	471.48
423.111	469
423.488	462.45
423.864	504.03
424.241	462.22
424.617	476.23
424.994	498.15
425.37	494.99
425.746	484.82
426.123	497.02
426.499	505.38
426.875	490.02
427.251	509.9
427.627	499.96
428.003	514.2
428.379	527.3
428.756	528.66
429.132	545.16
429.507	524.82
429.883	548.77
430.259	527.08
430.635	534.31
431.011	561.2
431.387	537.92
431.763	546.96
432.138	558.94
432.514	566.17
432.89	569.11
433.265	583.8
433.641	576.79
434.016	578.83
434.392	593.97
434.767	566.62
435.143	612.05
435.518	637.36
435.894	622.67
436.269	613.4
436.644	655.43
437.02	657.69
437.395	629.22
437.77	647.75
438.145	680.74
438.52	681.87
438.895	693.17
439.271	685.72
439.646	690.46
440.021	690.01
440.395	717.58
440.77	705.15
441.145	704.02
441.52	728.88
441.895	748.99
442.27	725.49
442.645	765.26
443.019	759.84
443.394	752.16
443.769	762.32
444.143	756.45
444.518	770.91
444.892	782.66
445.267	790.12
445.641	793.96
446.016	793.06
446.39	803.45
446.764	798.71
447.139	812.72
447.513	799.84
447.887	816.56
448.262	816.11
448.636	814.98
449.01	816.79
449.384	834.64
449.758	823.34
450.132	848.65
450.506	846.62
450.88	852.94
451.254	868.08
451.628	857.24
452.002	868.76
452.376	889.1
452.75	902.21
453.123	889.33
453.497	915.77
453.871	911.93
454.244	935.88
454.618	915.77
454.992	919.83
455.365	942.88
455.739	926.39
456.112	946.05
456.486	962.32
456.859	955.09
457.232	964.13
457.606	996.89
457.979	995.76
458.352	1001.64
458.725	1015.65
459.099	1012.49
459.472	1009.55
459.845	1051.81
460.218	1017.69
460.591	1066.72
460.964	1043.22
461.337	1065.37
461.71	1066.05
462.083	1082.09
462.456	1093.16
462.829	1103.11
463.201	1116.89
463.574	1129.09
463.947	1128.19
464.32	1120.28
464.692	1126.16
465.065	1154.4
465.438	1148.76
465.81	1152.6
466.183	1179.94
466.555	1188.98
466.928	1196.44
467.3	1206.61
467.672	1185.14
468.045	1229.66
468.417	1211.35
468.789	1210.9
469.161	1232.37
469.534	1278.24
469.906	1252.93
470.278	1268.53
470.65	1292.71
471.022	1299.26
471.394	1328.64
471.766	1332.03
472.138	1336.55
472.51	1338.81
472.882	1370.44
473.253	1358.02
473.625	1386.04
473.997	1387.17
474.369	1390.33
474.74	1403.66
475.112	1438.47
475.484	1432.59
475.855	1469.88
476.227	1486.15
476.598	1460.39
476.97	1484.11
477.341	1519.82
477.713	1531.57
478.084	1540.61
478.455	1538.8
478.827	1559.59
479.198	1557.11
479.569	1604.34
479.94	1578.12
480.311	1607.73
480.682	1619.03
481.053	1659.02
481.424	1688.63
481.795	1687.72
482.166	1694.28
482.537	1719.36
482.908	1732.24
483.279	1726.14
483.65	1750.55
484.021	1794.39
484.391	1794.84
484.762	1763.2
485.133	1741.51
485.503	1784.44
485.874	1835.52
486.244	1801.85
486.615	1876.87
486.985	1813.6
487.356	1854.5
487.726	1851.11
488.097	1904.89
488.467	1870.09
488.837	1921.84
489.207	1914.84
489.578	1956.87
489.948	1948.28
490.318	1949.64
490.688	1966.36
491.058	1954.38
491.428	1949.41
491.798	1948.28
492.168	1966.59
492.538	1987.15
492.908	2014.72
493.278	1997.09
493.648	1979.02
494.017	2005.23
494.387	2028.05
494.757	2032.12
495.126	2028.05
495.496	2014.95
495.866	2022.86
496.235	2040.03
496.605	2038.45
496.974	2023.99
497.344	2020.6
497.713	2030.54
498.082	2007.26
498.452	2012.46
498.821	2041.39
499.19	2015.4
499.559	2021.73
499.928	2015.62
500.298	2060.37
500.667	2052.46
501.036	2023.31
501.405	2031.67
501.774	2002.52
502.143	2047.71
502.512	2033.48
502.88	2018.11
503.249	2024.89
503.618	2009.3
503.987	2049.3
504.356	2039.35
504.724	2028.73
505.093	2024.89
505.462	2010.65
505.83	1997.32
506.199	2027.38
506.567	1986.7
506.936	1996.19
507.304	2002.52
507.672	2003.65
508.041	1993.48
508.409	2020.37
508.777	1995.29
509.145	2023.31
509.514	1995.51
509.882	1963.87
510.25	1959.58
510.618	1977.21
510.986	1982.41
511.354	1968.39
511.722	1990.54
512.09	1955.06
512.458	1948.28
512.826	1965.46
513.193	1958.23
513.561	1956.19
513.929	1958.45
514.297	1934.5
514.664	1941.95
515.032	1911.45
515.4	1950.99
515.767	1915.97
516.135	1934.27
516.502	1939.47
516.869	1894.72
517.237	1892.24
517.604	1899.02
517.972	1888.4
518.339	1887.72
518.706	1889.3
519.073	1852.47
519.44	1852.69
519.808	1871.22
520.175	1863.54
520.542	1859.47
520.909	1846.82
521.276	1844.78
521.643	1861.28
522.009	1825.12
522.376	1845.46
522.743	1851.79
523.11	1842.07
523.477	1852.69
523.843	1840.49
524.21	1837.32
524.577	1837.32
524.943	1831.22
525.31	1828.96
525.676	1833.26
526.043	1843.88
526.409	1809.98
526.776	1817.44
527.142	1795.29
527.508	1805.69
527.874	1795.07
528.241	1778.12
528.607	1805.01
528.973	1771.11
529.339	1756.87
529.705	1795.52
530.071	1759.81
530.437	1786.25
530.803	1767.04
531.169	1772.69
531.535	1758.91
531.901	1752.13
532.267	1743.77
532.632	1737.21
532.998	1731.56
533.364	1734.73
533.73	1705.12
534.095	1746.71
534.461	1717.78
534.826	1722.75
535.192	1746.93
535.557	1741.06
535.923	1715.29
536.288	1719.59
536.653	1711.68
537.019	1712.36
537.384	1700.61
537.749	1701.51
538.114	1680.72
538.479	1701.06
538.845	1671.23
539.21	1625.8
539.575	1662.87
539.94	1638.69
540.305	1632.81
540.67	1629.19
541.034	1622.19
541.399	1616.99
541.764	1630.55
542.129	1623.54
542.494	1613.15
542.858	1603.88
543.223	1623.54
543.587	1591
543.952	1607.27
544.316	1593.72
544.681	1584.9
545.045	1561.17
545.41	1594.85
545.774	1585.13
546.138	1564.56
546.503	1574.96
546.867	1531.12
547.231	1552.59
547.595	1541.29
547.959	1553.26
548.324	1529.99
548.688	1517.78
549.052	1524.11
549.416	1512.59
549.779	1513.94
550.143	1492.7
550.507	1505.58
550.871	1478.69
551.235	1484.11
551.599	1481.85
551.962	1486.15
552.326	1484.57
552.689	1505.13
553.053	1479.14
553.417	1447.73
553.78	1489.76
554.143	1464
554.507	1480.5
554.87	1462.19
555.234	1478.01
555.597	1478.46
555.96	1487.73
556.323	1447.96
556.686	1442.53
557.05	1449.99
557.413	1438.69
557.776	1445.47
558.139	1451.35
558.502	1439.59
558.865	1427.62
559.228	1429.88
559.59	1449.99
559.953	1428.3
560.316	1435.3
560.679	1435.98
561.041	1438.69
561.404	1437.79
561.767	1427.17
562.129	1402.99
562.492	1416.09
562.854	1410.44
563.217	1432.59
563.579	1426.04
563.941	1412.93
564.304	1441.85
564.666	1396.66
565.028	1436.43
565.39	1412.03
565.753	1446.83
566.115	1410.9
566.477	1433.04
566.839	1412.93
567.201	1418.35
567.563	1429.88
567.925	1456.32
568.287	1434.4
568.648	1452.93
569.01	1478.24
569.372	1470.78
569.734	1438.69
570.095	1461.97
570.457	1457.9
570.819	1444.79
571.18	1434.17
571.542	1428.97
571.903	1472.14
572.265	1464
572.626	1455.64
572.987	1437.11
573.349	1462.42
573.71	1491.34
574.071	1472.14
574.432	1502.87
574.794	1489.54
575.155	1493.83
575.516	1488.63
575.877	1462.87
576.238	1478.92
576.599	1480.95
576.96	1519.14
577.32	1498.35
577.681	1484.34
578.042	1509.88
578.403	1514.17
578.763	1515.07
579.124	1533.15
579.485	1527.5
579.845	1515.07
580.206	1516.2
580.566	1506.71
580.927	1512.36
581.287	1480.27
581.648	1532.02
582.008	1515.53
582.368	1513.72
582.728	1558.69
583.089	1512.14
583.449	1514.62
583.809	1503.55
584.169	1519.82
584.529	1522.53
584.889	1550.33
585.249	1541.51
585.609	1518.24
585.969	1529.08
586.329	1533.83
586.688	1531.57
587.048	1527.73
587.408	1541.29
587.768	1534.73
588.127	1514.62
588.487	1509.88
588.846	1527.5
589.206	1520.95
589.565	1524.79
589.925	1507.62
590.284	1518.91
590.643	1528.86
591.003	1516.88
591.362	1501.29
591.721	1516.2
592.08	1496.32
592.44	1511.46
592.799	1509.2
593.158	1547.39
593.517	1520.95
593.876	1537.9
594.235	1504.45
594.593	1532.25
594.952	1524.34
595.311	1514.62
595.67	1513.04
596.029	1532.47
596.387	1531.34
596.746	1509.88
597.104	1521.17
597.463	1518.91
597.822	1483.66
598.18	1549.42
598.538	1509.88
598.897	1489.76
599.255	1539.71
599.613	1493.15
599.972	1523.66
600.33	1509.65
600.688	1532.7
601.046	1519.82
601.404	1542.42
601.762	1526.82
602.12	1510.78
602.478	1488.63
602.836	1505.36
603.194	1493.38
603.552	1509.2
603.91	1503.1
604.268	1531.57
604.625	1493.15
604.983	1503.55
605.341	1515.98
605.698	1513.49
606.056	1542.19
606.413	1533.38
606.771	1531.8
607.128	1519.59
607.485	1509.88
607.843	1521.63
608.2	1511.46
608.557	1520.5
608.914	1515.53
609.272	1520.95
609.629	1522.98
609.986	1549.2
610.343	1513.49
610.7	1556.2
611.057	1524.56
611.414	1540.84
611.771	1542.87
612.127	1521.85
612.484	1507.39
612.841	1551.46
613.198	1536.32
613.554	1564.11
613.911	1573.83
614.267	1531.34
614.624	1525.92
614.98	1540.61
615.337	1543.77
615.693	1568.41
616.05	1527.95
616.406	1551.68
616.762	1553.04
617.118	1557.78
617.475	1570.21
617.831	1547.16
618.187	1582.42
618.543	1560.27
618.899	1556.2
619.255	1557.11
619.611	1556.2
619.967	1529.76
620.323	1548.29
620.678	1555.98
621.034	1547.84
621.39	1553.49
621.746	1558.91
622.101	1574.05
622.457	1559.82
622.812	1559.82
623.168	1573.83
623.523	1587.61
623.879	1594.85
624.234	1561.17
624.589	1579.93
624.945	1571.34
625.3	1596.2
625.655	1588.52
626.01	1557.56
626.365	1588.07
626.72	1566.82
627.075	1554.62
627.43	1546.94
627.785	1563.43
628.14	1592.81
628.495	1584.68
628.85	1577.22
629.205	1557.11
629.559	1570.66
629.914	1564.56
630.269	1580.38
630.623	1565.47
630.978	1549.42
631.332	1578.8
631.687	1575.18
632.041	1541.97
632.396	1554.62
632.75	1593.49
633.104	1553.04
633.459	1579.93
633.813	1549.87
634.167	1548.29
634.521	1606.6
634.875	1581.96
635.229	1566.82
635.583	1586.48
635.937	1577.44
636.291	1566.15
636.645	1563.43
636.999	1568.18
637.352	1540.16
637.706	1584.45
638.06	1553.94
638.413	1559.37
638.767	1553.49
639.121	1559.37
639.474	1555.75
639.828	1563.89
640.181	1566.15
640.534	1540.38
640.888	1532.7
641.241	1598.91
641.594	1569.31
641.947	1545.35
642.301	1541.06
642.654	1549.2
643.007	1584.45
643.36	1569.76
643.713	1551.46
644.066	1558.01
644.419	1578.12
644.771	1569.76
645.124	1546.71
645.477	1533.15
645.83	1511.91
646.182	1556.2
646.535	1528.18
646.888	1560.95
647.24	1553.72
647.593	1538.35
647.945	1530.67
648.298	1516.2
648.65	1564.56
649.002	1548.97
649.355	1538.8
649.707	1539.71
650.059	1550.55
650.411	1560.72
650.763	1554.85
651.115	1590.55
651.467	1586.71
651.819	1577.44
652.171	1598.23
652.523	1571.12
652.875	1616.54
653.227	1596.43
653.578	1572.7
653.93	1606.14
654.282	1595.75
654.633	1571.57
654.985	1586.48
655.337	1611.34
655.688	1593.04
656.039	1584.45
656.391	1565.92
656.742	1584.22
657.094	1598.46
657.445	1584.9
657.796	1577.44
658.147	1578.35
658.498	1594.62
658.849	1582.42
659.2	1562.98
659.551	1567.73
659.902	1557.33
660.253	1591.46
660.604	1598.23
660.955	1604.79
661.306	1583.77
661.656	1584
662.007	1620.38
662.358	1591.46
662.708	1598.23
663.059	1612.7
663.409	1620.38
663.76	1602.3
664.11	1580.61
664.461	1632.58
664.811	1593.49
665.161	1577.67
665.511	1604.79
665.862	1571.57
666.212	1614.05
666.562	1627.39
666.912	1590.78
667.262	1590.1
667.612	1586.48
667.962	1592.13
668.312	1570.66
668.662	1590.78
669.011	1592.13
669.361	1592.81
669.711	1586.48
670.06	1602.53
670.41	1587.84
670.76	1565.92
671.109	1584.9
671.459	1559.14
671.808	1572.7
672.157	1582.64
672.507	1572.02
672.856	1564.34
673.205	1590.1
673.554	1552.13
673.904	1550.33
674.253	1565.92
674.602	1571.12
674.951	1543.77
675.3	1520.5
675.649	1560.04
675.998	1582.19
676.346	1579.25
676.695	1570.89
677.044	1561.85
677.393	1541.29
677.741	1546.48
678.09	1544.68
678.438	1518.24
678.787	1528.86
679.135	1563.43
679.484	1552.81
679.832	1545.13
680.181	1518.24
680.529	1543.1
680.877	1518.24
681.225	1514.85
681.573	1514.4
681.922	1498.35
682.27	1509.88
682.618	1531.8
682.966	1511.91
683.314	1522.3
683.661	1505.36
684.009	1520.72
684.357	1482.31
684.705	1508.52
685.053	1507.16
685.4	1480.95
685.748	1476.43
686.095	1491.34
686.443	1480.05
686.79	1469.88
687.138	1488.86
687.485	1469.65
687.832	1504.45
688.18	1478.01
688.527	1494.73
688.874	1470.33
689.221	1478.01
689.568	1507.16
689.915	1448.41
690.262	1479.37
690.609	1437.56
690.956	1483.44
691.303	1472.59
691.65	1463.55
691.997	1459.48
692.344	1454.74
692.69	1464.68
693.037	1475.53
693.383	1424
693.73	1439.37
694.077	1423.1
694.423	1405.7
694.769	1413.83
695.116	1412.25
695.462	1429.2
695.808	1402.31
696.155	1432.82
696.501	1409.77
696.847	1396.43
697.193	1385.36
697.539	1384.46
697.885	1388.75
698.231	1375.64
698.577	1359.6
698.923	1377
699.269	1358.69
699.614	1363.44
699.96	1399.82
700.306	1364.57
700.651	1388.97
700.997	1370.22
701.342	1382.87
701.688	1396.43
702.033	1360.05
702.379	1369.09
702.724	1377.9
703.069	1382.42
703.415	1360.05
703.76	1381.74
704.105	1382.42
704.45	1339.94
704.795	1330.9
705.14	1366.15
705.485	1362.08
705.83	1328.41
706.175	1336.32
706.52	1345.36
706.865	1319.82
707.209	1361.86
707.554	1369.54
707.899	1367.05
708.243	1343.33
708.588	1367.28
708.932	1347.85
709.277	1352.82
709.621	1339.71
709.966	1377.22
710.31	1356.21
710.654	1317.56
710.998	1353.04
711.342	1338.35
711.687	1371.57
712.031	1351.91
712.375	1362.76
712.719	1362.53
713.063	1363.89
713.407	1352.82
713.75	1354.4
714.094	1359.37
714.438	1367.96
714.782	1393.04
715.125	1368.18
715.469	1384.46
715.812	1378.81
716.156	1391.01
716.499	1350.56
716.843	1383.78
717.186	1389.65
717.53	1366.6
717.873	1372.7
718.216	1409.54
718.559	1436.43
718.902	1384
719.246	1379.03
719.589	1440.5
719.932	1415.41
720.275	1401.4
720.617	1430.56
720.96	1429.88
721.303	1447.96
721.646	1425.36
721.989	1422.42
722.331	1419.26
722.674	1440.95
723.016	1431.46
723.359	1446.83
723.701	1452.25
724.044	1447.5
724.386	1450.67
724.729	1464.23
725.071	1428.3
725.413	1464
725.755	1476.88
726.097	1472.14
726.439	1470.1
726.782	1474.4
727.124	1498.12
727.465	1496.54
727.807	1503.32
728.149	1506.71
728.491	1499.03
728.833	1492.7
729.175	1506.03
729.516	1517.78
729.858	1544.9
730.199	1558.01
730.541	1539.25
730.882	1521.17
731.224	1543.32
731.565	1568.41
731.906	1542.64
732.248	1572.02
732.589	1592.36
732.93	1554.85
733.271	1600.72
733.612	1618.8
733.953	1579.25
734.294	1637.1
734.635	1661.96
734.976	1647.5
735.317	1634.17
735.658	1638.23
735.999	1631.23
736.339	1680.94
736.68	1680.04
737.021	1667.39
737.361	1723.43
737.702	1720.49
738.042	1720.27
738.383	1727.04
738.723	1721.62
739.063	1749.19
739.404	1761.85
739.744	1761.39
740.084	1785.12
740.424	1790.09
740.764	1802.98
741.104	1844.56
741.444	1852.01
741.784	1870.32
742.124	1892.92
742.464	1886.81
742.804	1925.91
743.143	1909.19
743.483	1926.59
743.823	1983.76
744.162	1995.96
744.502	2045.45
744.841	2058.56
745.181	2085.45
745.52	2072.57
745.86	2104.66
746.199	2160.93
746.538	2168.84
746.877	2217.65
747.216	2258.33
747.556	2292.91
747.895	2295.17
748.234	2339.23
748.573	2375.16
748.911	2393.02
749.25	2422.39
749.589	2477.08
749.928	2538.55
750.267	2559.79
750.605	2638.43
750.944	2669.62
751.283	2695.38
751.621	2724.76
751.96	2813.8
752.298	2832.55
752.636	2856.73
752.975	2939.89
753.313	2996.39
753.651	3015.82
753.989	3095.37
754.327	3133.34
754.666	3185.54
755.004	3298.53
755.342	3383.05
755.679	3432.54
756.017	3464.63
756.355	3531.74
756.693	3610.61
757.031	3714.79
757.368	3731.29
757.706	3820.32
758.044	3867.78
758.381	3967.66
758.719	4038.17
759.056	4143.93
759.394	4193.65
759.731	4265.74
760.068	4363.13
760.405	4384.83
760.743	4451.95
761.08	4526.75
761.417	4651.49
761.754	4703.01
762.091	4779.62
762.428	4883.12
762.765	4910.24
763.102	5046.73
763.438	5068.43
763.775	5189.78
764.112	5246.73
764.449	5354.97
764.785	5453.95
765.122	5473.16
765.458	5547.51
765.795	5614.63
766.131	5712.7
766.467	5775.53
766.804	5803.55
767.14	5905.47
767.476	5977.55
767.812	6029.53
768.148	6095.52
768.485	6190.88
768.821	6222.52
769.157	6295.51
769.492	6319.01
769.828	6436.53
770.164	6447.82
770.5	6455.28
770.836	6625.22
771.171	6638.55
771.507	6708.61
771.842	6728.27
772.178	6806.23
772.513	6802.39
772.849	6891.88
773.184	6909.73
773.519	7013.46
773.855	7031.31
774.19	7068.6
774.525	7100.46
774.86	7134.13
775.195	7191.08
775.53	7284.86
775.865	7221.36
776.2	7247.58
776.535	7286.67
776.87	7318.31
777.205	7320.12
777.539	7360.57
777.874	7494.12
778.209	7513.11
778.543	7500.68
778.878	7394.24
779.212	7464.52
779.547	7574.35
779.881	7562.37
780.215	7576.16
780.55	7612.31
780.884	7638.98
781.218	7640.11
781.552	7687.57
781.886	7639.21
782.22	7677.62
782.554	7687.34
782.888	7645.31
783.222	7652.54
783.556	7716.27
783.889	7704.51
784.223	7668.58
784.557	7656.83
784.89	7691.18
785.224	7740.67
785.557	7702.71
785.891	7717.17
786.224	7798.98
786.558	7745.87
786.891	7691.86
787.224	7761.46
787.557	7762.82
787.891	7769.6
788.224	7787
788.557	7786.09
788.89	7773.89
789.223	7800.11
789.556	7798.98
789.888	7813.66
790.221	7786.09
790.554	7758.07
790.887	7789.94
791.219	7788.58
791.552	7794.68
791.884	7805.08
792.217	7744.06
792.549	7791.07
792.882	7726.44
793.214	7693.89
793.546	7756.94
793.879	7693.44
794.211	7731.63
794.543	7725.31
794.875	7720.11
795.207	7785.87
795.539	7721.92
795.871	7799.65
796.203	7705.19
796.535	7631.75
796.867	7693.44
797.198	7657.06
797.53	7660.22
797.862	7638.75
798.193	7703.84
798.525	7608.47
798.856	7601.92
799.188	7534.8
799.519	7597.17
799.85	7588.81
800.182	7535.93
800.513	7590.17
800.844	7548.36
801.175	7479.44
801.506	7594.01
801.837	7521.92
802.168	7528.7
802.499	7474.01
802.83	7504.07
803.161	7464.52
803.491	7419.55
803.822	7469.72
804.153	7392.21
804.483	7399.66
804.814	7383.62
805.145	7361.02
805.475	7385.2
805.805	7377.52
806.136	7393.34
806.466	7389.04
806.796	7347.01
807.126	7320.34
807.457	7344.07
807.787	7306.56
808.117	7325.09
808.447	7272.89
808.777	7347.69
809.107	7203.96
809.436	7243.51
809.766	7249.61
810.096	7241.48
810.426	7182.95
810.755	7218.88
811.085	7208.26
811.414	7235.83
811.744	7113.34
812.073	7129.84
812.403	7212.32
812.732	7148.15
813.061	7124.87
813.39	7067.02
813.719	7096.4
814.049	7054.36
814.378	7099.11
814.707	7039
815.036	7046.68
815.365	7077.41
815.693	6986.57
816.022	6991.31
816.351	6970.07
816.68	6971.43
817.008	6981.37
817.337	6944.31
817.665	7000.35
817.994	6900.92
818.322	6959.45
818.651	6905.44
818.979	6967.13
819.307	6930.07
819.636	6911.77
819.964	6878.32
820.292	6929.39
820.62	6876.29
820.948	6918.32
821.276	6875.16
821.604	6900.02
821.932	6902.73
822.259	6948.38
822.587	6873.35
822.915	6907.7
823.243	6897.08
823.57	6881.26
823.898	6889.85
824.225	6891.88
824.553	6872.9
824.88	6897.76
825.207	6897.76
825.535	6898.89
825.862	6990.41
826.189	6930.52
826.516	7002.16
826.843	6965.55
827.17	6940.47
827.497	6956.74
827.824	6963.97
828.151	7020.01
828.478	6969.62
828.805	6944.53
829.131	6987.02
829.458	6935.27
829.785	6876.06
830.111	6919.45
830.438	6993.35
830.764	6964.87
831.09	6975.72
831.417	6928.72
831.743	7003.29
832.069	6988.83
832.395	6857.98
832.722	6944.99
833.048	6932.11
833.374	6983.4
833.7	6932.78
834.026	6930.75
834.351	6977.75
834.677	6954.48
835.003	6943.18
835.329	6885.55
835.654	6914.71
835.98	6876.97
836.306	6874.71
836.631	6867.02
836.956	6874.93
837.282	6891.2
837.607	6821.15
837.932	6833.8
838.258	6852.79
838.583	6862.05
838.908	6763.97
839.233	6840.81
839.558	6759.68
839.883	6707.48
840.208	6722.17
840.533	6725.78
840.858	6667.25
841.182	6748.16
841.507	6719
841.832	6757.2
842.156	6750.64
842.481	6732.79
842.805	6683.07
843.13	6629.06
843.454	6637.88
843.778	6646.24
844.103	6594.26
844.427	6593.36
844.751	6626.8
845.075	6610.76
845.399	6568.27
845.723	6534.6
846.047	6521.95
846.371	6441.05
846.695	6507.94
847.019	6417.77
847.343	6411.67
847.666	6405.11
847.99	6349.52
848.313	6414.83
848.637	6265.91
848.96	6306.59
849.284	6286.02
849.607	6262.97
849.931	6201.28
850.254	6223.88
850.577	6207.61
850.9	6143.2
851.223	6086.48
851.546	6093.94
851.869	6024.11
852.192	6083.09
852.515	6072.24
852.838	5998.35
853.161	6025.69
853.483	6027.95
853.806	6002.41
854.129	5924.45
854.451	5906.14
854.774	5878.35
855.096	5876.31
855.419	5877.67
855.741	5838.8
856.063	5847.84
856.385	5775.07
856.708	5749.09
857.03	5757.45
857.352	5726.49
857.674	5778.46
857.996	5706.15
858.318	5699.14
858.64	5704.79
858.961	5671.8
859.283	5629.32
859.605	5616.89
859.926	5674.74
860.248	5636.32
860.57	5634.96
860.891	5597.9
861.212	5583.44
861.534	5526.27
861.855	5560.16
862.176	5581.86
862.498	5525.14
862.819	5522.65
863.14	5535.08
863.461	5484.91
863.782	5477.45
864.103	5457.34
864.424	5458.47
864.745	5463.67
865.065	5428.19
865.386	5387.97
865.707	5376.44
866.027	5375.08
866.348	5425.03
866.668	5401.07
866.989	5386.16
867.309	5327.4
867.63	5362.88
867.95	5374.18
868.27	5328.53
868.59	5355.42
868.91	5306.61
869.23	5328.76
869.55	5273.17
869.87	5299.15
870.19	5335.09
870.51	5281.98
870.83	5273.84
871.15	5272.94
871.469	5263.22
871.789	5252.38
872.109	5284.47
872.428	5247.63
872.748	5264.35
873.067	5231.13
873.386	5203.79
873.706	5225.26
874.025	5223
874.344	5205.6
874.663	5107.3
874.982	5146.62
875.301	5206.28
875.62	5150.68
875.939	5164.69
876.258	5158.37
876.577	5090.35
876.896	5131.25
877.214	5090.35
877.533	5100.97
877.852	5108.43
878.17	5065.71
878.489	5078.37
878.807	5055.77
879.125	5066.17
879.444	5066.62
879.762	5026.39
880.08	5059.61
880.398	5007.64
880.716	5031.82
881.034	4980.97
881.352	4950.24
881.67	4949.33
881.988	4970.12
882.306	4924.25
882.624	4940.75
882.941	4902.33
883.259	4892.84
883.577	4854.65
883.894	4912.72
884.212	4902.55
884.529	4841.54
884.846	4858.71
885.164	4842.9
885.481	4837.25
885.798	4882.22
886.115	4829.11
886.432	4792.05
886.75	4843.57
887.067	4743.01
887.383	4747.98
887.7	4727.42
888.017	4753.63
888.334	4701.2
888.651	4701.88
888.967	4706.63
889.284	4691.94
889.6	4667.76
889.917	4627.08
890.233	4648.55
890.55	4587.08
890.866	4641.54
891.182	4595.22
891.498	4609.91
891.815	4549.57
892.131	4571.49
892.447	4562.68
892.763	4523.13
893.079	4548.21
893.395	4514.09
893.71	4471.38
894.026	4442
894.342	4455.11
894.657	4435.9
894.973	4420.76
895.289	4431.61
895.604	4392.74
895.92	4368.11
896.235	4374.66
896.55	4353.87
896.865	4356.35
897.181	4324.26
897.496	4301.89
897.811	4298.05
898.126	4253.31
898.441	4239.52
898.756	4253.98
899.071	4205.17
899.386	4222.35
899.7	4175.34
900.015	4141.44
900.33	4127.89
900.644	4171.27
900.959	4115.91
901.273	4092.18
901.588	4089.47
901.902	4064.38
902.216	4060.32
902.531	4037.49
902.845	4056.93
903.159	4033.2
903.473	3999.3
903.787	3986.19
904.101	3954.33
904.415	3951.39
904.729	3941.45
905.042	3917.5
905.356	3921.56
905.67	3910.49
905.984	3904.16
906.297	3867.78
906.611	3869.59
906.924	3859.64
907.237	3863.26
907.551	3807.22
907.864	3774
908.177	3767.9
908.491	3752.98
908.804	3739.87
909.117	3726.54
909.43	3695.58
909.743	3704.39
910.056	3678.86
910.368	3658.75
910.681	3678.63
910.994	3696.26
911.307	3596.6
911.619	3596.6
911.932	3599.09
912.244	3546.88
912.557	3597.28
912.869	3546.66
913.181	3554.12
913.494	3500.56
913.806	3477.06
914.118	3467.79
914.43	3503.95
914.742	3455.36
915.054	3433.44
915.366	3448.36
915.678	3435.47
915.99	3397.06
916.302	3362.48
916.613	3371.75
916.925	3365.87
917.236	3394.35
917.548	3362.93
917.859	3340.56
918.171	3322.94
918.482	3271.41
918.794	3273.45
919.105	3316.83
919.416	3260.56
919.727	3257.17
920.038	3260.79
920.349	3234.12
920.66	3245.88
920.971	3221.92
921.282	3189.61
921.593	3165.88
921.903	3165.43
922.214	3149.15
922.525	3150.96
922.835	3120.91
923.146	3113.9
923.456	3102.6
923.767	3101.7
924.077	3053.56
924.387	3051.3
924.697	3037.07
925.008	3017.18
925.318	3019.67
925.628	3044.98
925.938	3011.98
926.248	2957.52
926.558	2992.77
926.867	3016.73
927.177	2947.35
927.487	2941.7
927.796	2915.94
928.106	2896.28
928.416	2935.83
928.725	2921.82
929.034	2911.65
929.344	2899.67
929.653	2870.07
929.962	2885.21
930.271	2842.27
930.581	2831.65
930.89	2856.51
931.199	2800.46
931.508	2826.45
931.817	2806.79
932.125	2802.95
932.434	2793.23
932.743	2776.96
933.051	2790.52
933.36	2772.89
933.669	2746.68
933.977	2742.61
934.286	2690.41
934.594	2720.24
934.902	2674.59
935.21	2686.34
935.519	2696.74
935.827	2671.88
936.135	2647.47
936.443	2639.56
936.751	2618.77
937.059	2622.61
937.367	2611.77
937.674	2582.16
937.982	2631.88
938.29	2573.58
938.597	2597.76
938.905	2577.19
939.213	2560.92
939.52	2548.04
939.827	2526.12
940.135	2519.11
940.442	2493.8
940.749	2493.8
941.056	2481.38
941.363	2451.09
941.67	2493.13
941.977	2448.61
942.284	2459.46
942.591	2433.69
942.898	2458.1
943.205	2445.22
943.511	2413.58
943.818	2397.08
944.125	2396.86
944.431	2373.58
944.738	2406.35
945.044	2390.08
945.35	2353.47
945.657	2336.52
945.963	2303.53
946.269	2346.01
946.575	2345.56
946.881	2289.29
947.187	2300.82
947.493	2297.43
947.799	2291.55
948.105	2278.89
948.41	2284.77
948.716	2304.66
949.022	2258.56
949.327	2250.87
949.633	2218.56
949.938	2224.66
950.244	2218.78
950.549	2180.14
950.854	2204.55
951.16	2177.2
951.465	2143.76
951.77	2179.24
952.075	2136.98
952.38	2133.36
952.685	2164.1
952.99	2108.05
953.294	2068.5
953.599	2105.79
953.904	2117.32
954.209	2088.62
954.513	2054.04
954.818	2060.6
955.122	2085.23
955.426	2096.98
955.731	2040.94
956.035	2044.1
956.339	2049.3
956.643	2048.17
956.948	2030.54
957.252	2018.34
957.556	2002.29
957.86	2012.01
958.163	2008.62
958.467	2011.56
958.771	1983.99
959.075	1970.43
959.378	1937.66
959.682	1973.59
959.985	1948.96
960.289	1937.43
960.592	1906.02
960.896	1906.48
961.199	1905.57
961.502	1906.48
961.805	1898.79
962.108	1913.48
962.411	1860.37
962.714	1881.39
963.017	1849.53
963.32	1883.2
963.623	1884.55
963.926	1846.82
964.228	1845.46
964.531	1844.33
964.833	1866.7
965.136	1821.05
965.438	1804.11
965.741	1812.01
966.043	1778.57
966.345	1814.05
966.648	1786.7
966.95	1787.16
967.252	1782.18
967.554	1749.42
967.856	1755.52
968.158	1753.03
968.46	1724.11
968.761	1736.99
969.063	1694.73
969.365	1722.53
969.666	1722.98
969.968	1699.93
970.269	1681.17
970.571	1697.89
970.872	1669.19
971.174	1683.43
971.475	1678.91
971.776	1678.01
972.077	1623.32
972.378	1646.82
972.679	1618.35
972.98	1661.28
973.281	1635.97
973.582	1601.62
973.883	1611.79
974.183	1618.57
974.484	1585.81
974.785	1599.59
975.085	1558.24
975.386	1592.59
975.686	1565.47
975.986	1581.51
976.287	1586.71
976.587	1569.31
976.887	1559.82
977.187	1574.28
977.487	1550.55
977.787	1522.53
978.087	1552.81
978.387	1535.86
978.687	1481.4
978.987	1517.11
979.286	1511.23
979.586	1498.58
979.885	1502.64
980.185	1477.79
980.484	1488.86
980.784	1460.84
981.083	1466.94
981.382	1456.54
981.682	1472.14
981.981	1436.21
982.28	1453.15
982.579	1426.94
982.878	1438.47
983.177	1452.25
983.475	1442.08
983.774	1416.09
984.073	1414.74
984.372	1406.6
984.67	1434.17
984.969	1406.15
985.267	1390.56
985.566	1391.91
985.864	1386.26
986.162	1361.18
986.461	1343.1
986.759	1334.51
987.057	1359.6
987.355	1355.53
987.653	1354.85
987.951	1337.9
988.249	1337.68
988.547	1339.03
988.844	1331.12
989.142	1320.95
989.44	1310.56
989.737	1319.15
990.035	1285.93
990.332	1273.72
990.63	1284.34
990.927	1297.23
991.224	1285.25
991.521	1286.15
991.819	1281.86
992.116	1252.03
992.413	1263.1
992.71	1238.7
993.006	1275.76
993.303	1255.19
993.6	1228.53
993.897	1235.76
994.193	1245.48
994.49	1231.01
994.787	1201.86
995.083	1232.37
995.379	1207.51
995.676	1182.2
995.972	1218.81
996.268	1191.92
996.565	1177
996.861	1176.55
997.157	1177.23
997.453	1194.4
997.749	1190.56
998.044	1155.08
998.34	1174.97
998.636	1168.42
998.932	1152.37
999.227	1115.54
999.523	1154.86
999.818	1150.79
1000.114	1126.38
1000.409	1095.2
1000.704	1124.12
1001	1091.58
1001.295	1130.22
1001.59	1084.12
1001.885	1104.01
1002.18	1087.97
1002.475	1055.65
1002.77	1084.8
1003.065	1078.93
1003.359	1076.21
1003.654	1061.75
1003.949	1038.25
1004.243	1032.15
1004.538	1046.16
1004.832	1045.71
1005.127	1012.26
1005.421	1005.03
1005.715	1028.76
1006.009	1022.2
1006.304	1033.28
1006.598	1024.92
1006.892	1000.06
1007.186	1022.2
1007.48	998.25
1007.773	1015.2
1008.067	977.23
1008.361	1001.19
1008.655	997.57
1008.948	956.67
1009.242	962.32
1009.535	970.68
1009.829	956.9
1010.122	942.66
1010.415	950.79
1010.708	934.75
1011.001	920.74
1011.295	946.05
1011.588	942.66
1011.881	915.54
1012.173	918.93
1012.466	918.7
1012.759	937.91
1013.052	912.6
1013.344	907.86
1013.637	902.21
1013.93	874.41
1014.222	894.52
1014.514	887.29
1014.807	886.39
1015.099	871.7
1015.391	866.5
1015.683	898.82
1015.976	875.54
1016.268	847.97
1016.56	869.67
1016.851	875.32
1017.143	845.03
1017.435	841.19
1017.727	847.97
1018.018	825.83
1018.31	819.95
1018.602	828.76
1018.893	791.7
1019.185	848.42
1019.476	803.91
1019.767	805.26
1020.058	817.01
1020.35	800.52
1020.641	789.67
1020.932	792.61
1021.223	811.81
1021.514	783.34
1021.804	774.08
1022.095	791.02
1022.386	767.07
1022.677	768.2
1022.967	763
1023.258	737.24
1023.548	767.07
1023.839	776.34
1024.129	759.84
1024.419	747.64
1024.709	727.07
1025	744.92
1025.29	728.65
1025.58	737.01
1025.87	703.12
1026.16	722.1
1026.449	746.28
1026.739	719.16
1027.029	697.02
1027.319	731.59
1027.608	707.64
1027.898	682.33
1028.187	683.23
1028.477	711.7
1028.766	709.9
1029.055	704.92
1029.344	699.05
1029.634	682.78
1029.923	660.86
1030.212	692.5
1030.501	668.77
1030.79	678.26
1031.078	681.87
1031.367	628.54
1031.656	667.41
1031.945	656.11
1032.233	653.17
1032.522	650.92
1032.81	646.4
1033.099	655.89
1033.387	646.4
1033.675	647.3
1033.963	632.84
1034.251	651.37
1034.54	630.8
1034.828	621.76
1035.116	606.85
1035.403	620.86
1035.691	630.8
1035.979	619.96
1036.267	622.89
1036.554	618.37
1036.842	583.35
1037.129	619.28
1037.417	614.31
1037.704	626.73
1037.992	596
1038.279	581.54
1038.566	603.91
1038.853	603.91
1039.14	603.91
