Data from blue_chair_FLMS001491_00039.txt Node
Date: Wed Feb 08 10:30:37 GMT 2017
User: dcchb
Spectrometer: FLMS00149
Trigger mode: 0
Integration Time (sec): 2.000000E-2
Scans to average: 10
Electric dark correction enabled: true
Nonlinearity correction enabled: false
Boxcar width: 0
XAxis mode: Wavelengths
Number of Pixels in Spectrum: 2048
>>>>>Begin Spectral Data<<<<<
341.393	-5.69
341.776	-5.69
342.16	-5.69
342.543	-56.76
342.927	-49.53
343.31	-66.71
343.693	-63.09
344.077	-71
344.46	-35.97
344.843	-48.18
345.226	-50.66
345.61	-31
345.993	-21.96
346.376	-22.41
346.759	26.85
347.142	11.71
347.525	43.12
347.908	48.54
348.291	77.47
348.674	107.3
349.057	96
349.44	130.12
349.823	134.19
350.206	163.57
350.588	153.17
350.971	171.93
351.354	213.74
351.737	224.81
352.119	228.43
352.502	250.8
352.884	257.8
353.267	241.08
353.65	267.75
354.032	275.43
354.414	280.4
354.797	283.79
355.179	282.66
355.562	281.53
355.944	284.92
356.326	312.49
356.709	310.91
357.091	309.33
357.473	321.53
357.855	302.32
358.238	313.62
358.62	305.49
359.002	320.63
359.384	307.75
359.766	314.75
360.148	325.37
360.53	311.14
360.912	315.66
361.294	291.25
361.676	290.8
362.057	328.99
362.439	318.82
362.821	333.73
363.203	299.61
363.584	292.15
363.966	295.09
364.348	303.23
364.729	307.07
365.111	281.31
365.493	289.44
365.874	302.1
366.256	290.35
366.637	290.12
367.019	303.23
367.4	288.31
367.781	278.14
368.163	272.94
368.544	285.6
368.925	298.25
369.306	288.54
369.688	280.63
370.069	292.61
370.45	263.45
370.831	274.53
371.212	274.98
371.593	264.13
371.974	285.83
372.355	273.4
372.736	280.85
373.117	280.85
373.498	279.27
373.879	296.9
374.26	280.85
374.641	267.75
375.021	272.04
375.402	277.01
375.783	283.79
376.163	277.46
376.544	289.44
376.925	307.52
377.305	291.93
377.686	287.41
378.066	278.14
378.447	286.05
378.827	295.54
379.208	291.02
379.588	283.57
379.968	325.37
380.349	304.36
380.729	282.44
381.109	306.62
381.489	284.92
381.87	290.8
382.25	305.94
382.63	293.96
383.01	302.77
383.39	304.81
383.77	311.81
384.15	304.13
384.53	321.08
384.91	293.74
385.29	305.94
385.67	293.51
386.049	308.65
386.429	311.14
386.809	281.76
387.189	320.18
387.568	291.02
387.948	293.74
388.328	301.64
388.707	311.81
389.087	291.02
389.466	309.55
389.846	321.53
390.225	312.72
390.605	301.42
390.984	315.2
391.363	329.89
391.743	312.72
392.122	319.05
392.501	320.18
392.881	324.69
393.26	334.64
393.639	313.4
394.018	308.42
394.397	318.82
394.776	320.85
395.155	318.37
395.534	342.1
395.913	330.34
396.292	321.76
396.671	335.09
397.05	307.52
397.429	333.73
397.808	327.63
398.186	329.44
398.565	340.06
398.944	338.25
399.323	322.89
399.701	336.9
400.08	342.77
400.458	334.86
400.837	354.3
401.215	337.12
401.594	352.94
401.972	358.59
402.351	333.28
402.729	340.06
403.107	343.45
403.486	329.21
403.864	334.86
404.242	317.46
404.62	360.63
404.999	371.47
405.377	334.86
405.755	367.86
406.133	368.76
406.511	351.13
406.889	360.4
407.267	357.91
407.645	374.19
408.023	330.12
408.401	346.39
408.779	370.57
409.156	375.99
409.534	356.56
409.912	374.86
410.29	364.24
410.667	366.95
411.045	370.57
411.422	377.35
411.8	376.67
412.178	384.58
412.555	380.96
412.933	378.7
413.31	399.72
413.687	358.82
414.065	393.85
414.442	372.15
414.819	383.9
415.197	371.02
415.574	364.92
415.951	385.71
416.328	364.02
416.705	371.93
417.082	386.16
417.46	403.56
417.837	398.59
418.214	404.01
418.591	401.08
418.967	387.07
419.344	403.11
419.721	402.43
420.098	410.34
420.475	403.79
420.852	406.95
421.228	414.86
421.605	405.82
421.982	421.87
422.358	404.47
422.735	422.77
423.111	409.44
423.488	433.39
423.864	425.03
424.241	424.58
424.617	423.9
424.994	451.92
425.37	423.68
425.746	439.72
426.123	446.27
426.499	419.83
426.875	436.56
427.251	426.16
427.627	435.88
428.003	436.33
428.379	452.83
428.756	463.22
429.132	455.76
429.507	464.8
429.883	460.51
430.259	483.33
430.635	472.04
431.011	457.8
431.387	479.04
431.763	492.37
432.138	504.58
432.514	473.62
432.89	508.19
433.265	496.22
433.641	494.63
434.016	514.52
434.392	502.09
434.767	504.8
435.143	521.75
435.518	521.07
435.894	522.43
436.269	538.7
436.644	530.34
437.02	535.99
437.395	524.46
437.77	556.78
438.145	551.58
438.52	543.45
438.895	557.91
439.271	576.89
439.646	572.15
440.021	561.07
440.395	570.79
440.77	558.81
441.145	566.95
441.52	590.22
441.895	578.47
442.27	586.83
442.645	585.48
443.019	615.08
443.394	575.99
443.769	614.4
444.143	612.14
444.518	628.19
444.892	628.19
445.267	618.47
445.641	634.52
446.016	616.44
446.39	643.1
446.764	635.65
447.139	634.97
447.513	649.66
447.887	672.93
448.262	644.23
448.636	638.58
449.01	626.38
449.384	648.75
449.758	643.33
450.132	668.41
450.506	650.56
450.88	666.15
451.254	657.79
451.628	684.46
452.002	687.17
452.376	682.43
452.75	691.01
453.123	685.14
453.497	703.89
453.871	675.42
454.244	691.24
454.618	724.91
454.992	715.42
455.365	725.14
455.739	739.83
456.112	732.59
456.486	749.77
456.859	748.41
457.232	752.71
457.606	751.35
457.979	742.54
458.352	767.62
458.725	783.89
459.099	757.45
459.472	777.34
459.845	801.52
460.218	806.26
460.591	806.72
460.964	800.39
461.337	812.59
461.71	799.48
462.083	807.17
462.456	835.19
462.829	829.77
463.201	845.59
463.574	815.98
463.947	843.1
464.32	852.59
464.692	863.21
465.065	856.66
465.438	870.9
465.81	876.77
466.183	879.71
466.555	896.43
466.928	891.01
467.3	930.33
467.672	921.06
468.045	929.88
468.417	910.89
468.789	917.67
469.161	943.21
469.534	936.2
469.906	968.29
470.278	969.2
470.65	962.42
471.022	991.8
471.394	1007.61
471.766	1002.87
472.138	994.28
472.51	1025.02
472.882	1066.6
473.253	1036.99
473.625	1041.74
473.997	1060.04
474.369	1079.03
474.74	1055.3
475.112	1077.44
475.484	1091.68
475.855	1099.59
476.227	1125.13
476.598	1141.85
476.97	1147.5
477.341	1155.63
477.713	1166.25
478.084	1154.05
478.455	1190.43
478.827	1186.14
479.198	1222.3
479.569	1217.78
479.94	1231.56
480.311	1238.34
480.682	1259.13
481.053	1257.1
481.424	1273.6
481.795	1285.12
482.166	1313.82
482.537	1334.39
482.908	1305.46
483.279	1325.12
483.65	1338
484.021	1376.42
484.391	1354.95
484.762	1353.37
485.133	1399.92
485.503	1406.47
485.874	1427.94
486.244	1421.39
486.615	1436.53
486.985	1455.96
487.356	1460.03
487.726	1467.94
488.097	1485.57
488.467	1509.52
488.837	1483.31
489.207	1501.84
489.578	1543.65
489.948	1533.02
490.318	1561.95
490.688	1563.76
491.058	1570.31
491.428	1549.52
491.798	1592.01
492.168	1613.25
492.538	1628.16
492.908	1594.27
493.278	1626.36
493.648	1603.76
494.017	1637.2
494.387	1634.26
494.757	1640.59
495.126	1649.41
495.496	1632.91
495.866	1663.19
496.235	1673.13
496.605	1687.6
496.974	1666.13
497.344	1695.96
497.713	1684.89
498.082	1672
498.452	1684.21
498.821	1693.02
499.19	1675.39
499.559	1684.89
499.928	1667.71
500.298	1684.66
500.667	1706.81
501.036	1680.59
501.405	1716.75
501.774	1717.2
502.143	1712.23
502.512	1716.52
502.88	1744.09
503.249	1728.95
503.618	1727.14
503.987	1731.66
504.356	1711.1
504.724	1713.13
505.093	1740.48
505.462	1734.6
505.83	1741.15
506.199	1748.84
506.567	1740.25
506.936	1726.69
507.304	1751.32
507.672	1745
508.041	1742.51
508.409	1732.34
508.777	1739.57
509.145	1753.58
509.514	1733.02
509.882	1738.89
510.25	1708.16
510.618	1721.95
510.986	1726.47
511.354	1788.61
511.722	1764.88
512.09	1773.02
512.458	1735.96
512.826	1762.85
513.193	1734.15
513.561	1756.52
513.929	1757.88
514.297	1775.28
514.664	1754.49
515.032	1745.22
515.4	1776.63
515.767	1735.05
516.135	1780.48
516.502	1748.39
516.869	1753.81
517.237	1743.64
517.604	1744.54
517.972	1741.83
518.339	1744.09
518.706	1773.02
519.073	1751.32
519.44	1737.54
519.808	1725.34
520.175	1731.21
520.542	1755.39
520.909	1752.23
521.276	1737.09
521.643	1744.54
522.009	1751.1
522.376	1756.97
522.743	1752.68
523.11	1748.39
523.477	1738.89
523.843	1747.03
524.21	1740.7
524.577	1761.72
524.943	1752.23
525.31	1736.86
525.676	1754.94
526.043	1781.15
526.409	1758.33
526.776	1770.08
527.142	1744.32
527.508	1745.45
527.874	1797.42
528.241	1740.93
528.607	1768.95
528.973	1757.65
529.339	1752.45
529.705	1746.58
530.071	1763.98
530.437	1761.04
530.803	1789.52
531.169	1764.21
531.535	1741.61
531.901	1765.33
532.267	1749.74
532.632	1778.44
532.998	1805.56
533.364	1782.96
533.73	1752.45
534.095	1751.55
534.461	1751.32
534.826	1762.17
535.192	1766.24
535.557	1774.83
535.923	1754.94
536.288	1762.17
536.653	1785.9
537.019	1738.89
537.384	1769.85
537.749	1763.08
538.114	1742.51
538.479	1743.41
538.845	1751.1
539.21	1719.69
539.575	1720.36
539.94	1739.12
540.305	1731.21
540.67	1737.31
541.034	1716.75
541.399	1742.28
541.764	1727.37
542.129	1735.51
542.494	1733.92
542.858	1719.23
543.223	1728.73
543.587	1719.91
543.952	1700.48
544.316	1721.27
544.681	1679.91
545.045	1697.09
545.41	1712.23
545.774	1683.53
546.138	1709.52
546.503	1698.9
546.867	1673.59
547.231	1682.63
547.595	1689.63
547.959	1699.35
548.324	1668.61
548.688	1674.49
549.052	1651.44
549.416	1675.39
549.779	1680.14
550.143	1668.61
550.507	1667.71
550.871	1667.48
551.235	1671.1
551.599	1655.73
551.962	1615.28
552.326	1663.19
552.689	1688.05
553.053	1650.08
553.417	1630.42
553.78	1631.78
554.143	1638.78
554.507	1651.89
554.87	1642.63
555.234	1653.7
555.597	1605.34
555.96	1614.15
556.323	1617.77
556.686	1647.37
557.05	1628.16
557.413	1639.91
557.776	1630.2
558.139	1621.38
558.502	1631.33
558.865	1610.54
559.228	1659.58
559.59	1637.43
559.953	1634.26
560.316	1652.8
560.679	1642.4
561.041	1649.86
561.404	1643.3
561.767	1670.42
562.129	1617.32
562.492	1641.95
562.854	1670.65
563.217	1613.25
563.579	1651.21
563.941	1645.34
564.304	1650.54
564.666	1645.34
565.028	1656.64
565.39	1644.43
565.753	1675.62
566.115	1653.93
566.477	1684.21
566.839	1656.41
567.201	1653.25
567.563	1648.28
567.925	1646.02
568.287	1658.45
568.648	1650.31
569.01	1681.27
569.372	1691.44
569.734	1688.27
570.095	1687.82
570.457	1698.22
570.819	1729.18
571.18	1710.87
571.542	1681.72
571.903	1718.1
572.265	1703.42
572.626	1714.04
572.987	1718.1
573.349	1680.37
573.71	1715.84
574.071	1714.04
574.432	1749.29
574.794	1726.92
575.155	1713.36
575.516	1715.62
575.877	1744.32
576.238	1742.28
576.599	1728.73
576.96	1742.96
577.32	1743.87
577.681	1773.24
578.042	1784.32
578.403	1782.74
578.763	1782.06
579.124	1752.91
579.485	1783.87
579.845	1770.31
580.206	1768.05
580.566	1749.52
580.927	1783.19
581.287	1780.93
581.648	1802.62
582.008	1786.35
582.368	1823.19
582.728	1801.04
583.089	1761.72
583.449	1797.88
583.809	1794.26
584.169	1782.28
584.529	1803.53
584.889	1772.79
585.249	1787.03
585.609	1801.04
585.969	1821.83
586.329	1818.89
586.688	1777.09
587.048	1798.78
587.408	1814.6
587.768	1804.43
588.127	1793.81
588.487	1800.36
588.846	1786.13
589.206	1815.5
589.565	1797.42
589.925	1819.34
590.284	1809.18
590.643	1814.6
591.003	1783.87
591.362	1797.2
591.721	1792.68
592.08	1820.02
592.44	1800.59
592.799	1806.46
593.158	1781.61
593.517	1789.29
593.876	1816.86
594.235	1793.81
594.593	1795.39
594.952	1820.25
595.311	1816.41
595.67	1810.98
596.029	1808.05
596.387	1844.43
596.746	1787.93
597.104	1791.77
597.463	1827.71
597.822	1795.16
598.18	1805.79
598.538	1792.68
598.897	1818.67
599.255	1783.87
599.613	1795.62
599.972	1833.36
600.33	1810.08
600.688	1810.53
601.046	1799.01
601.404	1798.55
601.762	1798.1
602.12	1796.75
602.478	1800.59
602.836	1805.11
603.194	1766.01
603.552	1773.02
603.91	1820.7
604.268	1809.4
604.625	1791.32
604.983	1800.81
605.341	1795.84
605.698	1793.13
606.056	1795.39
606.413	1798.78
606.771	1808.05
607.128	1807.37
607.485	1806.01
607.843	1800.14
608.2	1793.58
608.557	1835.16
608.914	1800.36
609.272	1819.57
609.629	1811.89
609.986	1843.75
610.343	1816.41
610.7	1819.57
611.057	1836.52
611.414	1808.05
611.771	1845.78
612.127	1835.16
612.484	1823.19
612.841	1844.65
613.198	1819.8
613.554	1837.42
613.911	1842.4
614.267	1824.99
614.624	1848.27
614.98	1833.13
615.337	1864.09
615.693	1839.91
616.05	1870.64
616.406	1844.43
616.762	1823.64
617.118	1830.42
617.475	1833.13
617.831	1866.8
618.187	1856.86
618.543	1867.71
618.899	1890.3
619.255	1878.33
619.611	1856.41
619.967	1848.72
620.323	1879.23
620.678	1856.18
621.034	1869.96
621.39	1886.01
621.746	1857.31
622.101	1870.64
622.457	1864.99
622.812	1848.95
623.168	1853.47
623.523	1882.39
623.879	1885.78
624.234	1865.67
624.589	1875.84
624.945	1878.55
625.3	1860.02
625.655	1852.56
626.01	1862.51
626.365	1899.12
626.72	1855.5
627.075	1880.13
627.43	1849.17
627.785	1846.91
628.14	1898.44
628.495	1871.55
628.85	1858.21
629.205	1878.1
629.559	1872.9
629.914	1872.45
630.269	1883.3
630.623	1863.86
630.978	1885.33
631.332	1883.75
631.687	1864.77
632.041	1851.43
632.396	1853.47
632.75	1836.07
633.104	1857.99
633.459	1820.93
633.813	1883.3
634.167	1850.3
634.521	1850.3
634.875	1885.78
635.229	1857.08
635.583	1873.58
635.937	1878.78
636.291	1877.42
636.645	1869.96
636.999	1853.24
637.352	1864.54
637.706	1837.2
638.06	1881.04
638.413	1854.15
638.767	1856.18
639.121	1830.64
639.474	1822.51
639.828	1842.4
640.181	1842.85
640.534	1848.5
640.888	1839.01
641.241	1854.15
641.594	1855.28
641.947	1864.09
642.301	1852.79
642.654	1839.01
643.007	1845.56
643.36	1870.19
643.713	1835.39
644.066	1822.51
644.419	1831.55
644.771	1861.15
645.124	1837.2
645.477	1822.28
645.83	1815.5
646.182	1805.79
646.535	1798.55
646.888	1815.5
647.24	1809.4
647.593	1820.02
647.945	1822.06
648.298	1811.44
648.65	1816.86
649.002	1798.1
649.355	1808.95
649.707	1827.25
650.059	1818.89
650.411	1824.32
650.763	1831.55
651.115	1855.73
651.467	1842.4
651.819	1862.28
652.171	1864.77
652.523	1830.64
652.875	1843.52
653.227	1851.66
653.578	1850.53
653.93	1855.73
654.282	1858.89
654.633	1856.86
654.985	1833.36
655.337	1832.23
655.688	1880.13
656.039	1830.42
656.391	1844.2
656.742	1862.28
657.094	1862.51
657.445	1865.9
657.796	1866.8
658.147	1872.68
658.498	1846.24
658.849	1869.74
659.2	1855.95
659.551	1860.93
659.902	1886.69
660.253	1857.31
660.604	1865.22
660.955	1849.63
661.306	1879.91
661.656	1888.5
662.007	1863.64
662.358	1857.76
662.708	1887.37
663.059	1884.43
663.409	1900.02
663.76	1850.3
664.11	1853.47
664.461	1849.4
664.811	1841.04
665.161	1865.9
665.511	1883.07
665.862	1874.71
666.212	1871.55
666.562	1881.04
666.912	1871.32
667.262	1869.29
667.612	1864.77
667.962	1843.3
668.312	1874.26
668.662	1847.37
669.011	1849.17
669.361	1857.08
669.711	1858.21
670.06	1890.76
670.41	1857.54
670.76	1863.64
671.109	1847.14
671.459	1821.6
671.808	1820.93
672.157	1842.85
672.507	1849.4
672.856	1833.13
673.205	1829.97
673.554	1866.58
673.904	1856.18
674.253	1870.64
674.602	1814.15
674.951	1818.89
675.3	1818.44
675.649	1838.33
675.998	1849.63
676.346	1813.24
676.695	1817.54
677.044	1839.68
677.393	1837.88
677.741	1839.68
678.09	1810.76
678.438	1794.03
678.787	1814.15
679.135	1777.09
679.484	1804.66
679.832	1810.98
680.181	1791.55
680.529	1816.18
680.877	1784.32
681.225	1803.98
681.573	1794.49
681.922	1780.93
682.27	1786.35
682.618	1788.84
682.966	1765.79
683.314	1769.85
683.661	1762.85
684.009	1781.15
684.357	1747.93
684.705	1760.14
685.053	1739.57
685.4	1731.66
685.748	1752.91
686.095	1742.96
686.443	1739.57
686.79	1734.15
687.138	1741.83
687.485	1715.84
687.832	1714.04
688.18	1740.48
688.527	1696.86
688.874	1702.51
689.221	1700.03
689.568	1723.75
689.915	1685.11
690.262	1688.95
690.609	1700.7
690.956	1686.24
691.303	1676.75
691.65	1684.66
691.997	1685.34
692.344	1664.32
692.69	1675.17
693.037	1667.48
693.383	1656.64
693.73	1654.15
694.077	1640.59
694.423	1621.61
694.769	1645.11
695.116	1647.37
695.462	1653.25
695.808	1646.69
696.155	1625.45
696.501	1623.42
696.847	1626.58
697.193	1637.88
697.539	1629.75
697.885	1601.72
698.231	1628.16
698.577	1604.44
698.923	1559.01
699.269	1581.84
699.614	1566.7
699.96	1613.02
700.306	1560.82
700.651	1589.07
700.997	1582.51
701.342	1566.02
701.688	1603.08
702.033	1570.54
702.379	1593.36
702.724	1561.72
703.069	1572.12
703.415	1571.44
703.76	1574.15
704.105	1558.56
704.45	1590.42
704.795	1549.3
705.14	1548.62
705.485	1539.58
705.83	1573.7
706.175	1547.71
706.52	1556.07
706.865	1516.75
707.209	1556.53
707.554	1546.13
707.899	1544.32
708.243	1528.96
708.588	1547.49
708.932	1534.38
709.277	1542.74
709.621	1573.7
709.966	1543.87
710.31	1570.99
710.654	1520.82
710.998	1531.67
711.342	1545.68
711.687	1530.54
712.031	1536.87
712.375	1520.14
712.719	1539.13
713.063	1545.68
713.407	1553.14
713.75	1522.4
714.094	1540.26
714.438	1558.56
714.782	1567.83
715.125	1536.87
715.469	1538.22
715.812	1546.36
716.156	1549.52
716.499	1588.39
716.843	1565.11
717.186	1556.75
717.53	1572.57
717.873	1570.54
718.216	1568.5
718.559	1561.27
718.902	1548.62
719.246	1548.39
719.589	1554.27
719.932	1563.76
720.275	1576.64
720.617	1582.29
720.96	1568.5
721.303	1564.44
721.646	1592.01
721.989	1583.87
722.331	1587.71
722.674	1579.58
723.016	1592.46
723.359	1572.8
723.701	1592.46
724.044	1601.95
724.386	1604.44
724.729	1599.69
725.071	1604.21
725.413	1622.74
725.755	1639.01
726.097	1632.23
726.439	1629.29
726.782	1636.52
727.124	1647.82
727.465	1651.89
727.807	1634.72
728.149	1622.74
728.491	1626.58
728.833	1668.39
729.175	1657.32
729.516	1646.24
729.858	1645.11
730.199	1669.97
730.541	1697.77
730.882	1686.47
731.224	1644.21
731.565	1668.39
731.906	1685.11
732.248	1716.75
732.589	1696.86
732.93	1720.59
733.271	1723.98
733.612	1716.75
733.953	1741.38
734.294	1723.75
734.635	1721.49
734.976	1779.12
735.317	1761.04
735.658	1742.74
735.999	1776.41
736.339	1777.54
736.68	1799.23
737.021	1795.62
737.361	1778.44
737.702	1808.5
738.042	1792.68
738.383	1801.04
738.723	1855.05
739.063	1847.37
739.404	1871.77
739.744	1828.16
740.084	1882.62
740.424	1863.41
740.764	1881.72
741.104	1910.64
741.444	1938.21
741.784	1882.85
742.124	1951.54
742.464	1950.19
742.804	1980.47
743.143	1991.09
743.483	2001.94
743.823	1994.03
744.162	2012.79
744.502	2015.72
744.841	2060.69
745.181	2075.84
745.52	2067.25
745.86	2095.95
746.199	2130.75
746.538	2189.96
746.877	2193.35
747.216	2180.24
747.556	2214.36
747.895	2220.46
748.234	2247.13
748.573	2295.72
748.911	2300.91
749.25	2328.03
749.589	2338.43
749.928	2394.47
750.267	2408.26
750.605	2432.44
750.944	2443.74
751.283	2477.86
751.621	2515.37
751.96	2537.74
752.298	2570.29
752.636	2627.69
752.975	2631.07
753.313	2701.58
753.651	2745.2
753.989	2768.25
754.327	2795.36
754.666	2872.2
755.004	2897.28
755.342	2949.71
755.679	2948.81
756.017	2954.68
756.355	3006.21
756.693	3072.19
757.031	3130.27
757.368	3125.53
757.706	3201.68
758.044	3199.2
758.381	3301.34
758.719	3280.55
759.056	3339.98
759.394	3370.49
759.731	3435.35
760.068	3475.57
760.405	3476.93
760.743	3543.37
761.08	3584.27
761.417	3657.71
761.754	3680.31
762.091	3698.62
762.428	3706.98
762.765	3758.95
763.102	3802.34
763.438	3812.06
763.775	3855
764.112	3921.44
764.449	3970.47
764.785	3951.27
765.122	3974.54
765.458	3998.95
765.795	4085.5
766.131	4089.79
766.467	4083.92
766.804	4120.75
767.14	4156.23
767.476	4273.97
767.812	4204.14
768.148	4246.4
768.485	4256.57
768.821	4312.39
769.157	4334.53
769.492	4364.81
769.828	4357.58
770.164	4359.84
770.5	4388.99
770.836	4431.48
771.171	4439.61
771.507	4471.25
771.842	4443.23
772.178	4443.91
772.513	4486.62
772.849	4499.95
773.184	4513.06
773.519	4578.14
773.855	4540.63
774.19	4559.16
774.525	4544.24
774.86	4553.96
775.195	4563.45
775.53	4563.91
775.865	4592.38
776.2	4523.68
776.535	4593.96
776.87	4600.06
777.205	4572.72
777.539	4580.85
777.874	4584.24
778.209	4604.13
778.543	4572.04
778.878	4582.66
779.212	4612.49
779.547	4572.04
779.881	4657.69
780.215	4625.82
780.55	4625.15
780.884	4556.22
781.218	4639.16
781.552	4643.23
781.886	4593.96
782.22	4624.92
782.554	4585.15
782.888	4581.53
783.222	4591.7
783.556	4532.95
783.889	4546.73
784.223	4593.51
784.557	4530.46
784.89	4611.14
785.224	4520.29
785.557	4569.33
785.891	4504.7
786.224	4536.79
786.558	4526.39
786.891	4546.5
787.224	4565.04
787.557	4493.85
787.891	4514.19
788.224	4531.82
788.557	4512.38
788.89	4517.13
789.223	4510.12
789.556	4473.06
789.888	4467.18
790.221	4477.13
790.554	4422.44
790.887	4446.39
791.219	4455.66
791.552	4438.48
791.884	4437.36
792.217	4412.5
792.549	4457.47
792.882	4417.24
793.214	4407.98
793.546	4434.64
793.879	4373.85
794.211	4362.33
794.543	4409.79
794.875	4420.41
795.207	4389.9
795.539	4380.41
795.871	4370.24
796.203	4348.77
796.535	4279.39
796.867	4341.76
797.198	4315.78
797.53	4336.34
797.862	4259.96
798.193	4276.23
798.525	4303.12
798.856	4322.56
799.188	4245.04
799.519	4227.19
799.85	4221.09
800.182	4196.46
800.513	4256.34
800.844	4203.24
801.175	4254.54
801.506	4219.73
801.837	4224.25
802.168	4172.28
802.499	4184.93
802.83	4170.47
803.161	4157.36
803.491	4137.48
803.822	4132.73
804.153	4157.36
804.483	4080.98
804.814	4078.72
805.145	4104.93
805.475	4072.17
805.805	4064.94
806.136	4079.85
806.466	4093.18
806.796	4081.43
807.126	4032.85
807.457	4004.82
807.787	4010.25
808.117	4030.59
808.447	4042.79
808.777	4041.66
809.107	3989.91
809.436	3937.26
809.766	3987.42
810.096	4008.21
810.426	3966.63
810.755	3994.2
811.085	3976.8
811.414	3954.88
811.744	3949.01
812.073	3950.59
812.403	3967.08
812.732	3908.1
813.061	3956.46
813.39	3931.15
813.719	3938.84
814.049	3921.21
814.378	3882.12
814.707	3851.61
815.036	3876.92
815.365	3870.82
815.693	3865.84
816.022	3882.79
816.351	3868.56
816.68	3801.89
817.008	3850.03
817.337	3807.77
817.665	3779.52
817.994	3831.5
818.322	3847.09
818.651	3826.52
818.979	3785.39
819.307	3769.12
819.636	3828.33
819.964	3751.27
820.292	3811.61
820.62	3767.99
820.948	3758.28
821.276	3795.79
821.604	3796.02
821.932	3758.28
822.259	3800.31
822.587	3843.7
822.915	3777.94
823.243	3811.61
823.57	3754.66
823.898	3803.7
824.225	3735
824.553	3781.55
824.88	3799.18
825.207	3801.67
825.535	3771.38
825.862	3784.49
826.189	3801.67
826.516	3755.34
826.843	3803.47
827.17	3785.62
827.497	3799.41
827.824	3851.61
828.151	3796.02
828.478	3764.6
828.805	3818.84
829.131	3809.8
829.458	3806.19
829.785	3758.95
830.111	3774.32
830.438	3780.88
830.764	3782.68
831.09	3822.46
831.417	3804.6
831.743	3803.25
832.069	3786.75
832.395	3736.36
832.722	3802.34
833.048	3783.36
833.374	3782.23
833.7	3784.26
834.026	3783.13
834.351	3758.5
834.677	3761.21
835.003	3740.88
835.329	3702.69
835.654	3765.51
835.98	3725.96
836.306	3747.2
836.631	3741.55
836.956	3776.58
837.282	3750.82
837.607	3733.87
837.932	3711.05
838.258	3761.21
838.583	3733.64
838.908	3712.4
839.233	3665.62
839.558	3697.26
839.883	3684.61
840.208	3679.41
840.533	3686.19
840.858	3699.07
841.182	3670.37
841.507	3684.38
841.832	3658.39
842.156	3659.07
842.481	3627.43
842.805	3659.52
843.13	3601.9
843.454	3676.7
843.778	3632.18
844.103	3617.72
844.427	3602.8
844.751	3609.58
845.075	3596.93
845.399	3587.89
845.723	3584.5
846.047	3589.24
846.371	3545.63
846.695	3545.63
847.019	3497.27
847.343	3491.39
847.666	3487.32
847.99	3472.18
848.313	3470.37
848.637	3455.46
848.96	3416.59
849.284	3462.69
849.607	3425.63
849.931	3414.11
850.254	3407.33
850.577	3388.12
850.9	3348.57
851.223	3353.32
851.546	3385.63
851.869	3323.94
852.192	3369.59
852.515	3292.3
852.838	3296.59
853.161	3298.18
853.483	3274.45
853.806	3294.11
854.129	3286.65
854.451	3279.19
854.774	3207.33
855.096	3238.29
855.419	3235.13
855.741	3242.81
856.063	3230.38
856.385	3237.16
856.708	3194.68
857.03	3203.04
857.352	3173.66
857.674	3176.15
857.996	3138.63
858.318	3152.87
858.64	3154.22
858.961	3141.57
859.283	3144.96
859.605	3104.51
859.926	3124.4
860.248	3101.57
860.57	3092.76
860.891	3102.7
861.212	3100.44
861.534	3075.58
861.855	3066.32
862.176	3084.4
862.498	3055.7
862.819	3048.47
863.14	3022.25
863.461	3046.21
863.782	3011.4
864.103	3032.65
864.424	3033.55
864.745	3041.91
865.065	3010.5
865.386	3039.2
865.707	2998.75
866.027	3008.69
866.348	3015.92
866.668	3004.4
866.989	3008.01
867.309	2942.93
867.63	2956.04
867.95	2965.53
868.27	2965.76
868.59	2986.32
868.91	2965.3
869.23	2944.51
869.55	2968.69
869.87	2989.71
870.19	2932.31
870.51	2906.32
870.83	2924.85
871.15	2942.93
871.469	2945.64
871.789	2944.96
872.109	2938.86
872.428	2922.37
872.748	2916.04
873.067	2914.01
873.386	2910.62
873.706	2898.86
874.025	2930.95
874.344	2899.32
874.663	2885.08
874.982	2923.5
875.301	2894.8
875.62	2915.81
875.939	2878.98
876.258	2874.23
876.577	2877.4
876.896	2894.57
877.214	2862.03
877.533	2869.71
877.852	2881.24
878.17	2820.22
878.489	2842.14
878.807	2839.66
879.125	2810.96
879.444	2831.52
879.762	2852.99
880.08	2827.68
880.398	2805.08
880.716	2811.86
881.034	2830.62
881.352	2815.93
881.67	2817.96
881.988	2789.04
882.306	2784.74
882.624	2818.19
882.941	2802.14
883.259	2761.01
883.577	2773.44
883.894	2782.26
884.212	2748.13
884.529	2754.01
884.846	2774.57
885.164	2739.32
885.481	2764.4
885.798	2713.33
886.115	2705.42
886.432	2684.18
886.75	2712.65
887.067	2698.42
887.383	2687.8
887.7	2647.8
888.017	2653.9
888.334	2669.94
888.651	2678.31
888.967	2695.25
889.284	2664.07
889.6	2697.74
889.917	2658.19
890.233	2681.02
890.55	2611.64
890.866	2629.27
891.182	2598.31
891.498	2591.75
891.815	2619.78
892.131	2620
892.447	2590.85
892.763	2570.29
893.079	2570.51
893.395	2577.52
893.71	2569.38
894.026	2528.7
894.342	2544.3
894.657	2510.63
894.973	2522.83
895.289	2522.83
895.604	2499.78
895.92	2511.08
896.235	2476.05
896.55	2486.45
896.865	2480.57
897.181	2475.37
897.496	2500.68
897.811	2495.94
898.126	2435.83
898.441	2429.5
898.756	2411.42
899.071	2417.75
899.386	2431.76
899.7	2415.26
900.015	2417.07
900.33	2410.74
900.644	2375.26
900.959	2390.4
901.273	2375.94
901.588	2389.27
901.902	2363.96
902.216	2363.29
902.531	2354.02
902.845	2358.09
903.159	2313.57
903.473	2305.89
903.787	2303.63
904.101	2250.29
904.415	2297.3
904.729	2284.87
905.042	2258.43
905.356	2271.99
905.67	2278.99
905.984	2269.95
906.297	2275.38
906.611	2251.2
906.924	2251.2
907.237	2259.79
907.551	2224.98
907.864	2212.1
908.177	2220.69
908.491	2189.5
908.804	2180.69
909.117	2161.03
909.43	2181.37
909.743	2162.84
910.056	2165.1
910.368	2150.86
910.681	2169.84
910.994	2124.42
911.307	2146.57
911.619	2088.94
911.932	2087.81
912.244	2120.81
912.557	2054.82
912.869	2077.19
913.181	2043.75
913.494	2082.16
913.806	2073.58
914.118	2063.18
914.43	2042.16
914.742	2061.82
915.054	2041.49
915.366	2034.71
915.678	2041.94
915.99	1994.71
916.302	1994.26
916.613	2017.98
916.925	1996.52
917.236	1994.93
917.548	2008.49
917.859	1977.08
918.171	1982.73
918.482	1995.61
918.794	1944.09
919.105	1953.58
919.416	1920.36
919.727	1942.05
920.038	1899.57
920.349	1927.14
920.66	1906.12
920.971	1881.72
921.282	1881.49
921.593	1899.34
921.903	1886.69
922.214	1886.01
922.525	1896.63
922.835	1888.27
923.146	1851.66
923.456	1865.45
923.767	1818.44
924.077	1839.01
924.387	1859.12
924.697	1832.45
925.008	1826.12
925.318	1824.99
925.628	1822.96
925.938	1778.44
926.248	1795.16
926.558	1794.26
926.867	1785.67
927.177	1757.88
927.487	1756.75
927.796	1774.83
928.106	1761.49
928.416	1719.91
928.725	1739.35
929.034	1755.62
929.344	1772.34
929.653	1725.56
929.962	1716.75
930.271	1733.02
930.581	1683.53
930.89	1709.52
931.199	1702.74
931.508	1686.01
931.817	1712
932.125	1688.5
932.434	1710.87
932.743	1680.37
933.051	1672
933.36	1659.12
933.669	1664.32
933.977	1636.07
934.286	1633.59
934.594	1665.22
934.902	1637.2
935.21	1660.48
935.519	1587.26
935.827	1617.77
936.135	1606.92
936.443	1594.04
936.751	1602.85
937.059	1586.58
937.367	1596.98
937.674	1594.27
937.982	1603.31
938.29	1578.67
938.597	1547.94
938.905	1570.54
939.213	1584.32
939.52	1536.87
939.827	1554.72
940.135	1547.49
940.442	1523.08
940.749	1544.32
941.056	1535.74
941.363	1522.4
941.67	1511.78
941.977	1534.83
942.284	1519.92
942.591	1503.87
942.898	1512.69
943.205	1512.46
943.511	1474.95
943.818	1459.13
944.125	1460.26
944.431	1450.54
944.738	1495.74
945.044	1437.66
945.35	1463.87
945.657	1415.06
945.963	1434.95
946.269	1464.33
946.575	1450.54
946.881	1437.21
947.187	1418.23
947.493	1426.13
947.799	1388.17
948.105	1384.33
948.41	1399.02
948.716	1393.59
949.022	1406.93
949.327	1405.12
949.633	1354.72
949.938	1363.54
950.244	1372.8
950.549	1338.68
950.854	1373.93
951.16	1376.42
951.465	1357.44
951.77	1340.71
952.075	1349.53
952.38	1336.87
952.685	1365.57
952.99	1319.02
953.294	1352.24
953.599	1319.47
953.904	1321.28
954.209	1315.4
954.513	1301.17
954.818	1292.8
955.122	1292.35
955.426	1319.02
955.731	1301.39
956.035	1276.76
956.339	1274.27
956.643	1259.81
956.948	1252.35
957.252	1267.72
957.556	1276.08
957.86	1270.21
958.163	1256.42
958.467	1241.96
958.771	1225.24
959.075	1257.33
959.378	1202.86
959.682	1194.5
959.985	1243.09
960.289	1230.89
960.592	1216.42
960.896	1223.88
961.199	1258.68
961.502	1216.42
961.805	1185.24
962.108	1184.56
962.411	1188.4
962.714	1202.64
963.017	1205.12
963.32	1198.8
963.623	1176.2
963.926	1158.8
964.228	1163.54
964.531	1188.63
964.833	1164.45
965.136	1176.42
965.438	1144.79
965.741	1139.14
966.043	1146.59
966.345	1134.62
966.648	1133.04
966.95	1143.66
967.252	1147.95
967.554	1156.54
967.856	1107.73
968.158	1118.8
968.46	1114.5
968.761	1111.57
969.063	1112.92
969.365	1123.09
969.666	1085.13
969.968	1095.75
970.269	1121.74
970.571	1098.23
970.872	1088.97
971.174	1073.38
971.475	1079.25
971.776	1050.33
972.077	1071.79
972.378	1067.27
972.679	1099.36
972.98	1066.14
973.281	1048.97
973.582	1066.6
973.883	1053.49
974.183	1035.18
974.484	1055.3
974.785	1058.46
975.085	1032.02
975.386	1032.7
975.686	1018.46
975.986	1029.31
976.287	1032.7
976.587	1013.94
976.887	1019.82
977.187	1027.5
977.487	1004.9
977.787	1019.37
978.087	978.69
978.387	1023.66
978.687	990.67
978.987	980.27
979.286	981.17
979.586	1001.51
979.885	970.33
980.185	977.11
980.484	972.81
980.784	958.12
981.083	970.1
981.382	991.34
981.682	972.36
981.981	959.71
982.28	949.99
982.579	968.29
982.878	940.27
983.177	918.13
983.475	947.96
983.774	959.93
984.073	939.82
984.372	938.01
984.67	924
984.969	890.78
985.267	924.23
985.566	921.06
985.864	920.39
986.162	942.08
986.461	896.43
986.759	914.06
987.057	918.8
987.355	903.21
987.653	888.07
987.951	915.41
988.249	889.43
988.547	887.39
988.844	903.89
989.142	881.97
989.44	867.51
989.737	898.01
990.035	864.79
990.332	875.87
990.63	884.23
990.927	872.93
991.224	834.29
991.521	843.33
991.819	837.45
992.116	860.5
992.413	843.78
992.71	836.09
993.006	888.07
993.303	860.73
993.6	854.17
993.897	845.36
994.193	842.42
994.49	827.51
994.787	841.97
995.083	827.51
995.379	806.72
995.676	819.82
995.972	841.29
996.268	821.4
996.565	829.54
996.861	823.44
997.157	829.77
997.453	796.55
997.749	809.2
998.044	801.29
998.34	782.31
998.636	791.12
998.932	787.51
999.227	786.15
999.523	773.04
999.818	777.34
1000.114	786.15
1000.409	778.24
1000.704	762.42
1001	785.7
1001.295	774.17
1001.59	745.02
1001.885	758.13
1002.18	757.23
1002.475	750.67
1002.77	752.93
1003.065	738.02
1003.359	778.24
1003.654	752.48
1003.949	738.24
1004.243	748.41
1004.538	730.11
1004.832	744.34
1005.127	734.18
1005.421	722.2
1005.715	728.07
1006.009	745.47
1006.304	704.57
1006.598	716.55
1006.892	723.55
1007.186	714.74
1007.48	703.44
1007.773	702.99
1008.067	701.41
1008.361	692.59
1008.655	708.19
1008.948	709.09
1009.242	694.63
1009.535	690.56
1009.829	685.82
1010.122	678.13
1010.415	682.88
1010.708	684.46
1011.001	676.55
1011.295	668.87
1011.588	692.82
1011.881	673.39
1012.173	665.48
1012.466	681.75
1012.759	665.02
1013.052	667.51
1013.344	649.88
1013.637	648.53
1013.93	653.73
1014.222	652.6
1014.514	661.64
1014.807	645.14
1015.099	642.2
1015.391	660.51
1015.683	653.5
1015.976	653.73
1016.268	645.36
1016.56	615.53
1016.851	588.64
1017.143	624.8
1017.435	630
1017.727	617.12
1018.018	615.08
1018.31	628.87
1018.602	627.74
1018.893	619.6
1019.185	611.02
1019.476	594.74
1019.767	619.6
1020.058	614.63
1020.35	597
1020.641	579.6
1020.932	591.35
1021.223	579.15
1021.514	591.81
1021.804	571.69
1022.095	580.28
1022.386	573.5
1022.677	588.42
1022.967	580.51
1023.258	567.4
1023.548	581.19
1023.839	567.85
1024.129	574.18
1024.419	557.68
1024.709	577.12
1025	564.46
1025.29	564.24
1025.58	581.19
1025.87	549.77
1026.16	550.68
1026.449	557.01
1026.739	550.68
1027.029	571.69
1027.319	549.55
1027.608	545.03
1027.898	534.41
1028.187	553.62
1028.477	560.39
1028.766	542.32
1029.055	543.45
1029.344	536.44
1029.634	536.44
1029.923	533.95
1030.212	537.12
1030.501	528.53
1030.79	525.82
1031.078	535.08
1031.367	511.13
1031.656	484.46
1031.945	515.42
1032.233	503.9
1032.522	508.64
1032.81	487.18
1033.099	541.19
1033.387	510.23
1033.675	498.93
1033.963	504.8
1034.251	506.16
1034.54	531.7
1034.828	510.45
1035.116	498.02
1035.403	468.19
1035.691	496.89
1035.979	479.27
1036.267	472.49
1036.554	516.55
1036.842	488.98
1037.129	478.82
1037.417	478.59
1037.704	475.43
1037.992	488.98
1038.279	479.04
1038.566	472.49
1038.853	472.49
1039.14	472.49
