Data from blue_chair_FLMS001491_00083.txt Node
Date: Wed Feb 08 10:31:55 GMT 2017
User: dcchb
Spectrometer: FLMS00149
Trigger mode: 0
Integration Time (sec): 2.000000E-2
Scans to average: 10
Electric dark correction enabled: true
Nonlinearity correction enabled: false
Boxcar width: 0
XAxis mode: Wavelengths
Number of Pixels in Spectrum: 2048
>>>>>Begin Spectral Data<<<<<
341.393	-31.65
341.776	-31.65
342.16	-31.65
342.543	-54.02
342.927	-74.59
343.31	-65.78
343.693	-65.1
344.077	-42.5
344.46	-38.66
344.843	-60.8
345.226	-33.91
345.61	-46.11
345.993	-15.61
346.376	10.16
346.759	19.65
347.142	16.48
347.525	46.76
347.908	41.11
348.291	70.04
348.674	87.44
349.057	76.82
349.44	126.99
349.823	132.64
350.206	164.95
350.588	173.54
350.971	192.07
351.354	198.85
351.737	198.4
352.119	224.61
352.502	251.5
352.884	257.38
353.267	276.59
353.65	284.5
354.032	263.93
354.414	277.27
354.797	296.93
355.179	272.52
355.562	296.25
355.944	288.57
356.326	326.76
356.709	293.76
357.091	317.04
357.473	317.04
357.855	321.56
358.238	317.04
358.62	313.88
359.002	325.18
359.384	304.61
359.766	303.93
360.148	306.64
360.53	317.94
360.912	309.13
361.294	300.09
361.676	302.58
362.057	310.71
362.439	302.8
362.821	302.35
363.203	298.74
363.584	303.93
363.966	288.11
364.348	309.13
364.729	289.47
365.111	293.76
365.493	297.15
365.874	287.44
366.256	311.39
366.637	269.13
367.019	299.86
367.4	283.59
367.781	274.33
368.163	276.36
368.544	287.66
368.925	294.67
369.306	296.93
369.688	293.31
370.069	297.15
370.45	291.5
370.831	285.85
371.212	295.57
371.593	269.81
371.974	277.49
372.355	290.15
372.736	285.85
373.117	296.7
373.498	303.71
373.879	281.56
374.26	272.07
374.641	272.3
375.021	284.05
375.402	291.96
375.783	297.83
376.163	298.28
376.544	265.06
376.925	279.98
377.305	300.32
377.686	282.01
378.066	268
378.447	306.42
378.827	292.63
379.208	307.77
379.588	302.35
379.968	290.37
380.349	296.93
380.729	271.39
381.109	314.1
381.489	289.7
381.87	290.83
382.25	292.86
382.63	300.99
383.01	293.76
383.39	316.81
383.77	314.33
384.15	313.65
384.53	305.06
384.91	299.64
385.29	321.79
385.67	316.81
386.049	315.91
386.429	298.28
386.809	302.35
387.189	316.81
387.568	308.45
387.948	319.75
388.328	307.1
388.707	311.62
389.087	320.43
389.466	296.48
389.846	314.33
390.225	322.92
390.605	319.3
390.984	329.24
391.363	325.4
391.743	325.63
392.122	310.03
392.501	312.52
392.881	324.72
393.26	322.69
393.639	333.31
394.018	319.3
394.397	316.59
394.776	297.61
395.155	325.18
395.534	344.16
395.913	319.98
396.292	348.45
396.671	317.72
397.05	329.24
397.429	324.05
397.808	315.91
398.186	341.45
398.565	371.05
398.944	337.6
399.323	339.64
399.701	331.28
400.08	337.83
400.458	343.03
400.837	363.82
401.215	352.29
401.594	366.3
401.972	355.46
402.351	373.54
402.729	366.53
403.107	359.07
403.486	357.26
403.864	365.4
404.242	359.3
404.62	365.63
404.999	366.53
405.377	357.94
405.755	369.92
406.133	379.41
406.511	366.3
406.889	376.25
407.267	378.06
407.645	379.41
408.023	378.06
408.401	385.06
408.779	366.08
409.156	374.89
409.534	375.34
409.912	383.7
410.29	391.39
410.667	398.85
411.045	400.88
411.422	424.16
411.8	400.2
412.178	412.63
412.555	407.66
412.933	435.68
413.31	436.58
413.687	431.39
414.065	448.34
414.442	424.38
414.819	445.62
415.197	426.87
415.574	435
415.951	431.84
416.328	416.47
416.705	434.32
417.082	453.76
417.46	443.59
417.837	450.6
418.214	465.74
418.591	447.88
418.967	438.17
419.344	434.55
419.721	464.61
420.098	432.74
420.475	446.3
420.852	454.66
421.228	469.13
421.605	447.21
421.982	456.92
422.358	482.46
422.735	475.68
423.111	462.35
423.488	478.17
423.864	489.01
424.241	505.74
424.617	496.47
424.994	495.34
425.37	497.15
425.746	494.21
426.123	505.51
426.499	522.91
426.875	496.24
427.251	505.28
427.627	514.55
428.003	568.33
428.379	538.5
428.756	539.41
429.132	557.03
429.507	552.29
429.883	562.91
430.259	545.28
430.635	564.94
431.011	547.54
431.387	564.72
431.763	563.13
432.138	570.37
432.514	595.9
432.89	592.51
433.265	596.81
433.641	611.27
434.016	603.13
434.392	634.09
434.767	613.53
435.143	639.97
435.518	651.27
435.894	646.3
436.269	655.79
436.644	646.75
437.02	645.62
437.395	654.21
437.77	673.87
438.145	678.16
438.52	675
438.895	679.52
439.271	692.17
439.646	695.33
440.021	725.62
440.395	729.46
440.77	713.87
441.145	715.22
441.52	721.77
441.895	740.98
442.27	723.13
442.645	747.99
443.019	777.14
443.394	758.84
443.769	766.29
444.143	763.36
444.518	775.33
444.892	774.88
445.267	790.02
445.641	765.16
446.016	793.41
446.39	800.19
446.764	792.51
447.139	789.12
447.513	803.81
447.887	807.42
448.262	817.82
448.636	803.58
449.01	823.69
449.384	837.25
449.758	855.78
450.132	855.33
450.506	858.27
450.88	844.48
451.254	834.99
451.628	864.37
452.002	910.7
452.376	870.02
452.75	863.69
453.123	905.5
453.497	899.62
453.871	922.45
454.244	906.4
454.618	909.79
454.992	934.65
455.365	938.27
455.739	966.97
456.112	952.96
456.486	953.63
456.859	957.25
457.232	989.11
457.606	989.56
457.979	979.85
458.352	992.73
458.725	1007.87
459.099	1018.49
459.472	1022.56
459.845	1027.76
460.218	1050.35
460.591	1073.4
460.964	1050.35
461.337	1056.23
461.71	1078.83
462.083	1114.76
462.456	1073.63
462.829	1104.14
463.201	1080.86
463.574	1075.21
463.947	1135.32
464.32	1119.96
464.692	1119.28
465.065	1111.82
465.438	1140.52
465.81	1162.44
466.183	1161.76
466.555	1162.22
466.928	1165.15
467.3	1163.8
467.672	1206.06
468.045	1210.12
468.417	1183.23
468.789	1231.59
469.161	1240.41
469.534	1248.54
469.906	1241.31
470.278	1261.42
470.65	1300.74
471.022	1275.66
471.394	1309.56
471.766	1334.19
472.138	1340.29
472.51	1360.4
472.882	1347.75
473.253	1343.45
473.625	1382.55
473.997	1379.84
474.369	1376.22
474.74	1415.32
475.112	1408.99
475.484	1424.13
475.855	1451.47
476.227	1476.11
476.598	1494.86
476.97	1475.2
477.341	1495.77
477.713	1536.67
478.084	1497.35
478.455	1557.46
478.827	1523.11
479.198	1583.45
479.569	1607.63
479.94	1595.65
480.311	1651.24
480.682	1658.25
481.053	1683.33
481.424	1648.08
481.795	1668.87
482.166	1687.85
482.537	1689.88
482.908	1686.27
483.279	1713.39
483.65	1761.52
484.021	1756.1
484.391	1759.49
484.762	1774.4
485.133	1787.51
485.503	1784.8
485.874	1783.89
486.244	1796.77
486.615	1870.22
486.985	1866.83
487.356	1878.81
487.726	1861.41
488.097	1892.37
488.467	1871.35
488.837	1898.02
489.207	1915.64
489.578	1933.27
489.948	1948.41
490.318	1932.36
490.688	1912.25
491.058	1929.88
491.428	1985.92
491.798	1941.18
492.168	1978.24
492.538	1990.22
492.908	1982.31
493.278	1978.69
493.648	2018.24
494.017	2001.06
494.387	2003.55
494.757	2009.2
495.126	2024.79
495.496	1996.77
495.866	2024.34
496.235	2030.21
496.605	2029.76
496.974	2021.4
497.344	2012.59
497.713	2025.92
498.082	2025.24
498.452	2007.39
498.821	2045.13
499.19	1997
499.559	2027.96
499.928	1997.45
500.298	2032.25
500.667	2037.9
501.036	1989.31
501.405	2003.77
501.774	1996.54
502.143	2052.36
502.512	2031.8
502.88	2007.39
503.249	2010.78
503.618	2016.88
503.987	1994.06
504.356	2028.18
504.724	2008.75
505.093	2010.33
505.462	1996.09
505.83	1999.03
506.199	1984.57
506.567	2019.82
506.936	2006.71
507.304	2000.84
507.672	2005.81
508.041	1987.73
508.409	1995.64
508.777	1997
509.145	2000.16
509.514	1999.26
509.882	1981.85
510.25	1990.44
510.618	1951.8
510.986	1999.71
511.354	1990.22
511.722	1990.67
512.09	2007.62
512.458	1945.25
512.826	1975.75
513.193	1958.13
513.561	1960.84
513.929	1923.1
514.297	1974.4
514.664	1962.87
515.032	1972.14
515.4	1954.06
515.767	1968.52
516.135	1951.35
516.502	1913.61
516.869	1953.38
517.237	1918.58
517.604	1910.67
517.972	1917.68
518.339	1923.55
518.706	1906.15
519.073	1911.8
519.44	1880.61
519.808	1945.47
520.175	1895.08
520.542	1881.52
520.909	1884.46
521.276	1893.27
521.643	1877
522.009	1857.56
522.376	1864.57
522.743	1888.75
523.11	1882.42
523.477	1925.58
523.843	1910.44
524.21	1880.84
524.577	1896.43
524.943	1903.66
525.31	1908.64
525.676	1855.76
526.043	1891.69
526.409	1904.34
526.776	1893.5
527.142	1875.42
527.508	1867.28
527.874	1912.48
528.241	1875.87
528.607	1906.6
528.973	1919.26
529.339	1888.07
529.705	1884
530.071	1907.73
530.437	1882.87
530.803	1876.32
531.169	1912.93
531.535	1865.02
531.901	1872.7
532.267	1890.56
532.632	1913.61
532.998	1891.69
533.364	1892.82
533.73	1893.5
534.095	1914.06
534.461	1884.68
534.826	1885.59
535.192	1884
535.557	1880.84
535.923	1905.7
536.288	1883.55
536.653	1872.7
537.019	1891.24
537.384	1909.31
537.749	1884.91
538.114	1909.09
538.479	1893.72
538.845	1892.14
539.21	1877
539.575	1885.13
539.94	1886.72
540.305	1870.67
540.67	1869.32
541.034	1879.94
541.399	1869.09
541.764	1856.21
542.129	1860.73
542.494	1855.08
542.858	1874.74
543.223	1880.16
543.587	1882.42
543.952	1882.87
544.316	1837
544.681	1867.73
545.045	1848.3
545.41	1854.17
545.774	1888.52
546.138	1843.55
546.503	1875.19
546.867	1866.83
547.231	1857.34
547.595	1854.17
547.959	1813.5
548.324	1855.98
548.688	1853.27
549.052	1829.77
549.416	1820.95
549.779	1838.81
550.143	1842.65
550.507	1861.86
550.871	1819.83
551.235	1818.47
551.599	1828.19
551.962	1857.34
552.326	1823.67
552.689	1813.27
553.053	1804.68
553.417	1803.1
553.78	1851.46
554.143	1844.01
554.507	1809.66
554.87	1805.81
555.234	1820.05
555.597	1801.97
555.96	1795.42
556.323	1811.69
556.686	1808.98
557.05	1820.73
557.413	1816.44
557.776	1794.06
558.139	1805.59
558.502	1811.01
558.865	1823.44
559.228	1823.21
559.59	1803.78
559.953	1817.11
560.316	1816.89
560.679	1790.9
561.041	1792.03
561.404	1804.68
561.767	1821.86
562.129	1836.1
562.492	1877
562.854	1807.62
563.217	1807.62
563.579	1841.07
563.941	1833.38
564.304	1831.35
564.666	1841.29
565.028	1854.63
565.39	1834.06
565.753	1821.18
566.115	1870.67
566.477	1884
566.839	1839.26
567.201	1852.37
567.563	1817.11
567.925	1879.94
568.287	1899.37
568.648	1882.87
569.01	1909.54
569.372	1900.27
569.734	1867.51
570.095	1909.54
570.457	1860.5
570.819	1891.46
571.18	1897.56
571.542	1915.87
571.903	1904.79
572.265	1910.44
572.626	1907.73
572.987	1929.2
573.349	1926.49
573.71	1934.4
574.071	1930.33
574.432	1965.58
574.794	1991.57
575.155	1950.22
575.516	1979.37
575.877	1973.95
576.238	1978.46
576.599	2001.74
576.96	1977.79
577.32	2007.39
577.681	1998.8
578.042	2029.09
578.403	2006.03
578.763	2025.02
579.124	2025.24
579.485	2012.59
579.845	2064.56
580.206	2040.16
580.566	2015.98
580.927	2048.97
581.287	2039.71
581.648	2018.69
582.008	2060.04
582.368	2074.51
582.728	2026.15
583.089	2042.19
583.449	2064.56
583.809	2071.12
584.169	2079.03
584.529	2080.38
584.889	2093.49
585.249	2088.74
585.609	2108.86
585.969	2074.51
586.329	2079.71
586.688	2118.57
587.048	2087.61
587.408	2084
587.768	2127.84
588.127	2083.32
588.487	2109.76
588.846	2083.09
589.206	2090.55
589.565	2114.96
589.925	2119.7
590.284	2123.09
590.643	2137.78
591.003	2085.81
591.362	2106.37
591.721	2103.89
592.08	2134.17
592.44	2127.16
592.799	2114.28
593.158	2127.39
593.517	2128.07
593.876	2100.95
594.235	2105.02
594.593	2124.68
594.952	2107.28
595.311	2094.85
595.67	2110.66
596.029	2132.36
596.387	2119.48
596.746	2148.4
597.104	2107.28
597.463	2093.04
597.822	2105.92
598.18	2097.33
598.538	2115.18
598.897	2109.99
599.255	2133.04
599.613	2111.34
599.972	2126.71
600.33	2109.08
600.688	2095.52
601.046	2130.33
601.404	2068.41
601.762	2110.21
602.12	2126.94
602.478	2105.24
602.836	2119.48
603.194	2111.12
603.552	2095.07
603.91	2096.2
604.268	2112.47
604.625	2114.73
604.983	2122.42
605.341	2122.42
605.698	2116.31
606.056	2119.03
606.413	2108.18
606.771	2113.15
607.128	2119.93
607.485	2104.34
607.843	2116.31
608.2	2124
608.557	2142.08
608.914	2111.34
609.272	2141.62
609.629	2121.96
609.986	2121.96
610.343	2116.99
610.7	2135.52
611.057	2121.29
611.414	2126.03
611.771	2120.61
612.127	2162.41
612.484	2155.41
612.841	2134.84
613.198	2117.22
613.554	2127.84
613.911	2153.15
614.267	2149.08
614.624	2125.81
614.98	2114.51
615.337	2134.17
615.693	2128.52
616.05	2156.54
616.406	2163.09
616.762	2162.87
617.118	2130.33
617.475	2112.92
617.831	2136.88
618.187	2142.75
618.543	2157.9
618.899	2162.19
619.255	2133.49
619.611	2133.94
619.967	2171.91
620.323	2168.29
620.678	2137.78
621.034	2152.02
621.39	2169.19
621.746	2168.52
622.101	2166.71
622.457	2170.78
622.812	2164
623.168	2121.74
623.523	2167.39
623.879	2128.52
624.234	2170.55
624.589	2152.92
624.945	2146.14
625.3	2159.7
625.655	2186.6
626.01	2154.05
626.365	2151.79
626.72	2149.31
627.075	2182.08
627.43	2166.48
627.785	2151.79
628.14	2167.39
628.495	2179.36
628.85	2142.08
629.205	2120.83
629.559	2158.8
629.914	2148.63
630.269	2156.31
630.623	2178.23
630.978	2161.28
631.332	2181.62
631.687	2136.43
632.041	2160.61
632.396	2157.44
632.75	2124
633.104	2155.64
633.459	2148.18
633.813	2182.98
634.167	2172.13
634.521	2209.65
634.875	2137.56
635.229	2140.49
635.583	2144.56
635.937	2180.72
636.291	2177.1
636.645	2170.32
636.999	2187.27
637.352	2196.54
637.706	2149.08
638.06	2192.02
638.413	2151.57
638.767	2160.61
639.121	2146.14
639.474	2138.23
639.828	2121.51
640.181	2140.49
640.534	2146.82
640.888	2136.65
641.241	2172.58
641.594	2147.27
641.947	2134.17
642.301	2154.28
642.654	2155.86
643.007	2157.44
643.36	2160.16
643.713	2183.43
644.066	2159.7
644.419	2131.23
644.771	2134.62
645.124	2090.1
645.477	2092.36
645.83	2143.66
646.182	2118.35
646.535	2107.95
646.888	2102.98
647.24	2132.36
647.593	2148.63
647.945	2111.12
648.298	2128.97
648.65	2112.92
649.002	2112.7
649.355	2149.76
649.707	2143.66
650.059	2171.23
650.411	2184.56
650.763	2173.49
651.115	2185.01
651.467	2180.04
651.819	2209.87
652.171	2214.39
652.523	2224.79
652.875	2209.87
653.227	2204
653.578	2201.28
653.93	2195.63
654.282	2234.5
654.633	2188.63
654.985	2211.68
655.337	2209.42
655.688	2213.04
656.039	2224.11
656.391	2209.42
656.742	2192.47
657.094	2221.17
657.445	2225.24
657.796	2215.52
658.147	2202.64
658.498	2218.01
658.849	2225.01
659.2	2262.3
659.551	2241.73
659.902	2241.06
660.253	2237.89
660.604	2265.01
660.955	2250.55
661.306	2244.22
661.656	2253.94
662.007	2260.72
662.358	2265.91
662.708	2214.62
663.059	2242.64
663.409	2247.38
663.76	2252.13
664.11	2253.71
664.461	2256.2
664.811	2294.61
665.161	2273.15
665.511	2269.53
665.862	2239.7
666.212	2254.62
666.562	2259.14
666.912	2262.3
667.262	2225.46
667.612	2242.19
667.962	2247.84
668.312	2267.04
668.662	2232.92
669.011	2241.51
669.361	2251.23
669.711	2266.14
670.06	2200.38
670.41	2239.7
670.76	2281.73
671.109	2223.88
671.459	2272.24
671.808	2225.92
672.157	2260.27
672.507	2213.94
672.856	2175.52
673.205	2217.78
673.554	2227.72
673.904	2180.95
674.253	2190.89
674.602	2194.5
674.951	2162.19
675.3	2136.88
675.649	2173.26
675.998	2187.72
676.346	2162.64
676.695	2201.28
677.044	2181.85
677.393	2174.39
677.741	2226.59
678.09	2185.69
678.438	2190.66
678.787	2158.8
679.135	2136.2
679.484	2149.53
679.832	2138.23
680.181	2173.26
680.529	2144.56
680.877	2119.93
681.225	2131.91
681.573	2133.49
681.922	2097.56
682.27	2146.37
682.618	2141.4
682.966	2153.6
683.314	2094.62
683.661	2098.91
684.009	2116.77
684.357	2114.51
684.705	2076.09
685.053	2133.49
685.4	2096.88
685.748	2103.89
686.095	2044.45
686.443	2084.68
686.79	2050.55
687.138	2065.69
687.485	2070.44
687.832	2048.97
688.18	2050.33
688.527	2050.55
688.874	2037.9
689.221	2013.04
689.568	2014.85
689.915	2039.93
690.262	2051.01
690.609	1997.9
690.956	1989.54
691.303	2022.76
691.65	1995.87
691.997	1997
692.344	2012.59
692.69	1978.92
693.037	1982.08
693.383	1953.83
693.73	1951.8
694.077	1936.43
694.423	1987.5
694.769	1936.43
695.116	1950.22
695.462	1947.51
695.808	1932.36
696.155	1931.01
696.501	1941.63
696.847	1909.09
697.193	1874.06
697.539	1874.29
697.885	1891.69
698.231	1919.48
698.577	1900.5
698.923	1895.98
699.269	1893.72
699.614	1841.75
699.96	1835.87
700.306	1890.56
700.651	1827.51
700.997	1878.58
701.342	1854.17
701.688	1856.89
702.033	1837.23
702.379	1829.77
702.724	1869.77
703.069	1869.32
703.415	1825.25
703.76	1798.81
704.105	1831.58
704.45	1837.68
704.795	1825.7
705.14	1815.76
705.485	1842.65
705.83	1792.48
706.175	1828.41
706.52	1832.71
706.865	1808.53
707.209	1799.49
707.554	1844.68
707.899	1832.93
708.243	1772.14
708.588	1814.63
708.932	1824.57
709.277	1785.02
709.621	1837.23
709.966	1804.01
710.31	1830.9
710.654	1787.28
710.998	1812.14
711.342	1827.51
711.687	1802.88
712.031	1796.1
712.375	1814.18
712.719	1780.05
713.063	1813.05
713.407	1774.4
713.75	1795.87
714.094	1835.19
714.438	1826.38
714.782	1821.63
715.125	1819.15
715.469	1845.14
715.812	1851.69
716.156	1809.2
716.499	1825.93
716.843	1844.91
717.186	1839.71
717.53	1854.4
717.873	1868.86
718.216	1848.07
718.559	1835.19
718.902	1852.59
719.246	1849.43
719.589	1825.93
719.932	1867.96
720.275	1859.37
720.617	1857.11
720.96	1884
721.303	1920.61
721.646	1846.94
721.989	1876.77
722.331	1868.64
722.674	1904.57
723.016	1890.11
723.359	1902.31
723.701	1919.71
724.044	1910.44
724.386	1921.52
724.729	1905.92
725.071	1950.44
725.413	1912.48
725.755	1924
726.097	1920.84
726.439	1950.44
726.782	1963.1
727.124	1969.65
727.465	1957.22
727.807	1957.67
728.149	1966.26
728.491	1997.22
728.833	1985.92
729.175	2007.62
729.516	1995.19
729.858	2020.05
730.199	2043.77
730.541	2051.01
730.882	2056.43
731.224	2069.99
731.565	2035.86
731.906	2064.56
732.248	2054.62
732.589	2069.54
732.93	2073.38
733.271	2093.26
733.612	2115.18
733.953	2127.61
734.294	2132.36
734.635	2126.71
734.976	2157.9
735.317	2166.03
735.658	2170.32
735.999	2178.46
736.339	2198.8
736.68	2203.32
737.021	2196.99
737.361	2204.67
737.702	2226.14
738.042	2244.9
738.383	2285.58
738.723	2307.04
739.063	2291
739.404	2315.18
739.744	2304.33
740.084	2358.79
740.424	2371
740.764	2387.27
741.104	2415.97
741.444	2447.15
741.784	2456.42
742.124	2488.06
742.464	2485.12
742.804	2506.59
743.143	2542.74
743.483	2571.22
743.823	2568.96
744.162	2622.06
744.502	2629.3
744.841	2640.59
745.181	2700.03
745.52	2761.27
745.86	2761.27
746.199	2809.18
746.538	2847.14
746.877	2845.56
747.216	2914.94
747.556	2959.23
747.895	2956.74
748.234	2983.86
748.573	3052.11
748.911	3106.34
749.25	3143.18
749.589	3146.12
749.928	3190.64
750.267	3243.52
750.605	3276.96
750.944	3333.68
751.283	3422.49
751.621	3451.19
751.96	3504.07
752.298	3526.67
752.636	3559.67
752.975	3597.86
753.313	3685.99
753.651	3733.67
753.989	3779.1
754.327	3827.68
754.666	3908.81
755.004	3929.6
755.342	4017.73
755.679	4069.03
756.017	4099.77
756.355	4197.62
756.693	4241.68
757.031	4263.6
757.368	4348.8
757.706	4459.76
758.044	4470.83
758.381	4578.85
758.719	4593.99
759.056	4685.96
759.394	4718.28
759.731	4742.46
760.068	4810.93
760.405	4845.06
760.743	4908.78
761.08	5015.67
761.417	5017.48
761.754	5089.12
762.091	5146.07
762.428	5168.44
762.765	5195.33
763.102	5358.94
763.438	5345.83
763.775	5389
764.112	5478.03
764.449	5537.47
764.785	5562.33
765.122	5584.02
765.458	5621.98
765.795	5750.12
766.131	5741.53
766.467	5758.7
766.804	5805.03
767.14	5872.83
767.476	5883.67
767.812	5939.26
768.148	5960.73
768.485	6001.86
768.821	6005.25
769.157	6046.15
769.492	6101.52
769.828	6145.59
770.164	6188.07
770.5	6184.91
770.836	6256.09
771.171	6252.93
771.507	6247.51
771.842	6258.58
772.178	6368.63
772.513	6299.48
772.849	6391
773.184	6429.65
773.519	6405.24
773.855	6400.72
774.19	6470.78
774.525	6497.44
774.86	6482.53
775.195	6506.26
775.53	6514.16
775.865	6601.39
776.2	6521.17
776.535	6556.42
776.87	6579.7
777.205	6571.56
777.539	6533.37
777.874	6600.04
778.209	6591.45
778.543	6661.96
778.878	6611.79
779.212	6633.94
779.547	6682.07
779.881	6642.3
780.215	6671.67
780.55	6729.98
780.884	6772.01
781.218	6722.52
781.552	6730.43
781.886	6711.45
782.22	6698.34
782.554	6653.37
782.888	6659.02
783.222	6655.86
783.556	6731.33
783.889	6682.75
784.223	6668.51
784.557	6676.87
784.89	6720.94
785.224	6687.04
785.557	6674.39
785.891	6733.37
786.224	6710.09
786.558	6799.13
786.891	6664.22
787.224	6739.24
787.557	6703.99
787.891	6727.27
788.224	6708.74
788.557	6804.33
788.89	6777.89
789.223	6786.02
789.556	6685.91
789.888	6696.76
790.221	6704.67
790.554	6634.61
790.887	6684.56
791.219	6701.28
791.552	6687.04
791.884	6711.67
792.217	6756.87
792.549	6743.09
792.882	6632.13
793.214	6705.35
793.546	6705.12
793.879	6657.66
794.211	6691.11
794.543	6683.2
794.875	6695.4
795.207	6737.44
795.539	6694.95
795.871	6728.62
796.203	6684.78
796.535	6580.38
796.867	6593.03
797.198	6694.05
797.53	6668.96
797.862	6614.5
798.193	6600.26
798.525	6628.96
798.856	6606.14
799.188	6588.06
799.519	6536.54
799.85	6579.93
800.182	6521.17
800.513	6597.55
800.844	6489.53
801.175	6587.38
801.506	6573.37
801.837	6529.98
802.168	6533.6
802.499	6510.1
802.83	6487.72
803.161	6516.42
803.491	6493.83
803.822	6526.37
804.153	6450.21
804.483	6423.77
804.814	6456.54
805.145	6431.46
805.475	6473.04
805.805	6451.34
806.136	6474.84
806.466	6510.78
806.796	6406.6
807.126	6475.52
807.457	6367.05
807.787	6406.37
808.117	6412.25
808.447	6342.87
808.777	6400.72
809.107	6388.52
809.436	6326.83
809.766	6372.47
810.096	6368.18
810.426	6325.02
810.755	6331.34
811.085	6327.05
811.414	6379.48
811.744	6294.74
812.073	6328.86
812.403	6325.7
812.732	6304.23
813.061	6285.47
813.39	6267.17
813.719	6289.09
814.049	6331.8
814.378	6312.59
814.707	6252.25
815.036	6332.47
815.365	6254.06
815.693	6248.41
816.022	6278.69
816.351	6200.5
816.68	6183.33
817.008	6211.8
817.337	6217
817.665	6137.45
817.994	6212.03
818.322	6192.14
818.651	6158.47
818.979	6188.52
819.307	6188.52
819.636	6166.38
819.964	6112.59
820.292	6168.19
820.62	6143.55
820.948	6130.9
821.276	6171.12
821.604	6186.04
821.932	6191.01
822.259	6159.37
822.587	6135.87
822.915	6162.54
823.243	6171.35
823.57	6200.05
823.898	6184
824.225	6202.53
824.553	6179.71
824.88	6218.13
825.207	6204.12
825.535	6206.6
825.862	6207.28
826.189	6248.64
826.516	6293.38
826.843	6246.15
827.17	6245.47
827.497	6250.44
827.824	6296.77
828.151	6283.66
828.478	6260.61
828.805	6303.32
829.131	6244.12
829.458	6275.75
829.785	6225.58
830.111	6306.03
830.438	6297.67
830.764	6289.76
831.09	6280.95
831.417	6278.01
831.743	6268.52
832.069	6252.48
832.395	6260.16
832.722	6289.99
833.048	6295.19
833.374	6303.55
833.7	6254.51
834.026	6250.44
834.351	6265.81
834.677	6315.07
835.003	6292.02
835.329	6286.37
835.654	6278.24
835.98	6232.14
836.306	6284.57
836.631	6270.1
836.956	6339.48
837.282	6276.66
837.607	6245.25
837.932	6199.82
838.258	6251.12
838.583	6228.97
838.908	6153.27
839.233	6239.6
839.558	6208.18
839.883	6173.83
840.208	6179.26
840.533	6157.79
840.858	6204.12
841.182	6184.46
841.507	6181.07
841.832	6118.02
842.156	6125.25
842.481	6169.77
842.805	6105.14
843.13	6111.46
843.454	6080.96
843.778	6094.06
844.103	6104.23
844.427	6085.25
844.751	6094.97
845.075	6047.96
845.399	6064.91
845.723	5960.28
846.047	6035.76
846.371	5980.39
846.695	5976.55
847.019	5970.45
847.343	5878.7
847.666	5865.14
847.99	5869.89
848.313	5852.49
848.637	5778.82
848.96	5826.27
849.284	5812.94
849.607	5762.77
849.931	5818.14
850.254	5692.94
850.577	5728.65
850.9	5748.99
851.223	5672.83
851.546	5650.01
851.869	5625.37
852.192	5661.31
852.515	5574.75
852.838	5546.73
853.161	5556.68
853.483	5505.6
853.806	5495.21
854.129	5532.04
854.451	5478.94
854.774	5488.2
855.096	5480.52
855.419	5496.56
855.741	5446.85
856.063	5393.74
856.385	5389.22
856.708	5380.18
857.03	5358.72
857.352	5371.14
857.674	5386.51
857.996	5313.52
858.318	5345.83
858.64	5302.67
858.961	5281.2
859.283	5295.67
859.605	5279.4
859.926	5287.3
860.248	5227.42
860.57	5219.96
860.891	5238.94
861.212	5252.73
861.534	5242.56
861.855	5170.92
862.176	5224.03
862.498	5167.53
862.819	5179.06
863.14	5171.6
863.461	5193.07
863.782	5153.3
864.103	5138.83
864.424	5143.58
864.745	5140.42
865.065	5094.77
865.386	5120.08
865.707	5109.91
866.027	5070.14
866.348	5090.25
866.668	5118.04
866.989	5058.38
867.309	4989.46
867.63	5007.76
867.95	4962.34
868.27	5040.98
868.59	5036.01
868.91	5007.31
869.23	4967.99
869.55	4970.93
869.87	4969.12
870.19	4984.04
870.51	4976.58
870.83	5031.49
871.15	4954.43
871.469	4965.28
871.789	4978.39
872.109	4985.17
872.428	4950.59
872.748	4981.55
873.067	4932.29
873.386	4937.94
873.706	4893.64
874.025	4878.28
874.344	4893.64
874.663	4924.38
874.982	4868.11
875.301	4922.57
875.62	4874.89
875.939	4854.55
876.258	4891.16
876.577	4789.24
876.896	4843.25
877.214	4806.19
877.533	4835.56
877.852	4818.16
878.17	4812.51
878.489	4755.34
878.807	4787.66
879.125	4734.1
879.444	4812.97
879.762	4786.07
880.08	4808.22
880.398	4771.16
880.716	4767.77
881.034	4753.31
881.352	4782.46
881.67	4751.73
881.988	4733.42
882.306	4732.74
882.624	4760.99
882.941	4700.2
883.259	4668.34
883.577	4663.82
883.894	4614.33
884.212	4660.43
884.529	4604.61
884.846	4623.14
885.164	4645.97
885.481	4645.29
885.798	4605.06
886.115	4584.27
886.432	4591.05
886.75	4543.6
887.067	4565.52
887.383	4509.25
887.7	4524.16
888.017	4523.71
888.334	4532.97
888.651	4480.32
888.967	4472.86
889.284	4473.31
889.6	4441
889.917	4395.8
890.233	4430.15
890.55	4394.67
890.866	4455.24
891.182	4413.43
891.498	4401
891.815	4351.96
892.131	4390.15
892.447	4336.82
892.763	4349.93
893.079	4320.32
893.395	4327.78
893.71	4294.34
894.026	4292.3
894.342	4300.66
894.657	4251.4
894.973	4251.63
895.289	4262.47
895.604	4194.45
895.92	4192.42
896.235	4199.42
896.55	4217.5
896.865	4159.42
897.181	4178.86
897.496	4154.45
897.811	4160.33
898.126	4116.26
898.441	4063.38
898.756	4103.38
899.071	4084.85
899.386	4068.81
899.7	4048.69
900.015	4007.11
900.33	3950.39
900.644	3987.45
900.959	3967.11
901.273	3983.84
901.588	3929.6
901.902	3938.19
902.216	3894.12
902.531	3915.14
902.845	3897.51
903.159	3856.61
903.473	3873.56
903.787	3844.18
904.101	3859.32
904.415	3824.52
904.729	3795.37
905.042	3768.93
905.356	3783.84
905.67	3768.25
905.984	3736.38
906.297	3691.87
906.611	3745.65
906.924	3763.73
907.237	3719.89
907.551	3698.42
907.864	3688.02
908.177	3658.42
908.491	3638.99
908.804	3683.28
909.117	3628.82
909.43	3605.54
909.743	3561.7
910.056	3589.72
910.368	3593.34
910.681	3535.49
910.994	3518.76
911.307	3488.26
911.619	3521.02
911.932	3527.8
912.244	3448.26
912.557	3465.43
912.869	3446.45
913.181	3433.57
913.494	3441.03
913.806	3431.76
914.118	3414.36
914.43	3408.26
914.742	3380.69
915.054	3374.59
915.366	3326.9
915.678	3337.3
915.99	3338.2
916.302	3324.87
916.613	3308.15
916.925	3267.7
917.236	3261.6
917.548	3227.25
917.859	3256.17
918.171	3223.4
918.482	3194.7
918.794	3201.48
919.105	3216.62
919.416	3159.9
919.727	3160.81
920.038	3161.94
920.349	3132.78
920.66	3139.79
920.971	3133.01
921.282	3151.09
921.593	3111.99
921.903	3090.75
922.214	3066.35
922.525	3077.19
922.835	3056.18
923.146	3061.15
923.456	3068.38
923.767	3060.02
924.077	3019.34
924.387	3009.85
924.697	2998.33
925.008	2988.83
925.318	3015.27
925.628	2984.09
925.938	2961.94
926.248	2896.41
926.558	2889.18
926.867	2912.23
927.177	2876.52
927.487	2907.03
927.796	2846.69
928.106	2907.03
928.416	2860.93
928.725	2835.17
929.034	2836.52
929.344	2839.91
929.653	2833.36
929.962	2817.09
930.271	2799.01
930.581	2804.88
930.89	2777.31
931.199	2750.2
931.508	2736.19
931.817	2756.52
932.125	2716.52
932.434	2734.38
932.743	2733.02
933.051	2680.82
933.36	2686.69
933.669	2666.81
933.977	2647.83
934.286	2645.34
934.594	2637.43
934.902	2639.46
935.21	2644.66
935.519	2609.63
935.827	2579.13
936.135	2560.82
936.443	2583.19
936.751	2586.81
937.059	2547.26
937.367	2563.76
937.674	2555.17
937.982	2538
938.29	2531.22
938.597	2542.97
938.905	2540.03
939.213	2510.43
939.52	2490.99
939.827	2489.19
940.135	2475.4
940.442	2438.34
940.749	2434.5
941.056	2423.88
941.363	2443.99
941.67	2453.71
941.977	2385.01
942.284	2400.83
942.591	2401.28
942.898	2363.77
943.205	2356.53
943.511	2368.96
943.818	2323.31
944.125	2350.88
944.431	2336.42
944.738	2337.1
945.044	2342.3
945.35	2308.85
945.657	2326.7
945.963	2293.03
946.269	2279.47
946.575	2269.3
946.881	2255.29
947.187	2267.04
947.493	2256.42
947.799	2209.42
948.105	2219.59
948.41	2220.04
948.716	2200.38
949.022	2217.33
949.327	2205.8
949.633	2180.95
949.938	2194.96
950.244	2181.17
950.549	2173.04
950.854	2162.19
951.16	2143.88
951.465	2127.84
951.77	2122.64
952.075	2095.52
952.38	2106.82
952.685	2138.46
952.99	2098.24
953.294	2094.17
953.599	2107.05
953.904	2082.19
954.209	2089.87
954.513	2063.21
954.818	2073.83
955.122	2065.02
955.426	2044.45
955.731	2025.47
956.035	2022.53
956.339	2021.4
956.643	1998.13
956.948	1964.68
957.252	1991.8
957.556	1976.88
957.86	1972.36
958.163	1973.49
958.467	1944.34
958.771	1964
959.075	1930.33
959.378	1934.62
959.682	1921.07
959.985	1888.07
960.289	1933.49
960.592	1897.34
960.896	1914.51
961.199	1890.78
961.502	1918.13
961.805	1859.15
962.108	1851.24
962.411	1859.6
962.714	1837
963.017	1826.15
963.32	1841.75
963.623	1847.85
963.926	1830.9
964.228	1796.77
964.531	1832.03
964.833	1814.63
965.136	1817.11
965.438	1781.63
965.741	1771.24
966.043	1778.47
966.345	1757.45
966.648	1755.87
966.95	1778.92
967.252	1738.7
967.554	1739.15
967.856	1725.14
968.158	1714.07
968.46	1747.74
968.761	1712.03
969.063	1688.08
969.365	1746.15
969.666	1699.83
969.968	1706.61
970.269	1658.47
970.571	1670.45
970.872	1666.38
971.174	1662.09
971.475	1670.22
971.776	1630.9
972.077	1660.51
972.378	1636.78
972.679	1632.49
972.98	1611.24
973.281	1621.86
973.582	1652.15
973.883	1582.77
974.183	1601.98
974.484	1610.56
974.785	1584.58
975.085	1551.81
975.386	1571.7
975.686	1561.53
975.986	1587.74
976.287	1579.38
976.587	1531.47
976.887	1523.34
977.187	1550.91
977.487	1553.17
977.787	1535.99
978.087	1505.03
978.387	1509.55
978.687	1538.02
978.987	1513.84
979.286	1486.05
979.586	1507.06
979.885	1491.7
980.185	1474.75
980.484	1491.7
980.784	1456.44
981.083	1460.96
981.382	1441.08
981.682	1437.46
981.981	1470.46
982.28	1443.34
982.579	1467.07
982.878	1416.22
983.177	1437.69
983.475	1426.39
983.774	1454.18
984.073	1404.02
984.372	1376.9
984.67	1392.04
984.969	1384.36
985.267	1374.41
985.566	1383.45
985.864	1377.8
986.162	1377.12
986.461	1361.98
986.759	1361.98
987.057	1341.65
987.355	1328.09
987.653	1339.61
987.951	1340.74
988.249	1331.25
988.547	1306.39
988.844	1332.15
989.142	1322.89
989.44	1291.93
989.737	1291.25
990.035	1296
990.332	1277.47
990.63	1288.99
990.927	1268.2
991.224	1263.68
991.521	1274.08
991.819	1285.83
992.116	1257.13
992.413	1270.01
992.71	1257.13
993.006	1234.76
993.303	1231.82
993.6	1246.51
993.897	1250.8
994.193	1226.62
994.49	1207.41
994.787	1220.97
995.083	1192.72
995.379	1206.96
995.676	1214.42
995.972	1192.95
996.268	1202.67
996.565	1190.92
996.861	1134.65
997.157	1191.59
997.453	1151.59
997.749	1170.58
998.044	1139.16
998.34	1163.12
998.636	1138.49
998.932	1117.92
999.227	1148.43
999.523	1143.46
999.818	1115.89
1000.114	1127.19
1000.409	1096
1000.704	1085.61
1001	1081.54
1001.295	1107.53
1001.59	1095.32
1001.885	1126.06
1002.18	1083.35
1002.475	1099.62
1002.77	1069.34
1003.065	1058.72
1003.359	1059.17
1003.654	1066.62
1003.949	1074.53
1004.243	1054.42
1004.538	1036.57
1004.832	1048.55
1005.127	1008.55
1005.421	1039.73
1005.715	1010.58
1006.009	1023.01
1006.304	1012.39
1006.598	1006.74
1006.892	1003.58
1007.186	1008.09
1007.48	1005.84
1007.773	985.27
1008.067	991.6
1008.361	980.75
1008.655	973.97
1008.948	958.15
1009.242	967.19
1009.535	973.52
1009.829	966.29
1010.122	940.3
1010.415	963.8
1010.708	948.66
1011.001	925.16
1011.295	950.47
1011.588	926.52
1011.881	913.63
1012.173	923.13
1012.466	933.07
1012.759	931.03
1013.052	889
1013.344	914.09
1013.637	907.08
1013.93	881.54
1014.222	881.32
1014.514	913.41
1014.807	901.21
1015.099	885.61
1015.391	862.11
1015.683	872.51
1015.976	857.14
1016.268	876.57
1016.56	849.68
1016.851	866.4
1017.143	858.04
1017.435	845.61
1017.727	865.5
1018.018	846.29
1018.31	855.56
1018.602	828.44
1018.893	804.48
1019.185	828.89
1019.476	811.72
1019.767	804.26
1020.058	798.83
1020.35	819.85
1020.641	813.98
1020.932	785.28
1021.223	772.85
1021.514	801.77
1021.804	783.69
1022.095	766.97
1022.386	796.58
1022.677	760.87
1022.967	760.19
1023.258	771.94
1023.548	758.61
1023.839	779.4
1024.129	750.02
1024.419	768.55
1024.709	726.07
1025	756.8
1025.29	770.59
1025.58	721.55
1025.87	722
1026.16	718.61
1026.449	748.89
1026.739	717.93
1027.029	718.61
1027.319	692.17
1027.608	692.17
1027.898	698.95
1028.187	698.72
1028.477	717.48
1028.766	682
1029.055	699.63
1029.344	695.79
1029.634	692.85
1029.923	674.54
1030.212	671.15
1030.501	673.41
1030.79	689.01
1031.078	672.28
1031.367	661.44
1031.656	664.38
1031.945	654.21
1032.233	658.27
1032.522	665.51
1032.81	665.73
1033.099	648.78
1033.387	624.38
1033.675	643.58
1033.963	635.22
1034.251	655.34
1034.54	631.38
1034.828	613.08
1035.116	628.67
1035.403	618.5
1035.691	618.95
1035.979	621.66
1036.267	627.77
1036.554	611.04
1036.842	581.44
1037.129	579.18
1037.417	606.98
1037.704	610.14
1037.992	613.3
1038.279	604.04
1038.566	598.16
1038.853	598.16
1039.14	598.16
