Data from blue_chair_FLMS001491_00010.txt Node
Date: Wed Feb 08 10:28:56 GMT 2017
User: dcchb
Spectrometer: FLMS00149
Trigger mode: 0
Integration Time (sec): 2.000000E-2
Scans to average: 10
Electric dark correction enabled: true
Nonlinearity correction enabled: false
Boxcar width: 0
XAxis mode: Wavelengths
Number of Pixels in Spectrum: 2048
>>>>>Begin Spectral Data<<<<<
341.393	-31.64
341.776	-31.64
342.16	-31.64
342.543	-64.63
342.927	-60.56
343.31	-70.28
343.693	-68.02
344.077	-40
344.46	-66.89
344.843	-49.04
345.226	-64.18
345.61	-31.64
345.993	-17.85
346.376	0.68
346.759	11.98
347.142	21.69
347.525	33.9
347.908	65.08
348.291	65.08
348.674	103.27
349.057	106.21
349.44	120.22
349.823	133.33
350.206	156.38
350.588	161.13
350.971	194.8
351.354	204.97
351.737	211.29
352.119	217.17
352.502	232.08
352.884	251.52
353.267	247.23
353.65	257.39
354.032	265.76
354.414	276.15
354.797	284.51
355.179	302.59
355.562	311.18
355.944	300.33
356.326	282.25
356.709	312.76
357.091	310.73
357.473	312.31
357.855	311.4
358.238	300.78
358.62	307.79
359.002	302.14
359.384	324.96
359.766	296.72
360.148	312.76
360.53	310.73
360.912	289.26
361.294	288.35
361.676	296.72
362.057	313.21
362.439	308.47
362.821	314.57
363.203	294.68
363.584	297.17
363.966	286.32
364.348	294.23
364.729	297.85
365.111	297.17
365.493	284.29
365.874	281.8
366.256	279.31
366.637	290.61
367.019	284.74
367.4	278.64
367.781	279.54
368.163	282.25
368.544	281.8
368.925	293.1
369.306	291.74
369.688	263.04
370.069	283.83
370.45	287.45
370.831	300.78
371.212	292.65
371.593	288.81
371.974	279.31
372.355	277.28
372.736	275.7
373.117	278.64
373.498	287
373.879	282.48
374.26	295.81
374.641	266.89
375.021	281.12
375.402	265.53
375.783	259.2
376.163	284.96
376.544	298.52
376.925	275.7
377.305	282.93
377.686	298.3
378.066	283.61
378.447	284.51
378.827	297.62
379.208	286.32
379.588	282.7
379.968	293.78
380.349	294
380.729	295.13
381.109	279.77
381.489	301.24
381.87	283.16
382.25	280.22
382.63	306.88
383.01	293.1
383.39	293.33
383.77	304.17
384.15	324.96
384.53	289.94
384.91	303.27
385.29	303.04
385.67	258.3
386.049	286.32
386.429	299.88
386.809	299.43
387.189	296.72
387.568	289.26
387.948	318.18
388.328	302.14
388.707	325.42
389.087	310.73
389.466	298.3
389.846	298.3
390.225	309.37
390.605	314.12
390.984	313.89
391.363	312.76
391.743	287.45
392.122	296.94
392.501	323.38
392.881	315.7
393.26	301.46
393.639	330.61
394.018	312.31
394.397	311.18
394.776	332.19
395.155	325.42
395.534	314.57
395.913	305.75
396.292	317.51
396.671	341.23
397.05	324.96
397.429	336.49
397.808	327.9
398.186	322.7
398.565	328.13
398.944	310.95
399.323	333.78
399.701	327.9
400.08	323.16
400.458	334.68
400.837	341.01
401.215	335.58
401.594	325.42
401.972	332.19
402.351	332.42
402.729	338.3
403.107	334.23
403.486	340.78
403.864	354.57
404.242	354.11
404.62	341.01
404.999	337.17
405.377	339.65
405.755	353.44
406.133	385.3
406.511	357.5
406.889	358.18
407.267	352.31
407.645	376.26
408.023	367.22
408.401	373.78
408.779	376.04
409.156	368.8
409.534	373.1
409.912	371.29
410.29	383.49
410.667	381.46
411.045	379.88
411.422	392.53
411.8	408.8
412.178	383.72
412.555	403.61
412.933	383.49
413.31	385.3
413.687	375.58
414.065	412.87
414.442	429.14
414.819	376.26
415.197	393.44
415.574	404.06
415.951	417.84
416.328	406.77
416.705	411.51
417.082	413.77
417.46	406.54
417.837	422.81
418.214	426.88
418.591	423.27
418.967	411.06
419.344	417.62
419.721	433.43
420.098	429.59
420.475	421.01
420.852	430.5
421.228	416.71
421.605	445.41
421.982	416.26
422.358	450.61
422.735	429.82
423.111	442.7
423.488	449.71
423.864	443.6
424.241	451.97
424.617	463.94
424.994	445.41
425.37	461.91
425.746	471.63
426.123	476.82
426.499	464.62
426.875	468.24
427.251	454.68
427.627	493.32
428.003	498.74
428.379	486.77
428.756	498.29
429.132	482.93
429.507	515.01
429.883	503.94
430.259	519.08
430.635	503.94
431.011	537.61
431.387	511.85
431.763	543.26
432.138	542.58
432.514	536.71
432.89	526.77
433.265	540.55
433.641	543.71
434.016	568.57
434.392	552.08
434.767	560.89
435.143	576.03
435.518	570.38
435.894	583.71
436.269	601.34
436.644	578.06
437.02	593.88
437.395	597.5
437.77	592.75
438.145	588.69
438.52	622.36
438.895	600.89
439.271	610.38
439.646	626.42
440.021	640.89
440.395	623.26
440.77	653.09
441.145	629.36
441.52	666.88
441.895	665.97
442.27	653.77
442.645	648.34
443.019	696.48
443.394	664.16
443.769	661.45
444.143	684.05
444.518	693.77
444.892	685.18
445.267	694.45
445.641	694.45
446.016	716.14
446.39	736.93
446.764	747.1
447.139	710.04
447.513	724.95
447.887	728.12
448.262	730.15
448.636	729.7
449.01	733.54
449.384	755.46
449.758	750.94
450.132	742.35
450.506	759.75
450.88	768.79
451.254	785.29
451.628	766.99
452.002	770.15
452.376	787.1
452.75	811.96
453.123	802.92
453.497	818.96
453.871	794.33
454.244	802.01
454.618	831.16
454.992	826.42
455.365	817.83
455.739	821.45
456.112	848.79
456.486	823.71
456.859	837.27
457.232	863.25
457.606	876.36
457.979	862.8
458.352	909.58
458.725	910.03
459.099	883.37
459.472	903.48
459.845	906.19
460.218	899.86
460.591	928.34
460.964	916.81
461.337	931.27
461.71	939.41
462.083	969.92
462.456	949.58
462.829	946.87
463.201	965.4
463.574	960.43
463.947	974.21
464.32	984.61
464.692	980.77
465.065	991.61
465.438	976.25
465.81	1013.98
466.183	993.65
466.555	1050.14
466.928	1028.9
467.3	1028.45
467.672	1056.02
468.045	1060.99
468.417	1025.28
468.789	1044.49
469.161	1080.42
469.534	1077.26
469.906	1072.29
470.278	1089.01
470.65	1081.33
471.022	1118.39
471.394	1127.2
471.766	1121.33
472.138	1128.78
472.51	1126.98
472.882	1157.48
473.253	1156.81
473.625	1155.9
473.997	1219.18
474.369	1182.57
474.74	1198.84
475.112	1198.61
475.484	1231.15
475.855	1233.41
476.227	1220.31
476.598	1271.38
476.97	1289.68
477.341	1284.49
477.713	1271.83
478.084	1305.95
478.455	1339.63
478.827	1340.53
479.198	1326.97
479.569	1337.59
479.94	1346.18
480.311	1373.98
480.682	1385.95
481.053	1410.58
481.424	1400.19
481.795	1409.23
482.166	1412.17
482.537	1416.91
482.908	1442.22
483.279	1449.23
483.65	1450.58
484.021	1486.74
484.391	1492.84
484.762	1493.75
485.133	1494.42
485.503	1515.44
485.874	1514.08
486.244	1547.08
486.615	1569.22
486.985	1558.38
487.356	1533.74
487.726	1544.59
488.097	1563.57
488.467	1572.84
488.837	1554.76
489.207	1565.38
489.578	1587.3
489.948	1588.43
490.318	1618.26
490.688	1589.56
491.058	1633.4
491.428	1639.73
491.798	1655.32
492.168	1636.34
492.538	1637.7
492.908	1665.27
493.278	1651.03
493.648	1671.82
494.017	1645.61
494.387	1634.08
494.757	1633.86
495.126	1659.62
495.496	1636.34
495.866	1672.5
496.235	1673.4
496.605	1656.23
496.974	1646.74
497.344	1632.95
497.713	1649.67
498.082	1616.45
498.452	1688.54
498.821	1675.89
499.19	1651.71
499.559	1667.53
499.928	1659.39
500.298	1634.99
500.667	1667.07
501.036	1629.79
501.405	1649.9
501.774	1627.3
502.143	1629.11
502.512	1625.49
502.88	1641.09
503.249	1622.56
503.618	1617.13
503.987	1625.95
504.356	1591.14
504.724	1657.81
505.093	1623.91
505.462	1618.71
505.83	1641.31
506.199	1619.84
506.567	1594.08
506.936	1622.1
507.304	1642.89
507.672	1586.62
508.041	1585.72
508.409	1593.18
508.777	1607.64
509.145	1616.45
509.514	1595.89
509.882	1557.02
510.25	1623.23
510.618	1578.26
510.986	1558.15
511.354	1571.26
511.722	1567.19
512.09	1581.65
512.458	1556.8
512.826	1538.49
513.193	1546.4
513.561	1575.55
513.929	1565.38
514.297	1533.52
514.664	1563.57
515.032	1545.5
515.4	1529.9
515.767	1514.76
516.135	1526.06
516.502	1498.27
516.869	1510.69
517.237	1532.62
517.604	1502.33
517.972	1487.87
518.339	1500.53
518.706	1497.36
519.073	1479.51
519.44	1487.87
519.808	1461.88
520.175	1468.89
520.542	1474.76
520.909	1456.46
521.276	1456.68
521.643	1481.32
522.009	1449.68
522.376	1457.81
522.743	1475.44
523.11	1451.71
523.477	1444.48
523.843	1442.67
524.21	1441.32
524.577	1458.49
524.943	1412.84
525.31	1444.71
525.676	1453.97
526.043	1490.81
526.409	1446.29
526.776	1435.89
527.142	1437.93
527.508	1409.68
527.874	1451.49
528.241	1432.5
528.607	1453.07
528.973	1434.09
529.339	1423.69
529.705	1472.28
530.071	1419.17
530.437	1423.47
530.803	1458.49
531.169	1417.14
531.535	1424.37
531.901	1424.37
532.267	1392.05
532.632	1420.98
532.998	1415.1
533.364	1416.69
533.73	1421.88
534.095	1422.56
534.461	1420.75
534.826	1406.52
535.192	1427.31
535.557	1422.79
535.923	1412.17
536.288	1427.31
536.653	1402.45
537.019	1390.47
537.384	1423.92
537.749	1432.5
538.114	1406.97
538.479	1369.23
538.845	1398.16
539.21	1388.21
539.575	1396.57
539.94	1397.7
540.305	1389.57
540.67	1412.62
541.034	1390.47
541.399	1392.73
541.764	1381.21
542.129	1387.31
542.494	1365.39
542.858	1354.99
543.223	1386.86
543.587	1363.35
543.952	1385.5
544.316	1367.65
544.681	1369.46
545.045	1366.74
545.41	1358.83
545.774	1329.91
546.138	1380.53
546.503	1339.17
546.867	1355.44
547.231	1366.52
547.595	1352.51
547.959	1350.92
548.324	1351.83
548.688	1373.3
549.052	1366.29
549.416	1348.67
549.779	1350.7
550.143	1331.49
550.507	1343.47
550.871	1314.77
551.235	1342.79
551.599	1333.52
551.962	1326.74
552.326	1357.03
552.689	1301.43
553.053	1322.23
553.417	1318.61
553.78	1344.37
554.143	1302.34
554.507	1310.47
554.87	1310.93
555.234	1289.46
555.597	1315.9
555.96	1284.03
556.323	1305.5
556.686	1315.22
557.05	1325.16
557.413	1295.79
557.776	1313.86
558.139	1298.95
558.502	1320.42
558.865	1314.99
559.228	1309.34
559.59	1294.88
559.953	1305.5
560.316	1299.17
560.679	1285.39
561.041	1291.27
561.404	1312.96
561.767	1310.25
562.129	1295.33
562.492	1313.41
562.854	1303.92
563.217	1286.97
563.579	1338.27
563.941	1301.43
564.304	1300.08
564.666	1301.43
565.028	1338.27
565.39	1294.66
565.753	1306.18
566.115	1339.63
566.477	1322.23
566.839	1325.39
567.201	1311.6
567.563	1328.1
567.925	1345.05
568.287	1325.39
568.648	1328.78
569.01	1314.09
569.372	1315.45
569.734	1336.91
570.095	1347.31
570.457	1361.77
570.819	1387.08
571.18	1333.07
571.542	1352.28
571.903	1371.04
572.265	1370.81
572.626	1373.3
572.987	1377.82
573.349	1345.95
573.71	1354.77
574.071	1381.66
574.432	1383.01
574.794	1399.06
575.155	1406.52
575.516	1375.78
575.877	1409
576.238	1388.66
576.599	1393.64
576.96	1419.4
577.32	1403.35
577.681	1431.37
578.042	1393.18
578.403	1418.95
578.763	1416.91
579.124	1416.69
579.485	1434.54
579.845	1442.9
580.206	1412.17
580.566	1430.24
580.927	1423.24
581.287	1443.13
581.648	1432.28
582.008	1453.3
582.368	1439.06
582.728	1438.61
583.089	1441.32
583.449	1478.38
583.809	1450.81
584.169	1447.87
584.529	1443.35
584.889	1485.16
585.249	1447.42
585.609	1487.64
585.969	1490.58
586.329	1473.63
586.688	1493.29
587.048	1473.41
587.408	1474.54
587.768	1500.3
588.127	1484.71
588.487	1498.04
588.846	1492.62
589.206	1485.84
589.565	1478.61
589.925	1474.99
590.284	1483.35
590.643	1505.05
591.003	1497.59
591.362	1492.84
591.721	1488.32
592.08	1468.66
592.44	1477.7
592.799	1485.16
593.158	1486.97
593.517	1493.29
593.876	1493.29
594.235	1510.47
594.593	1451.49
594.952	1503.24
595.311	1481.09
595.67	1485.84
596.029	1464.37
596.387	1466.63
596.746	1482.9
597.104	1489.45
597.463	1467.08
597.822	1489.68
598.18	1463.69
598.538	1464.59
598.897	1485.16
599.255	1452.17
599.613	1487.87
599.972	1484.71
600.33	1472.73
600.688	1461.2
601.046	1482.22
601.404	1451.04
601.762	1493.29
602.12	1472.96
602.478	1470.92
602.836	1480.19
603.194	1488.32
603.552	1490.58
603.91	1460.3
604.268	1491.94
604.625	1495.78
604.983	1474.09
605.341	1482.9
605.698	1466.63
606.056	1487.42
606.413	1490.81
606.771	1466.63
607.128	1493.07
607.485	1491.71
607.843	1473.86
608.2	1472.73
608.557	1497.36
608.914	1477.7
609.272	1497.81
609.629	1463.92
609.986	1513.41
610.343	1469.79
610.7	1458.94
611.057	1475.22
611.414	1476.8
611.771	1498.27
612.127	1480.19
612.484	1483.12
612.841	1470.02
613.198	1501.88
613.554	1495.33
613.911	1484.03
614.267	1491.26
614.624	1493.75
614.98	1477.7
615.337	1493.75
615.693	1527.64
616.05	1506.85
616.406	1506.63
616.762	1493.07
617.118	1487.64
617.475	1519.96
617.831	1496.01
618.187	1505.5
618.543	1504.59
618.899	1506.63
619.255	1503.46
619.611	1538.94
619.967	1516.8
620.323	1526.29
620.678	1517.47
621.034	1513.63
621.39	1493.75
621.746	1486.51
622.101	1522.9
622.457	1517.93
622.812	1515.44
623.168	1531.03
623.523	1514.54
623.879	1545.04
624.234	1518.83
624.589	1505.72
624.945	1517.47
625.3	1519.28
625.655	1528.77
626.01	1515.67
626.365	1529.45
626.72	1512.5
627.075	1504.37
627.43	1500.07
627.785	1512.95
628.14	1522.45
628.495	1522.45
628.85	1531.71
629.205	1534.42
629.559	1541.43
629.914	1528.77
630.269	1522.45
630.623	1507.76
630.978	1519.06
631.332	1530.58
631.687	1523.35
632.041	1533.07
632.396	1543.69
632.75	1501.43
633.104	1527.19
633.459	1515.44
633.813	1538.49
634.167	1507.53
634.521	1535.78
634.875	1524.03
635.229	1542.11
635.583	1521.32
635.937	1496.91
636.291	1546.85
636.645	1495.33
636.999	1502.56
637.352	1526.74
637.706	1535.55
638.06	1557.25
638.413	1536.46
638.767	1529.68
639.121	1537.13
639.474	1490.36
639.828	1529
640.181	1524.48
640.534	1524.25
640.888	1529.9
641.241	1542.78
641.594	1522.67
641.947	1509.79
642.301	1527.19
642.654	1528.55
643.007	1550.47
643.36	1534.87
643.713	1517.7
644.066	1554.54
644.419	1531.03
644.771	1545.5
645.124	1534.2
645.477	1527.64
645.83	1526.29
646.182	1549.11
646.535	1507.3
646.888	1502.11
647.24	1502.33
647.593	1534.2
647.945	1520.41
648.298	1547.08
648.65	1513.63
649.002	1502.56
649.355	1523.35
649.707	1524.25
650.059	1534.65
650.411	1559.73
650.763	1517.7
651.115	1549.34
651.467	1546.63
651.819	1568.32
652.171	1571.26
652.523	1579.85
652.875	1538.94
653.227	1580.75
653.578	1569
653.93	1584.14
654.282	1580.98
654.633	1585.72
654.985	1558.6
655.337	1557.7
655.688	1602.9
656.039	1576.46
656.391	1578.04
656.742	1566.29
657.094	1568.55
657.445	1600.18
657.796	1606.29
658.147	1601.09
658.498	1584.37
658.849	1617.36
659.2	1599.51
659.551	1613.97
659.902	1624.59
660.253	1623.69
660.604	1603.57
660.955	1594.08
661.306	1622.56
661.656	1633.4
662.007	1627.3
662.358	1638.83
662.708	1641.31
663.059	1603.8
663.409	1613.06
663.76	1616.91
664.11	1601.77
664.461	1616.68
664.811	1595.66
665.161	1636.57
665.511	1625.49
665.862	1613.97
666.212	1623.46
666.562	1638.15
666.912	1639.05
667.262	1615.1
667.612	1613.06
667.962	1622.33
668.312	1618.04
668.662	1593.4
669.011	1623.69
669.361	1624.36
669.711	1606.51
670.06	1611.26
670.41	1614.19
670.76	1604.93
671.109	1609.45
671.459	1594.53
671.808	1601.09
672.157	1615.32
672.507	1590.92
672.856	1616.68
673.205	1603.35
673.554	1600.18
673.904	1583.69
674.253	1616.68
674.602	1615.1
674.951	1556.8
675.3	1595.66
675.649	1557.93
675.998	1567.19
676.346	1609.22
676.695	1582.33
677.044	1571.48
677.393	1576.91
677.741	1600.18
678.09	1573.97
678.438	1564.03
678.787	1578.26
679.135	1582.56
679.484	1557.25
679.832	1587.75
680.181	1550.69
680.529	1529.68
680.877	1555.44
681.225	1573.07
681.573	1534.42
681.922	1571.71
682.27	1555.67
682.618	1545.04
682.966	1545.04
683.314	1519.28
683.661	1544.37
684.009	1513.18
684.357	1537.13
684.705	1512.05
685.053	1528.77
685.4	1500.75
685.748	1503.01
686.095	1505.72
686.443	1490.81
686.79	1479.74
687.138	1488.77
687.485	1504.14
687.832	1466.4
688.18	1493.75
688.527	1473.63
688.874	1502.11
689.221	1482.67
689.568	1475.67
689.915	1436.12
690.262	1496.23
690.609	1451.71
690.956	1469.57
691.303	1441.54
691.65	1442
691.997	1435.22
692.344	1432.05
692.69	1449.23
693.037	1428.89
693.383	1456.23
693.73	1456.23
694.077	1426.86
694.423	1448.32
694.769	1427.08
695.116	1427.99
695.462	1429.34
695.808	1425.05
696.155	1421.66
696.501	1405.61
696.847	1410.81
697.193	1379.17
697.539	1415.56
697.885	1363.58
698.231	1377.14
698.577	1354.09
698.923	1390.7
699.269	1359.74
699.614	1339.17
699.96	1353.18
700.306	1361.77
700.651	1359.96
700.997	1339.85
701.342	1368.33
701.688	1360.64
702.033	1395.9
702.379	1350.7
702.724	1336.24
703.069	1360.42
703.415	1331.72
703.76	1329.23
704.105	1341.66
704.45	1332.17
704.795	1345.5
705.14	1354.09
705.485	1316.35
705.83	1330.81
706.175	1334.2
706.52	1329.23
706.865	1323.13
707.209	1312.96
707.554	1335.11
707.899	1334.43
708.243	1333.3
708.588	1336.24
708.932	1330.36
709.277	1307.76
709.621	1339.17
709.966	1328.33
710.31	1317.48
710.654	1301.43
710.998	1348.21
711.342	1323.13
711.687	1348.89
712.031	1335.11
712.375	1318.38
712.719	1344.37
713.063	1332.39
713.407	1326.29
713.75	1327.87
714.094	1334.43
714.438	1366.74
714.782	1350.47
715.125	1356.8
715.469	1347.31
715.812	1353.18
716.156	1331.72
716.499	1373.52
716.843	1365.16
717.186	1361.55
717.53	1393.18
717.873	1361.55
718.216	1365.61
718.559	1364.03
718.902	1362
719.246	1390.25
719.589	1373.07
719.932	1374.2
720.275	1392.51
720.617	1387.99
720.96	1394.09
721.303	1391.83
721.646	1405.39
721.989	1406.29
722.331	1373.07
722.674	1420.75
723.016	1417.82
723.359	1423.69
723.701	1428.44
724.044	1394.77
724.386	1413.07
724.729	1422.34
725.071	1451.04
725.413	1432.28
725.755	1445.84
726.097	1460.53
726.439	1433.18
726.782	1466.4
727.124	1500.98
727.465	1484.25
727.807	1459.4
728.149	1500.98
728.491	1491.94
728.833	1499.85
729.175	1492.16
729.516	1518.15
729.858	1521.09
730.199	1543.91
730.541	1516.12
730.882	1571.94
731.224	1555.21
731.565	1570.58
731.906	1558.6
732.248	1574.87
732.589	1602.9
732.93	1559.51
733.271	1601.77
733.612	1624.36
733.953	1651.48
734.294	1591.14
734.635	1631.37
734.976	1641.09
735.317	1647.64
735.658	1668.2
735.999	1695.32
736.339	1679.73
736.68	1677.47
737.021	1699.39
737.361	1725.6
737.702	1715.44
738.042	1740.75
738.383	1753.4
738.723	1769.44
739.063	1779.61
739.404	1790.46
739.744	1794.98
740.084	1810.8
740.424	1813.74
740.764	1881.76
741.104	1878.14
741.444	1884.92
741.784	1903
742.124	1907.97
742.464	1929.89
742.804	1932.15
743.143	1977.12
743.483	1964.24
743.823	1979.16
744.162	2014.64
744.502	2101.64
744.841	2091.02
745.181	2096.67
745.52	2128.98
745.86	2174.18
746.199	2191.35
746.538	2202.88
746.877	2234.07
747.216	2279.04
747.556	2314.97
747.895	2319.71
748.234	2386.38
748.573	2410.33
748.911	2430.9
749.25	2457.79
749.589	2510.22
749.928	2552.93
750.267	2582.76
750.605	2608.74
750.944	2624.56
751.283	2667.95
751.621	2750.66
751.96	2803.09
752.298	2827.72
752.636	2891
752.975	2876.99
753.313	2972.13
753.651	2997.66
753.989	3055.51
754.327	3098.9
754.666	3120.82
755.004	3214.83
755.342	3257.99
755.679	3273.81
756.017	3338.22
756.355	3368.05
756.693	3412.34
757.031	3513.58
757.368	3542.05
757.706	3627.25
758.044	3650.07
758.381	3727.59
758.719	3747.47
759.056	3835.83
759.394	3867.02
759.731	3922.83
760.068	3920.57
760.405	3972.55
760.743	4044.87
761.08	4107.91
761.417	4138.65
761.754	4213.45
762.091	4287.12
762.428	4343.16
762.765	4351.52
763.102	4347.23
763.438	4450.5
763.775	4449.83
764.112	4547.9
764.449	4602.82
764.785	4626.77
765.122	4668.13
765.458	4718.97
765.795	4729.14
766.131	4811.62
766.467	4882.13
766.804	4901.34
767.14	4873.54
767.476	4968.23
767.812	5008.91
768.148	5044.39
768.485	5070.83
768.821	5099.3
769.157	5163.25
769.492	5202.8
769.828	5190.15
770.164	5205.51
770.5	5290.71
770.836	5306.3
771.171	5294.1
771.507	5347.2
771.842	5380.2
772.178	5389.91
772.513	5405.51
772.849	5457.03
773.184	5466.3
773.519	5500.65
773.855	5509.46
774.19	5559.18
774.525	5569.57
774.86	5616.35
775.195	5643.24
775.53	5658.16
775.865	5679.85
776.2	5708.78
776.535	5670.81
776.87	5721.88
777.205	5701.54
777.539	5657.48
777.874	5804.82
778.209	5709.23
778.543	5706.52
778.878	5724.14
779.212	5787.64
779.547	5721.88
779.881	5807.3
780.215	5778.83
780.55	5824.93
780.884	5815.21
781.218	5824.93
781.552	5871.26
781.886	5853.18
782.22	5855.89
782.554	5839.39
782.888	5868.32
783.222	5840.07
783.556	5820.41
783.889	5836.68
784.223	5818.15
784.557	5821.32
784.89	5882.56
785.224	5850.47
785.557	5843.46
785.891	5844.59
786.224	5873.97
786.558	5893.86
786.891	5857.47
787.224	5844.37
787.557	5903.8
787.891	5853.86
788.224	5879.85
788.557	5889.11
788.89	5931.37
789.223	5967.3
789.556	5906.51
789.888	5891.14
790.221	5882.56
790.554	5847.08
790.887	5896.34
791.219	5867.87
791.552	5842.78
791.884	5885.04
792.217	5846.85
792.549	5891.14
792.882	5810.02
793.214	5845.72
793.546	5858.38
793.879	5835.1
794.211	5834.65
794.543	5855.89
794.875	5827.19
795.207	5816.34
795.539	5845.04
795.871	5851.37
796.203	5788.1
796.535	5750.58
796.867	5780.86
797.198	5830.36
797.53	5793.52
797.862	5787.19
798.193	5769.57
798.525	5789.45
798.856	5799.85
799.188	5733.18
799.519	5785.38
799.85	5691.6
800.182	5758.04
800.513	5715.33
800.844	5701.77
801.175	5772.28
801.506	5714.88
801.837	5680.08
802.168	5668.78
802.499	5666.07
802.83	5676.69
803.161	5692.73
803.491	5732.96
803.822	5698.83
804.153	5666.29
804.483	5618.16
804.814	5671.72
805.145	5669.46
805.475	5655.67
805.805	5569.57
806.136	5598.04
806.466	5613.19
806.796	5598.04
807.126	5542.23
807.457	5559.63
807.787	5550.14
808.117	5605.95
808.447	5549.46
808.777	5524.37
809.107	5560.98
809.436	5519.4
809.766	5532.51
810.096	5561.21
810.426	5534.77
810.755	5518.5
811.085	5541.55
811.414	5481.21
811.744	5533.41
812.073	5430.37
812.403	5520.31
812.732	5439.86
813.061	5481.44
813.39	5447.09
813.719	5427.2
814.049	5471.49
814.378	5445.05
814.707	5385.4
815.036	5455.68
815.365	5373.42
815.693	5346.07
816.022	5402.8
816.351	5366.86
816.68	5372.74
817.008	5393.3
817.337	5332.52
817.665	5366.19
817.994	5353.53
818.322	5388.11
818.651	5336.13
818.979	5318.28
819.307	5329.13
819.636	5305.4
819.964	5297.49
820.292	5300.2
820.62	5322.8
820.948	5331.39
821.276	5338.16
821.604	5309.92
821.932	5322.57
822.259	5322.8
822.587	5318.5
822.915	5306.53
823.243	5322.35
823.57	5369.12
823.898	5335
824.225	5311.5
824.553	5277.6
824.88	5283.25
825.207	5330.93
825.535	5326.41
825.862	5339.29
826.189	5353.08
826.516	5332.06
826.843	5329.58
827.17	5399.18
827.497	5363.47
827.824	5395.34
828.151	5393.76
828.478	5393.3
828.805	5412.97
829.131	5351.95
829.458	5359.86
829.785	5338.62
830.111	5408.45
830.438	5424.94
830.764	5376.58
831.09	5409.58
831.417	5362.57
831.743	5389.01
832.069	5325.74
832.395	5360.31
832.722	5408.67
833.048	5363.47
833.374	5342.68
833.7	5389.46
834.026	5349.69
834.351	5425.85
834.677	5396.69
835.003	5404.83
835.329	5367.09
835.654	5331.39
835.98	5370.25
836.306	5382.23
836.631	5340.88
836.956	5381.78
837.282	5382.46
837.607	5350.82
837.932	5328.67
838.258	5356.92
838.583	5281.67
838.908	5307.21
839.233	5322.12
839.558	5280.77
839.883	5280.99
840.208	5318.5
840.533	5281.67
840.858	5214.1
841.182	5318.96
841.507	5272.63
841.832	5272.18
842.156	5271.73
842.481	5231.5
842.805	5221.33
843.13	5234.44
843.454	5205.06
843.778	5206.19
844.103	5168.9
844.427	5159.41
844.751	5184.04
845.075	5144.05
845.399	5158.06
845.723	5099.07
846.047	5110.15
846.371	5100.43
846.695	5073.76
847.019	5073.31
847.343	4991.51
847.666	5013.65
847.99	5011.39
848.313	5036.7
848.637	4944.5
848.96	4927.1
849.284	4934.33
849.607	4909.7
849.931	4866.09
850.254	4876.48
850.577	4832.19
850.9	4820.89
851.223	4827.44
851.546	4830.61
851.869	4774.56
852.192	4848.23
852.515	4814.34
852.838	4733.89
853.161	4728.46
853.483	4652.76
853.806	4713.1
854.129	4682.59
854.451	4707.22
854.774	4644.4
855.096	4621.35
855.419	4641.69
855.741	4618.64
856.063	4617.51
856.385	4593.1
856.708	4549.48
857.03	4609.6
857.352	4563.95
857.674	4524.85
857.996	4532.76
858.318	4493.22
858.64	4495.93
858.961	4485.98
859.283	4469.94
859.605	4447.79
859.926	4479.88
860.248	4474.46
860.57	4458.41
860.891	4480.79
861.212	4429.04
861.534	4431.75
861.855	4409.83
862.176	4426.78
862.498	4394.01
862.819	4434.23
863.14	4394.23
863.461	4412.77
863.782	4349.72
864.103	4374.35
864.424	4301.58
864.745	4365.76
865.065	4298.19
865.386	4382.48
865.707	4325.76
866.027	4297.06
866.348	4350.85
866.668	4276.27
866.989	4312.88
867.309	4271.53
867.63	4253.22
867.95	4283.73
868.27	4211.19
868.59	4256.61
868.91	4298.19
869.23	4268.36
869.55	4208.02
869.87	4264.29
870.19	4211.87
870.51	4264.97
870.83	4236.27
871.15	4174.35
871.469	4190.62
871.789	4197.63
872.109	4161.92
872.428	4204.64
872.748	4189.95
873.067	4164.18
873.386	4194.69
873.706	4227.46
874.025	4214.13
874.344	4132.55
874.663	4163.05
874.982	4163.28
875.301	4143.85
875.62	4164.18
875.939	4140
876.258	4104.98
876.577	4134.35
876.896	4102.49
877.214	4094.36
877.533	4123.28
877.852	4070.85
878.17	4094.81
878.489	4086.45
878.807	4044.41
879.125	4064.75
879.444	4058.65
879.762	4059.1
880.08	4056.84
880.398	4056.84
880.716	4043.74
881.034	4020.46
881.352	4027.69
881.67	4010.52
881.988	4016.39
882.306	4025.2
882.624	3981.14
882.941	3989.73
883.259	3918.99
883.577	3914.47
883.894	3894.13
884.212	3914.25
884.529	3937.75
884.846	3901.82
885.164	3933.46
885.481	3903.4
885.798	3930.97
886.115	3870.86
886.432	3892.1
886.75	3893.91
887.067	3798.09
887.383	3871.54
887.7	3854.81
888.017	3819.33
888.334	3850.97
888.651	3804.42
888.967	3843.06
889.284	3770.97
889.6	3804.19
889.917	3754.03
890.233	3777.08
890.55	3769.62
890.866	3732.56
891.182	3720.81
891.498	3679.23
891.815	3714.7
892.131	3704.54
892.447	3694.82
892.763	3649.4
893.079	3683.74
893.395	3647.36
893.71	3673.12
894.026	3650.53
894.342	3567.14
894.657	3620.47
894.973	3607.59
895.289	3606.91
895.604	3592.45
895.92	3577.53
896.235	3572.34
896.55	3560.81
896.865	3521.72
897.181	3576.63
897.496	3509.29
897.811	3497.99
898.126	3492.56
898.441	3461.6
898.756	3448.72
899.071	3404.66
899.386	3413.92
899.7	3436.97
900.015	3445.33
900.33	3415.05
900.644	3396.29
900.959	3385
901.273	3377.76
901.588	3347.03
901.902	3344.54
902.216	3321.04
902.531	3305.22
902.845	3321.72
903.159	3301.38
903.473	3247.82
903.787	3269.29
904.101	3245.34
904.415	3250.54
904.729	3228.16
905.042	3238.33
905.356	3217.77
905.67	3208.96
905.984	3184.32
906.297	3172.57
906.611	3152.91
906.924	3177.32
907.237	3133.25
907.551	3138.45
907.864	3087.6
908.177	3102.97
908.491	3092.35
908.804	3098
909.117	3038.79
909.43	3051.9
909.743	3040.15
910.056	3028.39
910.368	3042.63
910.681	3006.02
910.994	2967.61
911.307	2979.36
911.619	2980.26
911.932	2983.2
912.244	2948.4
912.557	2936.65
912.869	2940.26
913.181	2950.88
913.494	2936.42
913.806	2901.84
914.118	2919.25
914.43	2888.51
914.742	2876.53
915.054	2841.51
915.366	2867.72
915.678	2819.36
915.99	2846.93
916.302	2806.93
916.613	2797.67
916.925	2804.45
917.236	2769.87
917.548	2761.74
917.859	2790.21
918.171	2760.61
918.482	2767.38
918.794	2734.62
919.105	2701.62
919.416	2694.84
919.727	2721.28
920.038	2726.93
920.349	2642.42
920.66	2642.64
920.971	2672.02
921.282	2676.99
921.593	2659.82
921.903	2652.13
922.214	2627.73
922.525	2598.58
922.835	2585.69
923.146	2586.82
923.456	2588.41
923.767	2574.85
924.077	2583.89
924.387	2564.23
924.697	2549.31
925.008	2544.34
925.318	2553.83
925.628	2557.22
925.938	2525.81
926.248	2498.69
926.558	2515.87
926.867	2478.13
927.177	2492.59
927.487	2447.85
927.796	2424.57
928.106	2433.16
928.416	2456.88
928.725	2446.49
929.034	2423.44
929.344	2399.71
929.653	2391.35
929.962	2372.59
930.271	2394.29
930.581	2400.39
930.89	2330.56
931.199	2357.23
931.508	2338.24
931.817	2361.29
932.125	2361.52
932.434	2327.4
932.743	2305.48
933.051	2261.64
933.36	2279.94
933.669	2290.79
933.977	2286.27
934.286	2274.06
934.594	2257.34
934.902	2239.26
935.21	2234.07
935.519	2252.37
935.827	2243.33
936.135	2221.18
936.443	2162.2
936.751	2216.21
937.059	2182.09
937.367	2188.87
937.674	2166.27
937.982	2159.04
938.29	2149.77
938.597	2171.69
938.905	2119.49
939.213	2130.57
939.52	2093.73
939.827	2152.71
940.135	2095.76
940.442	2103.67
940.749	2124.92
941.056	2104.8
941.363	2076.78
941.67	2066.84
941.977	2072.94
942.284	2048.76
942.591	2008.08
942.898	2057.57
943.205	2011.02
943.511	2034.3
943.818	2010.57
944.125	2018.93
944.431	2024.58
944.738	1985.94
945.044	1968.99
945.35	1992.26
945.657	1964.47
945.963	1979.38
946.269	1942.32
946.575	1968.54
946.881	1938.03
947.187	1941.19
947.493	1945.49
947.799	1920.4
948.105	1898.03
948.41	1871.82
948.716	1862.78
949.022	1882.89
949.327	1893.74
949.633	1912.72
949.938	1870.46
950.244	1881.98
950.549	1826.84
950.854	1856
951.16	1869.56
951.465	1836.56
951.77	1824.36
952.075	1808.99
952.38	1810.8
952.685	1809.67
952.99	1819.39
953.294	1791.14
953.599	1782.78
953.904	1771.93
954.209	1771.25
954.513	1762.67
954.818	1775.09
955.122	1762.21
955.426	1741.2
955.731	1758.37
956.035	1737.58
956.339	1727.19
956.643	1712.27
956.948	1708.88
957.252	1726.96
957.556	1697.58
957.86	1701.88
958.163	1682.89
958.467	1679.5
958.771	1665.94
959.075	1682.22
959.378	1672.5
959.682	1664.59
959.985	1658.49
960.289	1616.91
960.592	1621.65
960.896	1636.12
961.199	1605.61
961.502	1615.78
961.805	1612.61
962.108	1594.76
962.411	1603.57
962.714	1576.68
963.017	1601.31
963.32	1594.99
963.623	1583.01
963.926	1587.98
964.228	1578.49
964.531	1578.94
964.833	1578.94
965.136	1548.89
965.438	1560.86
965.741	1531.03
966.043	1532.84
966.345	1554.31
966.648	1507.08
966.95	1508.66
967.252	1498.72
967.554	1518.83
967.856	1486.51
968.158	1481.99
968.46	1496.01
968.761	1480.19
969.063	1471.6
969.365	1488.1
969.666	1480.41
969.968	1474.76
970.269	1446.74
970.571	1446.52
970.872	1450.13
971.174	1441.77
971.475	1413.75
971.776	1430.7
972.077	1411.94
972.378	1405.16
972.679	1379.62
972.98	1404.48
973.281	1383.47
973.582	1392.28
973.883	1379.85
974.183	1370.36
974.484	1371.26
974.785	1370.81
975.085	1344.82
975.386	1359.51
975.686	1340.53
975.986	1371.04
976.287	1354.31
976.587	1346.41
976.887	1306.41
977.187	1353.64
977.487	1331.26
977.787	1322
978.087	1323.13
978.387	1326.07
978.687	1293.53
978.987	1287.65
979.286	1276.8
979.586	1291.04
979.885	1279.06
980.185	1274.09
980.484	1255.79
980.784	1279.97
981.083	1275.67
981.382	1262.79
981.682	1256.24
981.981	1244.26
982.28	1240.65
982.579	1240.65
982.878	1232.28
983.177	1237.03
983.475	1241.1
983.774	1216.92
984.073	1209.23
984.372	1188.44
984.67	1221.89
984.969	1218.27
985.267	1191.83
985.566	1208.33
985.864	1203.58
986.162	1184.38
986.461	1190.48
986.759	1171.04
987.057	1181.89
987.355	1156.13
987.653	1175.34
987.951	1160.42
988.249	1134.66
988.547	1141.89
988.844	1144.83
989.142	1128.33
989.44	1121.55
989.737	1145.28
990.035	1153.87
990.332	1126.75
990.63	1119.29
990.927	1122.46
991.224	1119.07
991.521	1098.73
991.819	1115.22
992.116	1098.28
992.413	1091.27
992.71	1082.68
993.006	1073.19
993.303	1113.19
993.6	1081.33
993.897	1081.1
994.193	1076.36
994.49	1053.31
994.787	1047.43
995.083	1078.84
995.379	1040.2
995.676	1025.96
995.972	1043.14
996.268	1043.14
996.565	1033.87
996.861	1041.1
997.157	1030.26
997.453	1012.18
997.749	1004.27
998.044	1001.78
998.34	1027.32
998.636	1005.17
998.932	996.36
999.227	1000.65
999.523	1002.23
999.818	996.36
1000.114	982.12
1000.409	971.95
1000.704	997.71
1001	981.67
1001.295	985.96
1001.59	971.95
1001.885	957.26
1002.18	945.29
1002.475	971.73
1002.77	942.57
1003.065	933.53
1003.359	948
1003.654	922.69
1003.949	947.77
1004.243	933.53
1004.538	935.57
1004.832	933.08
1005.127	930.15
1005.421	923.82
1005.715	896.25
1006.009	890.6
1006.304	906.64
1006.598	884.5
1006.892	888.11
1007.186	884.95
1007.48	871.39
1007.773	858.73
1008.067	878.17
1008.361	874.1
1008.655	833.88
1008.948	877.04
1009.242	850.83
1009.535	874.55
1009.829	855.34
1010.122	856.02
1010.415	843.14
1010.708	852.86
1011.001	838.62
1011.295	821
1011.588	814.67
1011.881	824.39
1012.173	805.18
1012.466	828.23
1012.759	813.54
1013.052	800.43
1013.344	801.11
1013.637	809.47
1013.93	809.92
1014.222	781
1014.514	796.82
1014.807	792.3
1015.099	765.63
1015.391	797.04
1015.683	795.23
1015.976	771.51
1016.268	766.08
1016.56	757.72
1016.851	746.87
1017.143	756.82
1017.435	748.68
1017.727	752.97
1018.018	767.66
1018.31	742.35
1018.602	744.39
1018.893	744.84
1019.185	743.94
1019.476	726.08
1019.767	709.59
1020.058	711.39
1020.35	733.09
1020.641	704.84
1020.932	732.64
1021.223	696.03
1021.514	714.56
1021.804	693.09
1022.095	694.9
1022.386	713.2
1022.677	694.9
1022.967	699.19
1023.258	679.98
1023.548	678.17
1023.839	677.5
1024.129	686.76
1024.419	678.4
1024.709	662.13
1025	685.18
1025.29	678.63
1025.58	648.8
1025.87	655.12
1026.16	654.9
1026.449	652.64
1026.739	657.38
1027.029	653.77
1027.319	647.21
1027.608	642.24
1027.898	649.25
1028.187	655.12
1028.477	609.48
1028.766	644.05
1029.055	629.14
1029.344	609.48
1029.634	623.49
1029.923	628.23
1030.212	618.74
1030.501	613.32
1030.79	607.22
1031.078	611.96
1031.367	608.12
1031.656	597.72
1031.945	610.83
1032.233	580.55
1032.522	601.34
1032.81	595.46
1033.099	586.2
1033.387	595.01
1033.675	593.43
1033.963	588.69
1034.251	582.58
1034.54	596.37
1034.828	570.15
1035.116	550.72
1035.403	567.44
1035.691	578.52
1035.979	576.93
1036.267	556.37
1036.554	588.69
1036.842	555.24
1037.129	557.5
1037.417	536.03
1037.704	554.34
1037.992	540.1
1038.279	580.55
1038.566	547.33
1038.853	547.33
1039.14	547.33
