Data from blue_clamp_base_FLMS001491_00079.txt Node
Date: Wed Feb 08 15:16:30 GMT 2017
User: dcchb
Spectrometer: FLMS00149
Trigger mode: 0
Integration Time (sec): 2.000000E-2
Scans to average: 10
Electric dark correction enabled: true
Nonlinearity correction enabled: false
Boxcar width: 0
XAxis mode: Wavelengths
Number of Pixels in Spectrum: 2048
>>>>>Begin Spectral Data<<<<<
341.393	-8.4
341.776	-8.4
342.16	-8.4
342.543	-49.31
342.927	-73.49
343.31	-75.29
343.693	-64.22
344.077	-66.48
344.46	-44.11
344.843	-47.95
345.226	-37.33
345.61	-23.77
345.993	-33.26
346.376	-2.53
346.759	5.83
347.142	30.01
347.525	51.48
347.908	49.9
348.291	59.84
348.674	93.51
349.057	104.36
349.44	133.97
349.823	139.84
350.206	142.78
350.588	185.94
350.971	186.39
351.354	237.69
351.737	217.81
352.119	236.34
352.502	258.26
352.884	284.7
353.267	290.57
353.65	312.94
354.032	299.16
354.414	304.36
354.797	310.46
355.179	341.42
355.562	332.6
355.944	332.83
356.326	340.51
356.709	343
357.091	345.71
357.473	340.97
357.855	347.52
358.238	350
358.62	343.9
359.002	346.62
359.384	349.33
359.766	326.73
360.148	339.61
360.53	354.98
360.912	334.64
361.294	347.52
361.676	326.28
362.057	347.52
362.439	333.96
362.821	340.06
363.203	335.54
363.584	343.23
363.966	334.19
364.348	346.84
364.729	334.41
365.111	340.74
365.493	331.02
365.874	340.74
366.256	325.37
366.637	345.49
367.019	317.92
367.4	317.69
367.781	316.56
368.163	318.59
368.544	321.53
368.925	317.92
369.306	317.92
369.688	331.02
370.069	328.76
370.45	325.15
370.831	323.11
371.212	315.66
371.593	319.27
371.974	326.05
372.355	324.92
372.736	320.4
373.117	319.27
373.498	317.92
373.879	330.8
374.26	313.17
374.641	324.92
375.021	313.17
375.402	351.36
375.783	326.28
376.163	355.65
376.544	348.2
376.925	339.16
377.305	349.33
377.686	354.07
378.066	344.36
378.447	329.89
378.827	346.16
379.208	331.47
379.588	337.58
379.968	377.35
380.349	376.67
380.729	363.56
381.109	368.08
381.489	357.91
381.87	365.82
382.25	368.31
382.63	381.64
383.01	363.11
383.39	385.94
383.77	379.38
384.15	372.38
384.53	356.56
384.91	377.8
385.29	373.51
385.67	382.77
386.049	389.1
386.429	367.18
386.809	385.94
387.189	393.85
387.568	402.88
387.948	402.21
388.328	394.52
388.707	386.84
389.087	394.75
389.466	404.69
389.846	419.61
390.225	388.2
390.605	419.61
390.984	438.14
391.363	426.16
391.743	434.3
392.122	425.71
392.501	443.11
392.881	436.56
393.26	449.44
393.639	441.75
394.018	446.95
394.397	457.8
394.776	451.02
395.155	444.69
395.534	459.38
395.913	455.99
396.292	454.63
396.671	494.63
397.05	476.56
397.429	482.88
397.808	477.01
398.186	489.21
398.565	484.24
398.944	474.07
399.323	481.3
399.701	506.61
400.08	510.9
400.458	510
400.837	535.31
401.215	549.1
401.594	542.99
401.972	540.96
402.351	523.79
402.729	554.29
403.107	566.04
403.486	568.98
403.864	550.23
404.242	568.53
404.62	560.85
404.999	580.73
405.377	582.77
405.755	597.68
406.133	601.52
406.511	615.08
406.889	621.86
407.267	627.51
407.645	641.07
408.023	622.99
408.401	641.97
408.779	641.07
409.156	673.16
409.534	660.51
409.912	661.64
410.29	702.09
410.667	696.89
411.045	721.75
411.422	717.45
411.8	735.31
412.178	719.94
412.555	738.24
412.933	737.11
413.31	761.75
413.687	759.94
414.065	740.5
414.442	772.37
414.819	787.51
415.197	780.28
415.574	796.55
415.951	797
416.328	808.75
416.705	841.52
417.082	838.35
417.46	834.74
417.837	829.77
418.214	846.72
418.591	874.06
418.967	867.05
419.344	880.39
419.721	878.13
420.098	864.57
420.475	888.97
420.852	907.05
421.228	910.67
421.605	942.53
421.982	938.69
422.358	921.29
422.735	951.57
423.111	952.7
423.488	975.3
423.864	985.47
424.241	988.86
424.617	978.01
424.994	1029.76
425.37	1036.54
425.746	1031.12
426.123	1016.88
426.499	1030.21
426.875	1053.04
427.251	1068.63
427.627	1107.05
428.003	1072.02
428.379	1103.88
428.756	1114.05
429.132	1141.17
429.507	1150.66
429.883	1162.64
430.259	1196.31
430.635	1189.3
431.011	1223.88
431.387	1211.68
431.763	1207.84
432.138	1254.61
432.514	1268.17
432.89	1269.53
433.265	1335.52
433.641	1320.37
434.016	1321.73
434.392	1361.05
434.767	1398.79
435.143	1360.6
435.518	1413.48
435.894	1380.26
436.269	1434.5
436.644	1478.34
437.02	1448.28
437.395	1482.86
437.77	1503.42
438.145	1495.74
438.52	1501.39
438.895	1535.51
439.271	1545
439.646	1579.58
440.021	1609.86
440.395	1597.66
440.77	1602.63
441.145	1623.64
441.52	1636.07
441.895	1620.48
442.27	1679.69
442.645	1712.23
443.019	1693.7
443.394	1660.03
443.769	1719.69
444.143	1702.06
444.518	1743.41
444.892	1747.03
445.267	1734.83
445.641	1779.8
446.016	1795.84
446.39	1826.35
446.764	1828.16
447.139	1795.16
447.513	1857.08
447.887	1854.37
448.262	1840.14
448.636	1868.16
449.01	1907.7
449.384	1909.29
449.758	1939.79
450.132	1958.1
450.506	1977.76
450.88	1978.44
451.254	1979.11
451.628	2007.81
452.002	2037.19
452.376	2043.97
452.75	2046.23
453.123	2054.37
453.497	2105.89
453.871	2104.08
454.244	2142.27
454.618	2183.63
454.992	2200.13
455.365	2199.45
455.739	2269.73
456.112	2268.37
456.486	2267.69
456.859	2296.62
457.232	2364.64
457.606	2382.27
457.979	2394.7
458.352	2463.85
458.725	2441.7
459.099	2447.58
459.472	2522.6
459.845	2542.49
460.218	2530.51
460.591	2574.58
460.964	2604.63
461.337	2615.93
461.71	2612.32
462.083	2698.19
462.456	2674.92
462.829	2709.49
463.201	2782.03
463.574	2767.12
463.947	2818.19
464.32	2899.77
464.692	2875.36
465.065	2908.13
465.438	2918.3
465.81	2960.56
466.183	2987.9
466.555	3049.14
466.928	3059.09
467.3	3081.91
467.672	3106.77
468.045	3181.79
468.417	3215.47
468.789	3189.03
469.161	3233.54
469.534	3288.91
469.906	3352.41
470.278	3365.29
470.65	3427.44
471.022	3459.3
471.394	3531.84
471.766	3562.8
472.138	3549.92
472.51	3637.15
472.882	3664.72
473.253	3753.08
473.625	3758.95
473.997	3807.09
474.369	3840.08
474.74	3905.62
475.112	3945.16
475.484	3990.36
475.855	4040.76
476.227	4074.65
476.598	4185.38
476.97	4189.23
477.341	4284.82
477.713	4330.92
478.084	4320.52
478.455	4407.3
478.827	4443.46
479.198	4526.62
479.569	4551.93
479.94	4658.59
480.311	4692.49
480.682	4766.84
481.053	4868.76
481.424	4937
481.795	4973.16
482.166	5038.92
482.537	5077.11
482.908	5161.18
483.279	5240.72
483.65	5294.51
484.021	5400.95
484.391	5432.36
484.762	5478.01
485.133	5454.96
485.503	5533.37
485.874	5646.81
486.244	5692.69
486.615	5737.21
486.985	5759.35
487.356	5844.32
487.726	5916.64
488.097	5973.13
488.467	5999.35
488.837	6087.71
489.207	6181.49
489.578	6220.36
489.948	6218.78
490.318	6289.74
490.688	6279.57
491.058	6311.66
491.428	6395.5
491.798	6415.61
492.168	6595.72
492.538	6649.73
492.908	6649.27
493.278	6673.45
493.648	6658.09
494.017	6700.12
494.387	6722.49
494.757	6808.82
495.126	6839.55
495.496	6804.52
495.866	6921.81
496.235	6920.91
496.605	6990.96
496.974	6998.87
497.344	6986.44
497.713	7075.93
498.082	7073.67
498.452	7065.76
498.821	7168.58
499.19	7124.52
499.559	7219.65
499.928	7198.86
500.298	7219.88
500.667	7313.89
501.036	7229.6
501.405	7311.86
501.774	7282.25
502.143	7386.2
502.512	7346.88
502.88	7432.76
503.249	7414.68
503.618	7454.9
503.987	7462.81
504.356	7497.61
504.724	7493.32
505.093	7517.27
505.462	7498.52
505.83	7573.09
506.199	7593.2
506.567	7692.18
506.936	7618.74
507.304	7735.57
507.672	7758.62
508.041	7770.15
508.409	7782.35
508.777	7885.17
509.145	7856.47
509.514	7872.52
509.882	7902.12
510.25	7867.1
510.618	7973.31
510.986	7982.57
511.354	8086.52
511.722	8011.95
512.09	8046.98
512.458	8076.36
512.826	8041.33
513.193	8129.24
513.561	8139.86
513.929	8183.92
514.297	8259.18
514.664	8304.6
515.032	8276.8
515.4	8349.57
515.767	8320.64
516.135	8338.72
516.502	8278.38
516.869	8456.23
517.237	8437.7
517.604	8390.92
517.972	8489.9
518.339	8513.86
518.706	8533.07
519.073	8553.41
519.44	8583.46
519.808	8675.21
520.175	8674.31
520.542	8742.1
520.909	8796.56
521.276	8736.45
521.643	8740.29
522.009	8840.18
522.376	8860.06
522.743	8868.65
523.11	8954.98
523.477	9052.83
523.843	9068.42
524.21	9129.21
524.577	9246.04
524.943	9187.96
525.31	9230.9
525.676	9260.28
526.043	9300.73
526.409	9325.59
526.776	9485.13
527.142	9446.71
527.508	9510.67
527.874	9524
528.241	9591.8
528.607	9570.33
528.973	9657.78
529.339	9642.42
529.705	9671.12
530.071	9753.6
530.437	9789.3
530.803	9877.66
531.169	9921.05
531.535	9875.18
531.901	9918.34
532.267	9924.89
532.632	10002.18
532.998	9976.87
533.364	10061.16
533.73	10167.6
534.095	10125.12
534.461	10227.71
534.826	10249.86
535.192	10210.76
535.557	10244.89
535.923	10339.12
536.288	10330.53
536.653	10416.41
537.019	10378.89
537.384	10395.62
537.749	10482.39
538.114	10467.48
538.479	10546.57
538.845	10617.98
539.21	10491.66
539.575	10533.01
539.94	10527.14
540.305	10667.02
540.67	10672.67
541.034	10651.2
541.399	10676.06
541.764	10697.08
542.129	10797.41
542.494	10728.94
542.858	10857.53
543.223	10736.17
543.587	10882.84
543.952	10827.02
544.316	10887.81
544.681	10929.16
545.045	10984.98
545.41	11019.78
545.774	11069.05
546.138	11106.56
546.503	11061.36
546.867	11044.19
547.231	11128.93
547.595	11187.46
547.959	11220
548.324	11245.31
548.688	11254.35
549.052	11349.49
549.416	11243.5
549.779	11295.93
550.143	11325.99
550.507	11436.04
550.871	11453.22
551.235	11406.89
551.599	11493.67
551.962	11500.45
552.326	11590.84
552.689	11650.05
553.053	11575.02
553.417	11594.23
553.78	11735.47
554.143	11630.39
554.507	11695.47
554.87	11762.81
555.234	11827.67
555.597	11800.78
555.96	11807.1
556.323	11913.54
556.686	11752.42
557.05	11957.38
557.413	12020.88
557.776	11948.57
558.139	12026.31
558.502	12044.39
558.865	12045.29
559.228	12077.38
559.59	12172.97
559.953	12135.91
560.316	12388.33
560.679	12285.28
561.041	12321.89
561.404	12405.73
561.767	12520.31
562.129	12465.39
562.492	12570.47
562.854	12544.94
563.217	12637.14
563.579	12706.52
563.941	12640.98
564.304	12722.79
564.666	12843.46
565.028	12840.52
565.39	12843.24
565.753	12887.75
566.115	12995.1
566.477	13040.52
566.839	13058.15
567.201	13150.8
567.563	13192.61
567.925	13191.25
568.287	13161.19
568.648	13260.4
569.01	13353.5
569.372	13433.05
569.734	13411.13
570.095	13472.82
570.457	13621.97
570.819	13504.91
571.18	13545.82
571.542	13630.33
571.903	13735.87
572.265	13711.01
572.626	13714.85
572.987	13744.45
573.349	13803.21
573.71	13902.87
574.071	14000.95
574.432	14120.49
574.794	14127.04
575.155	14019.25
575.516	14040.49
575.877	14188.29
576.238	14108.06
576.599	14189.42
576.96	14211.56
577.32	14233.48
577.681	14361.39
578.042	14367.94
578.403	14401.39
578.763	14328.85
579.124	14358.22
579.485	14430.54
579.845	14463.76
580.206	14448.62
580.566	14434.38
580.927	14508.95
581.287	14529.75
581.648	14531.1
582.008	14562.51
582.368	14641.38
582.728	14636.86
583.089	14605.9
583.449	14682.96
583.809	14669.63
584.169	14688.61
584.529	14632.12
584.889	14810.19
585.249	14702.62
585.609	14625.34
585.969	14774.26
586.329	14730.64
586.688	14776.07
587.048	14823.3
587.408	14808.83
587.768	14740.59
588.127	14759.34
588.487	14772.68
588.846	14969.51
589.206	14775.84
589.565	14768.83
589.925	14868.95
590.284	14865.1
590.643	14856.06
591.003	14971.77
591.362	14958.21
591.721	14975.16
592.08	14945.1
592.44	14933.58
592.799	14977.19
593.158	14975.84
593.517	14980.35
593.876	14970.19
594.235	15009.73
594.593	14943.97
594.952	15022.61
595.311	15040.92
595.67	15035.27
596.029	15127.92
596.387	15161.59
596.746	15157.75
597.104	15117.98
597.463	15144.64
597.822	15172.67
598.18	15155.04
598.538	15173.34
598.897	15204.3
599.255	14961.82
599.613	15219.22
599.972	15158.88
600.33	15202.95
600.688	15184.42
601.046	15218.54
601.404	15245.88
601.762	15234.59
602.12	15281.36
602.478	15337.18
602.836	15303.51
603.194	15247.47
603.552	15255.6
603.91	15288.6
604.268	15295.83
604.625	15247.92
604.983	15347.35
605.341	15399.1
605.698	15334.24
606.056	15404.75
606.413	15350.74
606.771	15394.36
607.128	15409.95
607.485	15367.01
607.843	15417.63
608.2	15437.07
608.557	15563.84
608.914	15438.65
609.272	15570.62
609.629	15544.41
609.986	15545.31
610.343	15522.26
610.7	15680.22
611.057	15681.35
611.414	15571.75
611.771	15731.97
612.127	15776.27
612.484	15700.79
612.841	15763.61
613.198	15639.55
613.554	15723.39
613.911	15774.91
614.267	15722.48
614.624	15751.41
614.98	15855.13
615.337	15873.89
615.693	15857.85
616.05	15854
616.406	16029.14
616.762	15883.16
617.118	15961.8
617.475	15877.96
617.831	15978.29
618.187	15885.64
618.543	15964.06
618.899	16075.02
619.255	16066.2
619.611	15979.88
619.967	16073.66
620.323	16159.31
620.678	16133.32
621.034	16043.6
621.39	16102.13
621.746	16069.59
622.101	16316.14
622.457	16176.71
622.812	16161.57
623.168	16246.76
623.523	16218.51
623.879	16323.37
624.234	16218.51
624.589	16245.41
624.945	16249.25
625.3	16330.6
625.655	16356.36
626.01	16354.56
626.365	16363.6
626.72	16307.33
627.075	16332.86
627.43	16354.78
627.785	16281.56
628.14	16345.74
628.495	16439.98
628.85	16400.66
629.205	16412.41
629.559	16547.77
629.914	16395.46
630.269	16453.76
630.623	16433.2
630.978	16358.62
631.332	16508.68
631.687	16469.58
632.041	16393.88
632.396	16439.07
632.75	16400.43
633.104	16436.14
633.459	16494.67
633.813	16446.98
634.167	16454.67
634.521	16558.84
634.875	16503.93
635.229	16445.4
635.583	16489.02
635.937	16534.44
636.291	16465.74
636.645	16481.11
636.999	16546.64
637.352	16609.92
637.706	16571.5
638.06	16622.12
638.413	16583.25
638.767	16584.15
639.121	16616.24
639.474	16505.96
639.828	16659.41
640.181	16527.43
640.534	16637.71
640.888	16574.66
641.241	16543.25
641.594	16616.92
641.947	16677.49
642.301	16705.51
642.654	16635.9
643.007	16686.75
643.36	16661.89
643.713	16578.73
644.066	16688.33
644.419	16699.86
644.771	16628.67
645.124	16363.82
645.477	16395.91
645.83	16300.09
646.182	16255.35
646.535	16216.48
646.888	16420.77
647.24	16397.72
647.593	16484.72
647.945	16402.92
648.298	16327.89
648.65	16337.83
649.002	16318.62
649.355	16402.69
649.707	16351.39
650.059	16442.92
650.411	16644.04
650.763	16676.81
651.115	16868.44
651.467	16843.58
651.819	16853.98
652.171	16905.28
652.523	16920.42
652.875	16899.4
653.227	16762.23
653.578	16982.11
653.93	16956.35
654.282	16931.04
654.633	16857.37
654.985	17014.65
655.337	16953.86
655.688	17117.93
656.039	17121.09
656.391	16843.81
656.742	16971.49
657.094	17034.76
657.445	17021.88
657.796	17062.11
658.147	17011.94
658.498	17070.24
658.849	17092.16
659.2	17022.56
659.551	17141.65
659.902	17124.71
660.253	17063.46
660.604	17106.17
660.955	17008.1
661.306	17031.6
661.656	17092.84
662.007	17077.25
662.358	17107.76
662.708	17173.29
663.059	17168.55
663.409	16905.05
663.76	17141.43
664.11	17219.17
664.461	17173.74
664.811	17113.18
665.161	17119.96
665.511	17035.67
665.862	17091.71
666.212	17094.2
666.562	17150.92
666.912	17019.85
667.262	16984.37
667.612	17050.36
667.962	17086.29
668.312	17120.19
668.662	17103.24
669.011	17045.61
669.361	17085.38
669.711	17053.07
670.06	17004.48
670.41	17039.06
670.76	16889.91
671.109	16945.73
671.459	16970.13
671.808	16852.4
672.157	16861.21
672.507	16833.19
672.856	16824.6
673.205	16824.6
673.554	16858.5
673.904	16749.35
674.253	16818.95
674.602	16825.73
674.951	16331.73
675.3	16395.68
675.649	16677.03
675.998	16580.09
676.346	16610.14
676.695	16637.71
677.044	16440.66
677.393	16487.21
677.741	16615.11
678.09	16500.54
678.438	16428.9
678.787	16454.21
679.135	16457.6
679.484	16295.12
679.832	16358.85
680.181	16235.91
680.529	16335.12
680.877	16216.48
681.225	16168.12
681.573	16288.12
681.922	16174.22
682.27	16123.6
682.618	16113.88
682.966	16128.12
683.314	16161.34
683.661	16042.25
684.009	15957.28
684.357	15961.12
684.705	15973.1
685.053	15984.62
685.4	15903.27
685.748	15847.9
686.095	15818.75
686.443	15729.71
686.79	15769.49
687.138	15793.44
687.485	15667.34
687.832	15698.75
688.18	15624.18
688.527	15677.74
688.874	15542.6
689.221	15605.42
689.568	15514.8
689.915	15414.92
690.262	15485.88
690.609	15533.56
690.956	15438.87
691.303	15493.56
691.65	15313
691.997	15440
692.344	15351.87
692.69	15334.92
693.037	15365.88
693.383	15202.72
693.73	15176.51
694.077	15180.12
694.423	15134.7
694.769	15170.18
695.116	15133.12
695.462	15073.69
695.808	15131.99
696.155	15115.94
696.501	15074.14
696.847	14994.59
697.193	14905.55
697.539	14993.69
697.885	14898.77
698.231	14853.58
698.577	14895.84
698.923	14919.79
699.269	14837.99
699.614	14739.68
699.96	14797.53
700.306	14709.4
700.651	14644.09
700.997	14663.53
701.342	14780.36
701.688	14677.09
702.033	14589.18
702.379	14647.26
702.724	14681.15
703.069	14632.34
703.415	14437.32
703.76	14520.25
704.105	14517.54
704.45	14574.94
704.795	14500.14
705.14	14433.48
705.485	14384.66
705.83	14350.31
706.175	14397.55
706.52	14377.66
706.865	14375.4
707.209	14360.94
707.554	14267.38
707.899	14341.05
708.243	14160.26
708.588	14255.18
708.932	14176.31
709.277	14233.26
709.621	14189.64
709.966	14146.7
710.31	14154.16
710.654	14111
710.998	14167.95
711.342	14186.25
711.687	14124.78
712.031	14085.24
712.375	14044.11
712.719	14079.14
713.063	14040.72
713.407	14240.71
713.75	14080.72
714.094	13971.34
714.438	13968.18
714.782	14038.91
715.125	13956.65
715.469	14003.66
715.812	13947.16
716.156	13951.23
716.499	13936.09
716.843	13985.35
717.186	13846.37
717.53	13903.55
717.873	13976.09
718.216	13983.32
718.559	13943.09
718.902	13812.93
719.246	13887.73
719.589	13815.64
719.932	13826.26
720.275	13764.57
720.617	13746.71
720.96	13791.23
721.303	13802.76
721.646	13717.34
721.989	13792.14
722.331	13857.9
722.674	13794.62
723.016	13753.95
723.359	13769.09
723.701	13738.35
724.044	13697.45
724.386	13587.17
724.729	13733.38
725.071	13648.41
725.413	13772.48
725.755	13719.37
726.097	13649.54
726.439	13666.04
726.782	13679.82
727.124	13654.74
727.465	13674.4
727.807	13561.86
728.149	13561.86
728.491	13565.93
728.833	13696.09
729.175	13589.2
729.516	13607.28
729.858	13653.84
730.199	13596.89
730.541	13649.99
730.882	13605.25
731.224	13630.11
731.565	13542.65
731.906	13648.64
732.248	13682.31
732.589	13620.16
732.93	13533.16
733.271	13605.02
733.612	13647.28
733.953	13613.38
734.294	13610.22
734.635	13546.49
734.976	13673.04
735.317	13584.23
735.658	13571.8
735.999	13699.03
736.339	13658.36
736.68	13689.32
737.021	13615.64
737.361	13586.27
737.702	13762.76
738.042	13762.99
738.383	13695.19
738.723	13784.68
739.063	13756.66
739.404	13798.01
739.744	13792.36
740.084	13751.69
740.424	13858.35
740.764	13869.88
741.104	13906.03
741.444	13781.52
741.784	13844.79
742.124	13867.62
742.464	13994.17
742.804	13862.87
743.143	13955.3
743.483	13953.26
743.823	14004.11
744.162	14000.49
744.502	14083.88
744.841	13926.6
745.181	14070.32
745.52	14100.83
745.86	14164.56
746.199	14167.95
746.538	14136.08
746.877	14149.87
747.216	14281.62
747.556	14204.78
747.895	14220.83
748.234	14266.48
748.573	14262.86
748.911	14406.36
749.25	14368.62
749.589	14318.23
749.928	14356.42
750.267	14464.21
750.605	14444.78
750.944	14439.13
751.283	14426.02
751.621	14507.15
751.96	14414.95
752.298	14506.92
752.636	14569.74
752.975	14521.38
753.313	14485.68
753.651	14588.5
753.989	14568.16
754.327	14567.03
754.666	14530.42
755.004	14604.32
755.342	14643.19
755.679	14668.72
756.017	14679.12
756.355	14792.11
756.693	14701.94
757.031	14746.46
757.368	14727.48
757.706	14797.53
758.044	14715.95
758.381	14898.1
758.719	14696.29
759.056	14767.03
759.394	14894.26
759.731	14894.93
760.068	14878.89
760.405	14854.48
760.743	14922.96
761.08	14933.58
761.417	14882.5
761.754	14919.79
762.091	14877.98
762.428	14891.77
762.765	14850.41
763.102	14933.35
763.438	14963.41
763.775	14890.64
764.112	14947.14
764.449	14953.69
764.785	14894.93
765.122	14823.75
765.458	14891.54
765.795	14969.28
766.131	15006.57
766.467	14951.43
766.804	14945.78
767.14	14892
767.476	14925.89
767.812	14853.35
768.148	14852
768.485	14872.33
768.821	14826.69
769.157	14961.37
769.492	14985.78
769.828	14978.77
770.164	14872.11
770.5	14861.26
770.836	14920.02
771.171	14776.97
771.507	14807.03
771.842	14788.04
772.178	14813.81
772.513	14817.65
772.849	14792.56
773.184	14750.98
773.519	14797.99
773.855	14772.68
774.19	14807.7
774.525	14782.62
774.86	14797.53
775.195	14765.9
775.53	14705.79
775.865	14757.76
776.2	14645.45
776.535	14606.13
776.87	14653.58
777.205	14544.43
777.539	14502.4
777.874	14658.78
778.209	14538.33
778.543	14552.57
778.878	14480.03
779.212	14555.96
779.547	14520.93
779.881	14514.6
780.215	14482.74
780.55	14586.24
780.884	14414.72
781.218	14433.02
781.552	14483.42
781.886	14499.01
782.22	14436.19
782.554	14419.69
782.888	14291.11
783.222	14270.77
783.556	14246.59
783.889	14299.92
784.223	14212.69
784.557	14239.81
784.89	14203.2
785.224	14232.58
785.557	14125.01
785.891	14158.68
786.224	14097.89
786.558	14147.38
786.891	14019.48
787.224	14077.1
787.557	13962.53
787.891	14040.04
788.224	14047.05
788.557	14046.59
788.89	14082.98
789.223	13999.82
789.556	13923.21
789.888	13859.48
790.221	13910.55
790.554	13936.77
790.887	13852.7
791.219	13820.39
791.552	13785.58
791.884	13781.74
792.217	13770.89
792.549	13788.52
792.882	13694.51
793.214	13620.62
793.546	13691.8
793.879	13655.42
794.211	13588.3
794.543	13692.7
794.875	13631.69
795.207	13640.5
795.539	13571.8
795.871	13578.81
796.203	13542.65
796.535	13448.42
796.867	13382.66
797.198	13524.35
797.53	13505.37
797.862	13408.87
798.193	13413.39
798.525	13331.36
798.856	13359.38
799.188	13287.74
799.519	13271.25
799.85	13220.63
800.182	13278.7
800.513	13283
800.844	13102.89
801.175	13235.09
801.506	13098.6
801.837	13137.69
802.168	13078.71
802.499	13073.74
802.83	13086.39
803.161	13034.19
803.491	13029.45
803.822	13100.63
804.153	12897.25
804.483	12909.67
804.814	12832.61
805.145	12880.52
805.475	12902.44
805.805	12819.51
806.136	12878.94
806.466	12841.65
806.796	12782.9
807.126	12748.1
807.457	12691.15
807.787	12649.12
808.117	12737.93
808.447	12610.02
808.777	12682.11
809.107	12564.15
809.436	12569.57
809.766	12669
810.096	12600.98
810.426	12474.43
810.755	12501.32
811.085	12522.79
811.414	12496.8
811.744	12470.14
812.073	12475.11
812.403	12408.22
812.732	12344.04
813.061	12378.39
813.39	12390.37
813.719	12323.02
814.049	12371.16
814.378	12262.46
814.707	12306.53
815.036	12259.52
815.365	12273.76
815.693	12157.6
816.022	12180.88
816.351	12163.48
816.68	12147.21
817.008	12146.98
817.337	12075.35
817.665	12073.09
817.994	12064.27
818.322	12024.05
818.651	12033.31
818.979	11989.7
819.307	12003.48
819.636	11972.52
819.964	11911.51
820.292	11998.29
820.62	11957.84
820.948	11885.52
821.276	11969.81
821.604	11913.77
821.932	11992.18
822.259	11935.46
822.587	11909.25
822.915	11918.97
823.243	11971.62
823.57	11881.68
823.898	11909.25
824.225	11885.29
824.553	11931.4
824.88	11930.04
825.207	11892.53
825.535	11977.27
825.862	11947.21
826.189	11910.15
826.516	11959.19
826.843	12041
827.17	12054.33
827.497	12002.58
827.824	11975.91
828.151	12049.58
828.478	12019.98
828.805	12042.8
829.131	12026.31
829.458	11959.42
829.785	11978.85
830.111	11983.37
830.438	12023.14
830.764	12001.9
831.09	12007.55
831.417	11965.29
831.743	11988.79
832.069	12046.19
832.395	11983.82
832.722	11980.43
833.048	11965.74
833.374	11947.21
833.7	11894.79
834.026	11921.23
834.351	11931.4
834.677	11949.02
835.003	11959.42
835.329	12031.96
835.654	11985.86
835.98	11817.95
836.306	11979.08
836.631	11864.05
836.956	11950.6
837.282	11883.49
837.607	11830.61
837.932	11788.12
838.258	11820.89
838.583	11850.04
838.908	11769.59
839.233	11742.25
839.558	11729.82
839.883	11737.28
840.208	11700.89
840.533	11671.52
840.858	11771.63
841.182	11713.32
841.507	11716.26
841.832	11610.05
842.156	11704.73
842.481	11638.75
842.805	11562.37
843.13	11581.12
843.454	11608.69
843.778	11447.11
844.103	11537.06
844.427	11427.23
844.751	11396.27
845.075	11462.03
845.399	11363.05
845.723	11372.77
846.047	11394.01
846.371	11301.81
846.695	11318.08
847.019	11174.58
847.343	11152.88
847.666	11052.32
847.99	11089.38
848.313	11068.37
848.637	11046.9
848.96	10977.07
849.284	10961.93
849.607	10857.75
849.931	10899.78
850.254	10818.88
850.577	10695.5
850.9	10691.65
851.223	10716.74
851.546	10617.31
851.869	10549.51
852.192	10606.23
852.515	10564.2
852.838	10575.05
853.161	10489.85
853.483	10497.99
853.806	10415.5
854.129	10406.24
854.451	10337.54
854.774	10313.81
855.096	10252.57
855.419	10264.55
855.741	10272.23
856.063	10178.9
856.385	10133.25
856.708	10120.14
857.03	10033.59
857.352	10080.82
857.674	10057.55
857.996	10009.86
858.318	9982.07
858.64	9943.2
858.961	9917.66
859.283	9884.22
859.605	9918.11
859.926	9889.19
860.248	9844.44
860.57	9777.55
860.891	9862.75
861.212	9771.45
861.534	9754.73
861.855	9734.39
862.176	9780.94
862.498	9786.59
862.819	9665.24
863.14	9714.96
863.461	9669.99
863.782	9634.73
864.103	9668.63
864.424	9612.81
864.745	9642.87
865.065	9563.77
865.386	9496.88
865.707	9544.11
866.027	9563.1
866.348	9561.97
866.668	9493.27
866.989	9444.23
867.309	9464.57
867.63	9406.26
867.95	9425.92
868.27	9397.9
868.59	9416.43
868.91	9357
869.23	9362.42
869.55	9329.2
869.87	9389.54
870.19	9396.32
870.51	9337.57
870.83	9313.39
871.15	9253.73
871.469	9266.83
871.789	9244.91
872.109	9297.34
872.428	9215.76
872.748	9225.25
873.067	9224.35
873.386	9259.83
873.706	9174.63
874.025	9116.55
874.344	9188.19
874.663	9153.39
874.982	9143.45
875.301	9069.32
875.62	9083.33
875.939	9095.99
876.258	9130.79
876.577	9018.48
876.896	9055.54
877.214	9015.77
877.533	9034.07
877.852	8966.73
878.17	8964.92
878.489	9020.51
878.807	8960.4
879.125	8974.86
879.444	8983.68
879.762	8949.55
880.08	8950.46
880.398	8890.8
880.716	8926.73
881.034	8866.39
881.352	8855.09
881.67	8842.21
881.988	8836.56
882.306	8804.7
882.624	8749.56
882.941	8746.85
883.259	8767.18
883.577	8786.39
883.894	8705.94
884.212	8711.37
884.529	8674.76
884.846	8598.38
885.164	8621.43
885.481	8611.71
885.798	8615.78
886.115	8582.78
886.432	8588.43
886.75	8542.56
887.067	8500.07
887.383	8485.84
887.7	8465.5
888.017	8484.25
888.334	8524.48
888.651	8445.84
888.967	8434.09
889.284	8370.13
889.6	8357.7
889.917	8273.86
890.233	8304.82
890.55	8248.1
890.866	8296.91
891.182	8193.87
891.498	8243.81
891.815	8175.11
892.131	8137.14
892.447	8150.48
892.763	8087.2
893.079	8064.6
893.395	8060.54
893.71	8094.21
894.026	8060.31
894.342	7993.42
894.657	8001.33
894.973	7912.07
895.289	7936.25
895.604	7960.2
895.92	7878.17
896.235	7812.41
896.55	7829.81
896.865	7817.38
897.181	7823.25
897.496	7753.2
897.811	7745.29
898.126	7693.54
898.441	7667.78
898.756	7642.47
899.071	7626.65
899.386	7630.27
899.7	7566.54
900.015	7506.43
900.33	7483.15
900.644	7468.01
900.959	7518.63
901.273	7482.02
901.588	7379.42
901.902	7364.74
902.216	7315.25
902.531	7345.75
902.845	7325.87
903.159	7280.67
903.473	7270.05
903.787	7198.64
904.101	7203.38
904.415	7091.97
904.729	7171.07
905.042	7072.77
905.356	7047.91
905.67	7035.93
905.984	7039.32
906.297	7065.99
906.611	6988.25
906.924	6957.06
907.237	6940.57
907.551	6882.94
907.864	6914.58
908.177	6857.86
908.491	6854.47
908.804	6861.47
909.117	6810.63
909.43	6738.09
909.743	6726.11
910.056	6672.1
910.368	6689.73
910.681	6655.38
910.994	6609.5
911.307	6583.29
911.619	6525.44
911.932	6576.96
912.244	6481.37
912.557	6514.14
912.869	6463.06
913.181	6451.77
913.494	6457.87
913.806	6403.41
914.118	6336.29
914.43	6328.83
914.742	6303.07
915.054	6274.59
915.366	6231.66
915.678	6240.02
915.99	6235.95
916.302	6215.16
916.613	6143.75
916.925	6101.27
917.236	6118.21
917.548	6039.35
917.859	6058.78
918.171	6066.01
918.482	6019.01
918.794	5990.31
919.105	5995.05
919.416	5917.99
919.727	5920.25
920.038	5912.8
920.349	5846.36
920.66	5862.85
920.971	5769.52
921.282	5854.49
921.593	5820.82
921.903	5761.84
922.214	5682.97
922.525	5697.21
922.835	5655.18
923.146	5633.03
923.456	5607.04
923.767	5590.32
924.077	5547.16
924.387	5474.62
924.697	5515.29
925.008	5489.3
925.318	5496.76
925.628	5468.51
925.938	5440.27
926.248	5457.67
926.558	5413.15
926.867	5418.57
927.177	5369.08
927.487	5346.26
927.796	5324.56
928.106	5318.24
928.416	5226.03
928.725	5264.45
929.034	5173.38
929.344	5208.63
929.653	5203.44
929.962	5148.97
930.271	5101.97
930.581	5147.17
930.89	5087.28
931.199	5054.29
931.508	5033.05
931.817	5033.95
932.125	5019.49
932.434	5045.02
932.743	4951.92
933.051	4921.18
933.36	4917.12
933.669	4901.52
933.977	4844.12
934.286	4870.79
934.594	4883.9
934.902	4809.1
935.21	4799.83
935.519	4741.08
935.827	4769.32
936.135	4725.03
936.443	4699.95
936.751	4661.08
937.059	4675.09
937.367	4666.73
937.674	4641.87
937.982	4627.41
938.29	4573.62
938.597	4623.56
938.905	4558.48
939.213	4573.62
939.52	4516.22
939.827	4526.62
940.135	4462.67
940.442	4442.1
940.749	4423.57
941.056	4448.43
941.363	4376.79
941.67	4424.93
941.977	4343.8
942.284	4349.67
942.591	4319.84
942.898	4317.81
943.205	4302.22
943.511	4306.06
943.818	4294.31
944.125	4229.22
944.431	4249.56
944.738	4235.1
945.044	4201.43
945.35	4207.08
945.657	4171.37
945.963	4171.15
946.269	4127.53
946.575	4144.26
946.881	4087.76
947.187	4100.19
947.493	4102
947.799	4095.9
948.105	4006.41
948.41	3970.47
948.716	3973.86
949.022	3972.28
949.327	4005.95
949.633	3910.59
949.938	3926.63
950.244	3942.23
950.549	3852.96
950.854	3900.19
951.16	3838.5
951.465	3865.17
951.77	3810.25
952.075	3813.64
952.38	3806.41
952.685	3782.46
952.99	3746.3
953.294	3749.92
953.599	3726.64
953.904	3678.73
954.209	3674.66
954.513	3709.24
954.818	3667.88
955.122	3649.13
955.426	3631.5
955.731	3619.98
956.035	3604.61
956.339	3616.59
956.643	3606.64
956.948	3536.59
957.252	3558.06
957.556	3490.26
957.86	3481.22
958.163	3526.19
958.467	3468.79
958.771	3496.36
959.075	3438.06
959.378	3421.11
959.682	3465.63
959.985	3407.78
960.289	3382.69
960.592	3399.87
960.896	3342.02
961.199	3389.47
961.502	3322.81
961.805	3280.1
962.108	3269.02
962.411	3283.49
962.714	3280.55
963.017	3283.49
963.32	3295.01
963.623	3225.41
963.926	3199.2
964.228	3175.24
964.531	3215.47
964.833	3165.75
965.136	3155.81
965.438	3145.86
965.741	3086.88
966.043	3118.29
966.345	3129.37
966.648	3108.58
966.95	3088.69
967.252	3068.58
967.554	3045.53
967.856	3055.7
968.158	2998.52
968.46	3048.01
968.761	3030.61
969.063	2986.55
969.365	2990.61
969.666	2997.39
969.968	2943.38
970.269	2951.74
970.571	2940.67
970.872	2901.58
971.174	2929.15
971.475	2891.18
971.776	2863.16
972.077	2876.27
972.378	2885.53
972.679	2838.3
972.98	2819.54
973.281	2821.13
973.582	2782.48
973.883	2801.47
974.183	2782.48
974.484	2775.93
974.785	2754.69
975.085	2758.08
975.386	2755.82
975.686	2704.29
975.986	2726.67
976.287	2698.87
976.587	2695.25
976.887	2670.17
977.187	2636.5
977.487	2650.96
977.787	2659.32
978.087	2645.09
978.387	2622.71
978.687	2612.77
978.987	2606.67
979.286	2566.22
979.586	2578.65
979.885	2565.99
980.185	2527.12
980.484	2490.74
980.784	2526.22
981.083	2538.87
981.382	2523.06
981.682	2500.68
981.981	2500
982.28	2491.42
982.579	2477.41
982.878	2469.95
983.177	2447.8
983.475	2451.42
983.774	2437.86
984.073	2397.18
984.372	2380.46
984.67	2372.32
984.969	2327.81
985.267	2375.04
985.566	2355.15
985.864	2357.41
986.162	2358.09
986.461	2337.52
986.759	2296.17
987.057	2295.26
987.355	2328.03
987.653	2312.67
987.951	2302.95
988.249	2282.16
988.547	2286.45
988.844	2249.39
989.142	2243.74
989.44	2231.54
989.737	2207.13
990.035	2199.45
990.332	2176.62
990.63	2204.19
990.927	2180.24
991.224	2176.17
991.521	2164.19
991.819	2133.69
992.116	2168.49
992.413	2142.5
992.71	2117.19
993.006	2125.55
993.303	2099.56
993.6	2075.38
993.897	2075.38
994.193	2092.78
994.49	2074.93
994.787	2050.75
995.083	2037.87
995.379	1993.35
995.676	2004.42
995.972	2036.29
996.268	1994.71
996.565	1999.91
996.861	1992.45
997.157	2002.84
997.453	1985.22
997.749	1940.25
998.044	1954.48
998.34	1963.75
998.636	1928.04
998.932	1937.08
999.227	1928.72
999.523	1895.5
999.818	1904.54
1000.114	1897.53
1000.409	1872.45
1000.704	1884.65
1001	1843.52
1001.295	1853.24
1001.59	1852.34
1001.885	1819.34
1002.18	1838.33
1002.475	1819.34
1002.77	1811.89
1003.065	1782.51
1003.359	1816.41
1003.654	1770.31
1003.949	1752.45
1004.243	1744.32
1004.538	1765.79
1004.832	1761.04
1005.127	1715.62
1005.421	1718.56
1005.715	1693.7
1006.009	1678.11
1006.304	1677.65
1006.598	1679.46
1006.892	1664.55
1007.186	1659.12
1007.48	1669.74
1007.773	1645.79
1008.067	1627.26
1008.361	1634.04
1008.655	1607.6
1008.948	1593.59
1009.242	1598.79
1009.535	1576.64
1009.829	1566.7
1010.122	1542.52
1010.415	1541.84
1010.708	1534.61
1011.001	1530.76
1011.295	1566.92
1011.588	1525.57
1011.881	1487.15
1012.173	1491.9
1012.466	1495.51
1012.759	1505.23
1013.052	1500.71
1013.344	1497.77
1013.637	1467.94
1013.93	1432.91
1014.222	1448.28
1014.514	1460.03
1014.807	1425
1015.099	1421.16
1015.391	1424.33
1015.683	1414.61
1015.976	1400.82
1016.268	1393.59
1016.56	1383.2
1016.851	1378.45
1017.143	1375.74
1017.435	1371.67
1017.727	1325.35
1018.018	1363.09
1018.31	1338.45
1018.602	1332.35
1018.893	1328.06
1019.185	1344.56
1019.476	1319.02
1019.767	1321.96
1020.058	1286.03
1020.35	1281.28
1020.641	1267.95
1020.932	1261.17
1021.223	1268.4
1021.514	1253.26
1021.804	1239.25
1022.095	1243.77
1022.386	1201.73
1022.677	1231.56
1022.967	1199.7
1023.258	1187.05
1023.548	1164.45
1023.839	1196.99
1024.129	1167.61
1024.419	1179.59
1024.709	1183.43
1025	1136.42
1025.29	1143.66
1025.58	1123.77
1025.87	1140.49
1026.16	1106.14
1026.449	1133.71
1026.739	1106.14
1027.029	1115.63
1027.319	1091.91
1027.608	1087.61
1027.898	1066.37
1028.187	1064.11
1028.477	1060.49
1028.766	1082.42
1029.055	1045.35
1029.344	1050.1
1029.634	1043.77
1029.923	1036.99
1030.212	1043.09
1030.501	1041.74
1030.79	1005.81
1031.078	1035.86
1031.367	1012.81
1031.656	1006.71
1031.945	995.64
1032.233	973.94
1032.522	976.2
1032.81	976.2
1033.099	979.82
1033.387	966.71
1033.675	983.66
1033.963	963.55
1034.251	950.44
1034.54	927.62
1034.828	949.54
1035.116	937.11
1035.403	921.74
1035.691	917.9
1035.979	893.27
1036.267	914.06
1036.554	909.54
1036.842	905.02
1037.129	878.58
1037.417	881.29
1037.704	892.14
1037.992	873.61
1038.279	869.99
1038.566	885.36
1038.853	885.36
1039.14	885.36
