Data from blue_clamp_base_FLMS001491_00043.txt Node
Date: Wed Feb 08 15:16:03 GMT 2017
User: dcchb
Spectrometer: FLMS00149
Trigger mode: 0
Integration Time (sec): 2.000000E-2
Scans to average: 10
Electric dark correction enabled: true
Nonlinearity correction enabled: false
Boxcar width: 0
XAxis mode: Wavelengths
Number of Pixels in Spectrum: 2048
>>>>>Begin Spectral Data<<<<<
341.393	7.57
341.776	7.57
342.16	7.57
342.543	-37.4
342.927	-47.8
343.31	-92.09
343.693	-80.56
344.077	-50.51
344.46	-55.25
344.843	-62.03
345.226	-40.34
345.61	-31.07
345.993	-41.24
346.376	4.63
346.759	13.22
347.142	28.13
347.525	36.27
347.908	57.51
348.291	87.79
348.674	98.87
349.057	126.66
349.44	111.52
349.823	146.32
350.206	161.24
350.588	179.77
350.971	212.31
351.354	239.65
351.737	227.23
352.119	265.64
352.502	242.82
352.884	284.63
353.267	284.4
353.65	315.36
354.032	301.8
354.414	324.17
354.797	316.26
355.179	313.33
355.562	338.86
355.944	310.16
356.326	341.8
356.709	326.88
357.091	350.16
357.473	363.95
357.855	338.86
358.238	343.15
358.62	349.71
359.002	347.22
359.384	337.73
359.766	363.27
360.148	349.93
360.53	364.85
360.912	341.35
361.294	354
361.676	350.16
362.057	326.66
362.439	334.12
362.821	340.44
363.203	346.32
363.584	320.78
363.966	337.96
364.348	336.15
364.729	331.4
365.111	323.95
365.493	331.18
365.874	343.61
366.256	339.77
366.637	337.05
367.019	338.41
367.4	323.04
367.781	315.13
368.163	334.57
368.544	344.96
368.925	330.5
369.306	338.41
369.688	345.87
370.069	337.51
370.45	349.71
370.831	323.72
371.212	346.54
371.593	330.27
371.974	340.67
372.355	347
372.736	338.86
373.117	332.99
373.498	319.2
373.879	333.66
374.26	339.54
374.641	326.43
375.021	334.12
375.402	365.53
375.783	370.72
376.163	369.14
376.544	339.31
376.925	357.39
377.305	383.38
377.686	356.49
378.066	360.33
378.447	377.73
378.827	362.14
379.208	347.22
379.588	355.36
379.968	364.85
380.349	370.05
380.729	357.62
381.109	358.52
381.489	363.95
381.87	371.4
382.25	369.14
382.63	394.45
383.01	384.28
383.39	393.77
383.77	391.29
384.15	402.36
384.53	397.62
384.91	412.31
385.29	417.5
385.67	400.78
386.049	394.68
386.429	408.46
386.809	411.18
387.189	423.83
387.568	407.79
387.948	433.77
388.328	409.59
388.707	429.71
389.087	413.66
389.466	435.81
389.846	413.44
390.225	440.55
390.605	444.17
390.984	440.55
391.363	461.34
391.743	450.5
392.122	447.11
392.501	448.46
392.881	452.76
393.26	466.77
393.639	475.81
394.018	471.51
394.397	478.74
394.776	476.94
395.155	498.63
395.534	498.4
395.913	497.5
396.292	485.98
396.671	506.54
397.05	535.47
397.429	499.31
397.808	524.84
398.186	518.97
398.565	535.47
398.944	530.49
399.323	533.88
399.701	534.79
400.08	547.9
400.458	533.21
400.837	549.03
401.215	589.02
401.594	568.01
401.972	565.3
402.351	583.83
402.729	610.49
403.107	593.32
403.486	611.17
403.864	615.01
404.242	613.66
404.62	622.92
404.999	622.47
405.377	649.14
405.755	646.2
406.133	650.72
406.511	666.08
406.889	689.36
407.267	679.64
407.645	700.66
408.023	693.65
408.401	717.61
408.779	690.49
409.156	712.18
409.534	695.69
409.912	741.34
410.29	745.86
410.667	759.19
411.045	757.16
411.422	750.38
411.8	782.24
412.178	777.95
412.555	781.56
412.933	823.59
413.31	804.84
413.687	803.48
414.065	845.51
414.442	868.56
414.819	848.68
415.197	842.35
415.574	874.21
415.951	895.68
416.328	889.81
416.705	874.67
417.082	902.91
417.46	915.34
417.837	925.06
418.214	938.17
418.591	931.39
418.967	954.89
419.344	963.7
419.721	976.36
420.098	973.19
420.475	998.05
420.852	960.54
421.228	1009.58
421.605	1015.91
421.982	1012.29
422.358	1038.96
422.735	1064.04
423.111	1063.14
423.488	1059.97
423.864	1062.46
424.241	1101.55
424.617	1097.03
424.994	1120.08
425.37	1122.8
425.746	1137.94
426.123	1149.69
426.499	1154.88
426.875	1168.67
427.251	1188.33
427.627	1193.53
428.003	1224.26
428.379	1249.57
428.756	1245.28
429.132	1282.34
429.507	1285.73
429.883	1282.11
430.259	1329.57
430.635	1343.81
431.011	1355.78
431.387	1374.77
431.763	1397.36
432.138	1412.73
432.514	1422
432.89	1418.38
433.265	1455.67
433.641	1466.74
434.016	1477.81
434.392	1499.06
434.767	1549
435.143	1525.04
435.518	1569.56
435.894	1572.73
436.269	1589.68
436.644	1610.69
437.02	1645.04
437.395	1640.52
437.77	1662.89
438.145	1695.21
438.52	1723.68
438.895	1719.16
439.271	1704.93
439.646	1778.15
440.021	1804.13
440.395	1803.91
440.77	1789.22
441.145	1802.78
441.52	1832.83
441.895	1835.09
442.27	1881.42
442.645	1864.92
443.019	1898.37
443.394	1885.94
443.769	1945.37
444.143	1921.64
444.518	1958.03
444.892	1953.51
445.267	1992.38
445.641	2009.78
446.016	1999.83
446.39	2044.35
446.764	2028.08
447.139	2023.79
447.513	2050.45
447.887	2102.43
448.262	2064.24
448.636	2114.41
449.01	2094.3
449.384	2154.63
449.758	2184.01
450.132	2195.54
450.506	2196.21
450.88	2236.89
451.254	2231.92
451.628	2236.89
452.002	2296.55
452.376	2299.49
452.75	2315.31
453.123	2304.23
453.497	2384.91
453.871	2391.69
454.244	2421.07
454.618	2436.66
454.992	2479.37
455.365	2474.62
455.739	2550.78
456.112	2602.76
456.486	2611.34
456.859	2599.14
457.232	2658.12
457.606	2650.44
457.979	2649.99
458.352	2728.63
458.725	2745.8
459.099	2793.26
459.472	2859.92
459.845	2861.05
460.218	2860.6
460.591	2899.25
460.964	2950.77
461.337	2970.43
461.71	2973.59
462.083	3077.55
462.456	3041.61
462.829	3070.09
463.201	3098.79
463.574	3099.92
463.947	3171.33
464.32	3230.76
464.692	3249.52
465.065	3259.24
465.438	3284.77
465.81	3346.69
466.183	3397.76
466.555	3487.93
466.928	3484.32
467.3	3457.2
467.672	3501.72
468.045	3610.41
468.417	3597.31
468.789	3602.73
469.161	3676.17
469.534	3722.05
469.906	3800.01
470.278	3829.39
470.65	3823.52
471.022	3888.6
471.394	3980.57
471.766	4015.83
472.138	4022.61
472.51	4137.86
472.882	4181.7
473.253	4194.13
473.625	4242.04
473.997	4318.19
474.369	4355.03
474.74	4366.78
475.112	4489.26
475.484	4517.73
475.855	4585.53
476.227	4638.64
476.598	4774.68
476.97	4722.47
477.341	4850.38
477.713	4875.47
478.084	4866.2
478.455	5099.19
478.827	5049.7
479.198	5201.33
479.569	5188
479.94	5300.09
480.311	5372.85
480.682	5418.73
481.053	5574.66
481.424	5589.8
481.795	5696.01
482.166	5682.22
482.537	5742.79
482.908	5881.99
483.279	5931.93
483.65	6026.17
484.021	6108.43
484.391	6149.33
484.762	6173.74
485.133	6181.65
485.503	6271.81
485.874	6403.11
486.244	6465.48
486.615	6504.57
486.985	6528.08
487.356	6718.35
487.726	6720.61
488.097	6785.02
488.467	6803.32
488.837	6919.03
489.207	7048.29
489.578	7028.18
489.948	7112.47
490.318	7137.55
490.688	7158.57
491.058	7314.5
491.428	7303.2
491.798	7386.13
492.168	7513.59
492.538	7519.46
492.908	7516.07
493.278	7631.55
493.648	7612.57
494.017	7759.68
494.387	7701.15
494.757	7845.78
495.126	7841.94
495.496	7887.59
495.866	7844.88
496.235	7931.43
496.605	7949.73
496.974	7989.96
497.344	8062.05
497.713	8093.23
498.082	8108.83
498.452	8171.88
498.821	8210.74
499.19	8164.87
499.559	8220.24
499.928	8338.2
500.298	8291.19
500.667	8331.42
501.036	8330.52
501.405	8472.66
501.774	8380.46
502.143	8426.56
502.512	8436.5
502.88	8515.6
503.249	8495.26
503.618	8578.19
503.987	8559.89
504.356	8556.72
504.724	8602.6
505.093	8631.75
505.462	8594.69
505.83	8741.8
506.199	8763.27
506.567	8833.78
506.936	8794.01
507.304	8863.61
507.672	8810.28
508.041	8897.51
508.409	8951.06
508.777	8986.54
509.145	9077.39
509.514	9000.33
509.882	9031.97
510.25	9065.41
510.618	9159.65
510.986	9176.82
511.354	9190.83
511.722	9220.44
512.09	9272.64
512.458	9207.1
512.826	9251.85
513.193	9415.01
513.561	9366.65
513.929	9492.74
514.297	9478.28
514.664	9600.31
515.032	9520.99
515.4	9617.94
515.767	9584.49
516.135	9628.79
516.502	9572.06
516.869	9700.65
517.237	9719.63
517.604	9684.83
517.972	9790.36
518.339	9767.31
518.706	9780.42
519.073	9842.79
519.44	9798.95
519.808	9915.56
520.175	9949.68
520.542	10048.21
520.909	10115.78
521.276	9966.86
521.643	10094.31
522.009	10191.48
522.376	10204.59
522.743	10263.35
523.11	10260.41
523.477	10357.81
523.843	10375.89
524.21	10433.06
524.577	10536.56
524.943	10473.51
525.31	10538.59
525.676	10664.47
526.043	10668.53
526.409	10734.52
526.776	10775.65
527.142	10771.36
527.508	10797.12
527.874	10978.81
528.241	10951.46
528.607	10956.89
528.973	11056.09
529.339	10987.39
529.705	11202.98
530.071	11324.79
530.437	11211.57
530.803	11338.12
531.169	11282.3
531.535	11292.92
531.901	11388.74
532.267	11480.04
532.632	11462.64
532.998	11504.44
533.364	11628.51
533.73	11656.76
534.095	11656.98
534.461	11716.64
534.826	11790.99
535.192	11747.37
535.557	11866.24
535.923	11833.7
536.288	11915.51
536.653	11960.25
537.019	11885
537.384	12000.48
537.749	12037.54
538.114	12041.15
538.479	12073.47
538.845	12173.8
539.21	12127.25
539.575	12129.96
539.94	12180.13
540.305	12381.03
540.67	12190.3
541.034	12347.81
541.399	12310.98
541.764	12451.09
542.129	12396.85
542.494	12477.07
542.858	12460.8
543.223	12421.93
543.587	12538.09
543.952	12598.43
544.316	12591.42
544.681	12617.63
545.045	12607.92
545.41	12722.04
545.774	12719.33
546.138	12727.69
546.503	12738.08
546.867	12712.77
547.231	12892.2
547.595	12823.28
547.959	12901.92
548.324	12909.38
548.688	12999.77
549.052	12990.51
549.416	12946.21
549.779	13025.31
550.143	12978.53
550.507	13081.12
550.871	13118.64
551.235	13139.43
551.599	13225.98
551.962	13264.62
552.326	13257.17
552.689	13356.15
553.053	13319.08
553.417	13341.68
553.78	13457.39
554.143	13435.69
554.507	13439.99
554.87	13470.72
555.234	13590.26
555.597	13581.9
555.96	13609.02
556.323	13643.14
556.686	13651.51
557.05	13747.1
557.413	13806.98
557.776	13775.8
558.139	13997.71
558.502	13905.51
558.865	13928.11
559.228	14023.7
559.59	13925.85
559.953	13999.74
560.316	14206.07
560.679	14118.16
561.041	14225.05
561.404	14227.08
561.767	14315.22
562.129	14332.84
562.492	14349.79
562.854	14503.91
563.217	14396.57
563.579	14440.86
563.941	14513.63
564.304	14599.96
564.666	14686.28
565.028	14738.93
565.39	14723.57
565.753	14816.9
566.115	14975.31
566.477	14878.82
566.839	14994.97
567.201	15071.13
567.563	15059.6
567.925	15198.58
568.287	15206.72
568.648	15200.39
569.01	15348.64
569.372	15420.05
569.734	15371.91
570.095	15488.75
570.457	15467.5
570.819	15561.51
571.18	15555.86
571.542	15682.64
571.903	15762.18
572.265	15731.22
572.626	15720.38
572.987	15863.88
573.349	15953.82
573.71	15910.2
574.071	16001.95
574.432	16082.18
574.794	16204.43
575.155	16106.36
575.516	16117.66
575.877	16200.59
576.238	16221.61
576.599	16278.78
576.96	16346.35
577.32	16324.66
577.681	16352.45
578.042	16396.97
578.403	16480.58
578.763	16447.36
579.124	16537.31
579.485	16525.33
579.845	16718.77
580.206	16696.17
580.566	16626.34
580.927	16650.07
581.287	16647.13
581.648	16600.35
582.008	16730.29
582.368	16783.85
582.728	16788.37
583.089	16762.16
583.449	16702.27
583.809	16781.82
584.169	16867.92
584.529	16806.68
584.889	16942.27
585.249	16780.69
585.609	16745.44
585.969	16961.02
586.329	16871.99
586.688	16889.61
587.048	16871.76
587.408	16766.23
587.768	16905.66
588.127	16887.13
588.487	16795.38
588.846	17028.82
589.206	16901.59
589.565	16857.75
589.925	17031.3
590.284	16874.92
590.643	16987.69
591.003	17070.62
591.362	17056.61
591.721	17062.94
592.08	17026.56
592.44	17092.54
592.799	17148.59
593.158	17083.05
593.517	17119.89
593.876	17191.3
594.235	17103.39
594.593	17190.17
594.952	17100
595.311	17070.4
595.67	17140.23
596.029	17268.81
596.387	17130.74
596.746	17332.76
597.104	17195.59
597.463	17128.7
597.822	17264.52
598.18	17148.14
598.538	17271.3
598.897	17365.08
599.255	17174.35
599.613	17404.63
599.972	17338.64
600.33	17297.06
600.688	17231.07
601.046	17357.85
601.404	17472.87
601.762	17349.49
602.12	17387.23
602.478	17477.85
602.836	17430.16
603.194	17357.85
603.552	17442.59
603.91	17357.17
604.268	17460.67
604.625	17421.58
604.983	17564.4
605.341	17377.51
605.698	17554.45
606.056	17539.99
606.413	17462.93
606.771	17550.61
607.128	17695.47
607.485	17544.06
607.843	17492.76
608.2	17668.12
608.557	17662.47
608.914	17594.45
609.272	17652.98
609.629	17736.6
609.986	17784.05
610.343	17721.23
610.7	17832.19
611.057	17605.53
611.414	17707.67
611.771	17813.2
612.127	17796.93
612.484	17788.8
612.841	17953.77
613.198	17810.27
613.554	17928.68
613.911	17986.98
614.267	18008.23
614.624	17909.92
614.98	18061.11
615.337	18094.78
615.693	18041.22
616.05	17977.72
616.406	18084.16
616.762	18091.84
617.118	18037.83
617.475	18032.63
617.831	18141.78
618.187	18089.58
618.543	18146.3
618.899	18281.21
619.255	18173.65
619.611	18245.96
619.967	18329.35
620.323	18257.94
620.678	18183.14
621.034	18158.05
621.39	18198.28
621.746	18233.53
622.101	18409.57
622.457	18267.88
622.812	18291.16
623.168	18391.72
623.523	18355.11
623.879	18485.28
624.234	18330.25
624.589	18429.46
624.945	18462.9
625.3	18509.91
625.655	18442.34
626.01	18458.61
626.365	18565.27
626.72	18492.96
627.075	18459.29
627.43	18561.66
627.785	18445.5
628.14	18485.73
628.495	18534.77
628.85	18513.52
629.205	18462.9
629.559	18597.36
629.914	18507.42
630.269	18642.79
630.623	18573.86
630.978	18541.77
631.332	18538.83
631.687	18689.11
632.041	18637.36
632.396	18686.4
632.75	18560.3
633.104	18672.84
633.459	18510.13
633.813	18701.77
634.167	18530.02
634.521	18534.77
634.875	18569.34
635.229	18594.43
635.583	18634.2
635.937	18508.78
636.291	18620.41
636.645	18599.62
636.999	18618.15
637.352	18656.12
637.706	18631.71
638.06	18722.33
638.413	18673.07
638.767	18666.74
639.121	18718.72
639.474	18620.64
639.828	18591.49
640.181	18655.22
640.534	18725.5
640.888	18549
641.241	18633.3
641.594	18663.58
641.947	18681.2
642.301	18644.37
642.654	18704.25
643.007	18721.65
643.36	18810.01
643.713	18760.75
644.066	18755.1
644.419	18656.57
644.771	18532.06
645.124	18341.33
645.477	18307.88
645.83	18296.81
646.182	18299.52
646.535	18346.98
646.888	18352.17
647.24	18376.58
647.593	18531.38
647.945	18568.44
648.298	18333.19
648.65	18330.03
649.002	18405.73
649.355	18376.13
649.707	18311.72
650.059	18408.89
650.411	18700.64
650.763	18720.3
651.115	18963.46
651.467	18833.52
651.819	18936.56
652.171	19026.73
652.523	18971.37
652.875	18994.64
653.227	18821.99
653.578	19086.39
653.93	19060.63
654.282	18976.11
654.633	18924.14
654.985	19065.15
655.337	18966.39
655.688	19107.63
656.039	19260.17
656.391	18958.48
656.742	19094.75
657.094	19052.27
657.445	19121.64
657.796	19050.01
658.147	19040.52
658.498	19078.93
658.849	19113.73
659.2	19109.67
659.551	19066.5
659.902	19095.2
660.253	19043.68
660.604	19095.43
660.955	19152.15
661.306	19129.78
661.656	19052.72
662.007	19130.46
662.358	19183.79
662.708	19125.03
663.059	19107.63
663.409	18953.74
663.76	19140.63
664.11	19155.99
664.461	19123.45
664.811	19194.18
665.161	19111.02
665.511	19100.63
665.862	19128.65
666.212	19217.91
666.562	19206.84
666.912	19248.87
667.262	19131.59
667.612	19107.41
667.962	19132.72
668.312	19191.92
668.662	19239.38
669.011	19127.07
669.361	19107.63
669.711	19106.96
670.06	19072.38
670.41	18961.42
670.76	19040.74
671.109	19007.07
671.459	18976.56
671.808	18877.36
672.157	18996
672.507	18839.17
672.856	18743.8
673.205	18859.96
673.554	18762.11
673.904	18657.48
674.253	18818.15
674.602	18718.72
674.951	18483.24
675.3	18375.68
675.649	18644.14
675.998	18633.97
676.346	18668.55
676.695	18586.52
677.044	18491.6
677.393	18534.31
677.741	18571.38
678.09	18562.56
678.438	18445.5
678.787	18418.39
679.135	18504.26
679.484	18263.36
679.832	18350.14
680.181	18203.48
680.529	18206.41
680.877	18172.29
681.225	18133.65
681.573	18221.55
681.922	18064.95
682.27	18035.8
682.618	18165.74
682.966	18064.72
683.314	18078.73
683.661	17865.18
684.009	17869.93
684.357	17820.44
684.705	17785.86
685.053	17755.58
685.4	17787.44
685.748	17726.2
686.095	17706.09
686.443	17651.85
686.79	17716.71
687.138	17704.96
687.485	17675.13
687.832	17586.77
688.18	17599.65
688.527	17500.44
688.874	17477.85
689.221	17473.33
689.568	17391.52
689.915	17381.12
690.262	17457.51
690.609	17341.35
690.956	17254.8
691.303	17281.47
691.65	17284.18
691.997	17218.87
692.344	17161.92
692.69	17076.73
693.037	17177.51
693.383	17117.85
693.73	17164.63
694.077	17013
694.423	16906.79
694.769	17000.57
695.116	17048.93
695.462	16923.28
695.808	16807.35
696.155	16904.3
696.501	16833.57
696.847	16878.09
697.193	16542.05
697.539	16752.21
697.885	16669.51
698.231	16570.52
698.577	16708.15
698.923	16641.26
699.269	16570.75
699.614	16522.84
699.96	16381.83
700.306	16552.9
700.651	16497.53
700.997	16432.45
701.342	16403.07
701.688	16425.9
702.033	16385.22
702.379	16393.35
702.724	16335.73
703.069	16445.56
703.415	16181.16
703.76	16305.67
704.105	16297.76
704.45	16265.22
704.795	16129.18
705.14	16054.38
705.485	16192.46
705.83	16034.04
706.175	16070.42
706.52	16129.18
706.865	16075.4
707.209	16047.6
707.554	16013.25
707.899	15934.84
708.243	15893.03
708.588	15922.41
708.932	15861.16
709.277	15868.85
709.621	15890.09
709.966	15697.55
710.31	15782.07
710.654	15666.37
710.998	15845.35
711.342	15911.79
711.687	15796.31
712.031	15777.78
712.375	15665.46
712.719	15728.74
713.063	15671.57
713.407	15809.64
713.75	15738.68
714.094	15707.72
714.438	15641.06
714.782	15621.17
715.125	15580.49
715.469	15641.74
715.812	15548.63
716.156	15435.19
716.499	15496.65
716.843	15571
717.186	15472.47
717.53	15532.36
717.873	15543.21
718.216	15484
718.559	15386.83
718.902	15394.51
719.246	15396.09
719.589	15377.56
719.932	15393.61
720.275	15417.79
720.617	15371.01
720.96	15360.61
721.303	15369.65
721.646	15384.57
721.989	15306.83
722.331	15299.6
722.674	15295.3
723.016	15325.13
723.359	15370.33
723.701	15339.14
724.044	15217.34
724.386	15189.09
724.729	15261.41
725.071	15283.33
725.413	15185.48
725.755	15256.89
726.097	15124.69
726.439	15201.07
726.782	15139.38
727.124	15204.01
727.465	15218.24
727.807	15213.72
728.149	15122.2
728.491	15129.66
728.833	15196.32
729.175	15067.29
729.516	15079.49
729.858	15140.51
730.199	15162.43
730.541	15066.16
730.882	15109.55
731.224	15244.01
731.565	15051.24
731.906	15182.54
732.248	15084.46
732.589	15155.87
732.93	15127.85
733.271	15150.45
733.612	15221.86
733.953	15184.12
734.294	15144.57
734.635	15214.85
734.976	15231.35
735.317	15138.92
735.658	15107.06
735.999	15136.44
736.339	15211.24
736.68	15243.78
737.021	15173.5
737.361	15159.26
737.702	15382.08
738.042	15307.51
738.383	15273.61
738.723	15329.65
739.063	15234.97
739.404	15380.73
739.744	15327.17
740.084	15296.21
740.424	15277.9
740.764	15333.5
741.104	15356.55
741.444	15401.97
741.784	15295.98
742.124	15537.56
742.464	15442.19
742.804	15452.14
743.143	15458.01
743.483	15445.13
743.823	15511.57
744.162	15595.41
744.502	15577.1
744.841	15517.45
745.181	15691.9
745.52	15616.2
745.86	15680.15
746.199	15779.59
746.538	15802.86
746.877	15781.84
747.216	15770.32
747.556	15846.25
747.895	15832.69
748.234	15833.82
748.573	15860.71
748.911	15949.3
749.25	15978.45
749.589	15932.58
749.928	15935.06
750.267	15985.91
750.605	15993.82
750.944	16036.08
751.283	16102.51
751.621	16100.03
751.96	16025
752.298	16091.89
752.636	16133.7
752.975	16146.36
753.313	16062.97
753.651	16148.39
753.989	16260.48
754.327	16248.27
754.666	16268.39
755.004	16307.48
755.342	16328.95
755.679	16319.91
756.017	16273.13
756.355	16323.3
756.693	16341.83
757.031	16319.23
757.368	16210.99
757.706	16431.09
758.044	16473.58
758.381	16486.69
758.719	16551.54
759.056	16607.59
759.394	16469.96
759.731	16411.66
760.068	16554.48
760.405	16469.96
760.743	16638.32
761.08	16592.45
761.417	16543.18
761.754	16533.01
762.091	16681.48
762.428	16588.15
762.765	16559.45
763.102	16650.07
763.438	16504.99
763.775	16542.28
764.112	16543.18
764.449	16663.18
764.785	16580.24
765.122	16546.8
765.458	16508.38
765.795	16604.42
766.131	16645.33
766.467	16646.23
766.804	16549.28
767.14	16534.59
767.476	16607.81
767.812	16634.7
768.148	16634.93
768.485	16574.59
768.821	16517.64
769.157	16536.63
769.492	16608.04
769.828	16485.78
770.164	16407.14
770.5	16454.14
770.836	16578.66
771.171	16453.92
771.507	16460.02
771.842	16451.21
772.178	16434.48
772.513	16486.91
772.849	16455.5
773.184	16453.24
773.519	16402.39
773.855	16359.46
774.19	16367.59
774.525	16364.43
774.86	16406.91
775.195	16426.35
775.53	16381.15
775.865	16322.62
776.2	16234.26
776.535	16125.56
776.87	16194.94
777.205	16319.01
777.539	16245.34
777.874	16331.21
778.209	16105.23
778.543	16210.53
778.878	16135.73
779.212	16209.4
779.547	16137.54
779.881	16167.15
780.215	16052.35
780.55	16195.62
780.884	16045.79
781.218	16000.82
781.552	16100.71
781.886	15927.83
782.22	15974.83
782.554	15928.28
782.888	15882.63
783.222	15787.49
783.556	15793.6
783.889	15798.34
784.223	15736.42
784.557	15714.73
784.89	15747.5
785.224	15772.13
785.557	15699.14
785.891	15711.34
786.224	15718.8
786.558	15734.16
786.891	15542.98
787.224	15533.94
787.557	15601.74
787.891	15594.51
788.224	15556.09
788.557	15617.78
788.89	15437.9
789.223	15479.48
789.556	15424.57
789.888	15407.84
790.221	15340.73
790.554	15272.71
790.887	15303.21
791.219	15309.31
791.552	15299.15
791.884	15244.68
792.217	15213.5
792.549	15164.46
792.882	15119.04
793.214	15068.64
793.546	15140.96
793.879	15009.21
794.211	14920.62
794.543	15087.63
794.875	15001.75
795.207	15178.92
795.539	14979.15
795.871	15006.05
796.203	14884.47
796.535	14874.52
796.867	14879.5
797.198	14872.26
797.53	14841.3
797.862	14736
798.193	14768.31
798.525	14667.07
798.856	14728.99
799.188	14670.24
799.519	14610.8
799.85	14526.74
800.182	14574.19
800.513	14562.67
800.844	14478.83
801.175	14529
801.506	14544.14
801.837	14497.36
802.168	14546.85
802.499	14468.66
802.83	14465.72
803.161	14327.65
803.491	14388.66
803.822	14397.7
804.153	14290.36
804.483	14206.29
804.814	14214.65
805.145	14140.98
805.475	14277.25
805.805	14199.29
806.136	14188.89
806.466	14247.42
806.796	14182.56
807.126	14051.49
807.457	13969.69
807.787	14073.19
808.117	14008.78
808.447	13982.57
808.777	14003.81
809.107	13956.81
809.436	13871.61
809.766	13842.01
810.096	13864.16
810.426	13837.49
810.755	13848.34
811.085	13791.61
811.414	13776.25
811.744	13668.23
812.073	13732.63
812.403	13722.46
812.732	13637.27
813.061	13625.07
813.39	13544.62
813.719	13595.69
814.049	13630.94
814.378	13599.76
814.707	13501.9
815.036	13539.64
815.365	13410.16
815.693	13380.33
816.022	13436.82
816.351	13430.72
816.68	13307.11
817.008	13457.84
817.337	13133.33
817.665	13202.7
817.994	13253.1
818.322	13319.31
818.651	13176.04
818.979	13110.95
819.307	13230.73
819.636	13122.03
819.964	13183.27
820.292	13136.04
820.62	13113.67
820.948	13063.72
821.276	13086.32
821.604	13077.74
821.932	13120.45
822.259	13164.06
822.587	13118.19
822.915	13101.69
823.243	13143.04
823.57	13092.42
823.898	13134.23
824.225	13134
824.553	13104.4
824.88	13110.73
825.207	13086.77
825.535	13124.51
825.862	13172.65
826.189	13075.7
826.516	13256.26
826.843	13181.91
827.17	13111.18
827.497	13196.38
827.824	13165.19
828.151	13239.31
828.478	13202.93
828.805	13261.91
829.131	13160.67
829.458	13230.05
829.785	13089.71
830.111	13133.55
830.438	13177.85
830.764	13250.39
831.09	13175.81
831.417	13123.84
831.743	13264.17
832.069	13208.35
832.395	13172.87
832.722	13235.7
833.048	13119.32
833.374	13201.8
833.7	13140.33
834.026	13101.46
834.351	13279.09
834.677	13103.72
835.003	13167.22
835.329	13174.68
835.654	13111.41
835.98	13045.65
836.306	13104.4
836.631	12999.55
836.956	13110.73
837.282	13169.48
837.607	13067.11
837.932	12979.88
838.258	13013.33
838.583	13080.67
838.908	12978.08
839.233	12932.2
839.558	12913.45
839.883	12902.37
840.208	12915.48
840.533	12877.97
840.858	12853.11
841.182	12866.44
841.507	12857.18
841.832	12769.49
842.156	12718.2
842.481	12754.13
842.805	12690.4
843.13	12748.7
843.454	12658.09
843.778	12637.75
844.103	12610.4
844.427	12554.81
844.751	12604.3
845.075	12520.24
845.399	12500.8
845.723	12465.77
846.047	12449.5
846.371	12428.94
846.695	12356.4
847.019	12309.62
847.343	12239.79
847.666	12180.81
847.99	12166.12
848.313	12188.04
848.637	12030.53
848.96	12097.87
849.284	12088.83
849.607	11937.88
849.931	11876.86
850.254	11821.05
850.577	11750.09
850.9	11720.26
851.223	11717.77
851.546	11625.8
851.869	11626.47
852.192	11605.01
852.515	11515.97
852.838	11437.33
853.161	11419.25
853.483	11413.6
853.806	11414.5
854.129	11393.03
854.451	11368.18
854.774	11267.84
855.096	11174.28
855.419	11203.66
855.741	11199.14
856.063	11154.62
856.385	11093.83
856.708	11136.54
857.03	11085.92
857.352	11059.94
857.674	11042.31
857.996	10952.82
858.318	10907.62
858.64	10998.24
858.961	10895.42
859.283	10830.34
859.605	10825.59
859.926	10824.91
860.248	10771.36
860.57	10816.78
860.891	10804.12
861.212	10717.12
861.534	10728.19
861.855	10688.42
862.176	10638.93
862.498	10703.11
862.819	10630.34
863.14	10648.19
863.461	10580.17
863.782	10570.46
864.103	10568.87
864.424	10488.42
864.745	10474.64
865.065	10449.33
865.386	10473.06
865.707	10405.94
866.027	10417.47
866.348	10393.51
866.668	10475.77
866.989	10347.41
867.309	10350.8
867.63	10347.19
867.95	10355.55
868.27	10268.77
868.59	10312.61
868.91	10300.41
869.23	10206.85
869.55	10189
869.87	10260.41
870.19	10197.13
870.51	10213.63
870.83	10174.53
871.15	10132.5
871.469	10140.86
871.789	10135.44
872.109	10083.69
872.428	10071.71
872.748	10070.36
873.067	10090.02
873.386	10093.41
873.706	10043.01
874.025	9998.95
874.344	9939.51
874.663	9967.99
874.982	9945.16
875.301	9944.03
875.62	9952.62
875.939	9894.09
876.258	9952.39
876.577	9883.47
876.896	9831.49
877.214	9853.19
877.533	9851.83
877.852	9851.61
878.17	9834.43
878.489	9829.91
878.807	9796.69
879.125	9811.38
879.444	9824.04
879.762	9687.09
880.08	9746.75
880.398	9683.47
880.716	9656.58
881.034	9669.24
881.352	9617.26
881.67	9646.86
881.988	9598.5
882.306	9591.27
882.624	9611.61
882.941	9511.28
883.259	9517.83
883.577	9500.88
883.894	9506.53
884.212	9449.13
884.529	9429.02
884.846	9425.18
885.164	9469.92
885.481	9346.53
885.798	9479.86
886.115	9344.95
886.432	9299.3
886.75	9271.96
887.067	9280.77
887.383	9247.33
887.7	9201
888.017	9249.81
888.334	9216.37
888.651	9186.09
888.967	9186.09
889.284	9101.57
889.6	9127.56
889.917	9050.27
890.233	9053.66
890.55	9081
890.866	9073.55
891.182	8959.88
891.498	9017.28
891.815	8901.12
892.131	8900.67
892.447	8910.84
892.763	8856.83
893.079	8811.86
893.395	8818.19
893.71	8786.32
894.026	8753.78
894.342	8690.51
894.657	8732.54
894.973	8681.69
895.289	8653.67
895.604	8671.52
895.92	8552.2
896.235	8538.65
896.55	8533.9
896.865	8417.74
897.181	8486.22
897.496	8524.63
897.811	8436.73
898.126	8373.45
898.441	8349.72
898.756	8376.62
899.071	8362.83
899.386	8330.06
899.7	8250.29
900.015	8217.52
900.33	8162.16
900.644	8160.35
900.959	8192.67
901.273	8106.79
901.588	8054.14
901.902	8003.29
902.216	8016.85
902.531	7938.89
902.845	8005.1
903.159	7918.77
903.473	7949.06
903.787	7861.83
904.101	7785.67
904.415	7817.08
904.729	7773.47
905.042	7751.1
905.356	7772.56
905.67	7747.71
905.984	7675.62
906.297	7654.38
906.611	7558.11
906.924	7579.35
907.237	7532.8
907.551	7566.47
907.864	7491.89
908.177	7495.28
908.491	7446.24
908.804	7428.62
909.117	7368.51
909.43	7423.65
909.743	7296.64
910.056	7299.36
910.368	7281.05
910.681	7258.23
910.994	7175.74
911.307	7142.07
911.619	7075.41
911.932	7090.77
912.244	7076.31
912.557	7078.34
912.869	7045.8
913.181	6983.66
913.494	6929.42
913.806	6935.98
914.118	6906.15
914.43	6896.88
914.742	6902.3
915.054	6859.59
915.366	6821.63
915.678	6785.47
915.99	6745.47
916.302	6649.43
916.613	6688.75
916.925	6612.37
917.236	6658.69
917.548	6600.62
917.859	6600.39
918.171	6624.8
918.482	6530.79
918.794	6480.39
919.105	6529.43
919.416	6500.51
919.727	6447.18
920.038	6428.42
920.349	6321.53
920.66	6328.08
920.971	6330.12
921.282	6319.49
921.593	6301.64
921.903	6213.73
922.214	6242.43
922.525	6232.49
922.835	6139.39
923.146	6097.13
923.456	6114.3
923.767	6077.92
924.077	6115.88
924.387	6016.68
924.697	6014.19
925.008	5962.44
925.318	5926.51
925.628	5960.86
925.938	5940.3
926.248	5909.56
926.558	5870.47
926.867	5830.69
927.177	5816.91
927.487	5762.9
927.796	5717.7
928.106	5698.72
928.416	5725.84
928.725	5687.42
929.034	5654.88
929.344	5614.88
929.653	5641.77
929.962	5548.67
930.271	5565.39
930.581	5552.06
930.89	5425.28
931.199	5497.82
931.508	5495.11
931.817	5481.78
932.125	5422.57
932.434	5435
932.743	5336.92
933.051	5365.62
933.36	5297.6
933.669	5291.05
933.977	5294.44
934.286	5282.69
934.594	5249.24
934.902	5219.18
935.21	5166.53
935.519	5135.35
935.827	5152.97
936.135	5113.88
936.443	5075.69
936.751	5065.74
937.059	5051.96
937.367	5040.21
937.674	5001.56
937.982	5034.33
938.29	4962.69
938.597	4990.72
938.905	4956.59
939.213	4934.67
939.52	4876.14
939.827	4870.49
940.135	4845.64
940.442	4812.87
940.749	4820.1
941.056	4845.18
941.363	4742.81
941.67	4722.93
941.977	4710.95
942.284	4711.85
942.591	4675.02
942.898	4665.53
943.205	4667.11
943.511	4626.88
943.818	4632.76
944.125	4569.26
944.431	4562.7
944.738	4590.73
945.044	4550.28
945.35	4494.01
945.657	4512.54
945.963	4468.24
946.269	4474.35
946.575	4440
946.881	4440.22
947.187	4411.3
947.493	4403.84
947.799	4378.3
948.105	4345.76
948.41	4303.73
948.716	4311.41
949.022	4310.73
949.327	4312.77
949.633	4232.09
949.938	4240.91
950.244	4212.66
950.549	4175.6
950.854	4170.17
951.16	4168.59
951.465	4160.91
951.77	4084.98
952.075	4096.28
952.38	4094.92
952.685	4076.62
952.99	4035.94
953.294	4045.43
953.599	4008.14
953.904	3983.51
954.209	4001.82
954.513	3924.08
954.818	3963.4
955.122	3956.85
955.426	3943.96
955.731	3881.82
956.035	3891.08
956.339	3908.94
956.643	3847.02
956.948	3825.78
957.252	3844.53
957.556	3834.81
957.86	3783.29
958.163	3771.54
958.467	3786.91
958.771	3715.72
959.075	3739.22
959.378	3702.84
959.682	3712.33
959.985	3693.8
960.289	3616.06
960.592	3604.99
960.896	3625.1
961.199	3590.98
961.502	3541.94
961.805	3554.14
962.108	3561.6
962.411	3554.6
962.714	3540.13
963.017	3460.14
963.32	3509.63
963.623	3485.9
963.926	3529.74
964.228	3430.53
964.531	3439.57
964.833	3458.33
965.136	3390.76
965.438	3374.26
965.741	3377.43
966.043	3365
966.345	3356.63
966.648	3376.07
966.95	3320.7
967.252	3312.34
967.554	3271.89
967.856	3282.06
968.158	3273.02
968.46	3229.41
968.761	3220.82
969.063	3199.58
969.365	3222.18
969.666	3196.19
969.968	3158.67
970.269	3190.99
970.571	3143.53
970.872	3119.58
971.174	3132.91
971.475	3129.52
971.776	3130.88
972.077	3075.06
972.378	3088.85
972.679	3035.06
972.98	3071.67
973.281	3021.95
973.582	3047.72
973.883	2998.9
974.183	2964.33
974.484	2976.53
974.785	2947.83
975.085	2963.65
975.386	2952.58
975.686	2942.18
975.986	2908.06
976.287	2918.68
976.587	2884.78
976.887	2880.94
977.187	2847.27
977.487	2885.23
977.787	2845.91
978.087	2798.23
978.387	2817.21
978.687	2832.13
978.987	2816.31
979.286	2770.21
979.586	2774.5
979.885	2707.84
980.185	2762.98
980.484	2718.69
980.784	2714.39
981.083	2714.84
981.382	2691.57
981.682	2673.72
981.981	2693.38
982.28	2666.94
982.579	2642.3
982.878	2701.96
983.177	2620.16
983.475	2626.03
983.774	2583.55
984.073	2597.11
984.372	2560.72
984.67	2582.87
984.969	2575.64
985.267	2599.59
985.566	2564.11
985.864	2515.75
986.162	2483.44
986.461	2482.31
986.759	2502.65
987.057	2478.92
987.355	2474.4
987.653	2449.54
987.951	2471.46
988.249	2395.08
988.547	2426.49
988.844	2419.26
989.142	2404.34
989.44	2398.24
989.737	2379.03
990.035	2392.37
990.332	2367.96
990.63	2341.75
990.927	2332.93
991.224	2360.05
991.521	2305.82
991.819	2340.84
992.116	2294.52
992.413	2291.35
992.71	2258.13
993.006	2239.6
993.303	2245.48
993.6	2216.1
993.897	2229.88
994.193	2219.49
994.49	2233.05
994.787	2191.02
995.083	2182.65
995.379	2178.81
995.676	2186.5
995.972	2151.24
996.268	2154.63
996.565	2158.02
996.861	2094.97
997.157	2123.67
997.453	2113.73
997.749	2080.74
998.044	2093.39
998.34	2061.3
998.636	2071.92
998.932	2094.97
999.227	2028.08
999.523	2037.8
999.818	1982.21
1000.114	1993.28
1000.409	1983.11
1000.704	1962.77
1001	1972.72
1001.295	1963
1001.59	1961.87
1001.885	1958.48
1002.18	1934.98
1002.475	1964.13
1002.77	1919.84
1003.065	1888.42
1003.359	1916.22
1003.654	1900.4
1003.949	1877.13
1004.243	1880.97
1004.538	1867.18
1004.832	1864.47
1005.127	1841.19
1005.421	1807.75
1005.715	1839.39
1006.009	1814.08
1006.304	1792.83
1006.598	1801.65
1006.892	1781.76
1007.186	1753.29
1007.48	1775.21
1007.773	1750.8
1008.067	1766.85
1008.361	1725.94
1008.655	1726.62
1008.948	1725.27
1009.242	1720.97
1009.535	1684.14
1009.829	1662.89
1010.122	1652.5
1010.415	1665.61
1010.708	1649.79
1011.001	1666.74
1011.295	1644.36
1011.588	1615.89
1011.881	1596.68
1012.173	1607.98
1012.466	1599.62
1012.759	1595.1
1013.052	1588.09
1013.344	1586.29
1013.637	1559.17
1013.93	1578.6
1014.222	1523.91
1014.514	1530.47
1014.807	1539.51
1015.099	1537.47
1015.391	1487.98
1015.683	1540.41
1015.976	1501.09
1016.268	1497.47
1016.56	1447.53
1016.851	1467.19
1017.143	1482.11
1017.435	1427.65
1017.727	1454.99
1018.018	1418.38
1018.31	1418.38
1018.602	1400.53
1018.893	1403.92
1019.185	1385.61
1019.476	1364.14
1019.767	1374.77
1020.058	1370.25
1020.35	1360.08
1020.641	1312.62
1020.932	1342.68
1021.223	1353.07
1021.514	1313.52
1021.804	1323.92
1022.095	1297.71
1022.386	1325.5
1022.677	1318.95
1022.967	1278.05
1023.258	1266.52
1023.548	1261.55
1023.839	1243.02
1024.129	1236.24
1024.419	1229.91
1024.709	1213.41
1025	1227.43
1025.29	1194.66
1025.58	1193.53
1025.87	1185.84
1026.16	1196.69
1026.449	1187.88
1026.739	1198.27
1027.029	1181.78
1027.319	1163.92
1027.608	1169.12
1027.898	1150.37
1028.187	1149.69
1028.477	1151.04
1028.766	1119.86
1029.055	1102.46
1029.344	1117.15
1029.634	1123.93
1029.923	1130.48
1030.212	1092.74
1030.501	1104.26
1030.79	1092.97
1031.078	1068.33
1031.367	1070.59
1031.656	1053.19
1031.945	1030.14
1032.233	1027.88
1032.522	1045.74
1032.81	1042.57
1033.099	1012.74
1033.387	1035.57
1033.675	1013.42
1033.963	1014.1
1034.251	985.17
1034.54	983.36
1034.828	963.7
1035.116	971.16
1035.403	986.08
1035.691	975.91
1035.979	950.14
1036.267	974.1
1036.554	948.34
1036.842	955.79
1037.129	927.55
1037.417	909.47
1037.704	930.94
1037.992	920.77
1038.279	880.32
1038.566	919.64
1038.853	919.64
1039.14	919.64
