Data from blue_clamp_base_FLMS001491_00083.txt Node
Date: Wed Feb 08 15:16:37 GMT 2017
User: dcchb
Spectrometer: FLMS00149
Trigger mode: 0
Integration Time (sec): 2.000000E-2
Scans to average: 10
Electric dark correction enabled: true
Nonlinearity correction enabled: false
Boxcar width: 0
XAxis mode: Wavelengths
Number of Pixels in Spectrum: 2048
>>>>>Begin Spectral Data<<<<<
341.393	-7.91
341.776	-7.91
342.16	-7.91
342.543	-57.85
342.927	-70.73
343.31	-55.59
343.693	-68.02
344.077	-37.29
344.46	-36.38
344.843	-61.92
345.226	-46.1
345.61	-41.35
345.993	-18.76
346.376	-1.13
346.759	-8.36
347.142	15.82
347.525	36.38
347.908	58.53
348.291	65.54
348.674	88.59
349.057	110.05
349.44	117.96
349.823	129.94
350.206	176.49
350.588	202.25
350.971	195.02
351.354	235.7
351.737	240.45
352.119	259.2
352.502	279.77
352.884	284.51
353.267	274.12
353.65	323.83
354.032	295.59
354.414	312.99
354.797	315.25
355.179	329.03
355.562	339.65
355.944	332.65
356.326	342.14
356.709	354.34
357.091	341.01
357.473	330.84
357.855	337.17
358.238	350.05
358.62	359.76
359.002	350.05
359.384	360.22
359.766	356.6
360.148	351.4
360.53	366.09
360.912	346.88
361.294	342.36
361.676	343.95
362.057	345.98
362.439	340.1
362.821	343.04
363.203	345.75
363.584	339.43
363.966	340.78
364.348	330.61
364.729	344.4
365.111	344.17
365.493	337.84
365.874	351.63
366.256	338.07
366.637	348.01
367.019	336.26
367.4	338.3
367.781	331.52
368.163	340.33
368.544	330.84
368.925	342.14
369.306	339.65
369.688	351.63
370.069	350.73
370.45	342.59
370.831	324.06
371.212	359.76
371.593	323.83
371.974	363.61
372.355	334
372.736	336.04
373.117	324.51
373.498	341.46
373.879	330.39
374.26	365.64
374.641	334.68
375.021	337.84
375.402	356.15
375.783	359.54
376.163	376.26
376.544	378.75
376.925	363.15
377.305	368.13
377.686	355.47
378.066	361.12
378.447	367
378.827	367.67
379.208	372.87
379.588	371.52
379.968	359.99
380.349	374.45
380.729	403.61
381.109	385.98
381.489	386.2
381.87	382.14
382.25	400.22
382.63	399.99
383.01	389.14
383.39	395.24
383.77	368.8
384.15	392.31
384.53	386.43
384.91	442.47
385.29	410.38
385.67	423.04
386.049	410.16
386.429	423.72
386.809	416.94
387.189	423.49
387.568	445.19
387.948	418.97
388.328	410.84
388.707	425.98
389.087	469.59
389.466	435.02
389.846	446.09
390.225	427.33
390.605	468.01
390.984	458.97
391.363	472.08
391.743	496.26
392.122	461.46
392.501	469.59
392.881	510.95
393.26	490.83
393.639	481.8
394.018	494.9
394.397	493.32
394.776	499.65
395.155	513.66
395.534	523.15
395.913	532.19
396.292	530.83
396.671	553.66
397.05	541.68
397.429	545.97
397.808	536.26
398.186	534.45
398.565	540.78
398.944	560.89
399.323	565.18
399.701	584.39
400.08	566.99
400.458	561.12
400.837	598.63
401.215	586.43
401.594	578.52
401.972	605.63
402.351	596.82
402.729	634.79
403.107	633.88
403.486	642.02
403.864	640.44
404.242	662.58
404.62	660.32
404.999	675.01
405.377	669.36
405.755	700.32
406.133	696.7
406.511	689.7
406.889	713.88
407.267	728.34
407.645	743.03
408.023	732.41
408.401	760.43
408.779	764.73
409.156	759.08
409.534	781.9
409.912	793.88
410.29	775.8
410.667	802.69
411.045	830.49
411.422	816.02
411.8	832.52
412.178	852.18
412.555	861.22
412.933	872.07
413.31	859.41
413.687	898.51
414.065	912.29
414.442	916.13
414.819	942.8
415.197	913.87
415.574	947.77
415.951	957.71
416.328	958.17
416.705	965.4
417.082	972.63
417.46	984.38
417.837	995
418.214	1005.4
418.591	1004.27
418.967	1011.95
419.344	1072.97
419.721	1045.4
420.098	1055.34
420.475	1056.7
420.852	1054.89
421.228	1089.46
421.605	1114.1
421.982	1117.48
422.358	1120.42
422.735	1121.55
423.111	1129.91
423.488	1132.85
423.864	1156.58
424.241	1193.19
424.617	1178.73
424.994	1186.86
425.37	1217.14
425.746	1220.31
426.123	1238.61
426.499	1251.72
426.875	1274.54
427.251	1290.14
427.627	1319.06
428.003	1326.07
428.379	1349.57
428.756	1356.35
429.132	1391.6
429.507	1378.27
429.883	1420.08
430.259	1420.75
430.635	1456.91
431.011	1434.31
431.387	1499.4
431.763	1535.1
432.138	1539.62
432.514	1562.9
432.89	1549.11
433.265	1594.99
433.641	1626.62
434.016	1623.01
434.392	1654.42
434.767	1702.78
435.143	1684.93
435.518	1701.65
435.894	1720.18
436.269	1767.19
436.644	1784.13
437.02	1760.18
437.395	1819.61
437.77	1827.97
438.145	1824.13
438.52	1868.2
438.895	1886.05
439.271	1898.48
439.646	1939.38
440.021	1961.53
440.395	2007.63
440.77	1986.61
441.145	2004.47
441.52	2044.92
441.895	2022.09
442.27	2048.08
442.645	2053.05
443.019	2060.74
443.394	2041.98
443.769	2090.57
444.143	2111.36
444.518	2121.98
444.892	2184.58
445.267	2173.73
445.641	2183.9
446.016	2154.97
446.39	2224.35
446.764	2270.45
447.139	2269.09
447.513	2265.03
447.887	2282.2
448.262	2290.56
448.636	2319.71
449.01	2337.34
449.384	2359.71
449.758	2388.41
450.132	2384.8
450.506	2398.36
450.88	2428.41
451.254	2448.52
451.628	2512.7
452.002	2531.91
452.376	2504.34
452.75	2559.03
453.123	2521.97
453.497	2625.47
453.871	2615.07
454.244	2675.86
454.618	2713.15
454.992	2754.05
455.365	2726.48
455.739	2778.68
456.112	2833.37
456.486	2850.32
456.859	2890.32
457.232	2955.4
457.606	2931
457.979	2963.54
458.352	3013.25
458.725	3064.1
459.099	3075.4
459.472	3135.28
459.845	3188.62
460.218	3185
460.591	3215.51
460.964	3231.33
461.337	3295.73
461.71	3352.68
462.083	3415.96
462.456	3385.45
462.829	3460.7
463.201	3458.67
463.574	3498.67
463.947	3576.4
464.32	3645.78
464.692	3679
465.065	3696.17
465.438	3725.55
465.81	3805.32
466.183	3819.56
466.555	3894.59
466.928	3949.05
467.3	3940.46
467.672	3970.97
468.045	4024.53
468.417	4065.66
468.789	4046.67
469.161	4100.91
469.534	4187.46
469.906	4281.24
470.278	4295.71
470.65	4368.47
471.022	4449.6
471.394	4546.55
471.766	4505.87
472.138	4539.99
472.51	4697.28
472.882	4709.03
473.253	4728.92
473.625	4834.45
473.997	4885.97
474.369	4912.41
474.74	5001
475.112	5113.99
475.484	5116.02
475.855	5235.12
476.227	5224.27
476.598	5348.56
476.97	5440.99
477.341	5548.78
477.713	5639.4
478.084	5649.57
478.455	5748.55
478.827	5816.57
479.198	5962.56
479.569	5973.63
479.94	6083.91
480.311	6132.27
480.682	6234.19
481.053	6379.72
481.424	6486.16
481.795	6531.58
482.166	6653.61
482.537	6689.99
482.908	6804.11
483.279	6785.13
483.65	6973.15
484.021	7089.08
484.391	7166.82
484.762	7171.56
485.133	7288.62
485.503	7391.44
485.874	7476.64
486.244	7556.19
486.615	7644.09
486.985	7645
487.356	7883.41
487.726	7887.25
488.097	8001.82
488.467	8010.86
488.837	8179.45
489.207	8198.88
489.578	8376.28
489.948	8379.89
490.318	8507.8
490.688	8436.39
491.058	8613.11
491.428	8709.83
491.798	8770.62
492.168	8895.81
492.538	8914.79
492.908	8918.18
493.278	9087.9
493.648	9105.75
494.017	9192.07
494.387	9241.34
494.757	9295.12
495.126	9364.05
495.496	9345.29
495.866	9460.99
496.235	9515
496.605	9575.34
496.974	9610.82
497.344	9686.52
497.713	9694.43
498.082	9744.15
498.452	9893.75
498.821	9848.33
499.19	9902.11
499.559	9962.22
499.928	10037.02
500.298	10040.19
500.667	10135.55
501.036	10169.45
501.405	10171.48
501.774	10162.22
502.143	10233.86
502.512	10264.36
502.88	10424.13
503.249	10344.81
503.618	10434.08
503.987	10448.54
504.356	10453.06
504.724	10529.89
505.093	10639.95
505.462	10610.12
505.83	10614.64
506.199	10697.12
506.567	10823.9
506.936	10770.56
507.304	10858.7
507.672	10885.82
508.041	11028.18
508.409	10969.88
508.777	11123.1
509.145	11160.84
509.514	11189.99
509.882	11254.85
510.25	11265.92
510.618	11319.25
510.986	11338.23
511.354	11458
511.722	11418.23
512.09	11592.92
512.458	11475.63
512.826	11643.08
513.193	11682.18
513.561	11721.95
513.929	11769.41
514.297	11888.27
514.664	11930.08
515.032	11980.7
515.4	11970.53
515.767	12007.37
516.135	12071.55
516.502	11993.81
516.869	12315.16
517.237	12263.86
517.604	12152
517.972	12301.82
518.339	12382.73
518.706	12415.04
519.073	12479.45
519.44	12659.55
519.808	12597.18
520.175	12632.21
520.542	12786.56
520.909	12758.76
521.276	12782.71
521.643	12880.57
522.009	12945.42
522.376	12952.88
522.743	13079.66
523.11	13170.5
523.477	13281.46
523.843	13327.56
524.21	13465.86
524.577	13553.32
524.943	13623.6
525.31	13636.03
525.676	13788.56
526.043	13815.46
526.409	13865.4
526.776	13960.31
527.142	13884.83
527.508	13999.41
527.874	14156.46
528.241	14227.87
528.607	14257.25
528.973	14344.26
529.339	14363.46
529.705	14430.36
530.071	14526.62
530.437	14577.47
530.803	14566.62
531.169	14768.88
531.535	14712.83
531.901	14701.31
532.267	14853.62
532.632	14897.91
532.998	15028.76
533.364	15132.48
533.73	15104.46
534.095	15152.37
534.461	15263.55
534.826	15399.37
535.192	15444.34
535.557	15442.98
535.923	15497.45
536.288	15578.8
536.653	15539.25
537.019	15561.4
537.384	15699.47
537.749	15765.01
538.114	15745.8
538.479	15762.98
538.845	15754.84
539.21	15746.93
539.575	15909.86
539.94	15973.37
540.305	15969.07
540.67	16037.77
541.034	16090.2
541.399	16246.8
541.764	16150.99
542.129	16201.38
542.494	16250.87
542.858	16201.83
543.223	16294.26
543.587	16367.03
543.952	16340.36
544.316	16449.96
544.681	16423.52
545.045	16522.28
545.41	16622.39
545.774	16637.08
546.138	16825.77
546.503	16738.77
546.867	16713.91
547.231	16869.39
547.595	16834.36
547.959	16920.01
548.324	16868.03
548.688	16959.55
549.052	17031.19
549.416	17110.28
549.779	17133.79
550.143	17051.3
550.507	17185.08
550.871	17241.35
551.235	17321.35
551.599	17430.95
551.962	17496.72
552.326	17498.52
552.689	17705.3
553.053	17499.43
553.417	17530.61
553.78	17791.85
554.143	17633.66
554.507	17736.71
554.87	17866.65
555.234	18012.86
555.597	17790.04
555.96	17975.12
556.323	18003.59
556.686	18098.51
557.05	18167.21
557.413	18173.53
557.776	18217.6
558.139	18347.77
558.502	18311.16
558.865	18390.93
559.228	18443.58
559.59	18538.72
559.953	18526.07
560.316	18584.37
560.679	18700.98
561.041	18685.61
561.404	18850.58
561.767	18934.87
562.129	18870.01
562.492	19149.78
562.854	19054.64
563.217	19146.16
563.579	19241.53
563.941	19332.83
564.304	19315.42
564.666	19500.28
565.028	19565.59
565.39	19532.14
565.753	19730.33
566.115	19734.4
566.477	19853.72
566.839	19836.09
567.201	19985.01
567.563	19900.72
567.925	20046.93
568.287	20138.45
568.648	20196.53
569.01	20311.33
569.372	20332.12
569.734	20293.03
570.095	20477.2
570.457	20558.56
570.819	20587.03
571.18	20586.58
571.542	20722.17
571.903	20830.41
572.265	20748.16
572.626	20864.31
572.987	20846.46
573.349	20980.01
573.71	21161.93
574.071	21188.37
574.432	21214.58
574.794	21341.81
575.155	21236.73
575.516	21235.15
575.877	21366.9
576.238	21391.75
576.599	21460.45
576.96	21519.89
577.32	21517.85
577.681	21623.61
578.042	21721.46
578.403	21661.35
578.763	21662.93
579.124	21735.93
579.485	21815.92
579.845	21871.29
580.206	21741.58
580.566	21799.88
580.927	21884.85
581.287	21904.06
581.648	21960.78
582.008	22056.6
582.368	22035.13
582.728	22031.96
583.089	22056.82
583.449	22032.19
583.809	22029.93
584.169	22122.36
584.529	22079.19
584.889	22270.37
585.249	22222.24
585.609	22211.39
585.969	22275.12
586.329	22230.6
586.688	22177.5
587.048	22255.69
587.408	22059.53
587.768	22189.25
588.127	22255.01
588.487	22325.97
588.846	22366.42
589.206	22328.23
589.565	22280.09
589.925	22334.33
590.284	22343.37
590.643	22264.5
591.003	22338.62
591.362	22391.5
591.721	22413.2
592.08	22412.52
592.44	22481.22
592.799	22422.01
593.158	22328.45
593.517	22471.5
593.876	22458.84
594.235	22376.13
594.593	22478.51
594.952	22495.23
595.311	22382.01
595.67	22458.17
596.029	22546.53
596.387	22617.94
596.746	22609.58
597.104	22480.76
597.463	22514.89
597.822	22657.94
598.18	22553.31
598.538	22511.72
598.897	22628.33
599.255	22573.64
599.613	22727.09
599.972	22655.9
600.33	22761.66
600.688	22644.15
601.046	22731.61
601.404	22842.11
601.762	22744.49
602.12	22875.1
602.478	22801.89
602.836	22807.76
603.194	22854.09
603.552	22694.54
603.91	22613.87
604.268	22845.05
604.625	22839.17
604.983	22842.11
605.341	22740.65
605.698	22969.34
606.056	22990.81
606.413	22971.6
606.771	23038.72
607.128	23097.7
607.485	23014.76
607.843	22828.33
608.2	23002.79
608.557	23258.82
608.914	23015.21
609.272	23059.28
609.629	23194.42
609.986	23224.93
610.343	23245.04
610.7	23352.15
611.057	23299.95
611.414	23205.94
611.771	23233.29
612.127	23333.62
612.484	23344.47
612.841	23324.58
613.198	23311.03
613.554	23471.47
613.911	23480.51
614.267	23494.07
614.624	23431.93
614.98	23494.3
615.337	23654.29
615.693	23521.87
616.05	23440.74
616.406	23626.5
616.762	23508.31
617.118	23612.94
617.475	23588.76
617.831	23692.03
618.187	23771.13
618.543	23619.72
618.899	23799.15
619.255	23787.62
619.611	23726.38
619.967	23845.02
620.323	23833.27
620.678	23753.5
621.034	23779.26
621.39	23796.44
621.746	23833.95
622.101	23955.08
622.457	23795.76
622.812	23808.87
623.168	23954.85
623.523	23941.97
623.879	24084.56
624.234	23899.26
624.589	24035.53
624.945	24007.05
625.3	23987.84
625.655	24150.1
626.01	24067.16
626.365	23986.49
626.72	24001.63
627.075	24003.21
627.43	24101.97
627.785	24018.13
628.14	23932.03
628.495	24065.36
628.85	23973.83
629.205	24013.15
629.559	24178.8
629.914	24017.9
630.269	24118.01
630.623	24091.8
630.978	24000.95
631.332	24193.94
631.687	24282.75
632.041	24067.62
632.396	24124.11
632.75	24100.84
633.104	24055.41
633.459	23956.66
633.813	23996.66
634.167	24023.78
634.521	23989.2
634.875	24113.04
635.229	23964.34
635.583	23927.73
635.937	23921.4
636.291	23870.56
636.645	24043.21
636.999	23894.29
637.352	23965.92
637.706	23840.5
638.06	24019.26
638.413	23792.14
638.767	23977
639.121	24049.09
639.474	23810.67
639.828	23851.8
640.181	23884.34
640.534	23870.33
640.888	23775.65
641.241	23758.7
641.594	23826.94
641.947	23868.75
642.301	23890.9
642.654	23872.14
643.007	23763.22
643.36	23903.1
643.713	23801.41
644.066	23901.97
644.419	23793.05
644.771	23627.4
645.124	23412.27
645.477	23452.72
645.83	23349.67
646.182	23228.09
646.535	23195.32
646.888	23241.87
647.24	23199.39
647.593	23310.57
647.945	23335.21
648.298	23160.97
648.65	23194.64
649.002	23135.21
649.355	23285.72
649.707	23240.97
650.059	23475.77
650.411	23659.04
650.763	23724.8
651.115	23981.74
651.467	23954.4
651.819	23959.6
652.171	23906.04
652.523	23916.21
652.875	23825.59
653.227	23763.89
653.578	23972.48
653.93	23898.35
654.282	23846.38
654.633	23812.48
654.985	23816.55
655.337	23835.76
655.688	23868.07
656.039	23957.34
656.391	23813.39
656.742	23892.93
657.094	23893.61
657.445	24073.27
657.796	24034.4
658.147	24029.65
658.498	23905.59
658.849	24038.01
659.2	23943.55
659.551	23919.6
659.902	23961.18
660.253	23995.98
660.604	24029.42
660.955	23866.72
661.306	23965.25
661.656	23782.88
662.007	23897.9
662.358	23969.54
662.708	23892.25
663.059	23960.73
663.409	23779.26
663.76	23821.97
664.11	23847.73
664.461	23981.29
664.811	23863.33
665.161	23814.52
665.511	23786.04
665.862	23908.07
666.212	23846.15
666.562	23833.5
666.912	23844.57
667.262	23823.55
667.612	23804.12
667.962	23748.98
668.312	23650
668.662	23758.02
669.011	23709.66
669.361	23645.25
669.711	23618.36
670.06	23718.47
670.41	23551.47
670.76	23533.84
671.109	23571.36
671.459	23630.34
671.808	23475.09
672.157	23579.04
672.507	23341.53
672.856	23393.06
673.205	23421.76
673.554	23544.69
673.904	23319.61
674.253	23386.05
674.602	23389.89
674.951	23025.84
675.3	22861.77
675.649	23281.42
675.998	23123.46
676.346	23078.26
676.695	23192.61
677.044	23050.47
677.393	23026.29
677.741	23161.65
678.09	23053.18
678.438	22868.55
678.787	22933.41
679.135	22880.08
679.484	22754.2
679.832	22861.77
680.181	22625.39
680.529	22761.66
680.877	22737.48
681.225	22647.31
681.573	22777.03
681.922	22694.54
682.27	22620.65
682.618	22513.31
682.966	22492.97
683.314	22514.21
683.661	22266.08
684.009	22251.17
684.357	22236.03
684.705	22264.05
685.053	22359.64
685.4	22204.39
685.748	22144.95
686.095	22152.19
686.443	22039.19
686.79	21973.66
687.138	21968.24
687.485	22045.75
687.832	21791.29
688.18	21924.62
688.527	21900.89
688.874	21766.89
689.221	21698.86
689.568	21634.23
689.915	21625.65
690.262	21619.09
690.609	21596.27
690.956	21453.22
691.303	21528.47
691.65	21352.66
691.997	21448.7
692.344	21258.88
692.69	21293.9
693.037	21298.42
693.383	21208.26
693.73	21338.65
694.077	21079.9
694.423	21231.53
694.769	21150.63
695.116	20956.06
695.462	20956.06
695.808	21112.44
696.155	21057.75
696.501	20843.29
696.847	20884.65
697.193	20777.31
697.539	20819.57
697.885	20619.34
698.231	20702.28
698.577	20679.91
698.923	20610.31
699.269	20538.67
699.614	20496.18
699.96	20474.26
700.306	20394.49
700.651	20469.29
700.997	20335.74
701.342	20231.78
701.688	20342.74
702.033	20053.94
702.379	20083.54
702.724	20186.59
703.069	20223.42
703.415	20019.59
703.76	19987.27
704.105	20094.61
704.45	19946.14
704.795	19950.89
705.14	19855.07
705.485	19791.12
705.83	19749.09
706.175	19745.47
706.52	19764.9
706.865	19745.47
707.209	19694.62
707.554	19510.9
707.899	19638.81
708.243	19455.99
708.588	19577.11
708.932	19433.61
709.277	19524.46
709.621	19429.32
709.966	19389.77
710.31	19387.74
710.654	19338.7
710.998	19295.09
711.342	19374.86
711.687	19354.52
712.031	19209.21
712.375	19109.78
712.719	19265.03
713.063	19220.74
713.407	19279.27
713.75	19065.49
714.094	19154.3
714.438	19089.22
714.782	19153.17
715.125	18959.95
715.469	19117.24
715.812	19047.63
716.156	18991.82
716.499	18919.28
716.843	18914.08
717.186	18841.99
717.53	18941.87
717.873	18933.97
718.216	18834.98
718.559	18857.13
718.902	18766.29
719.246	18824.36
719.589	18709.11
719.932	18639.74
720.275	18710.92
720.617	18707.98
720.96	18666.18
721.303	18599.06
721.646	18636.8
721.989	18539.85
722.331	18620.08
722.674	18639.06
723.016	18582.56
723.359	18641.54
723.701	18516.35
724.044	18542.34
724.386	18461.21
724.729	18465.28
725.071	18461.89
725.413	18366.52
725.755	18493.75
726.097	18344.15
726.439	18273.87
726.782	18288.11
727.124	18411.95
727.465	18282.46
727.807	18306.86
728.149	18276.36
728.491	18208.56
728.833	18269.58
729.175	18157.94
729.516	18215.34
729.858	18221.22
730.199	18194.78
730.541	18240.65
730.882	18205.4
731.224	18284.04
731.565	18120.65
731.906	18160.88
732.248	18184.83
732.589	18158.17
732.93	18143.03
733.271	18097.15
733.612	18134.44
733.953	18215.11
734.294	18140.09
734.635	18141.44
734.976	18194.78
735.317	18126.3
735.658	18145.51
735.999	18039.53
736.339	18107.77
736.68	18129.69
737.021	18167.66
737.361	18060.99
737.702	18262.8
738.042	18196.58
738.383	18109.81
738.723	18186.87
739.063	18160.2
739.404	18154.78
739.744	18116.81
740.084	18144.16
740.424	18184.15
740.764	18161.78
741.104	18215.79
741.444	18209.01
741.784	18254.44
742.124	18254.21
742.464	18321.33
742.804	18202.69
743.143	18261.21
743.483	18233.42
743.823	18216.47
744.162	18282.01
744.502	18385.28
744.841	18228.45
745.181	18415.56
745.52	18279.29
745.86	18402.68
746.199	18429.8
746.538	18478.38
746.877	18482.9
747.216	18574.43
747.556	18528.1
747.895	18527.87
748.234	18416.92
748.573	18514.54
748.911	18529.68
749.25	18621.43
749.589	18552.73
749.928	18537.14
750.267	18624.82
750.605	18697.59
750.944	18629.34
751.283	18578.72
751.621	18733.52
751.96	18524.71
752.298	18651.49
752.636	18642.45
752.975	18695.78
753.313	18640.19
753.651	18789.34
753.989	18742.78
754.327	18784.82
754.666	18663.92
755.004	18728.55
755.342	18829.56
755.679	18810.58
756.017	18728.55
756.355	18822.56
756.693	18827.3
757.031	18932.16
757.368	18841.76
757.706	18827.3
758.044	18787.98
758.381	18935.1
758.719	18849.22
759.056	18874.76
759.394	18841.76
759.731	18724.93
760.068	18838.15
760.405	18805.61
760.743	18794.99
761.08	18823.01
761.417	18865.04
761.754	18794.53
762.091	18791.6
762.428	18783.91
762.765	18691.94
763.102	18800.64
763.438	18809.9
763.775	18763.12
764.112	18649
764.449	18806.96
764.785	18737.81
765.122	18611.49
765.458	18774.65
765.795	18721.09
766.131	18693.07
766.467	18682.45
766.804	18767.64
767.14	18690.13
767.476	18671.6
767.812	18564.94
768.148	18636.35
768.485	18545.28
768.821	18494.2
769.157	18587.08
769.492	18611.26
769.828	18592.73
770.164	18474.99
770.5	18465.5
770.836	18459.85
771.171	18417.37
771.507	18383.92
771.842	18298.5
772.178	18305.96
772.513	18362.91
772.849	18374.43
773.184	18350.7
773.519	18340.53
773.855	18200.65
774.19	18195.23
774.525	18261.44
774.86	18239.52
775.195	18212.18
775.53	18183.93
775.865	18090.6
776.2	17997.04
776.535	17994.1
776.87	17920.43
777.205	17933.99
777.539	17830.49
777.874	17892.64
778.209	17869.36
778.543	17837.95
778.878	17783.26
779.212	17838.63
779.547	17675.69
779.881	17860.55
780.215	17699.87
780.55	17736.48
780.884	17660.33
781.218	17610.16
781.552	17617.62
781.886	17670.5
782.22	17562.02
782.554	17501.23
782.888	17362.93
783.222	17358.87
783.556	17327.91
783.889	17418.75
784.223	17146.89
784.557	17201.13
784.89	17284.07
785.224	17167.23
785.557	17160.68
785.891	17200.23
786.224	17169.27
786.558	17146.67
786.891	17040
787.224	16995.71
787.557	16960.91
787.891	16931.31
788.224	16861.93
788.557	16993.23
788.89	16887.24
789.223	16810.63
789.556	16767.69
789.888	16849.5
790.221	16696.74
790.554	16622.61
790.887	16681.82
791.219	16605.89
791.552	16584.42
791.884	16534.48
792.217	16550.53
792.549	16468.72
792.882	16390.76
793.214	16324.32
793.546	16428.72
793.879	16333.13
794.211	16194.15
794.543	16333.58
794.875	16235.51
795.207	16378.55
795.539	16245
795.871	16217.65
796.203	16098.33
796.535	16105.11
796.867	16128.39
797.198	16002.07
797.53	16080.03
797.862	15924.55
798.193	15887.04
798.525	15863.99
798.856	15924.78
799.188	15807.49
799.519	15781.51
799.85	15626.26
800.182	15745.12
800.513	15681.62
800.844	15624.22
801.175	15658.57
801.506	15566.6
801.837	15541.96
802.168	15650.21
802.499	15474.85
802.83	15381.29
803.161	15421.29
803.491	15328.86
803.822	15396.88
804.153	15271.24
804.483	15269.2
804.814	15113.05
805.145	15270.56
805.475	15253.16
805.805	15156.21
806.136	15173.61
806.466	15169.77
806.796	15165.48
807.126	15025.37
807.457	15027.4
807.787	14970.45
808.117	14984.69
808.447	14910.57
808.777	14981.53
809.107	14868.31
809.436	14820.18
809.766	14896.33
810.096	14785.83
810.426	14768.65
810.755	14828.54
811.085	14698.14
811.414	14636.9
811.744	14608.88
812.073	14652.27
812.403	14589.67
812.732	14403.46
813.061	14588.32
813.39	14451.82
813.719	14371.83
814.049	14530.47
814.378	14481.88
814.707	14325.5
815.036	14320.75
815.365	14236.46
815.693	14202.79
816.022	14160.31
816.351	14124.6
816.68	14135.67
817.008	14141.78
817.337	14048.22
817.665	13976.13
817.994	14057.48
818.322	14071.49
818.651	13982.23
818.979	13988.33
819.307	13973.19
819.636	13921.22
819.964	13846.64
820.292	13916.7
820.62	13910.14
820.948	13806.64
821.276	13921.44
821.604	13861.1
821.932	13852.07
822.259	13911.95
822.587	13895.23
822.915	13788.79
823.243	13819.75
823.57	13840.31
823.898	13890.48
824.225	13853.2
824.553	13895.23
824.88	13937.71
825.207	13893.65
825.535	13788.79
825.862	13946.98
826.189	13786.3
826.516	13940.65
826.843	13950.82
827.17	13928.45
827.497	13931.84
827.824	13912.63
828.151	13945.17
828.478	13976.36
828.805	14018.39
829.131	13954.21
829.458	13944.94
829.785	13815
830.111	13977.49
830.438	13985.17
830.764	13876.47
831.09	13915.11
831.417	13884.83
831.743	13987.2
832.069	14055
832.395	13958.28
832.722	13956.92
833.048	13905.4
833.374	13890.48
833.7	13837.38
834.026	13848.9
834.351	13891.84
834.677	13812.29
835.003	13895.91
835.329	13836.92
835.654	13802.35
835.98	13718.96
836.306	13828.79
836.631	13784.72
836.956	13856.81
837.282	13728.23
837.607	13757.38
837.932	13644.39
838.258	13797.15
838.583	13675.57
838.908	13613.65
839.233	13615.24
839.558	13561.45
839.883	13638.96
840.208	13493.43
840.533	13539.08
840.858	13576.37
841.182	13472.19
841.507	13566.65
841.832	13519.87
842.156	13480.78
842.481	13409.14
842.805	13441
843.13	13362.13
843.454	13330.72
843.778	13366.88
844.103	13291.4
844.427	13213.44
844.751	13294.34
845.075	13191.52
845.399	13171.86
845.723	13092.54
846.047	13111.52
846.371	13077.85
846.695	12980.68
847.019	12875.59
847.343	12868.14
847.666	12775.48
847.99	12695.94
848.313	12735.94
848.637	12632.44
848.96	12574.58
849.284	12609.84
849.607	12553.12
849.931	12488.94
850.254	12404.87
850.577	12349.73
850.9	12290.75
851.223	12233.58
851.546	12299.56
851.869	12130.98
852.192	12163.3
852.515	12114.94
852.838	12015.73
853.161	11999.68
853.483	11917.43
853.806	11950.65
854.129	11932.34
854.451	11837.88
854.774	11818.45
855.096	11776.64
855.419	11771.67
855.741	11702.07
856.063	11667.72
856.385	11657.55
856.708	11589.98
857.03	11564.67
857.352	11547.49
857.674	11461.85
857.996	11489.19
858.318	11409.42
858.64	11350.21
858.961	11381.17
859.283	11253.26
859.605	11347.72
859.926	11326.26
860.248	11283.32
860.57	11328.06
860.891	11209.65
861.212	11279.7
861.534	11140.95
861.855	11166.94
862.176	11106.37
862.498	11133.49
862.819	11145.24
863.14	11122.87
863.461	11084.68
863.782	11067.28
864.103	11065.02
864.424	10954.97
864.745	11048.52
865.065	11001.74
865.386	10804.46
865.707	10914.06
866.027	10851.24
866.348	10909.77
866.668	10888.98
866.989	10805.82
867.309	10735.31
867.63	10725.82
867.95	10733.28
868.27	10661.87
868.59	10674.07
868.91	10730.79
869.23	10709.1
869.55	10665.26
869.87	10658.25
870.19	10682.88
870.51	10648.76
870.83	10671.13
871.15	10519.95
871.469	10594.98
871.789	10575.32
872.109	10602.66
872.428	10452.61
872.748	10564.47
873.067	10523.57
873.386	10511.36
873.706	10504.81
874.025	10486.28
874.344	10479.27
874.663	10465.26
874.982	10356.56
875.301	10437.01
875.62	10395.88
875.939	10348.88
876.258	10350.69
876.577	10347.07
876.896	10265.27
877.214	10232.95
877.533	10361.54
877.852	10241.76
878.17	10270.69
878.489	10294.42
878.807	10252.39
879.125	10209
879.444	10290.35
879.762	10196.34
880.08	10146.63
880.398	10131.26
880.716	10110.47
881.034	10045.16
881.352	10138.04
881.67	9989.57
881.988	10021.43
882.306	9955.22
882.624	10008.1
882.941	9949.12
883.259	9980.75
883.577	9874.54
883.894	9948.21
884.212	9903.24
884.529	9823.47
884.846	9795
885.164	9855.79
885.481	9855.79
885.798	9813.3
886.115	9675
886.432	9720.42
886.75	9685.17
887.067	9719.97
887.383	9681.55
887.7	9646.3
888.017	9606.3
888.334	9635
888.651	9618.5
888.967	9599.97
889.284	9433.2
889.6	9497.6
889.917	9457.83
890.233	9411.5
890.55	9397.49
890.866	9351.62
891.182	9318.85
891.498	9265.75
891.815	9341.22
892.131	9291.51
892.447	9183.71
892.763	9187.78
893.079	9126.99
893.395	9140.32
893.71	9129.48
894.026	9098.29
894.342	9099.42
894.657	9051.51
894.973	9075.24
895.289	8956.6
895.604	9067.56
895.92	8945.75
896.235	8844.74
896.55	8876.83
896.865	8865.98
897.181	8756.83
897.496	8801.8
897.811	8804.74
898.126	8709.38
898.441	8674.35
898.756	8636.61
899.071	8604.29
899.386	8631.41
899.7	8569.49
900.015	8551.64
900.33	8449.04
900.644	8445.43
900.959	8488.59
901.273	8539.21
901.588	8412.66
901.902	8393.9
902.216	8342.83
902.531	8304.64
902.845	8361.59
903.159	8232.33
903.473	8224.42
903.787	8253.12
904.101	8215.15
904.415	8113.23
904.729	8096.28
905.042	8030.07
905.356	8043.18
905.67	8008.83
905.984	7986
906.297	8000.24
906.611	7890.19
906.924	7955.27
907.237	7866.69
907.551	7872.11
907.864	7742.85
908.177	7779
908.491	7833.24
908.804	7718.44
909.117	7677.76
909.43	7589.4
909.743	7537.2
910.056	7623.98
910.368	7568.84
910.681	7460.14
910.994	7484.1
911.307	7458.33
911.619	7384.21
911.932	7391.22
912.244	7322.29
912.557	7342.41
912.869	7327.04
913.181	7254.5
913.494	7218.57
913.806	7233.71
914.118	7145.8
914.43	7123.43
914.742	7147.38
915.054	7109.87
915.366	7115.75
915.678	7044.33
915.99	7010.44
916.302	6984
916.613	6949.87
916.925	6909.2
917.236	6900.84
917.548	6857.45
917.859	6879.14
918.171	6785.58
918.482	6828.3
918.794	6731.35
919.105	6751.46
919.416	6690.67
919.727	6726.6
920.038	6696.32
920.349	6629.88
920.66	6546.49
920.971	6545.14
921.282	6599.37
921.593	6534.07
921.903	6448.87
922.214	6428.76
922.525	6407.52
922.835	6411.58
923.146	6360.74
923.456	6376.78
923.767	6281.42
924.077	6264.24
924.387	6240.51
924.697	6258.14
925.008	6216.79
925.318	6174.07
925.628	6196
925.938	6163.23
926.248	6086.85
926.558	6064.25
926.867	6059.5
927.177	6044.36
927.487	5933.18
927.796	5963.46
928.106	5970.69
928.416	5918.71
928.725	5953.29
929.034	5874.87
929.344	5850.69
929.653	5877.13
929.962	5784.93
930.271	5739.51
930.581	5779.74
930.89	5724.37
931.199	5676.01
931.508	5633.52
931.817	5609.8
932.125	5673.52
932.434	5620.42
932.743	5600.53
933.051	5537.03
933.36	5572.06
933.669	5486.64
933.977	5463.81
934.286	5495.9
934.594	5482.57
934.902	5396.92
935.21	5386.53
935.519	5361.89
935.827	5355.34
936.135	5318.5
936.443	5278.73
936.751	5271.73
937.059	5316.92
937.367	5228.56
937.674	5226.53
937.982	5237.15
938.29	5168.9
938.597	5182.46
938.905	5133.65
939.213	5081
939.52	5078.06
939.827	5090.04
940.135	5018.17
940.442	5014.11
940.749	4991.51
941.056	5017.5
941.363	4977.95
941.67	4945.86
941.977	4892.98
942.284	4866.76
942.591	4883.94
942.898	4780.67
943.205	4843.71
943.511	4781.34
943.818	4804.17
944.125	4747.9
944.431	4703.61
944.738	4769.82
945.044	4709.03
945.35	4641.46
945.657	4661.12
945.963	4680.33
946.269	4655.24
946.575	4615.7
946.881	4583.38
947.187	4579.54
947.493	4536.38
947.799	4509.94
948.105	4521.92
948.41	4485.31
948.716	4484.18
949.022	4450.5
949.327	4450.96
949.633	4394.23
949.938	4389.04
950.244	4389.49
950.549	4318.53
950.854	4312.65
951.16	4344.74
951.465	4327.12
951.77	4302.71
952.075	4267.23
952.38	4241.92
952.685	4250.51
952.99	4214.35
953.294	4206.22
953.599	4156.05
953.904	4144.3
954.209	4111.3
954.513	4100.01
954.818	4070.18
955.122	4077.18
955.426	4061.36
955.731	4065.88
956.035	4067.24
956.339	4008.48
956.643	4004.41
956.948	3949.27
957.252	3937.3
957.556	3963.29
957.86	3902.72
958.163	3899.56
958.467	3894.13
958.771	3903.4
959.075	3900.69
959.378	3816.17
959.682	3803.29
959.985	3780.24
960.289	3783.4
960.592	3753.12
960.896	3735.04
961.199	3735.04
961.502	3733.24
961.805	3723.52
962.108	3679.23
962.411	3670.64
962.714	3629.74
963.017	3666.8
963.32	3646.01
963.623	3614.82
963.926	3587.02
964.228	3596.29
964.531	3580.92
964.833	3575.27
965.136	3535.27
965.438	3505.22
965.741	3494.37
966.043	3495.73
966.345	3487.59
966.648	3473.13
966.95	3468.61
967.252	3406.46
967.554	3419.12
967.856	3399.68
968.158	3322.85
968.46	3366.92
968.761	3354.26
969.063	3382.28
969.365	3319.46
969.666	3323.08
969.968	3263.87
970.269	3306.13
970.571	3285.56
970.872	3234.72
971.174	3232.91
971.475	3233.36
971.776	3170.09
972.077	3138.67
972.378	3174.15
972.679	3175.28
972.98	3136.64
973.281	3139.8
973.582	3129.86
973.883	3102.97
974.183	3074.5
974.484	3083.53
974.785	3052.12
975.085	3039.24
975.386	3031.56
975.686	3005.8
975.986	3005.57
976.287	2996.08
976.587	2971.67
976.887	2970.09
977.187	2912.01
977.487	2943.43
977.787	2939.13
978.087	2933.03
978.387	2937.32
978.687	2881.51
978.987	2886.7
979.286	2862.07
979.586	2845.35
979.885	2857.33
980.185	2847.16
980.484	2806.93
980.784	2829.98
981.083	2795.18
981.382	2808.29
981.682	2780.49
981.981	2768.29
982.28	2721.96
982.579	2713.83
982.878	2731.45
983.177	2689.87
983.475	2682.19
983.774	2672.92
984.073	2672.7
984.372	2657.78
984.67	2658.24
984.969	2674.96
985.267	2654.17
985.566	2627.95
985.864	2612.13
986.162	2611
986.461	2582.53
986.759	2566.26
987.057	2552.7
987.355	2516.32
987.653	2547.28
987.951	2494.85
988.249	2512.25
988.547	2507.28
988.844	2498.01
989.142	2465.7
989.44	2484.23
989.737	2418.92
990.035	2440.61
990.332	2433.16
990.63	2449.2
990.927	2416.21
991.224	2389.77
991.521	2374.17
991.819	2351.58
992.116	2374.63
992.413	2361.07
992.71	2377.11
993.006	2359.94
993.303	2334.63
993.6	2327.17
993.897	2309.32
994.193	2287.85
994.49	2277.45
994.787	2281.52
995.083	2275.87
995.379	2235.42
995.676	2271.58
995.972	2250.79
996.268	2225.03
996.565	2180.51
996.861	2177.12
997.157	2199.72
997.453	2172.6
997.749	2156.78
998.044	2126.95
998.34	2141.41
998.636	2125.82
998.932	2120.62
999.227	2121.3
999.523	2107.74
999.818	2072.04
1000.114	2073.39
1000.409	2075.43
1000.704	2065.71
1001	2025.71
1001.295	2030.46
1001.59	1989.78
1001.885	2008.08
1002.18	1966.5
1002.475	1968.99
1002.77	1951.14
1003.065	1977.58
1003.359	1940.29
1003.654	1950.23
1003.949	1943.23
1004.243	1930.8
1004.538	1947.52
1004.832	1908.65
1005.127	1879.95
1005.421	1911.36
1005.715	1904.81
1006.009	1864.36
1006.304	1852.38
1006.598	1854.87
1006.892	1819.84
1007.186	1832.72
1007.48	1822.1
1007.773	1800.4
1008.067	1788.43
1008.361	1800.63
1008.655	1778.26
1008.948	1768.09
1009.242	1763.57
1009.535	1724.47
1009.829	1714.08
1010.122	1750.01
1010.415	1715.66
1010.708	1718.82
1011.001	1686.28
1011.295	1704.59
1011.588	1693.74
1011.881	1684.93
1012.173	1653.52
1012.466	1644.02
1012.759	1663.91
1013.052	1625.04
1013.344	1631.82
1013.637	1591.14
1013.93	1596.12
1014.222	1613.52
1014.514	1617.13
1014.807	1577.59
1015.099	1581.88
1015.391	1570.58
1015.683	1552.05
1015.976	1557.47
1016.268	1527.42
1016.56	1517.25
1016.851	1529.23
1017.143	1497.59
1017.435	1507.31
1017.727	1512.05
1018.018	1493.52
1018.31	1466.18
1018.602	1463.01
1018.893	1450.81
1019.185	1463.69
1019.476	1433.63
1019.767	1393.41
1020.058	1416.01
1020.35	1400.64
1020.641	1383.69
1020.932	1366.07
1021.223	1368.55
1021.514	1371.26
1021.804	1355.9
1022.095	1328.1
1022.386	1333.75
1022.677	1333.98
1022.967	1329.23
1023.258	1322.68
1023.548	1297.14
1023.839	1292.17
1024.129	1289.91
1024.419	1272.28
1024.709	1282.23
1025	1252.62
1025.29	1254.43
1025.58	1256.24
1025.87	1202.23
1026.16	1228.89
1026.449	1248.1
1026.739	1210.82
1027.029	1202.45
1027.319	1203.36
1027.608	1209.91
1027.898	1209.23
1028.187	1161.33
1028.477	1170.82
1028.766	1139.86
1029.055	1167.2
1029.344	1159.07
1029.634	1139.18
1029.923	1122
1030.212	1129.91
1030.501	1103.02
1030.79	1116.81
1031.078	1085.62
1031.367	1079.07
1031.656	1091.72
1031.945	1083.14
1032.233	1066.86
1032.522	1061.89
1032.81	1073.42
1033.099	1059.41
1033.387	1058.73
1033.675	1048.56
1033.963	1039.52
1034.251	1029.58
1034.54	1024.61
1034.828	1021.22
1035.116	1017.15
1035.403	1013.31
1035.691	974.89
1035.979	997.71
1036.267	966.75
1036.554	964.27
1036.842	960.88
1037.129	973.31
1037.417	937.83
1037.704	970.37
1037.992	941.67
1038.279	933.99
1038.566	928.79
1038.853	928.79
1039.14	928.79
