Data from blue_clamp_base_FLMS001491_00018.txt Node
Date: Wed Feb 08 15:15:38 GMT 2017
User: dcchb
Spectrometer: FLMS00149
Trigger mode: 0
Integration Time (sec): 2.000000E-2
Scans to average: 10
Electric dark correction enabled: true
Nonlinearity correction enabled: false
Boxcar width: 0
XAxis mode: Wavelengths
Number of Pixels in Spectrum: 2048
>>>>>Begin Spectral Data<<<<<
341.393	-15.61
341.776	-15.61
342.16	-15.61
342.543	-47.24
342.927	-72.33
343.31	-61.03
343.693	-90.18
344.077	-83.4
344.46	-54.02
344.843	-65.1
345.226	-41.14
345.61	-42.72
345.993	1.57
346.376	3.38
346.759	26.2
347.142	22.13
347.525	55.8
347.908	69.36
348.291	56.71
348.674	90.15
349.057	112.3
349.44	121.79
349.823	143.48
350.206	168.34
350.588	202.24
350.971	229.36
351.354	220.32
351.737	236.36
352.119	256.93
352.502	249.92
352.884	249.92
353.267	272.07
353.65	297.38
354.032	288.11
354.414	317.72
354.797	296.02
355.179	326.3
355.562	325.4
355.944	330.6
356.326	306.87
356.709	331.28
357.091	353.2
357.473	342.35
357.855	336.93
358.238	362.24
358.62	342.8
359.002	346.87
359.384	332.86
359.766	347.32
360.148	345.74
360.53	346.87
360.912	311.39
361.294	351.39
361.676	327.21
362.057	340.54
362.439	343.93
362.821	311.62
363.203	331.95
363.584	334.89
363.966	319.75
364.348	320.43
364.729	337.38
365.111	335.57
365.493	326.08
365.874	339.41
366.256	328.11
366.637	329.69
367.019	286.31
367.4	335.57
367.781	332.86
368.163	327.89
368.544	318.62
368.925	310.71
369.306	326.3
369.688	327.21
370.069	309.13
370.45	315.01
370.831	314.55
371.212	282.92
371.593	319.75
371.974	312.52
372.355	316.59
372.736	305.97
373.117	333.54
373.498	331.05
373.879	323.14
374.26	306.87
374.641	300.99
375.021	309.81
375.402	346.19
375.783	323.59
376.163	323.82
376.544	346.87
376.925	315.91
377.305	350.49
377.686	354.33
378.066	347.32
378.447	344.38
378.827	335.57
379.208	359.07
379.588	360.88
379.968	340.32
380.349	350.26
380.729	330.37
381.109	370.6
381.489	348.45
381.87	334.21
382.25	359.98
382.63	370.37
383.01	351.16
383.39	384.16
383.77	358.62
384.15	365.85
384.53	375.8
384.91	355.68
385.29	382.12
385.67	352.74
386.049	368.34
386.429	379.64
386.809	388.22
387.189	398.17
387.568	377.15
387.948	358.85
388.328	387.32
388.707	372.86
389.087	391.39
389.466	397.49
389.846	406.53
390.225	409.92
390.605	403.14
390.984	413.53
391.363	409.01
391.743	410.82
392.122	422.35
392.501	451.05
392.881	418.96
393.26	425.29
393.639	445.4
394.018	435.91
394.397	452.18
394.776	452.4
395.155	455.57
395.534	453.99
395.913	440.65
396.292	483.81
396.671	446.3
397.05	475.91
397.429	473.42
397.808	504.83
398.186	482.23
398.565	453.99
398.944	499.41
399.323	502.57
399.701	507.77
400.08	503.25
400.458	503.93
400.837	500.99
401.215	509.13
401.594	516.58
401.972	544.15
402.351	559.07
402.729	520.65
403.107	545.06
403.486	554.1
403.864	549.8
404.242	556.13
404.62	551.84
404.999	554.32
405.377	570.14
405.755	565.62
406.133	599.29
406.511	599.52
406.889	605.39
407.267	604.49
407.645	607.2
408.023	617.6
408.401	620.53
408.779	629.8
409.156	661.89
409.534	649.23
409.912	665.05
410.29	686.07
410.667	663.02
411.045	659.63
411.422	671.38
411.8	690.82
412.178	677.93
412.555	709.57
412.933	719.29
413.31	721.1
413.687	724.26
414.065	738.5
414.442	743.47
414.819	772.17
415.197	786.63
415.574	772.85
415.951	819.17
416.328	802.45
416.705	803.13
417.082	806.52
417.46	814.2
417.837	820.3
418.214	845.84
418.591	864.14
418.967	851.04
419.344	886.06
419.721	852.84
420.098	858.72
420.475	876.35
420.852	870.92
421.228	893.3
421.605	892.17
421.982	922.45
422.358	925.61
422.735	929.23
423.111	954.76
423.488	946.4
423.864	955.21
424.241	961.09
424.617	969.68
424.994	978.27
425.37	1008.09
425.746	993.63
426.123	1005.84
426.499	1025.27
426.875	1039.51
427.251	1038.38
427.627	1070.01
428.003	1070.47
428.379	1107.08
428.756	1084.25
429.132	1116.11
429.507	1128.54
429.883	1164.48
430.259	1157.7
430.635	1165.6
431.011	1191.59
431.387	1211.25
431.763	1237.24
432.138	1224.36
432.514	1253.51
432.89	1260.07
433.265	1287.41
433.641	1309.56
434.016	1326.73
434.392	1307.3
434.767	1373.74
435.143	1349.1
435.518	1380.51
435.894	1387.29
436.269	1378.93
436.644	1404.92
437.02	1485.6
437.395	1466.84
437.77	1453.06
438.145	1471.13
438.52	1503
438.895	1547.29
439.271	1548.65
439.646	1585.93
440.021	1576.44
440.395	1582.77
440.77	1585.03
441.145	1597.68
441.52	1667.74
441.895	1644.01
442.27	1643.33
442.645	1670.68
443.019	1652.15
443.394	1671.81
443.769	1711.81
444.143	1748.41
444.518	1708.64
444.892	1785.93
445.267	1787.06
445.641	1743.22
446.016	1800.16
446.39	1808.98
446.764	1779.6
447.139	1813.72
447.513	1831.35
447.887	1858.47
448.262	1857.56
448.636	1858.47
449.01	1890.33
449.384	1903.89
449.758	1917
450.132	1935.75
450.506	1979.82
450.88	1970.1
451.254	1949.99
451.628	2003.77
452.002	2050.78
452.376	2059.82
452.75	2073.6
453.123	2074.28
453.497	2112.92
453.871	2145.92
454.244	2161.28
454.618	2211.45
454.992	2216.42
455.365	2250.1
455.739	2257.1
456.112	2284.22
456.486	2330.09
456.859	2326.03
457.232	2375.06
457.606	2346.14
457.979	2427.49
458.352	2444.22
458.725	2505
459.099	2507.04
459.472	2536.87
459.845	2531.22
460.218	2545
460.591	2609.41
460.964	2608.28
461.337	2682.63
461.71	2679.24
462.083	2705.68
462.456	2756.07
462.829	2723.3
463.201	2813.7
463.574	2779.57
463.947	2828.16
464.32	2913.58
464.692	2938.89
465.065	2954.94
465.438	3013.01
465.81	3034.03
466.183	3040.36
466.555	3097.98
466.928	3107.25
467.3	3108.38
467.672	3156.29
468.045	3248.04
468.417	3262.95
468.789	3285.32
469.161	3303.85
469.534	3343.63
469.906	3415.94
470.278	3413.23
470.65	3481.48
471.022	3486
471.394	3558.99
471.766	3605.99
472.138	3637.63
472.51	3747.46
472.882	3742.71
473.253	3789.26
473.625	3820.22
473.997	3904.52
474.369	3902.03
474.74	3973.89
475.112	4033.1
475.484	4097.96
475.855	4139.76
476.227	4168.46
476.598	4217.05
476.97	4313.54
477.341	4393.09
477.713	4459.53
478.084	4457.04
478.455	4566.42
478.827	4615.23
479.198	4693.42
479.569	4737.94
479.94	4829.69
480.311	4850.48
480.682	4952.4
481.053	5009.57
481.424	5122.56
481.795	5121.89
482.166	5192.84
482.537	5266.29
482.908	5359.17
483.279	5372.5
483.65	5480.07
484.021	5530.91
484.391	5558.26
484.762	5645.94
485.133	5658.14
485.503	5723.45
485.874	5842.09
486.244	5849.32
486.615	5952.37
486.985	5997.57
487.356	6101.29
487.726	6069.43
488.097	6225.81
488.467	6199.14
488.837	6329.31
489.207	6376.09
489.578	6463.32
489.948	6499.02
490.318	6588.74
490.688	6543.32
491.058	6643.65
491.428	6723.88
491.798	6762.07
492.168	6843.87
492.538	6779.24
492.908	6877.77
493.278	6958.9
493.648	6986.47
494.017	7035.06
494.387	7108.27
494.757	7119.35
495.126	7214.03
495.496	7151.89
495.866	7186.46
496.235	7233.02
496.605	7343.97
496.974	7284.54
497.344	7425.78
497.713	7363.86
498.082	7450.19
498.452	7549.17
498.821	7516.4
499.19	7509.62
499.559	7642.95
499.928	7643.4
500.298	7645.21
500.667	7691.99
501.036	7624.42
501.405	7750.29
501.774	7717.3
502.143	7748.26
502.512	7797.75
502.88	7868.03
503.249	7811.98
503.618	7909.83
503.987	7859.67
504.356	7924.98
504.724	7967.46
505.093	7933.11
505.462	8033.67
505.83	8040.23
506.199	8091.52
506.567	8160
506.936	8134.01
507.304	8220.79
507.672	8244.29
508.041	8197.51
508.409	8299.65
508.777	8335.13
509.145	8369.26
509.514	8341.01
509.882	8393.66
510.25	8439.76
510.618	8475.47
510.986	8487.45
511.354	8490.38
511.722	8547.33
512.09	8655.58
512.458	8583.94
512.826	8624.84
513.193	8626.2
513.561	8720.21
513.929	8711.4
514.297	8844.5
514.664	8777.16
515.032	8842.69
515.4	8852.86
515.767	8853.09
516.135	8976.02
516.502	8881.56
516.869	9074.32
517.237	9064.38
517.604	8977.83
517.972	9120.65
518.339	9106.41
518.706	9112.97
519.073	9155.45
519.44	9168.78
519.808	9274.54
520.175	9245.62
520.542	9264.6
520.909	9339.4
521.276	9333.75
521.643	9406.74
522.009	9488.1
522.376	9500.98
522.743	9529.45
523.11	9667.53
523.477	9684.7
523.843	9740.07
524.21	9753.63
524.577	9821.2
524.943	9764.25
525.31	9867.75
525.676	9979.16
526.043	10047.63
526.409	10075.43
526.776	10141.87
527.142	10163.56
527.508	10180.74
527.874	10311.58
528.241	10250.11
528.607	10247.17
528.973	10357.68
529.339	10337.57
529.705	10389.77
530.071	10574.85
530.437	10553.61
530.803	10569.65
531.169	10572.59
531.535	10579.59
531.901	10632.25
532.267	10737.78
532.632	10733.94
532.998	10712.47
533.364	10815.97
533.73	10899.13
534.095	10937.33
534.461	10901.85
534.826	10931.45
535.192	10918.57
535.557	11059.36
535.923	11000.83
536.288	11078.11
536.653	11153.36
537.019	11160.6
537.384	11166.7
537.749	11161.73
538.114	11247.15
538.479	11246.47
538.845	11320.59
539.21	11265.45
539.575	11315.85
539.94	11469.97
540.305	11448.72
540.67	11362.4
541.034	11530.08
541.399	11548.38
541.764	11496.63
542.129	11601.04
542.494	11613.47
542.858	11624.54
543.223	11612.34
543.587	11684.65
543.952	11661.15
544.316	11727.36
544.681	11756.29
545.045	11770.52
545.41	11754.48
545.774	11859.56
546.138	11827.47
546.503	11892.55
546.867	11853.23
547.231	11997.86
547.595	11979.78
547.959	11992.89
548.324	12001.03
548.688	12021.59
549.052	12138.65
549.416	12125.77
549.779	12115.6
550.143	12134.13
550.507	12259.78
550.871	12161.7
551.235	12171.64
551.599	12313.33
551.962	12301.36
552.326	12356.27
552.689	12455.7
553.053	12318.53
553.417	12322.15
553.78	12500
554.143	12442.37
554.507	12459.77
554.87	12511.97
555.234	12594.68
555.597	12592.88
555.96	12672.42
556.323	12688.69
556.686	12673.1
557.05	12764.4
557.413	12839.65
557.776	12797.16
558.139	12895.69
558.502	12815.92
558.865	12840.55
559.228	12980.66
559.59	13026.08
559.953	13000.55
560.316	13177.49
560.679	13103.6
561.041	13143.37
561.404	13167.1
561.767	13372.06
562.129	13254.1
562.492	13372.74
562.854	13315.34
563.217	13438.95
563.579	13371.84
563.941	13453.87
564.304	13476.92
564.666	13539.06
565.028	13565.73
565.39	13538.84
565.753	13675.11
566.115	13725.73
566.477	13767.31
566.839	13935.21
567.201	13946.51
567.563	13844.37
567.925	13907.64
568.287	14134.76
568.648	14080.52
569.01	14085.72
569.372	14220.4
569.734	14143.12
570.095	14288.2
570.457	14264.24
570.819	14288.88
571.18	14362.32
571.542	14436.44
571.903	14466.5
572.265	14624.46
572.626	14548.98
572.987	14652.26
573.349	14737.45
573.71	14755.98
574.071	14713.95
574.432	14862.87
574.794	14897.67
575.155	14971.34
575.516	14829.43
575.877	15038.46
576.238	14941.97
576.599	15012.92
576.96	15051.57
577.32	15067.61
577.681	15091.57
578.042	15181.73
578.403	15102.19
578.763	15246.59
579.124	15266.25
579.485	15150.55
579.845	15325.91
580.206	15303.76
580.566	15380.15
580.927	15356.64
581.287	15486.81
581.648	15367.49
582.008	15492.91
582.368	15407.94
582.728	15501.05
583.089	15480.71
583.449	15447.04
583.809	15492.01
584.169	15522.52
584.529	15459.24
584.889	15640.93
585.249	15508.96
585.609	15531.1
585.969	15638.67
586.329	15571.55
586.688	15620.59
587.048	15607.03
587.408	15663.98
587.768	15632.12
588.127	15574.04
588.487	15601.16
588.846	15646.81
589.206	15645.45
589.565	15630.08
589.925	15798.89
590.284	15649.29
590.643	15670.53
591.003	15752.11
591.362	15817.88
591.721	15769.74
592.08	15721.15
592.44	15858.78
592.799	15908.27
593.158	15740.36
593.517	15828.5
593.876	15808.16
594.235	15834.15
594.593	15837.99
594.952	15924.76
595.311	15783.53
595.67	15953.46
596.029	16003.41
596.387	15931.09
596.746	16033.91
597.104	15996.63
597.463	15889.06
597.822	15991.88
598.18	15949.4
598.538	15987.36
598.897	16042.05
599.255	15892.68
599.613	16118.88
599.972	16021.71
600.33	16117.98
600.688	16014.48
601.046	16072.33
601.404	16148.94
601.762	16154.59
602.12	16146.91
602.478	16212.67
602.836	16188.26
603.194	16152.1
603.552	16212.89
603.91	16050.86
604.268	16315.49
604.625	16161.14
604.983	16264.64
605.341	16153.91
605.698	16315.72
606.056	16230.07
606.413	16288.37
606.771	16301.25
607.128	16344.41
607.485	16260.12
607.843	16300.35
608.2	16418.54
608.557	16476.61
608.914	16395.71
609.272	16506.67
609.629	16481.59
609.986	16515.03
610.343	16471.64
610.7	16527.91
611.057	16480
611.414	16495.37
611.771	16568.36
612.127	16671.19
612.484	16701.92
612.841	16658.3
613.198	16592.09
613.554	16590.51
613.911	16782.37
614.267	16752.99
614.624	16726.55
614.98	16713.9
615.337	16807.23
615.693	16918.19
616.05	16811.97
616.406	16907.79
616.762	16860.79
617.118	16857.62
617.475	16872.08
617.831	16885.64
618.187	16922.48
618.543	16943.27
618.899	17016.94
619.255	17084.73
619.611	17009.71
619.967	17163.6
620.323	17164.51
620.678	17007.67
621.034	17035.24
621.39	17069.82
621.746	17086.54
622.101	17174.9
622.457	17105.3
622.812	17252.87
623.168	17162.7
623.523	17201.57
623.879	17298.29
624.234	17182.36
624.589	17262.13
624.945	17254.45
625.3	17227.33
625.655	17284.28
626.01	17338.74
626.365	17384.39
626.72	17416.03
627.075	17313.65
627.43	17362.02
627.785	17352.3
628.14	17426.87
628.495	17358.17
628.85	17423.93
629.205	17362.24
629.559	17440.43
629.914	17302.36
630.269	17450.83
630.623	17420.32
630.978	17393.65
631.332	17560.88
631.687	17560.65
632.041	17549.35
632.396	17541.45
632.75	17493.09
633.104	17489.7
633.459	17525.63
633.813	17544.38
634.167	17495.57
634.521	17557.94
634.875	17565.17
635.229	17427.32
635.583	17416.25
635.937	17531.28
636.291	17451.28
636.645	17532.63
636.999	17521.56
637.352	17479.07
637.706	17470.49
638.06	17615.12
638.413	17522.69
638.767	17500.77
639.121	17516.36
639.474	17480.2
639.828	17556.59
640.181	17569.47
640.534	17581.44
640.888	17514.78
641.241	17500.32
641.594	17566.53
641.947	17715.45
642.301	17652.86
642.654	17518.85
643.007	17664.83
643.36	17585.96
643.713	17615.12
644.066	17725.4
644.419	17520.43
644.771	17577.38
645.124	17384.84
645.477	17420.54
645.83	17283.83
646.182	17329.25
646.535	17358.4
646.888	17256.93
647.24	17185.3
647.593	17313.88
647.945	17226.2
648.298	17178.97
648.65	17196.82
649.002	17174.9
649.355	17286.54
649.707	17305.07
650.059	17369.92
650.411	17577.38
650.763	17688.33
651.115	17852.4
651.467	17892.17
651.819	17804.49
652.171	17797.26
652.523	17866.18
652.875	17792.51
653.227	17728.11
653.578	17910.02
653.93	17872.28
654.282	17817.82
654.633	17843.13
654.985	17821.89
655.337	17904.6
655.688	17892.62
656.039	17926.07
656.391	17804.49
656.742	17848.1
657.094	17844.26
657.445	17948.89
657.796	17971.94
658.147	17936.24
658.498	17899.85
658.849	17948.89
659.2	17962.9
659.551	17930.14
659.902	17947.76
660.253	17978.27
660.604	18009.46
660.955	17880.42
661.306	18007.87
661.656	17940.31
662.007	17909.57
662.358	17981.21
662.708	17964.71
663.059	18037.25
663.409	17964.71
663.76	17961.1
664.11	18056.46
664.461	17947.99
664.811	17957.71
665.161	17954.77
665.511	17973.07
665.862	17971.94
666.212	18020.3
666.562	17982.56
666.912	17905.73
667.262	17847.88
667.612	17935.33
667.962	17864.6
668.312	17881.1
668.662	18017.37
669.011	18005.84
669.361	17868.22
669.711	17981.43
670.06	17889.91
670.41	17900.31
670.76	17785.73
671.109	17852.62
671.459	17856.47
671.808	17739.63
672.157	17708.22
672.507	17742.34
672.856	17616.02
673.205	17689.01
673.554	17740.54
673.904	17652.18
674.253	17748.45
674.602	17631.61
674.951	17357.72
675.3	17407.89
675.649	17500.32
675.998	17651.5
676.346	17565.63
676.695	17531.73
677.044	17435.01
677.393	17382.13
677.741	17389.81
678.09	17340.32
678.438	17366.08
678.787	17298.97
679.135	17347.1
679.484	17217.84
679.832	17288.12
680.181	17143.94
680.529	17148.46
680.877	17161.12
681.225	17068.69
681.573	17311.85
681.922	17116.82
682.27	17020.78
682.618	17099.2
682.966	17011.97
683.314	17052.64
683.661	16972.87
684.009	16806.1
684.357	16835.7
684.705	16702.6
685.053	16775.36
685.4	16691.75
685.748	16632.32
686.095	16640.9
686.443	16620.34
686.79	16525.88
687.138	16606.78
687.485	16564.75
687.832	16562.71
688.18	16508.93
688.527	16474.81
688.874	16502.6
689.221	16404.98
689.568	16369.5
689.915	16284.98
690.262	16334.47
690.609	16296.28
690.956	16270.74
691.303	16277.98
691.65	16179.45
691.997	16212.21
692.344	16067.13
692.69	16120.01
693.037	16051.09
693.383	16060.58
693.73	16087.7
694.077	15933.8
694.423	15998.21
694.769	15857.2
695.116	15895.39
695.462	15884.77
695.808	15846.35
696.155	15915.27
696.501	15746.69
696.847	15852
697.193	15665.79
697.539	15708.05
697.885	15671.21
698.231	15668.5
698.577	15669.18
698.923	15646.35
699.269	15548.5
699.614	15512.35
699.96	15588.73
700.306	15465.34
700.651	15492.46
700.997	15430.54
701.342	15450.88
701.688	15519.13
702.033	15354.38
702.379	15392.35
702.724	15409.52
703.069	15404.1
703.415	15320.49
703.76	15332.24
704.105	15208.17
704.45	15313.48
704.795	15240.04
705.14	15186.03
705.485	15146.93
705.83	15108.97
706.175	15160.94
706.52	15189.42
706.865	15047.27
707.209	15061.96
707.554	15092.92
707.899	15104
708.243	15022.64
708.588	15029.87
708.932	14963.89
709.277	14941.29
709.621	15057.67
709.966	14860.61
710.31	14924.79
710.654	14754.17
710.998	14900.61
711.342	14820.16
711.687	14811.8
712.031	14785.59
712.375	14759.6
712.719	14792.14
713.063	14771.57
713.407	14893.83
713.75	14810.9
714.094	14815.19
714.438	14720.05
714.782	14695.87
715.125	14640.96
715.469	14696.55
715.812	14593.27
716.156	14620.62
716.499	14582.88
716.843	14642.99
717.186	14538.36
717.53	14526.16
717.873	14646.83
718.216	14603.9
718.559	14560.06
718.902	14444.35
719.246	14586.27
719.589	14480.96
719.932	14412.04
720.275	14504.92
720.617	14420.62
720.96	14372.72
721.303	14418.14
721.646	14405.48
721.989	14330.46
722.331	14461.53
722.674	14407.74
723.016	14435.99
723.359	14379.04
723.701	14418.36
724.044	14323.23
724.386	14258.82
724.729	14440.51
725.071	14303.34
725.413	14290.23
725.755	14305.37
726.097	14247.07
726.439	14226.73
726.782	14236.67
727.124	14355.99
727.465	14274.86
727.807	14261.08
728.149	14187.18
728.491	14240.74
728.833	14306.28
729.175	14252.27
729.516	14178.6
729.858	14314.41
730.199	14207.3
730.541	14270.35
730.882	14206.17
731.224	14251.36
731.565	14172.72
731.906	14194.64
732.248	14233.96
732.589	14232.15
732.93	14174.53
733.271	14249.78
733.612	14234.64
733.953	14199.84
734.294	14299.04
734.635	14161.2
734.976	14296.56
735.317	14207.3
735.658	14320.06
735.999	14297.01
736.339	14237.13
736.68	14315.32
737.021	14316.45
737.361	14360.06
737.702	14400.51
738.042	14403.45
738.383	14378.36
738.723	14382.43
739.063	14439.15
739.404	14395.54
739.744	14434.86
740.084	14441.64
740.424	14393.28
740.764	14450.45
741.104	14450.23
741.444	14519.6
741.784	14489.77
742.124	14594.86
742.464	14570.68
742.804	14534.07
743.143	14554.63
743.483	14653.84
743.823	14538.13
744.162	14617
744.502	14616.32
744.841	14570.68
745.181	14692.48
745.52	14673.5
745.86	14742.2
746.199	14715.31
746.538	14787.17
746.877	14825.58
747.216	14779.48
747.556	14866.94
747.895	14953.04
748.234	14934.28
748.573	14855.41
748.911	14935.64
749.25	14963.43
749.589	14944
749.928	14933.6
750.267	15047.5
750.605	15051.57
750.944	15022.64
751.283	15059.25
751.621	15120.72
751.96	15011.34
752.298	15106.71
752.636	15092.24
752.975	15157.1
753.313	15129.53
753.651	15195.97
753.989	15164.78
754.327	15236.65
754.666	15139.25
755.004	15247.95
755.342	15354.84
755.679	15331.11
756.017	15205.01
756.355	15371.33
756.693	15372.24
757.031	15411.78
757.368	15347.83
757.706	15436.19
758.044	15422.18
758.381	15458.79
758.719	15422.18
759.056	15461.5
759.394	15449.75
759.731	15488.62
760.068	15404.55
760.405	15354.16
760.743	15475.29
761.08	15492.01
761.417	15456.98
761.754	15499.92
762.091	15505.11
762.428	15461.5
762.765	15495.17
763.102	15481.16
763.438	15513.93
763.775	15439.58
764.112	15567.26
764.449	15536.3
764.785	15569.97
765.122	15510.09
765.458	15465.57
765.795	15497.43
766.131	15533.36
766.467	15510.76
766.804	15413.59
767.14	15506.7
767.476	15519.8
767.812	15482.06
768.148	15569.75
768.485	15482.06
768.821	15360.49
769.157	15482.06
769.492	15443.42
769.828	15482.29
770.164	15404.78
770.5	15376.53
770.836	15421.73
771.171	15326.81
771.507	15320.26
771.842	15289.53
772.178	15383.08
772.513	15366.81
772.849	15313.48
773.184	15357.77
773.519	15244.78
773.855	15318.68
774.19	15167.95
774.525	15305.12
774.86	15325.46
775.195	15281.84
775.53	15341.05
775.865	15219.92
776.2	15134.73
776.535	15169.53
776.87	15143.54
777.205	15170.21
777.539	15085.01
777.874	15126.59
778.209	15106.71
778.543	15075.75
778.878	15103.32
779.212	15012.02
779.547	15015.18
779.881	15110.32
780.215	14915.07
780.55	14997.33
780.884	14984.22
781.218	14864.23
781.552	14973.83
781.886	14980.38
782.22	14860.84
782.554	14873.95
782.888	14829.43
783.222	14801.4
783.556	14694.29
783.889	14804.12
784.223	14716.66
784.557	14686.61
784.89	14708.53
785.224	14541.52
785.557	14636.44
785.891	14598.47
786.224	14538.36
786.558	14623.78
786.891	14421.53
787.224	14526.16
787.557	14480.51
787.891	14480.51
788.224	14510.56
788.557	14492.71
788.89	14484.8
789.223	14493.16
789.556	14363
789.888	14440.96
790.221	14397.57
790.554	14303.79
790.887	14339.04
791.219	14270.57
791.552	14294.3
791.884	14226.73
792.217	14267.63
792.549	14097.24
792.882	14060.41
793.214	14115.77
793.546	14193.28
793.879	14087.98
794.211	14005.04
794.543	14157.13
794.875	13964.59
795.207	14136.56
795.539	14066.06
795.871	14101.54
796.203	13939.05
796.535	13906.96
796.867	13873.29
797.198	13894.54
797.53	13910.13
797.862	13836.68
798.193	13953.97
798.525	13856.12
798.856	13833.97
799.188	13681.43
799.519	13697.25
799.85	13599.85
800.182	13586.3
800.513	13694.32
800.844	13618.16
801.175	13596.24
801.506	13616.58
801.837	13588.56
802.168	13565.96
802.499	13500.87
802.83	13524.15
803.161	13472.4
803.491	13415
803.822	13448.9
804.153	13347.21
804.483	13345.62
804.814	13312.86
805.145	13261.33
805.475	13381.78
805.805	13280.99
806.136	13192.63
806.466	13225.63
806.796	13296.36
807.126	13179.07
807.457	13222.24
807.787	13129.58
808.117	13121.9
808.447	13090.49
808.777	13216.14
809.107	13017.5
809.436	13097.27
809.766	13054.33
810.096	12980.89
810.426	12894.34
810.755	12939.98
811.085	12928.91
811.414	12972.07
811.744	12832.19
812.073	12836.03
812.403	12794.45
812.732	12822.02
813.061	12793.77
813.39	12803.04
813.719	12717.39
814.049	12877.16
814.378	12695.02
814.707	12665.87
815.036	12693.21
815.365	12698.86
815.693	12514.01
816.022	12588.13
816.351	12569.37
816.68	12513.78
817.008	12596.94
817.337	12451.41
817.665	12403.95
817.994	12539.54
818.322	12369.6
818.651	12360.11
818.979	12398.76
819.307	12367.12
819.636	12341.58
819.964	12243.28
820.292	12324.63
820.62	12311.75
820.948	12260
821.276	12350.85
821.604	12272.88
821.932	12328.02
822.259	12309.94
822.587	12271.3
822.915	12278.76
823.243	12375.71
823.57	12416.83
823.898	12370.28
824.225	12282.15
824.553	12295.03
824.88	12281.47
825.207	12330.74
825.535	12403.05
825.862	12434.69
826.189	12325.99
826.516	12402.37
826.843	12439.66
827.17	12359.21
827.497	12473.1
827.824	12411.18
828.151	12521.46
828.478	12384.52
828.805	12499.77
829.131	12373.45
829.458	12400.56
829.785	12279.44
830.111	12429.72
830.438	12481.47
830.764	12465.42
831.09	12379.77
831.417	12360.11
831.743	12433.56
832.069	12410.06
832.395	12372.54
832.722	12409.83
833.048	12380.45
833.374	12421.35
833.7	12298.87
834.026	12392.2
834.351	12306.55
834.677	12435.37
835.003	12382.26
835.329	12410.73
835.654	12385.42
835.98	12295.93
836.306	12404.63
836.631	12284.86
836.956	12328.7
837.282	12309.72
837.607	12260.23
837.932	12214.35
838.258	12271.3
838.583	12217.07
838.908	12172.77
839.233	12195.6
839.558	12166.9
839.883	12072.44
840.208	12086
840.533	12071.76
840.858	12084.64
841.182	12097.07
841.507	12080.8
841.832	12036.05
842.156	12061.36
842.481	12002.38
842.805	11986.11
843.13	11924.87
843.454	11963.51
843.778	11900.69
844.103	11911.99
844.427	11891.88
844.751	11901.59
845.075	11801.03
845.399	11790.18
845.723	11796.74
846.047	11744.08
846.371	11640.81
846.695	11606.69
847.019	11518.1
847.343	11562.62
847.666	11518.78
847.99	11453.92
848.313	11441.94
848.637	11376.64
848.96	11438.33
849.284	11262.74
849.607	11206.02
849.931	11202.86
850.254	11100.94
850.577	11083.76
850.9	10946.36
851.223	11059.13
851.546	10945.69
851.869	10904.78
852.192	10915.86
852.515	10882.19
852.838	10747.95
853.161	10852.36
853.483	10739.59
853.806	10656.43
854.129	10730.33
854.451	10683.32
854.774	10662.76
855.096	10595.19
855.419	10562.65
855.741	10515.87
856.063	10486.94
856.385	10393.38
856.708	10391.58
857.03	10394.06
857.352	10404.46
857.674	10402.42
857.996	10315.65
858.318	10252.82
858.64	10272.71
858.961	10158.59
859.283	10175.76
859.605	10147.97
859.926	10208.76
860.248	10182.77
860.57	10143
860.891	10077.91
861.212	10002.21
861.534	10044.92
861.855	10145.03
862.176	10023
862.498	9983.23
862.819	9982.32
863.14	10011.02
863.461	9977.12
863.782	9894.19
864.103	9935.09
864.424	9917.47
864.745	9969.67
865.065	9846.96
865.386	9842.89
865.707	9850.35
866.027	9877.24
866.348	9832.95
866.668	9796.56
866.989	9815.55
867.309	9745.27
867.63	9666.4
867.95	9726.28
868.27	9710.01
868.59	9756.79
868.91	9644.03
869.23	9682.67
869.55	9587.98
869.87	9665.49
870.19	9630.02
870.51	9659.39
870.83	9644.25
871.15	9604.93
871.469	9571.49
871.789	9608.09
872.109	9561.54
872.428	9500.98
872.748	9530.36
873.067	9504.59
873.386	9488.32
873.706	9543.92
874.025	9475.44
874.344	9437.7
874.663	9530.81
874.982	9423.01
875.301	9435.44
875.62	9380.3
875.939	9355.45
876.258	9384.6
876.577	9350.25
876.896	9329.46
877.214	9245.39
877.533	9302.57
877.852	9245.17
878.17	9270.7
878.489	9288.33
878.807	9290.36
879.125	9240.19
879.444	9244.71
879.762	9249.23
880.08	9222.12
880.398	9157.94
880.716	9164.26
881.034	9154.55
881.352	9133.98
881.67	9109.58
881.988	9033.65
882.306	9061.67
882.624	8986.64
882.941	8988.22
883.259	9021.67
883.577	8989.13
883.894	9000.88
884.212	8954.55
884.529	8965.63
884.846	8880.66
885.164	8907.1
885.481	8878.85
885.798	8895.8
886.115	8800.66
886.432	8828.23
886.75	8778.74
887.067	8787.78
887.383	8800.88
887.7	8757.95
888.017	8762.69
888.334	8696.03
888.651	8729.47
888.967	8647.44
889.284	8636.82
889.6	8603.83
889.917	8512.76
890.233	8575.58
890.55	8514.11
890.866	8526.09
891.182	8493.77
891.498	8478.18
891.815	8503.04
892.131	8489.03
892.447	8454.23
892.763	8414.68
893.079	8337.39
893.395	8331.29
893.71	8370.61
894.026	8256.94
894.342	8296.26
894.657	8179.43
894.973	8237.51
895.289	8191.63
895.604	8143.73
895.92	8124.74
896.235	8043.84
896.55	8143.73
896.865	8042.49
897.181	8025.09
897.496	8054.92
897.811	8012.43
898.126	7971.98
898.441	7991.19
898.756	7931.3
899.071	7880
899.386	7878.42
899.7	7773.79
900.015	7762.95
900.33	7741.93
900.644	7700.12
900.959	7760.91
901.273	7635.94
901.588	7623.51
901.902	7613.12
902.216	7620.12
902.531	7588.71
902.845	7490.86
903.159	7509.17
903.473	7496.96
903.787	7445.89
904.101	7395.05
904.415	7462.84
904.729	7339.91
905.042	7328.61
905.356	7334.26
905.67	7323.64
905.984	7312.34
906.297	7284.31
906.611	7248.16
906.924	7166.58
907.237	7189.63
907.551	7145.33
907.864	7108.05
908.177	7104.88
908.491	7125.67
908.804	7050.42
909.117	7002.51
909.43	6945.57
909.743	6910.54
910.056	6920.93
910.368	6883.19
910.681	6861.73
910.994	6836.87
911.307	6813.37
911.619	6747.38
911.932	6834.38
912.244	6740.15
912.557	6717.78
912.869	6681.62
913.181	6621.28
913.494	6647.27
913.806	6554.84
914.118	6575.18
914.43	6553.03
914.742	6493.83
915.054	6515.07
915.366	6441.85
915.678	6457.22
915.99	6433.72
916.302	6413.83
916.613	6337.45
916.925	6353.72
917.236	6306.49
917.548	6310.55
917.859	6245.47
918.171	6223.1
918.482	6253.61
918.794	6213.16
919.105	6212.03
919.416	6110.11
919.727	6090
920.038	6024.91
920.349	6022.65
920.66	6031.01
920.971	5950.34
921.282	5975.42
921.593	5943.56
921.903	5938.13
922.214	5857.23
922.525	5869.89
922.835	5837.35
923.146	5874.41
923.456	5821.08
923.767	5784.92
924.077	5822.66
924.387	5737.24
924.697	5725.03
925.008	5695.2
925.318	5663.34
925.628	5687.07
925.938	5610.23
926.248	5578.6
926.558	5577.24
926.867	5512.38
927.177	5487.3
927.487	5433.97
927.796	5490.24
928.106	5447.98
928.416	5422.67
928.725	5407.53
929.034	5357.59
929.344	5375.44
929.653	5339.28
929.962	5317.59
930.271	5308.09
930.581	5268.32
930.89	5211.15
931.199	5179.96
931.508	5193.07
931.817	5186.06
932.125	5134.31
932.434	5116.01
932.743	5075.78
933.051	5066.97
933.36	5082.11
933.669	5037.59
933.977	4986.75
934.286	5016.13
934.594	5037.37
934.902	4951.95
935.21	4971.83
935.519	4897.26
935.827	4943.81
936.135	4899.74
936.443	4862.91
936.751	4847.32
937.059	4844.38
937.367	4833.53
937.674	4789.01
937.982	4747.88
938.29	4779.97
938.597	4734.78
938.905	4704.72
939.213	4719.86
939.52	4630.15
939.827	4661.33
940.135	4627.43
940.442	4572.07
940.749	4624.05
941.056	4586.31
941.363	4583.37
941.67	4529.81
941.977	4497.72
942.284	4477.83
942.591	4459.3
942.898	4466.31
943.205	4459.3
943.511	4414.33
943.818	4390.38
944.125	4382.47
944.431	4368.01
944.738	4368.68
945.044	4331.62
945.35	4325.07
945.657	4299.99
945.963	4267.22
946.269	4232.64
946.575	4253.66
946.881	4253.89
947.187	4222.7
947.493	4184.28
947.799	4170.95
948.105	4138.86
948.41	4135.92
948.716	4132.08
949.022	4096.6
949.327	4111.29
949.633	4045.08
949.938	4074.23
950.244	4041.46
950.549	3999.2
950.854	4007.79
951.16	3982.25
951.465	3976.6
951.77	3939.77
952.075	3948.13
952.38	3922.82
952.685	3912.2
952.99	3872.88
953.294	3858.87
953.599	3838.08
953.904	3803.95
954.209	3840.79
954.513	3833.11
954.818	3776.16
955.122	3751.53
955.426	3732.09
955.731	3719.66
956.035	3690.74
956.339	3716.5
956.643	3686.67
956.948	3674.92
957.252	3665.88
957.556	3646.67
957.86	3657.06
958.163	3648.03
958.467	3575.03
958.771	3551.98
959.075	3563.96
959.378	3537.29
959.682	3542.49
959.985	3481.02
960.289	3482.61
960.592	3486.45
960.896	3450.52
961.199	3435.15
961.502	3425.88
961.805	3444.87
962.108	3383.4
962.411	3396.73
962.714	3362.61
963.017	3344.08
963.32	3341.14
963.623	3325.77
963.926	3307.24
964.228	3300.69
964.531	3279
964.833	3246.91
965.136	3273.57
965.438	3259.11
965.741	3236.28
966.043	3208.04
966.345	3207.36
966.648	3198.55
966.95	3172.56
967.252	3140.02
967.554	3180.02
967.856	3153.58
968.158	3103.41
968.46	3103.63
968.761	3051.66
969.063	3062.96
969.365	3034.71
969.666	3039.23
969.968	2999.46
970.269	3045.78
970.571	3003.3
970.872	2986.57
971.174	3017.31
971.475	2960.36
971.776	2953.35
972.077	2944.32
972.378	2915.16
972.679	2942.96
972.98	2912.9
973.281	2910.19
973.582	2898.44
973.883	2914.03
974.183	2873.81
974.484	2852.11
974.785	2845.33
975.085	2837.65
975.386	2819.8
975.686	2831.1
975.986	2805.34
976.287	2799.46
976.587	2756.52
976.887	2743.87
977.187	2775.96
977.487	2748.84
977.787	2734.15
978.087	2721.04
978.387	2721.27
978.687	2716.3
978.987	2684.89
979.286	2685.79
979.586	2648.05
979.885	2642.85
980.185	2635.85
980.484	2596.98
980.784	2618.67
981.083	2556.75
981.382	2604.44
981.682	2550.2
981.981	2561.27
982.28	2561.73
982.579	2548.17
982.878	2542.97
983.177	2536.64
983.475	2542.07
983.774	2518.56
984.073	2476.98
984.372	2484.44
984.67	2474.05
984.969	2465.23
985.267	2448.28
985.566	2429.98
985.864	2433.82
986.162	2442.63
986.461	2411
986.759	2379.13
987.057	2378
987.355	2383.2
987.653	2376.65
987.951	2361.51
988.249	2355.18
988.547	2344.11
988.844	2311.79
989.142	2334.84
989.44	2276.08
989.737	2289.19
990.035	2280.15
990.332	2263.2
990.63	2264.11
990.927	2238.57
991.224	2241.28
991.521	2244.67
991.819	2200.83
992.116	2182.08
992.413	2204.67
992.71	2193.37
993.006	2171
993.303	2149.31
993.6	2156.99
993.897	2145.92
994.193	2131
994.49	2108.41
994.787	2081.97
995.083	2114.51
995.379	2101.85
995.676	2062.98
995.972	2104.34
996.268	2067.95
996.565	2044
996.861	2050.1
997.157	2026.6
997.453	1989.76
997.749	2023.89
998.044	1989.76
998.34	2021.18
998.636	2007.84
998.932	1987.73
999.227	1939.82
999.523	1953.83
999.818	1917.68
1000.114	1917.68
1000.409	1885.13
1000.704	1903.66
1001	1941.18
1001.295	1891.46
1001.59	1885.59
1001.885	1874.29
1002.18	1895.3
1002.475	1837.23
1002.77	1832.93
1003.065	1828.41
1003.359	1832.03
1003.654	1805.14
1003.949	1761.97
1004.243	1823.44
1004.538	1804.23
1004.832	1765.82
1005.127	1783.89
1005.421	1772.59
1005.715	1752.93
1006.009	1706.61
1006.304	1752.93
1006.598	1714.97
1006.892	1720.84
1007.186	1662.54
1007.48	1749.32
1007.773	1661.19
1008.067	1684.24
1008.361	1669.77
1008.655	1641.98
1008.948	1661.19
1009.242	1652.82
1009.535	1622.32
1009.829	1612.6
1010.122	1611.24
1010.415	1596.1
1010.708	1604.69
1011.001	1586.16
1011.295	1563.79
1011.588	1566.5
1011.881	1541.87
1012.173	1558.81
1012.466	1553.62
1012.759	1545.26
1013.052	1513.84
1013.344	1496.9
1013.637	1476.33
1013.93	1493.05
1014.222	1506.16
1014.514	1487.63
1014.807	1490.34
1015.099	1473.39
1015.391	1426.16
1015.683	1454.86
1015.976	1444.02
1016.268	1426.84
1016.56	1416.67
1016.851	1423.9
1017.143	1412.38
1017.435	1431.36
1017.727	1406.05
1018.018	1387.97
1018.31	1369.67
1018.602	1365.6
1018.893	1354.98
1019.185	1350.01
1019.476	1341.42
1019.767	1325.15
1020.058	1318.82
1020.35	1296.9
1020.641	1312.04
1020.932	1292.83
1021.223	1319.05
1021.514	1297.13
1021.804	1256.68
1022.095	1269.11
1022.386	1255.77
1022.677	1237.92
1022.967	1225.72
1023.258	1237.47
1023.548	1225.94
1023.839	1217.58
1024.129	1224.36
1024.419	1177.58
1024.709	1195.89
1025	1168.77
1025.29	1200.63
1025.58	1147.07
1025.87	1171.93
1026.16	1184.36
1026.449	1154.53
1026.739	1130.8
1027.029	1150.92
1027.319	1132.61
1027.608	1116.57
1027.898	1110.69
1028.187	1077.7
1028.477	1078.83
1028.766	1119.5
1029.055	1091.48
1029.344	1093.52
1029.634	1085.16
1029.923	1063.01
1030.212	1047.87
1030.501	1051.48
1030.79	1047.87
1031.078	1033.41
1031.367	1018.94
1031.656	1045.16
1031.945	1031.15
1032.233	1001.77
1032.522	1019.39
1032.81	999.73
1033.099	1009
1033.387	993.63
1033.675	990.69
1033.963	978.04
1034.251	999.06
1034.54	983.46
1034.828	957.7
1035.116	968.55
1035.403	951.83
1035.691	941.88
1035.979	970.13
1036.267	902.34
1036.554	934.88
1036.842	910.24
1037.129	905.27
1037.417	927.65
1037.704	911.83
1037.992	894.65
1038.279	861.66
1038.566	868.89
1038.853	868.89
1039.14	868.89
