Data from blue_clamp_base_FLMS001491_00070.txt Node
Date: Wed Feb 08 15:16:22 GMT 2017
User: dcchb
Spectrometer: FLMS00149
Trigger mode: 0
Integration Time (sec): 2.000000E-2
Scans to average: 10
Electric dark correction enabled: true
Nonlinearity correction enabled: false
Boxcar width: 0
XAxis mode: Wavelengths
Number of Pixels in Spectrum: 2048
>>>>>Begin Spectral Data<<<<<
341.393	-18.81
341.776	-18.81
342.16	-18.81
342.543	-58.13
342.927	-61.07
343.31	-50.45
343.693	-76.89
344.077	-79.15
344.46	-53.39
344.843	-51.58
345.226	-27.4
345.61	-32.6
345.993	-33.5
346.376	4.46
346.759	6.5
347.142	23.22
347.525	56.89
347.908	49.21
348.291	80.39
348.674	79.72
349.057	104.57
349.44	141.63
349.823	141.86
350.206	158.36
350.588	192.25
350.971	203.33
351.354	220.05
351.737	227.06
352.119	242.42
352.502	239.49
352.884	262.76
353.267	278.81
353.65	260.05
354.032	269.31
354.414	295.98
354.797	309.31
355.179	315.64
355.562	313.83
355.944	317.68
356.326	324.23
356.709	321.97
357.091	327.39
357.473	340.95
357.855	333.27
358.238	326.49
358.62	322.65
359.002	355.64
359.384	312.25
359.766	298.92
360.148	324
360.53	354.51
360.912	327.62
361.294	332.14
361.676	320.61
362.057	322.87
362.439	326.04
362.821	311.35
363.203	335.75
363.584	320.61
363.966	313.38
364.348	302.99
364.729	305.47
365.111	298.24
365.493	313.38
365.874	305.02
366.256	300.5
366.637	303.66
367.019	294.85
367.4	282.65
367.781	321.52
368.163	312.48
368.544	294.63
368.925	315.64
369.306	328.3
369.688	285.13
370.069	320.84
370.45	291.69
370.831	298.01
371.212	302.99
371.593	292.14
371.974	292.82
372.355	321.07
372.736	315.19
373.117	296.66
373.498	303.44
373.879	299.14
374.26	300.5
374.641	298.69
375.021	312.93
375.402	297.11
375.783	307.96
376.163	312.48
376.544	311.8
376.925	306.6
377.305	314.51
377.686	329.43
378.066	302.76
378.447	312.93
378.827	334.4
379.208	298.01
379.588	319.26
379.968	301.86
380.349	317.45
380.729	327.62
381.109	330.78
381.489	317.45
381.87	309.09
382.25	330.56
382.63	316.55
383.01	320.16
383.39	327.84
383.77	318.81
384.15	359.48
384.53	355.64
384.91	352.7
385.29	336.66
385.67	336.43
386.049	361.06
386.429	340.5
386.809	355.87
387.189	329.43
387.568	348.63
387.948	342.99
388.328	341.63
388.707	344.34
389.087	360.39
389.466	357
389.846	368.3
390.225	367.84
390.605	368.52
390.984	352.48
391.363	372.14
391.743	377.79
392.122	374.62
392.501	376.43
392.881	391.57
393.26	358.8
393.639	353.61
394.018	393.83
394.397	396.09
394.776	392.02
395.155	381.85
395.534	419.82
395.913	400.38
396.292	410.1
396.671	417.56
397.05	420.95
397.429	409.65
397.808	423.89
398.186	415.75
398.565	417.33
398.944	431.34
399.323	424.79
399.701	438.12
400.08	413.72
400.458	413.04
400.837	415.07
401.215	445.36
401.594	459.59
401.972	435.41
402.351	456.88
402.729	458.01
403.107	473.15
403.486	469.76
403.864	461.63
404.242	472.02
404.62	491.91
404.999	489.87
405.377	494.62
405.755	489.87
406.133	492.59
406.511	498.24
406.889	507.5
407.267	521.74
407.645	511.12
408.023	528.29
408.401	520.16
408.779	540.49
409.156	531.91
409.534	550.89
409.912	553.15
410.29	533.26
410.667	565.58
411.045	568.74
411.422	562.87
411.8	571.91
412.178	586.14
412.555	569.65
412.933	584.33
413.31	592.24
413.687	616.88
414.065	604
414.442	611
414.819	631.34
415.197	644.45
415.574	665.01
415.951	623.88
416.328	652.58
416.705	661.85
417.082	655.29
417.46	662.98
417.837	678.8
418.214	670.21
418.591	691
418.967	697.55
419.344	660.04
419.721	674.5
420.098	697.33
420.475	726.03
420.852	719.02
421.228	726.03
421.605	736.42
421.982	729.64
422.358	757.66
422.735	761.73
423.111	746.14
423.488	776.19
423.864	768.51
424.241	760.38
424.617	789.53
424.994	799.47
425.37	792.47
425.746	791.34
426.123	832.69
426.499	807.15
426.875	825.68
427.251	829.98
427.627	853.93
428.003	857.55
428.379	867.94
428.756	892.58
429.132	872.91
429.507	874.27
429.883	898.9
430.259	936.64
430.635	927.83
431.011	926.92
431.387	957.88
431.763	959.47
432.138	969.86
432.514	997.66
432.89	986.81
433.265	989.52
433.641	1035.85
434.016	1015.06
434.392	1043.31
434.767	1062.74
435.143	1043.53
435.518	1060.71
435.894	1087.6
436.269	1101.16
436.644	1128.05
437.02	1110.2
437.395	1121.72
437.77	1148.39
438.145	1168.73
438.52	1152.46
438.895	1158.56
439.271	1190.42
439.646	1203.08
440.021	1206.69
440.395	1212.57
440.77	1246.01
441.145	1270.64
441.52	1229.97
441.895	1277.88
442.27	1281.49
442.645	1300.25
443.019	1307.25
443.394	1285.33
443.769	1325.78
444.143	1305.22
444.518	1333.47
444.892	1342.73
445.267	1335.5
445.641	1384.09
446.016	1378.89
446.39	1375.5
446.764	1410.08
447.139	1386.8
447.513	1406.01
447.887	1402.39
448.262	1428.38
448.636	1446.23
449.01	1450.75
449.384	1484.88
449.758	1501.15
450.132	1551.77
450.506	1523.97
450.88	1492.11
451.254	1502.73
451.628	1535.5
452.002	1576.63
452.376	1589.73
452.75	1576.63
453.123	1578.89
453.497	1635.15
453.871	1630.64
454.244	1640.58
454.618	1698.66
454.992	1689.16
455.365	1686
455.739	1728.49
456.112	1731.42
456.486	1737.75
456.859	1782.95
457.232	1811.87
457.606	1777.52
457.979	1815.71
458.352	1857.75
458.725	1858.2
459.099	1855.71
459.472	1909.27
459.845	1910.18
460.218	1949.27
460.591	1974.81
460.964	1956.95
461.337	2020.68
461.71	1996.95
462.083	2072.88
462.456	2043.51
462.829	2100.91
463.201	2100.45
463.574	2128.48
463.947	2144.07
464.32	2157.85
464.692	2200.79
465.065	2223.84
465.438	2212.77
465.81	2279.66
466.183	2274.01
466.555	2335.93
466.928	2317.4
467.3	2319.66
467.672	2345.64
468.045	2394.91
468.417	2417.06
468.789	2450.05
469.161	2438.52
469.534	2483.49
469.906	2520.56
470.278	2565.53
470.65	2563.72
471.022	2608.69
471.394	2690.49
471.766	2651.63
472.138	2747.22
472.51	2739.31
472.882	2773.2
473.253	2794.67
473.625	2849.81
473.997	2899.08
474.369	2869.02
474.74	2890.04
475.112	2978.62
475.484	3029.92
475.855	3066.76
476.227	3064.04
476.598	3168.45
476.97	3150.6
477.341	3207.77
477.713	3235.56
478.084	3270.37
478.455	3312.85
478.827	3349.69
479.198	3438.5
479.569	3471.72
479.94	3514.65
480.311	3562.56
480.682	3585.39
481.053	3690.24
481.424	3709.68
481.795	3698.15
482.166	3762.33
482.537	3831.93
482.908	3885.04
483.279	3908.99
483.65	3954.19
484.021	3981.76
484.391	4062.21
484.762	4086.84
485.133	4075.54
485.503	4122.77
485.874	4204.8
486.244	4237.12
486.615	4264.46
486.985	4310.11
487.356	4367.29
487.726	4362.09
488.097	4402.99
488.467	4475.08
488.837	4514.85
489.207	4548.75
489.578	4601.63
489.948	4628.3
490.318	4683.89
490.688	4638.24
491.058	4689.76
491.428	4776.54
491.798	4840.72
492.168	4834.17
492.538	4894.73
492.908	4901.74
493.278	4964.11
493.648	4981.06
494.017	5005.01
494.387	5006.14
494.757	5080.26
495.126	5065.57
495.496	5086.36
495.866	5083.65
496.235	5091.56
496.605	5162.52
496.974	5162.29
497.344	5184.21
497.713	5210.2
498.082	5234.61
498.452	5290.2
498.821	5268.96
499.19	5284.78
499.559	5353.93
499.928	5385.56
500.298	5355.06
500.667	5416.07
501.036	5357.54
501.405	5395.28
501.774	5374.27
502.143	5411.55
502.512	5441.61
502.88	5449.97
503.249	5462.4
503.618	5487.48
503.987	5493.36
504.356	5502.4
504.724	5581.49
505.093	5564.09
505.462	5522.96
505.83	5535.84
506.199	5569.97
506.567	5623.98
506.936	5640.02
507.304	5711.43
507.672	5687.48
508.041	5663.98
508.409	5732.9
508.777	5736.97
509.145	5748.49
509.514	5791.43
509.882	5798.89
510.25	5756.4
510.618	5830.07
510.986	5816.97
511.354	5897.42
511.722	5870.75
512.09	5941.48
512.458	5910.52
512.826	5971.76
513.193	5937.19
513.561	5985.1
513.929	5993.46
514.297	6046.34
514.664	6019.9
515.032	6047.02
515.4	6054.47
515.767	6104.42
516.135	6101.48
516.502	6078.2
516.869	6124.3
517.237	6174.24
517.604	6143.74
517.972	6207.69
518.339	6215.6
518.706	6185.32
519.073	6249.72
519.44	6193.68
519.808	6296.73
520.175	6246.33
520.542	6311.64
520.909	6295.15
521.276	6323.62
521.643	6368.14
522.009	6400.23
522.376	6432.09
522.743	6447.68
523.11	6462.82
523.477	6477.97
523.843	6538.98
524.21	6571.75
524.577	6581.24
524.943	6629.83
525.31	6651.07
525.676	6689.94
526.043	6689.26
526.409	6730.84
526.776	6769.48
527.142	6780.33
527.508	6831.63
527.874	6855.58
528.241	6852.42
528.607	6866.66
528.973	6924.28
529.339	6934.9
529.705	6987.78
530.071	7030.04
530.437	7034.79
530.803	7061.9
531.169	7063.94
531.535	7042.24
531.901	7085.86
532.267	7104.39
532.632	7098.74
532.998	7127.44
533.364	7154.78
533.73	7221.67
534.095	7228
534.461	7251.96
534.826	7248.11
535.192	7313.88
535.557	7372.86
535.923	7324.72
536.288	7368.56
536.653	7337.38
537.019	7360.2
537.384	7368.11
537.749	7428.9
538.114	7453.76
538.479	7461.44
538.845	7479.07
539.21	7407.66
539.575	7464.83
539.94	7475.45
540.305	7513.19
540.67	7518.84
541.034	7533.76
541.399	7546.64
541.764	7556.35
542.129	7583.7
542.494	7550.48
542.858	7622.12
543.223	7594.32
543.587	7648.33
543.952	7660.53
544.316	7706.86
544.681	7645.62
545.045	7694.88
545.41	7699.63
545.774	7787.08
546.138	7740.3
546.503	7808.78
546.867	7775.11
547.231	7859.17
547.595	7871.6
547.959	7859.62
548.324	7836.8
548.688	7864.37
549.052	7843.35
549.416	7836.12
549.779	7884.48
550.143	7859.4
550.507	7955.67
550.871	7949.34
551.235	7943.46
551.599	7943.92
551.962	8024.14
552.326	7938.72
552.689	8033.63
553.053	7970.81
553.417	8085.15
553.78	8114.53
554.143	8128.32
554.507	8164.47
554.87	8136.9
555.234	8207.19
555.597	8121.76
555.96	8130.35
556.323	8165.83
556.686	8214.87
557.05	8258.26
557.413	8296.45
557.776	8254.87
558.139	8368.76
558.502	8331.7
558.865	8289.22
559.228	8366.28
559.59	8349.55
559.953	8380.97
560.316	8437.01
560.679	8404.02
561.041	8456.22
561.404	8491.92
561.767	8469.78
562.129	8539.15
562.492	8550.91
562.854	8565.37
563.217	8634.97
563.579	8569.44
563.941	8651.69
564.304	8618.7
564.666	8686.27
565.028	8705.25
565.39	8672.26
565.753	8751.13
566.115	8758.36
566.477	8819.15
566.839	8856.66
567.201	8880.39
567.563	8916.09
567.925	8925.81
568.287	8857.79
568.648	8955.87
569.01	8984.34
569.372	9002.87
569.734	8962.65
570.095	9010.1
570.457	9034.06
570.819	9119.93
571.18	9141.85
571.542	9162.64
571.903	9112.47
572.265	9128.29
572.626	9205.8
572.987	9161.06
573.349	9292.13
573.71	9262.75
574.071	9311.56
574.432	9297.33
574.794	9371.67
575.155	9324.9
575.516	9362.64
575.877	9381.39
576.238	9450.54
576.599	9503.42
576.96	9547.04
577.32	9463.65
577.681	9539.58
578.042	9523.31
578.403	9513.82
578.763	9562.63
579.124	9611.67
579.485	9594.49
579.845	9637.88
580.206	9619.13
580.566	9658.67
580.927	9650.99
581.287	9749.52
581.648	9719.91
582.008	9740.25
582.368	9680.82
582.728	9731.21
583.089	9718.78
583.449	9752.68
583.809	9777.54
584.169	9777.31
584.529	9732.34
584.889	9851.21
585.249	9808.05
585.609	9776.41
585.969	9815.05
586.329	9803.98
586.688	9815.73
587.048	9784.32
587.408	9774.83
587.768	9841.72
588.127	9801.49
588.487	9790.87
588.846	9839.68
589.206	9805.56
589.565	9828.16
589.925	9905.45
590.284	9747.03
590.643	9893.47
591.003	9911.32
591.362	9890.76
591.721	9890.98
592.08	9806.92
592.44	9999.68
592.799	9921.94
593.158	9921.04
593.517	9907.71
593.876	9927.37
594.235	9861.38
594.593	9982.51
594.952	9918.78
595.311	9911.32
595.67	10056.4
596.029	10069.74
596.387	10009.85
596.746	10007.59
597.104	9957.65
597.463	9999.91
597.822	9992.22
598.18	9965.56
598.538	9966.46
598.897	10056.18
599.255	9992.9
599.613	10071.32
599.972	10021.83
600.33	10040.81
600.688	10008.95
601.046	10144.99
601.404	10093.01
601.762	10106.8
602.12	10159.68
602.478	10130.52
602.836	10137.08
603.194	10042.84
603.552	10069.51
603.91	10071.54
604.268	10054.37
604.625	10053.46
604.983	10186.34
605.341	10033.58
605.698	10032.22
606.056	10200.58
606.413	10147.93
606.771	10172.11
607.128	10146.34
607.485	10080.58
607.843	10142.05
608.2	10179.11
608.557	10239.67
608.914	10179.34
609.272	10253.46
609.629	10245.78
609.986	10255.27
610.343	10267.7
610.7	10289.39
611.057	10305.44
611.414	10319.22
611.771	10251.43
612.127	10335.72
612.484	10291.42
612.841	10358.09
613.198	10288.03
613.554	10319.22
613.911	10333.91
614.267	10331.88
614.624	10324.42
614.98	10340.91
615.337	10415.49
615.693	10356.06
616.05	10368.71
616.406	10475.6
616.762	10440.57
617.118	10382.27
617.475	10450.06
617.831	10487.35
618.187	10482.15
618.543	10526.45
618.899	10451.65
619.255	10554.24
619.611	10471.98
619.967	10588.59
620.323	10577.07
620.678	10551.53
621.034	10476.73
621.39	10491.65
621.746	10442.83
622.101	10708.81
622.457	10577.52
622.812	10547.24
623.168	10632.43
623.523	10648.7
623.879	10687.35
624.234	10573.68
624.589	10639.21
624.945	10652.32
625.3	10742.49
625.655	10680.57
626.01	10732.32
626.365	10635.6
626.72	10674.47
627.075	10636.73
627.43	10675.6
627.785	10680.34
628.14	10748.81
628.495	10723.28
628.85	10684.18
629.205	10585.43
629.559	10751.07
629.914	10737.06
630.269	10696.61
630.623	10679.44
630.978	10725.09
631.332	10752.88
631.687	10770.28
632.041	10741.36
632.396	10723.73
632.75	10655.26
633.104	10819.77
633.459	10726.67
633.813	10818.64
634.167	10791.75
634.521	10808.47
634.875	10797.17
635.229	10817.06
635.583	10722.37
635.937	10746.78
636.291	10803.95
636.645	10853.67
636.999	10888.47
637.352	10899.32
637.706	10798.3
638.06	10875.59
638.413	10829.72
638.767	10888.47
639.121	10793.56
639.474	10801.02
639.828	10811.41
640.181	10848.7
640.534	10836.04
640.888	10848.7
641.241	10822.94
641.594	10820.22
641.947	10842.6
642.301	10848.92
642.654	10843.27
643.007	10893.67
643.36	10883.5
643.713	10834.69
644.066	10889.6
644.419	10897.06
644.771	10839.21
645.124	10757.63
645.477	10789.04
645.83	10704.97
646.182	10733.67
646.535	10692.32
646.888	10718.53
647.24	10693.67
647.593	10687.35
647.945	10714.69
648.298	10664.75
648.65	10704.97
649.002	10623.39
649.355	10748.59
649.707	10718.08
650.059	10774.12
650.411	10985.42
650.763	10969.15
651.115	11130.27
651.467	11069.03
651.819	11064.51
652.171	11111.52
652.523	11052.76
652.875	11099.31
653.227	11094.34
653.578	11130.95
653.93	11091.63
654.282	11097.96
654.633	11093.44
654.985	11125.3
655.337	11096.6
655.688	11109.93
656.039	11202.36
656.391	11044.17
656.742	11169.37
657.094	11185.41
657.445	11219.08
657.796	11202.59
658.147	11135.02
658.498	11182.25
658.849	11214.56
659.2	11208.24
659.551	11205.07
659.902	11220.67
660.253	11194.23
660.604	11233.55
660.955	11149.03
661.306	11241.68
661.656	11263.38
662.007	11222.7
662.358	11186.54
662.708	11249.14
663.059	11251.63
663.409	11151.51
663.76	11264.51
664.11	11285.07
664.461	11268.57
664.811	11342.24
665.161	11209.14
665.511	11256.82
665.862	11316.93
666.212	11236.94
666.562	11228.8
666.912	11233.09
667.262	11226.99
667.612	11301.57
667.962	11307.22
668.312	11179.76
668.662	11222.02
669.011	11196.49
669.361	11193.32
669.711	11245.3
670.06	11096.15
670.41	11085.98
670.76	11072.19
671.109	11109.93
671.459	11099.76
671.808	11058.64
672.157	11102.48
672.507	10986.77
672.856	11029.71
673.205	11046.43
673.554	11081.23
673.904	10996.94
674.253	11040.56
674.602	10948.58
674.951	10884.63
675.3	10771.19
675.649	10947.45
675.998	10879.88
676.346	10880.11
676.695	10918.98
677.044	10815.03
677.393	10863.61
677.741	10841.69
678.09	10826.1
678.438	10781.13
678.787	10817.96
679.135	10742.49
679.484	10665.43
679.832	10706.33
680.181	10666.33
680.529	10674.01
680.877	10627.91
681.225	10625.65
681.573	10647.12
681.922	10566.45
682.27	10489.39
682.618	10505.2
682.966	10495.03
683.314	10524.19
683.661	10450.06
684.009	10375.72
684.357	10494.58
684.705	10412.1
685.053	10327.13
685.4	10396.05
685.748	10370.97
686.095	10321.71
686.443	10262.05
686.79	10236.06
687.138	10303.4
687.485	10253.23
687.832	10261.14
688.18	10221.14
688.527	10115.61
688.874	10167.36
689.221	10178.88
689.568	10159.22
689.915	10134.59
690.262	10146.12
690.609	10169.62
690.956	10003.75
691.303	10017.76
691.65	10099.11
691.997	10088.04
692.344	9975.73
692.69	10007.14
693.037	9964.88
693.383	9920.13
693.73	10001.94
694.077	9894.6
694.423	9880.59
694.769	9893.69
695.116	9824.54
695.462	9857.99
695.808	9807.14
696.155	9882.85
696.501	9796.97
696.847	9824.54
697.193	9719.24
697.539	9784.77
697.885	9728.28
698.231	9732.57
698.577	9664.1
698.923	9709.07
699.269	9732.57
699.614	9635.17
699.96	9601.05
700.306	9602.63
700.651	9652.35
700.997	9605.11
701.342	9638.79
701.688	9592.23
702.033	9593.14
702.379	9532.12
702.724	9593.82
703.069	9574.83
703.415	9480.15
703.76	9536.42
704.105	9463.2
704.45	9489.19
704.795	9456.87
705.14	9425.68
705.485	9391.33
705.83	9402.41
706.175	9450.09
706.52	9419.58
706.865	9328.96
707.209	9368.74
707.554	9360.6
707.899	9420.94
708.243	9336.2
708.588	9282.41
708.932	9299.13
709.277	9295.97
709.621	9269.08
709.966	9265.24
710.31	9339.13
710.654	9193.6
710.998	9252.13
711.342	9301.85
711.687	9237.21
712.031	9171.68
712.375	9195.63
712.719	9181.17
713.063	9226.59
713.407	9282.19
713.75	9237.67
714.094	9252.36
714.438	9190.44
714.782	9172.13
715.125	9129.87
715.469	9194.05
715.812	9112.02
716.156	9106.14
716.499	9082.42
716.843	9145.47
717.186	9089.2
717.53	9183.88
717.873	9102.3
718.216	9136.88
718.559	9075.86
718.902	9072.47
719.246	9072.47
719.589	9091.23
719.932	9068.18
720.275	9034.73
720.617	9035.41
720.96	9045.81
721.303	9075.41
721.646	8989.99
721.989	9022.53
722.331	9032.93
722.674	9027.5
723.016	9002.19
723.359	9093.04
723.701	9100.04
724.044	9005.36
724.386	9052.81
724.729	9041.29
725.071	9014.62
725.413	9043.55
725.755	8980.72
726.097	8998.58
726.439	8964.23
726.782	8937.79
727.124	9079.48
727.465	8994.74
727.807	8996.54
728.149	8976.66
728.491	8906.6
728.833	9016.66
729.175	8979.82
729.516	8935.98
729.858	8910.44
730.199	8981.85
730.541	9054.62
730.882	8970.1
731.224	8978.92
731.565	8996.77
731.906	8958.35
732.248	8949.76
732.589	8987.5
732.93	9000.16
733.271	9001.29
733.612	9063.43
733.953	9016.43
734.294	9042.87
734.635	8989.54
734.976	9009.2
735.317	9000.38
735.658	9051.68
735.999	9033.83
736.339	9025.92
736.68	9011.68
737.021	9072.25
737.361	9062.76
737.702	9148.4
738.042	9236.54
738.383	9160.38
738.723	9148.86
739.063	9130.1
739.404	9213.26
739.744	9202.64
740.084	9160.15
740.424	9162.87
740.764	9254.84
741.104	9273.82
741.444	9246.71
741.784	9279.25
742.124	9197.22
742.464	9261.62
742.804	9284.22
743.143	9303.43
743.483	9362.64
743.823	9349.53
744.162	9316.53
744.502	9361.05
744.841	9424.1
745.181	9410.54
745.52	9437.21
745.86	9452.35
746.199	9388.62
746.538	9538.45
746.877	9464.55
747.216	9512.46
747.556	9539.81
747.895	9619.8
748.234	9575.96
748.573	9577.32
748.911	9612.12
749.25	9676.53
749.589	9657.77
749.928	9670.65
750.267	9771.89
750.605	9719.91
750.944	9726.47
751.283	9656.86
751.621	9786.8
751.96	9686.24
752.298	9875.39
752.636	9847.37
752.975	9796.07
753.313	9829.97
753.651	9971.43
753.989	9950.42
754.327	9902.06
754.666	9902.06
755.004	9977.53
755.342	9989.51
755.679	9943.86
756.017	9971.21
756.355	10035.84
756.693	10019.34
757.031	10067.48
757.368	10109.28
757.706	10129.39
758.044	10081.26
758.381	10170.75
758.719	10096.63
759.056	10105.44
759.394	10187.7
759.731	10126.46
760.068	10129.85
760.405	10135.27
760.743	10177.08
761.08	10163.52
761.417	10203.29
761.754	10230.41
762.091	10215.04
762.428	10217.53
762.765	10261.59
763.102	10319.9
763.438	10279
763.775	10173.01
764.112	10322.84
764.449	10315.6
764.785	10295.49
765.122	10284.64
765.458	10302.27
765.795	10294.36
766.131	10309.05
766.467	10311.76
766.804	10380.01
767.14	10297.53
767.476	10309.28
767.812	10358.09
768.148	10391.08
768.485	10291.42
768.821	10293.23
769.157	10286.23
769.492	10358.09
769.828	10303.18
770.164	10289.39
770.5	10299.79
770.836	10279
771.171	10280.8
771.507	10290.52
771.842	10260.92
772.178	10339.11
772.513	10333.01
772.849	10363.74
773.184	10285.1
773.519	10236.51
773.855	10300.69
774.19	10282.84
774.525	10288.71
774.86	10337.98
775.195	10299.56
775.53	10379.78
775.865	10296.4
776.2	10328.49
776.535	10267.7
776.87	10287.81
777.205	10228.38
777.539	10198.09
777.874	10269.5
778.209	10241.71
778.543	10230.18
778.878	10216.4
779.212	10217.08
779.547	10147.93
779.881	10217.08
780.215	10177.98
780.55	10250.75
780.884	10201.48
781.218	10243.52
781.552	10169.17
781.886	10166.23
782.22	10184.31
782.554	10141.6
782.888	10145.44
783.222	10077.87
783.556	10131.65
783.889	10117.19
784.223	10023.18
784.557	10102.05
784.89	10104.08
785.224	10025.22
785.557	9994.93
785.891	10033.13
786.224	10013.92
786.558	9997.65
786.891	9971.21
787.224	9943.41
787.557	9946.57
787.891	9978.21
788.224	9979.57
788.557	10014.6
788.89	9963.3
789.223	9930.53
789.556	9901.15
789.888	9849.18
790.221	9838.33
790.554	9826.35
790.887	9890.3
791.219	9807.82
791.552	9795.39
791.884	9771.66
792.217	9822.51
792.549	9755.85
792.882	9726.24
793.214	9711.78
793.546	9782.74
793.879	9780.48
794.211	9629.97
794.543	9729.41
794.875	9714.94
795.207	9748.61
795.539	9718.11
795.871	9752.23
796.203	9710.42
796.535	9616.19
796.867	9611.44
797.198	9549.75
797.53	9592.46
797.862	9593.14
798.193	9561.73
798.525	9559.24
798.856	9566.02
799.188	9429.98
799.519	9428.17
799.85	9458.9
800.182	9434.05
800.513	9451.9
800.844	9397.89
801.175	9483.54
801.506	9422.52
801.837	9472.69
802.168	9384.1
802.499	9420.94
802.83	9422.52
803.161	9376.65
803.491	9336.87
803.822	9387.49
804.153	9378.45
804.483	9291.68
804.814	9296.2
805.145	9288.51
805.475	9321.51
805.805	9270.89
806.136	9289.64
806.466	9280.38
806.796	9247.61
807.126	9170.78
807.457	9224.56
807.787	9210.77
808.117	9164.9
808.447	9150.21
808.777	9209.19
809.107	9114.05
809.436	9125.13
809.766	9075.19
810.096	9077.22
810.426	9106.82
810.755	9136.88
811.085	9106.37
811.414	8987.73
811.744	8942.99
812.073	8948.41
812.403	8950.67
812.732	8933.04
813.061	8976.88
813.39	8947.73
813.719	8927.62
814.049	8911.57
814.378	8861.63
814.707	8890.33
815.036	8861.41
815.365	8864.34
815.693	8826.15
816.022	8808.53
816.351	8802.2
816.68	8765.14
817.008	8804.01
817.337	8732.6
817.665	8716.78
817.994	8757.45
818.322	8750.67
818.651	8712.26
818.979	8657.79
819.307	8687.85
819.636	8684.01
819.964	8665.48
820.292	8657.34
820.62	8620.06
820.948	8629.32
821.276	8628.64
821.604	8667.96
821.932	8642.2
822.259	8662.31
822.587	8628.42
822.915	8636.55
823.243	8631.58
823.57	8652.6
823.898	8662.77
824.225	8609.43
824.553	8672.71
824.88	8699.38
825.207	8721.52
825.535	8672.26
825.862	8693.95
826.189	8727.62
826.516	8726.95
826.843	8760.62
827.17	8722.43
827.497	8780.5
827.824	8722.65
828.151	8724.69
828.478	8667.96
828.805	8773.95
829.131	8705.93
829.458	8722.2
829.785	8688.75
830.111	8675.65
830.438	8775.76
830.764	8753.39
831.09	8705.7
831.417	8691.24
831.743	8755.65
832.069	8822.76
832.395	8720.17
832.722	8803.33
833.048	8748.64
833.374	8742.09
833.7	8714.74
834.026	8755.19
834.351	8748.41
834.677	8766.49
835.003	8698.47
835.329	8737.34
835.654	8662.31
835.98	8678.36
836.306	8713.16
836.631	8657.34
836.956	8698.7
837.282	8693.95
837.607	8630.9
837.932	8676.33
838.258	8675.2
838.583	8607.63
838.908	8590.45
839.233	8637.46
839.558	8575.99
839.883	8605.59
840.208	8575.54
840.533	8540.51
840.858	8557.01
841.182	8578.93
841.507	8549.78
841.832	8455.09
842.156	8453.28
842.481	8430.68
842.805	8488.53
843.13	8427.07
843.454	8503.45
843.778	8406.5
844.103	8472.49
844.427	8382.32
844.751	8457.35
845.075	8325.37
845.399	8348.42
845.723	8264.36
846.047	8327.41
846.371	8232.27
846.695	8299.39
847.019	8191.14
847.343	8138.94
847.666	8107.53
847.99	8059.17
848.313	8095.32
848.637	8065.49
848.96	8094.87
849.284	8027.76
849.607	7971.03
849.931	7938.27
850.254	7905.72
850.577	7904.37
850.9	7791.6
851.223	7795.22
851.546	7748.89
851.869	7727.88
852.192	7731.94
852.515	7665.73
852.838	7696.46
853.161	7679.06
853.483	7622.34
853.806	7602.23
854.129	7597.71
854.451	7598.16
854.774	7544.38
855.096	7564.49
855.419	7501.44
855.741	7540.08
856.063	7449.69
856.385	7425.06
856.708	7376.47
857.03	7341.9
857.352	7379.64
857.674	7364.04
857.996	7308.9
858.318	7274.1
858.64	7312.29
858.961	7282.01
859.283	7225.52
859.605	7220.54
859.926	7227.1
860.248	7240.43
860.57	7136.48
860.891	7232.52
861.212	7142.81
861.534	7174.67
861.855	7154.11
862.176	7102.36
862.498	7089.02
862.819	7123.15
863.14	7080.44
863.461	7090.38
863.782	7038.4
864.103	7089.25
864.424	7025.07
864.745	7114.11
865.065	7022.13
865.386	6967.67
865.707	7028.69
866.027	6969.48
866.348	6987.1
866.668	6963.83
866.989	6990.27
867.309	6883.38
867.63	6977.84
867.95	6968.35
868.27	6866.66
868.59	6894.45
868.91	6935.13
869.23	6922.02
869.55	6888.12
869.87	6852.87
870.19	6778.3
870.51	6887.9
870.83	6843.83
871.15	6803.15
871.469	6799.54
871.789	6828.01
872.109	6793.66
872.428	6801.57
872.748	6753.21
873.067	6749.82
873.386	6789.37
873.706	6728.58
874.025	6693.1
874.344	6735.81
874.663	6696.26
874.982	6729.03
875.301	6719.77
875.62	6735.81
875.939	6648.58
876.258	6718.64
876.577	6652.42
876.896	6616.27
877.214	6634.8
877.533	6621.46
877.852	6626.21
878.17	6640.22
878.489	6616.94
878.807	6603.61
879.125	6565.65
879.444	6592.09
879.762	6537.85
880.08	6559.77
880.398	6569.71
880.716	6564.52
881.034	6449.27
881.352	6520.22
881.67	6499.43
881.988	6497.63
882.306	6497.63
882.624	6459.66
882.941	6426.44
883.259	6394.13
883.577	6369.72
883.894	6443.39
884.212	6391.87
884.529	6383.28
884.846	6357.29
885.164	6338.31
885.481	6342.38
885.798	6319.33
886.115	6373.11
886.432	6308.03
886.75	6270.29
887.067	6259.21
887.383	6254.47
887.7	6254.69
888.017	6207.92
888.334	6187.58
888.651	6200.01
888.967	6176.5
889.284	6150.29
889.6	6129.05
889.917	6123.85
890.233	6069.84
890.55	6129.5
890.866	6115.71
891.182	6051.31
891.498	6041.82
891.815	6010.86
892.131	5981.48
892.447	6017.64
892.763	5964.53
893.079	5984.87
893.395	5944.19
893.71	5955.72
894.026	5910.3
894.342	5910.97
894.657	5876.63
894.973	5865.78
895.289	5872.33
895.604	5872.33
895.92	5825.1
896.235	5785.33
896.55	5764.76
896.865	5774.48
897.181	5743.07
897.496	5754.37
897.811	5739.45
898.126	5687.48
898.441	5671.66
898.756	5656.74
899.071	5655.16
899.386	5635.73
899.7	5597.76
900.015	5595.05
900.33	5533.13
900.644	5582.85
900.959	5564.99
901.273	5490.19
901.588	5469.18
901.902	5467.6
902.216	5440.48
902.531	5427.37
902.845	5428.95
903.159	5366.81
903.473	5364.77
903.787	5287.04
904.101	5310.31
904.415	5287.94
904.729	5304.44
905.042	5233.25
905.356	5211.11
905.67	5179.47
905.984	5246.13
906.297	5238.9
906.611	5214.5
906.924	5164.1
907.237	5136.98
907.551	5126.59
907.864	5045.01
908.177	5069.64
908.491	5104.22
908.804	5070.77
909.117	5016.76
909.43	4996.65
909.743	5015.63
910.056	4927.27
910.368	4970.43
910.681	4904.22
910.994	4909.19
911.307	4854.96
911.619	4867.39
911.932	4844.34
912.244	4870.32
912.557	4845.69
912.869	4805.01
913.181	4798.24
913.494	4761.63
913.806	4734.96
914.118	4749.42
914.43	4716.43
914.742	4706.94
915.054	4683.21
915.366	4644.57
915.678	4589.65
915.99	4646.15
916.302	4579.71
916.613	4597.79
916.925	4551.24
917.236	4593.72
917.548	4513.95
917.859	4467.62
918.171	4477.34
918.482	4513.05
918.794	4436.21
919.105	4456.78
919.416	4397.12
919.727	4413.84
920.038	4423.56
920.349	4343.33
920.66	4334.29
920.971	4318.47
921.282	4382.2
921.593	4305.82
921.903	4313.28
922.214	4275.99
922.525	4258.59
922.835	4209.1
923.146	4188.99
923.456	4160.74
923.767	4192.83
924.077	4188.31
924.387	4071.02
924.697	4163.9
925.008	4151.92
925.318	4092.94
925.628	4119.38
925.938	4104.02
926.248	4032.61
926.558	4044.81
926.867	4020.4
927.177	3962.78
927.487	3957.35
927.796	3954.87
928.106	3967.3
928.416	3959.61
928.725	3919.16
929.034	3912.16
929.344	3913.74
929.653	3888.88
929.962	3871.25
930.271	3878.03
930.581	3784.7
930.89	3806.17
931.199	3800.75
931.508	3799.17
931.817	3755.55
932.125	3755.1
932.434	3732.05
932.743	3669.45
933.051	3687.3
933.36	3698.38
933.669	3650.92
933.977	3678.72
934.286	3663.35
934.594	3631.03
934.902	3588.1
935.21	3615.22
935.519	3601.66
935.827	3579.96
936.135	3609.57
936.443	3509.46
936.751	3512.39
937.059	3532.05
937.367	3509.68
937.674	3479.17
937.982	3491.38
938.29	3438.5
938.597	3464.26
938.905	3438.05
939.213	3409.35
939.52	3404.83
939.827	3346.75
940.135	3358.73
940.442	3328.22
940.749	3329.57
941.056	3370.48
941.363	3325.51
941.67	3285.51
941.977	3301.78
942.284	3275.34
942.591	3262.23
942.898	3278.28
943.205	3277.6
943.511	3184.72
943.818	3236.69
944.125	3229.92
944.431	3164.38
944.738	3189.46
945.044	3131.84
945.35	3156.47
945.657	3206.64
945.963	3116.02
946.269	3112.4
946.575	3094.1
946.881	3094.1
947.187	3067.66
947.493	3080.54
947.799	3060.2
948.105	3043.48
948.41	2998.51
948.716	2986.08
949.022	2988.79
949.327	2979.98
949.633	2975.68
949.938	2982.92
950.244	2939.75
950.549	2939.53
950.854	2890.49
951.16	2914.22
951.465	2917.61
951.77	2883.94
952.075	2863.37
952.38	2853.65
952.685	2864.95
952.99	2834.9
953.294	2838.29
953.599	2827.67
953.904	2788.57
954.209	2787.21
954.513	2782.24
954.818	2773.43
955.122	2748.57
955.426	2726.65
955.731	2767.33
956.035	2731.62
956.339	2732.53
956.643	2710.38
956.948	2674.22
957.252	2698.18
957.556	2690.27
957.86	2689.82
958.163	2677.61
958.467	2637.39
958.771	2616.15
959.075	2602.59
959.378	2603.26
959.682	2618.18
959.985	2561.23
960.289	2572.31
960.592	2561.01
960.896	2544.06
961.199	2507.67
961.502	2540.22
961.805	2528.92
962.108	2511.97
962.411	2485.98
962.714	2491.4
963.017	2498.86
963.32	2469.48
963.623	2439.2
963.926	2440.11
964.228	2407.79
964.531	2444.85
964.833	2419.54
965.136	2403.5
965.438	2407.11
965.741	2409.82
966.043	2389.71
966.345	2367.11
966.648	2382.03
966.95	2358.07
967.252	2337.74
967.554	2329.37
967.856	2346.55
968.158	2309.49
968.46	2296.15
968.761	2274.91
969.063	2321.24
969.365	2264.29
969.666	2292.31
969.968	2234.24
970.269	2273.56
970.571	2220.45
970.872	2249.6
971.174	2221.13
971.475	2205.76
971.776	2185.87
972.077	2193.11
972.378	2184.97
972.679	2151.07
972.98	2160.56
973.281	2165.08
973.582	2163.5
973.883	2139.55
974.183	2135.71
974.484	2146.1
974.785	2134.8
975.085	2166.44
975.386	2134.8
975.686	2118.76
975.986	2109.49
976.287	2100.45
976.587	2066.56
976.887	2060.23
977.187	2062.26
977.487	2004.41
977.787	2027.01
978.087	2015.48
978.387	2013.45
978.687	2003.51
978.987	1989.95
979.286	1997.63
979.586	1995.82
979.885	1984.07
980.185	2008.7
980.484	1947.69
980.784	1946.11
981.083	1931.87
981.382	1946.33
981.682	1925.32
981.981	1928.93
982.28	1925.09
982.579	1880.12
982.878	1922.15
983.177	1912.44
983.475	1859.78
983.774	1868.14
984.073	1867.69
984.372	1852.32
984.67	1869.95
984.969	1836.73
985.267	1829.95
985.566	1820.23
985.864	1804.64
986.162	1796.05
986.461	1792.44
986.759	1790.4
987.057	1742.5
987.355	1771.2
987.653	1795.15
987.951	1764.42
988.249	1751.76
988.547	1747.47
988.844	1766.68
989.142	1735.94
989.44	1743.63
989.737	1745.43
990.035	1698.88
990.332	1682.84
990.63	1753.12
990.927	1694.14
991.224	1687.58
991.521	1665.66
991.819	1667.92
992.116	1645.55
992.413	1680.35
992.71	1645.1
993.006	1653.46
993.303	1624.08
993.6	1647.13
993.897	1618.88
994.193	1616.85
994.49	1602.84
994.787	1608.94
995.083	1587.92
995.379	1588.15
995.676	1599.9
995.972	1594.25
996.268	1563.74
996.565	1556.51
996.861	1540.47
997.157	1570.07
997.453	1519.68
997.749	1544.54
998.044	1526.01
998.34	1503.18
998.636	1495.95
998.932	1527.81
999.227	1518.32
999.523	1503.41
999.818	1451.43
1000.114	1482.62
1000.409	1458.21
1000.704	1458.89
1001	1465.67
1001.295	1438.55
1001.59	1427.7
1001.885	1462.73
1002.18	1460.7
1002.475	1428.15
1002.77	1414.14
1003.065	1401.94
1003.359	1423.18
1003.654	1389.29
1003.949	1386.8
1004.243	1383.86
1004.538	1353.35
1004.832	1381.38
1005.127	1372.34
1005.421	1354.03
1005.715	1368.72
1006.009	1304.54
1006.304	1313.36
1006.598	1322.39
1006.892	1323.3
1007.186	1306.8
1007.48	1312.68
1007.773	1290.08
1008.067	1294.82
1008.361	1304.09
1008.655	1277.65
1008.948	1268.16
1009.242	1268.38
1009.535	1239.68
1009.829	1255.96
1010.122	1237.43
1010.415	1243.53
1010.708	1216.63
1011.001	1219.57
1011.295	1231.55
1011.588	1209.18
1011.881	1205.56
1012.173	1189.06
1012.466	1192.68
1012.759	1207.6
1013.052	1215.96
1013.344	1193.81
1013.637	1160.82
1013.93	1166.24
1014.222	1140.93
1014.514	1124.66
1014.807	1145.22
1015.099	1133.7
1015.391	1111.33
1015.683	1130.76
1015.976	1111.33
1016.268	1086.47
1016.56	1102.51
1016.851	1126.47
1017.143	1090.99
1017.435	1065.45
1017.727	1071.78
1018.018	1066.36
1018.31	1076.07
1018.602	1081.5
1018.893	1062.29
1019.185	1059.58
1019.476	1037.43
1019.767	1033.36
1020.058	1050.54
1020.35	1017.32
1020.641	1012.8
1020.932	1038.56
1021.223	1022.97
1021.514	1001.05
1021.804	998.11
1022.095	1005.11
1022.386	994.95
1022.677	993.82
1022.967	996.3
1023.258	976.42
1023.548	978.9
1023.839	924.66
1024.129	967.6
1024.419	958.79
1024.709	950.2
1025	956.08
1025.29	931.9
1025.58	935.74
1025.87	934.38
1026.16	902.97
1026.449	928.28
1026.739	900.48
1027.029	876.08
1027.319	912.69
1027.608	887.83
1027.898	889.86
1028.187	889.19
1028.477	884.67
1028.766	869.75
1029.055	873.37
1029.344	846.25
1029.634	845.12
1029.923	860.94
1030.212	842.63
1030.501	849.41
1030.79	839.47
1031.078	852.12
1031.367	822.75
1031.656	833.59
1031.945	815.74
1032.233	824.78
1032.522	817.55
1032.81	837.66
1033.099	816.65
1033.387	818.23
1033.675	797.44
1033.963	799.92
1034.251	791.56
1034.54	787.72
1034.828	777.32
1035.116	811
1035.403	779.13
1035.691	763.77
1035.979	744.1
1036.267	756.31
1036.554	748.85
1036.842	744.1
1037.129	728.29
1037.417	717.21
1037.704	737.55
1037.992	744.78
1038.279	744.1
1038.566	736.87
1038.853	736.87
1039.14	736.87
