Data from blue_clamp_base_FLMS001491_00096.txt Node
Date: Wed Feb 08 15:16:48 GMT 2017
User: dcchb
Spectrometer: FLMS00149
Trigger mode: 0
Integration Time (sec): 2.000000E-2
Scans to average: 10
Electric dark correction enabled: true
Nonlinearity correction enabled: false
Boxcar width: 0
XAxis mode: Wavelengths
Number of Pixels in Spectrum: 2048
>>>>>Begin Spectral Data<<<<<
341.393	-0.99
341.776	-0.99
342.16	-0.99
342.543	-60.87
342.927	-75.11
343.31	-77.6
343.693	-82.12
344.077	-60.42
344.46	-63.36
344.843	-48.9
345.226	-43.25
345.61	-22.91
345.993	-16.13
346.376	-6.41
346.759	9.18
347.142	15.96
347.525	38.33
347.908	58.44
348.291	80.37
348.674	98.9
349.057	119.91
349.44	122.62
349.823	146.13
350.206	170.76
350.588	199.23
350.971	213.02
351.354	218.89
351.737	234.03
352.119	249.4
352.502	267.7
352.884	263.19
353.267	271.77
353.65	298.21
354.032	299.79
354.414	301.6
354.797	316.52
355.179	328.04
355.562	317.2
355.944	335.27
356.326	343.86
356.709	319.23
357.091	336.18
357.473	332.11
357.855	352.67
358.238	366.69
358.62	338.21
359.002	321.94
359.384	345.67
359.766	331.43
360.148	344.31
360.53	349.51
360.912	347.02
361.294	330.98
361.676	337.76
362.057	339.12
362.439	331.21
362.821	346.57
363.203	321.49
363.584	323.3
363.966	321.94
364.348	333.69
364.729	342.51
365.111	340.02
365.493	319.91
365.874	329.85
366.256	325.78
366.637	338.21
367.019	330.08
367.4	334.82
367.781	304.77
368.163	323.52
368.544	328.27
368.925	320.13
369.306	353.58
369.688	323.75
370.069	311.77
370.45	330.98
370.831	340.92
371.212	319.68
371.593	333.92
371.974	326.46
372.355	338.21
372.736	323.97
373.117	349.06
373.498	330.75
373.879	333.24
374.26	324.88
374.641	311.09
375.021	324.2
375.402	354.03
375.783	349.28
376.163	346.57
376.544	348.15
376.925	332.79
377.305	343.86
377.686	344.99
378.066	355.16
378.447	338.66
378.827	346.57
379.208	346.12
379.588	364.43
379.968	356.74
380.349	363.75
380.729	356.52
381.109	360.58
381.489	353.35
381.87	369.85
382.25	375.27
382.63	372.11
383.01	374.82
383.39	378.21
383.77	364.88
384.15	369.85
384.53	382.5
384.91	361.04
385.29	400.13
385.67	388.15
386.049	393.13
386.429	392.9
386.809	386.12
387.189	387.48
387.568	385.89
387.948	399
388.328	408.27
388.707	385.89
389.087	384.76
389.466	402.84
389.846	436.06
390.225	413.24
390.605	416.85
390.984	436.74
391.363	418.44
391.743	423.63
392.122	461.82
392.501	452.78
392.881	439
393.26	439.9
393.639	449.17
394.018	450.3
394.397	458.66
394.776	439.23
395.155	464.76
395.534	473.8
395.913	473.8
396.292	462.5
396.671	464.99
397.05	479.9
397.429	484.65
397.808	475.83
398.186	507.92
398.565	499.34
398.944	504.31
399.323	515.83
399.701	495.95
400.08	512.9
400.458	518.09
400.837	534.59
401.215	531.43
401.594	535.72
401.972	541.37
402.351	545.89
402.729	552.9
403.107	569.39
403.486	576.17
403.864	557.41
404.242	555.15
404.62	561.71
404.999	574.59
405.377	583.63
405.755	600.13
406.133	617.3
406.511	619.56
406.889	636.51
407.267	640.35
407.645	636.96
408.023	647.36
408.401	676.51
408.779	672.44
409.156	683.97
409.534	675.15
409.912	674.7
410.29	688.26
410.667	709.5
411.045	714.47
411.422	718.09
411.8	732.1
412.178	730.74
412.555	742.27
412.933	737.07
413.31	779.56
413.687	780.01
414.065	766
414.442	777.07
414.819	797.41
415.197	809.16
415.574	802.61
415.951	816.39
416.328	817.52
416.705	816.62
417.082	822.72
417.46	839.22
417.837	864.53
418.214	867.69
418.591	851.19
418.967	882.15
419.344	850.06
419.721	891.64
420.098	896.61
420.475	918.31
420.852	893.23
421.228	946.78
421.605	945.88
421.982	971.42
422.358	966.22
422.735	970.06
423.111	981.36
423.488	988.59
423.864	1004.86
424.241	1014.58
424.617	1019.32
424.994	1014.13
425.37	1037.18
425.746	1020.45
426.123	1061.58
426.499	1087.57
426.875	1074.01
427.251	1084.18
427.627	1109.94
428.003	1111.07
428.379	1131.64
428.756	1146.1
429.132	1165.31
429.507	1180.9
429.883	1198.53
430.259	1208.47
430.635	1217.51
431.011	1231.3
431.387	1264.51
431.763	1264.29
432.138	1310.62
432.514	1310.39
432.89	1292.99
433.265	1320.78
433.641	1349.94
434.016	1356.49
434.392	1373.44
434.767	1415.25
435.143	1406.66
435.518	1432.65
435.894	1441.46
436.269	1459.31
436.644	1481.01
437.02	1508.12
437.395	1510.84
437.77	1534.34
438.145	1542.47
438.52	1556.26
438.895	1585.86
439.271	1582.92
439.646	1622.92
440.021	1605.97
440.395	1623.15
440.77	1625.41
441.145	1674.22
441.52	1668.8
441.895	1672.87
442.27	1713.54
442.645	1704.96
443.019	1727.55
443.394	1708.34
443.769	1760.32
444.143	1737.27
444.518	1805.29
444.892	1769.81
445.267	1813.43
445.641	1791.51
446.016	1815.91
446.39	1864.27
446.764	1848.23
447.139	1862.92
447.513	1912.41
447.887	1888
448.262	1909.7
448.636	1908.11
449.01	1942.69
449.384	1950.6
449.758	1985.85
450.132	2020.65
450.506	2004.38
450.88	1997.6
451.254	2012.52
451.628	2062.91
452.002	2062.91
452.376	2075.11
452.75	2100.42
453.123	2113.31
453.497	2152.85
453.871	2193.98
454.244	2220.87
454.618	2215.68
454.992	2265.84
455.365	2247.54
455.739	2296.58
456.112	2318.05
456.486	2329.12
456.859	2398.72
457.232	2418.83
457.606	2432.17
457.979	2448.21
458.352	2471.94
458.725	2539.51
459.099	2534.99
459.472	2549.45
459.845	2553.29
460.218	2638.72
460.591	2594.42
460.964	2635.78
461.337	2698.38
461.71	2751.93
462.083	2770.46
462.456	2782.67
462.829	2778.6
463.201	2837.35
463.574	2814.76
463.947	2844.13
464.32	2938.82
464.692	2961.42
465.065	2977.01
465.438	3014.07
465.81	3045.71
466.183	3045.94
466.555	3084.35
466.928	3131.36
467.3	3153.28
467.672	3164.8
468.045	3248.87
468.417	3262.43
468.789	3279.6
469.161	3351.47
469.534	3357.12
469.906	3444.12
470.278	3448.41
470.65	3461.75
471.022	3530.67
471.394	3577.67
471.766	3591.69
472.138	3660.84
472.51	3718.91
472.882	3741.06
473.253	3798.69
473.625	3864.9
473.997	3907.38
474.369	3880.27
474.74	3963.43
475.112	4040.71
475.484	4106.25
475.855	4130.43
476.227	4164.78
476.598	4245.45
476.97	4258.79
477.341	4347.82
477.713	4409.97
478.084	4439.57
478.455	4544.65
478.827	4577.2
479.198	4680.24
479.569	4673.24
479.94	4779.22
480.311	4810.64
480.682	4921.14
481.053	4954.14
481.424	5083.17
481.795	5097.63
482.166	5148.71
482.537	5171.53
482.908	5302.83
483.279	5341.7
483.65	5368.36
484.021	5468.47
484.391	5492.43
484.762	5565.42
485.133	5597.51
485.503	5591.63
485.874	5701.91
486.244	5806.32
486.615	5831.4
486.985	5871.85
487.356	5982.81
487.726	5953.43
488.097	6063.94
488.467	6150.04
488.837	6190.26
489.207	6229.81
489.578	6338.28
489.948	6293.76
490.318	6399.97
490.688	6441.55
491.058	6504.6
491.428	6547.54
491.798	6589.35
492.168	6653.07
492.538	6663.92
492.908	6746.86
493.278	6792.73
493.648	6843.35
494.017	6910.02
494.387	6880.19
494.757	6881.77
495.126	6999.96
495.496	6980.3
495.866	7001.77
496.235	7078.15
496.605	7115.21
496.974	7065.49
497.344	7180.29
497.713	7128.54
498.082	7166.73
498.452	7204.02
498.821	7217.58
499.19	7279.5
499.559	7347.29
499.928	7323.56
500.298	7369.89
500.667	7341.87
501.036	7403.34
501.405	7446.05
501.774	7408.08
502.143	7513.84
502.512	7481.98
502.88	7467.74
503.249	7501.64
503.618	7507.29
503.987	7508.64
504.356	7548.19
504.724	7617.57
505.093	7668.41
505.462	7629.09
505.83	7613.95
506.199	7676.1
506.567	7721.07
506.936	7761.97
507.304	7863.89
507.672	7811.24
508.041	7801.07
508.409	7895.75
508.777	7969.88
509.145	7952.47
509.514	7944.34
509.882	7983.21
510.25	8036.99
510.618	8016.65
510.986	8004.22
511.354	8171.45
511.722	8195.86
512.09	8201.06
512.458	8139.81
512.826	8237.44
513.193	8207.84
513.561	8246.03
513.929	8258.23
514.297	8253.71
514.664	8367.83
515.032	8418.45
515.4	8404.89
515.767	8421.16
516.135	8401.28
516.502	8417.55
516.869	8529.41
517.237	8530.31
517.604	8502.97
517.972	8547.71
518.339	8566.02
518.706	8579.12
519.073	8650.31
519.44	8626.81
519.808	8747.03
520.175	8705
520.542	8757.65
520.909	8826.35
521.276	8830.87
521.643	8888.27
522.009	8858.89
522.376	8958.55
522.743	8984.76
523.11	9020.92
523.477	9088.26
523.843	9055.95
524.21	9177.53
524.577	9205.1
524.943	9221.59
525.31	9315.15
525.676	9319.44
526.043	9361.7
526.409	9354.25
526.776	9437.18
527.142	9432.44
527.508	9508.59
527.874	9574.58
528.241	9649.38
528.607	9629.27
528.973	9678.98
529.339	9713.78
529.705	9806.21
530.071	9836.04
530.437	9862.48
530.803	9908.13
531.169	9922.14
531.535	9917.85
531.901	9938.86
532.267	9922.14
532.632	10084.85
532.998	10111.51
533.364	10081.68
533.73	10135.24
534.095	10187.22
534.461	10220.89
534.826	10225.86
535.192	10292.3
535.557	10350.15
535.923	10305.18
536.288	10356.71
536.653	10363.48
537.019	10426.31
537.384	10436.03
537.749	10438.28
538.114	10486.19
538.479	10546.53
538.845	10575.23
539.21	10545.85
539.575	10608.22
539.94	10623.82
540.305	10658.62
540.67	10657.04
541.034	10684.38
541.399	10715.11
541.764	10750.14
542.129	10731.16
542.494	10780.65
542.858	10779.97
543.223	10864.04
543.587	10950.59
543.952	10975.22
544.316	10923.24
544.681	10953.53
545.045	11030.59
545.41	11050.7
545.774	11149.23
546.138	11092.28
546.503	11165.5
546.867	11164.37
547.231	11218.6
547.595	11209.34
547.959	11303.8
548.324	11277.58
548.688	11247.98
549.052	11241.2
549.416	11302.22
549.779	11313.06
550.143	11313.74
550.507	11422.89
550.871	11406.62
551.235	11476.68
551.599	11478.48
551.962	11465.38
552.326	11508.77
552.689	11582.21
553.053	11469.67
553.417	11603.23
553.78	11709.89
554.143	11646.39
554.507	11687.74
554.87	11675.31
555.234	11828.08
555.597	11779.49
555.96	11801.41
556.323	11853.39
556.686	11833.5
557.05	11881.41
557.413	11910.79
557.776	11889.77
558.139	12059.03
558.502	12029.43
558.865	12159.6
559.228	12126.38
559.59	12050.67
559.953	12202.98
560.316	12223.32
560.679	12219.03
561.041	12283.21
561.404	12371.12
561.767	12515.52
562.129	12325.92
562.492	12428.52
562.854	12444.56
563.217	12451.57
563.579	12510.77
563.941	12580.38
564.304	12631
564.666	12684.55
565.028	12741.73
565.39	12693.82
565.753	12819.24
566.115	12959.57
566.477	12925.45
566.839	12960.48
567.201	12984.88
567.563	12998.9
567.925	13122.73
568.287	13064.66
568.648	13160.93
569.01	13195.27
569.372	13346.46
569.734	13287.25
570.095	13478.2
570.457	13391.2
570.819	13487.47
571.18	13483.85
571.542	13628.94
571.903	13583.06
572.265	13641.59
572.626	13657.18
572.987	13678.65
573.349	13794.81
573.71	13811.53
574.071	13790.29
574.432	13875.93
574.794	13931.53
575.155	13950.28
575.516	13885.88
575.877	13970.62
576.238	14016.5
576.599	14026.89
576.96	14116.83
577.32	14070.73
577.681	14109.6
578.042	14162.71
578.403	14197.51
578.763	14244.51
579.124	14326.54
579.485	14322.25
579.845	14399.76
580.206	14299.2
580.566	14325.64
580.927	14440.44
581.287	14424.39
581.648	14470.27
582.008	14503.49
582.368	14517.27
582.728	14529.93
583.089	14449.7
583.449	14536.48
583.809	14502.81
584.169	14577.39
584.529	14533.77
584.889	14665.52
585.249	14527.44
585.609	14508.46
585.969	14598.63
586.329	14538.52
586.688	14634.78
587.048	14625.75
587.408	14579.87
587.768	14613.09
588.127	14636.14
588.487	14638.85
588.846	14733.99
589.206	14655.8
589.565	14703.26
589.925	14783.93
590.284	14692.18
590.643	14693.77
591.003	14667.1
591.362	14710.26
591.721	14759.3
592.08	14775.35
592.44	14818.51
592.799	14823.03
593.158	14729.25
593.517	14825.29
593.876	14877.26
594.235	14816.02
594.593	14797.94
594.952	14818.51
595.311	14847.66
595.67	14934.21
596.029	14979.86
596.387	14924.04
596.746	15037.94
597.104	14904.61
597.463	14931.73
597.822	14946.19
598.18	14905.51
598.538	14940.54
598.897	15085.39
599.255	14899.41
599.613	15083.81
599.972	14965.62
600.33	15048.79
600.688	14919.3
601.046	14977.6
601.404	15144.38
601.762	14978.5
602.12	15179.63
602.478	15077.26
602.836	15168.78
603.194	15019.63
603.552	15114.77
603.91	15046.3
604.268	15160.19
604.625	15107.54
604.983	15253.07
605.341	15185.96
605.698	15126.3
606.056	15268.21
606.413	15102.57
606.771	15236.12
607.128	15286.52
607.485	15192.28
607.843	15222.11
608.2	15329.46
608.557	15348.66
608.914	15287.42
609.272	15373.3
609.629	15356.8
609.986	15385.73
610.343	15402.67
610.7	15477.47
611.057	15397.02
611.414	15403.35
611.771	15454.42
612.127	15493.75
612.484	15482.45
612.841	15531.94
613.198	15547.08
613.554	15530.58
613.911	15628.66
614.267	15611.03
614.624	15574.2
614.98	15567.19
615.337	15653.06
615.693	15715.21
616.05	15623.91
616.406	15790.23
616.762	15633.63
617.118	15670.46
617.475	15684.02
617.831	15724.02
618.187	15730.12
618.543	15798.82
618.899	15941.64
619.255	15855.09
619.611	15858.48
619.967	15814.19
620.323	15809.22
620.678	15823.91
621.034	15865.71
621.39	15903.9
621.746	15902.77
622.101	16055.76
622.457	15923.79
622.812	16002.21
623.168	15962.43
623.523	16017.57
623.879	16019.61
624.234	15901.64
624.589	15930.12
624.945	16023.45
625.3	16115.2
625.655	16098.48
626.01	16114.75
626.365	16061.41
626.72	16110.9
627.075	16120.4
627.43	16054.63
627.785	16088.98
628.14	16156.1
628.495	16174.63
628.85	16205.59
629.205	16148.87
629.559	16189.55
629.914	16145.25
630.269	16224.57
630.623	16140.06
630.978	16189.55
631.332	16239.26
631.687	16290.79
632.041	16200.39
632.396	16337.34
632.75	16270.45
633.104	16242.43
633.459	16227.06
633.813	16220.51
634.167	16351.58
634.521	16294.85
634.875	16281.3
635.229	16312.71
635.583	16171.92
635.937	16229.55
636.291	16133.5
636.645	16267.96
636.999	16303.67
637.352	16331.69
637.706	16250.11
638.06	16347.28
638.413	16403.78
638.767	16330.33
639.121	16340.05
639.474	16198.13
639.828	16252.6
640.181	16309.99
640.534	16359.26
640.888	16260.73
641.241	16235.87
641.594	16343.67
641.947	16422.76
642.301	16332.14
642.654	16371.24
643.007	16472.25
643.36	16348.41
643.713	16355.87
644.066	16486.49
644.419	16376.66
644.771	16280.62
645.124	16220.73
645.477	16172.82
645.83	16023.67
646.182	15936.9
646.535	15985.71
646.888	16054.63
647.24	15948.42
647.593	16197.46
647.945	16142.09
648.298	16061.64
648.65	15986.84
649.002	16058.25
649.355	16160.62
649.707	16103.67
650.059	16109.32
650.411	16411.69
650.763	16373.95
651.115	16604.68
651.467	16574.39
651.819	16604.9
652.171	16620.27
652.523	16560.16
652.875	16614.62
653.227	16587.5
653.578	16703.43
653.93	16746.59
654.282	16641.74
654.633	16699.82
654.985	16650.55
655.337	16724.67
655.688	16739.14
656.039	16772.13
656.391	16572.59
656.742	16711.11
657.094	16750.21
657.445	16770.77
657.796	16670.21
658.147	16750.89
658.498	16785.91
658.849	16857.33
659.2	16735.75
659.551	16688.74
659.902	16800.15
660.253	16773.49
660.604	16834.05
660.955	16670.89
661.306	16850.09
661.656	16814.39
662.007	16780.94
662.358	16880.83
662.708	16848.96
663.059	16883.31
663.409	16705.92
663.76	16894.39
664.11	16833.14
664.461	16903.43
664.811	16853.48
665.161	16910.88
665.511	16805.58
665.862	16846.7
666.212	16898.68
666.562	16912.92
666.912	16823.2
667.262	16866.82
667.612	16911.79
667.962	16896.87
668.312	16792.47
668.662	16879.92
669.011	16792.92
669.361	16793.37
669.711	16748.63
670.06	16742.07
670.41	16617.11
670.76	16698.46
671.109	16716.76
671.459	16635.18
671.808	16619.59
672.157	16695.07
672.507	16511.35
672.856	16542.76
673.205	16528.97
673.554	16564.45
673.904	16559.48
674.253	16476.54
674.602	16456.43
674.951	16289.43
675.3	16128.98
675.649	16404
675.998	16344.57
676.346	16332.82
676.695	16356.1
677.044	16159.94
677.393	16321.97
677.741	16283.1
678.09	16250.34
678.438	16203.78
678.787	16197.46
679.135	16119.27
679.484	16099.15
679.832	16004.01
680.181	16037.46
680.529	16013.05
680.877	15980.74
681.225	15900.29
681.573	16058.25
681.922	15877.01
682.27	15908.65
682.618	15827.97
682.966	15874.3
683.314	15840.4
683.661	15835.88
684.009	15730.12
684.357	15727.41
684.705	15686.96
685.053	15674.98
685.4	15595.21
685.748	15528.09
686.095	15487.19
686.443	15535.55
686.79	15415.56
687.138	15526.96
687.485	15499.62
687.832	15478.83
688.18	15538.26
688.527	15411.26
688.874	15333.52
689.221	15384.82
689.568	15246.75
689.915	15241.32
690.262	15267.54
690.609	15247.88
690.956	15159.74
691.303	15163.58
691.65	15142.57
691.997	15111.38
692.344	15042.91
692.69	15058.5
693.037	15016.24
693.383	14938.51
693.73	14971.95
694.077	14916.59
694.423	14922.91
694.769	14910.26
695.116	14864.38
695.462	14851.05
695.808	14828
696.155	14901.9
696.501	14788
696.847	14748.23
697.193	14671.17
697.539	14769.7
697.885	14673.2
698.231	14595.92
698.577	14675.01
698.923	14634.11
699.269	14616.48
699.614	14510.27
699.96	14566.31
700.306	14529.7
700.651	14456.71
700.997	14452.87
701.342	14477.05
701.688	14392.08
702.033	14341.46
702.379	14331.52
702.724	14311.63
703.069	14324.06
703.415	14290.61
703.76	14286.55
704.105	14269.14
704.45	14255.59
704.795	14279.09
705.14	14192.31
705.485	14163.61
705.83	14147.11
706.175	14236.6
706.52	14198.19
706.865	14095.14
707.209	14089.26
707.554	14083.16
707.899	14127
708.243	14017.85
708.588	14033.44
708.932	13990.73
709.277	14040.68
709.621	13976.27
709.966	13970.62
710.31	13972.43
710.654	13852.88
710.998	13848.82
711.342	13940.11
711.687	13938.31
712.031	13895.37
712.375	13851.53
712.719	13894.69
713.063	13883.17
713.407	13947.57
713.75	13762.72
714.094	13824.86
714.438	13800.23
714.782	13852.21
715.125	13851.08
715.469	13790.06
715.812	13770.85
716.156	13750.97
716.499	13771.98
716.843	13681.59
717.186	13686.56
717.53	13780.57
717.873	13745.09
718.216	13701.25
718.559	13757.97
718.902	13639.1
719.246	13728.37
719.589	13670.06
719.932	13557.98
720.275	13630.97
720.617	13577.41
720.96	13545.55
721.303	13635.71
721.646	13551.65
721.989	13586
722.331	13596.39
722.674	13540.8
723.016	13548.71
723.359	13520.46
723.701	13555.04
724.044	13454.02
724.386	13464.19
724.729	13536.06
725.071	13507.36
725.413	13477.75
725.755	13450.64
726.097	13480.24
726.439	13395.04
726.782	13468.04
727.124	13558.65
727.465	13498.54
727.807	13410.86
728.149	13434.14
728.491	13369.28
728.833	13467.36
729.175	13508.26
729.516	13359.79
729.858	13475.27
730.199	13374.48
730.541	13439.79
730.882	13401.6
731.224	13531.08
731.565	13443.86
731.906	13433.01
732.248	13400.69
732.589	13403.86
732.93	13388.04
733.271	13393.01
733.612	13500.58
733.953	13522.27
734.294	13459.67
734.635	13435.27
734.976	13479.33
735.317	13411.77
735.658	13466.45
735.999	13526.34
736.339	13388.04
736.68	13495.61
737.021	13480.24
737.361	13452.89
737.702	13639.78
738.042	13555.72
738.383	13582.38
738.723	13695.6
739.063	13567.92
739.404	13640.46
739.744	13629.16
740.084	13710.52
740.424	13670.29
740.764	13638.88
741.104	13778.08
741.444	13761.36
741.784	13774.24
742.124	13784.19
742.464	13796.61
742.804	13820.12
743.143	13799.78
743.483	13896.95
743.823	13814.92
744.162	13947.35
744.502	13940.79
744.841	13955.93
745.181	14076.38
745.52	14022.15
745.86	14079.77
746.199	14025.99
746.538	14036.16
746.877	14084.29
747.216	14195.7
747.556	14156.15
747.895	14232.31
748.234	14204.97
748.573	14219.43
748.911	14183.27
749.25	14246.55
749.589	14252.87
749.928	14337.62
750.267	14351.85
750.605	14409.71
750.944	14427.56
751.283	14357.28
751.621	14384.4
751.96	14464.62
752.298	14504.39
752.636	14467.56
752.975	14505.3
753.313	14500.32
753.651	14631.17
753.989	14563.15
754.327	14603.37
754.666	14624.84
755.004	14543.49
755.342	14713.88
755.679	14761.34
756.017	14672.52
756.355	14749.13
756.693	14747.55
757.031	14789.13
757.368	14711.62
757.706	14811.73
758.044	14816.25
758.381	14860.99
758.719	14786.42
759.056	14847.43
759.394	14915.68
759.731	14853.54
760.068	14905.29
760.405	14907.09
760.743	14942.35
761.08	15045.85
761.417	14912.07
761.754	14933.76
762.091	14973.98
762.428	14975.11
762.765	14985.06
763.102	15045.85
763.438	15018.05
763.775	14966.3
764.112	15001.78
764.449	15042.23
764.785	15089.69
765.122	15012.85
765.458	15057.15
765.795	15088.11
766.131	15083.81
766.467	15066.64
766.804	15018.73
767.14	14929.01
767.476	15048.56
767.812	15032.29
768.148	15075
768.485	15027.32
768.821	14977.15
769.157	15015.57
769.492	15062.12
769.828	15051.5
770.164	14908.22
770.5	14951.39
770.836	15016.92
771.171	14871.16
771.507	14896.02
771.842	14945.28
772.178	14981.22
772.513	14945.74
772.849	14996.13
773.184	14912.29
773.519	14974.89
773.855	14965.85
774.19	14862.12
774.525	14943.93
774.86	14936.47
775.195	14972.63
775.53	14832.07
775.865	14889.47
776.2	14775.12
776.535	14763.14
776.87	14745.74
777.205	14813.76
777.539	14846.76
777.874	14818.96
778.209	14737.83
778.543	14761.11
778.878	14742.8
779.212	14720.66
779.547	14715.23
779.881	14754.78
780.215	14698.96
780.55	14704.84
780.884	14675.46
781.218	14709.13
781.552	14752.52
781.886	14636.59
782.22	14590.72
782.554	14572.87
782.888	14501
783.222	14488.57
783.556	14409.93
783.889	14435.47
784.223	14427.56
784.557	14442.25
784.89	14494.9
785.224	14404.96
785.557	14398.18
785.891	14429.14
786.224	14400.21
786.558	14376.03
786.891	14231.63
787.224	14215.81
787.557	14263.95
787.891	14237.73
788.224	14270.05
788.557	14299.88
788.89	14242.48
789.223	14288.35
789.556	14208.81
789.888	14168.36
790.221	14102.6
790.554	14059.21
790.887	14158.41
791.219	14025.76
791.552	14084.97
791.884	13988.47
792.217	13995.25
792.549	13990.06
792.882	13814.47
793.214	13983.5
793.546	13959.1
793.879	13838.2
794.211	13790.74
794.543	13792.09
794.875	13835.94
795.207	13980.34
795.539	13882.04
795.871	13801.36
796.203	13732.66
796.535	13678.43
796.867	13675.26
797.198	13672.32
797.53	13699.89
797.862	13586
798.193	13660.57
798.525	13589.61
798.856	13647.92
799.188	13475.27
799.519	13489.5
799.85	13511.88
800.182	13538.99
800.513	13454.93
800.844	13381.94
801.175	13547.36
801.506	13471.43
801.837	13403.63
802.168	13336.97
802.499	13313.69
802.83	13302.62
803.161	13302.39
803.491	13323.41
803.822	13295.61
804.153	13231.21
804.483	13144.2
804.814	13124.32
805.145	13145.56
805.475	13175.16
805.805	13175.61
806.136	13177.87
806.466	13097.42
806.796	13065.11
807.126	12980.36
807.457	12971.33
807.787	13035.73
808.117	12901.95
808.447	13000.93
808.777	12952.57
809.107	12957.77
809.436	12892.01
809.766	12905.34
810.096	12820.6
810.426	12747.83
810.755	12848.62
811.085	12750.54
811.414	12773.14
811.744	12714.84
812.073	12768.39
812.403	12636.65
812.732	12669.64
813.061	12690.88
813.39	12583.77
813.719	12544.67
814.049	12701.28
814.378	12604.33
814.707	12571.34
815.036	12513.48
815.365	12571.11
815.693	12336.09
816.022	12478.23
816.351	12316.2
816.68	12329.53
817.008	12354.62
817.337	12234.4
817.665	12200.72
817.994	12327.05
818.322	12340.38
818.651	12261.74
818.979	12242.76
819.307	12239.82
819.636	12261.74
819.964	12141.06
820.292	12236.66
820.62	12269.88
820.948	12148.52
821.276	12297.45
821.604	12199.59
821.932	12146.49
822.259	12191.46
822.587	12187.39
822.915	12190.56
823.243	12210.22
823.57	12161.86
823.898	12144.91
824.225	12254.28
824.553	12191.69
824.88	12100.39
825.207	12186.71
825.535	12265.13
825.862	12240.95
826.189	12166.6
826.516	12252.47
826.843	12235.98
827.17	12280.72
827.497	12301.06
827.824	12280.27
828.151	12251.57
828.478	12263.32
828.805	12256.99
829.131	12267.84
829.458	12198.24
829.785	12161.4
830.111	12384
830.438	12286.37
830.764	12255.19
831.09	12318.24
831.417	12283.21
831.743	12283.89
832.069	12304.9
832.395	12289.08
832.722	12293.6
833.048	12218.8
833.374	12245.69
833.7	12217
834.026	12205.24
834.351	12218.58
834.677	12233.04
835.003	12258.58
835.329	12295.41
835.654	12166.6
835.98	12238.46
836.306	12226.03
836.631	12110.78
836.956	12238.92
837.282	12169.99
837.607	12137.45
837.932	12241.63
838.258	12137.22
838.583	12138.35
838.908	12057.23
839.233	12026.04
839.558	12011.35
839.883	12049.09
840.208	11968.64
840.533	12023.55
840.858	11938.36
841.182	12015.87
841.507	11954.4
841.832	11850.68
842.156	11838.25
842.481	11973.39
842.805	11829.66
843.13	11881.86
843.454	11760.74
843.778	11830.79
844.103	11759.15
844.427	11810.23
844.751	11766.39
845.075	11720.74
845.399	11692.49
845.723	11674.64
846.047	11609.1
846.371	11611.81
846.695	11563.9
847.019	11496.11
847.343	11479.39
847.666	11459.5
847.99	11363.68
848.313	11344.48
848.637	11271.94
848.96	11315.32
849.284	11247.53
849.607	11140.41
849.931	11131.6
850.254	11051.6
850.577	10995.56
850.9	10947.2
851.223	10961.66
851.546	10988.78
851.869	10849.12
852.192	10917.14
852.515	10815.68
852.838	10720.99
853.161	10780.2
853.483	10732.97
853.806	10602.12
854.129	10645.51
854.451	10589.92
854.774	10582.24
855.096	10527.1
855.419	10476.25
855.741	10473.76
856.063	10401.45
856.385	10342.47
856.708	10362.58
857.03	10337.04
857.352	10355.58
857.674	10283.71
857.996	10198.97
858.318	10132.98
858.64	10229.25
858.961	10186.31
859.283	10084.4
859.605	10039.43
859.926	10104.28
860.248	10083.27
860.57	10067.45
860.891	10075.58
861.212	9988.81
861.534	9994.91
861.855	9979.77
862.176	9968.47
862.498	10004.85
862.819	9972.53
863.14	9953.1
863.461	9871.29
863.782	9844.18
864.103	9899.54
864.424	9794.01
864.745	9815.48
865.065	9781.58
865.386	9696.61
865.707	9745.87
866.027	9844.63
866.348	9761.69
866.668	9810.73
866.989	9640.11
867.309	9677.17
867.63	9692.32
867.95	9655.93
868.27	9652.54
868.59	9617.52
868.91	9652.09
869.23	9611.87
869.55	9544.07
869.87	9594.24
870.19	9520.57
870.51	9554.24
870.83	9601.02
871.15	9441.25
871.469	9510.63
871.789	9537.07
872.109	9506.56
872.428	9475.6
872.748	9462.27
873.067	9468.37
873.386	9397.18
873.706	9421.81
874.025	9402.83
874.344	9319.9
874.663	9391.31
874.982	9340.69
875.301	9346.79
875.62	9347.69
875.939	9271.31
876.258	9328.03
876.577	9252.33
876.896	9277.86
877.214	9157.64
877.533	9326
877.852	9205.1
878.17	9241.93
878.489	9213.46
878.807	9180.92
879.125	9175.04
879.444	9172.78
879.762	9198.54
880.08	9220.69
880.398	9058.89
880.716	9109.05
881.034	9034.71
881.352	9130.07
881.67	9047.59
881.988	9064.31
882.306	9059.34
882.624	9004.65
882.941	8998.77
883.259	8952.67
883.577	8962.84
883.894	8893.47
884.212	8853.02
884.529	8856.18
884.846	8879.68
885.164	8842.39
885.481	8820.47
885.798	8844.2
886.115	8798.78
886.432	8733.7
886.75	8747.71
887.067	8739.12
887.383	8748.16
887.7	8678.56
888.017	8675.62
888.334	8676.07
888.651	8612.12
888.967	8632.68
889.284	8614.15
889.6	8558.33
889.917	8525.34
890.233	8457.55
890.55	8523.31
890.866	8461.61
891.182	8534.61
891.498	8405.57
891.815	8439.24
892.131	8395.85
892.447	8373.48
892.763	8312.24
893.079	8361.5
893.395	8289.87
893.71	8267.49
894.026	8265.01
894.342	8279.92
894.657	8093.26
894.973	8188.4
895.289	8162.19
895.604	8111.79
895.92	8081.51
896.235	8051.68
896.55	8052.13
896.865	7966.49
897.181	8014.85
897.496	7929.42
897.811	7872.25
898.126	7925.36
898.441	7849.43
898.756	7878.35
899.071	7756.55
899.386	7824.79
899.7	7732.14
900.015	7675.65
900.33	7582.09
900.644	7648.98
900.959	7644.69
901.273	7600.62
901.588	7552.94
901.902	7561.52
902.216	7563.33
902.531	7501.19
902.845	7530.79
903.159	7461.19
903.473	7351.13
903.787	7448.53
904.101	7330.57
904.415	7362.66
904.729	7394.75
905.042	7263.45
905.356	7271.59
905.67	7261.87
905.984	7261.42
906.297	7223.91
906.611	7142.55
906.924	7117.92
907.237	7119.28
907.551	7151.37
907.864	7086.51
908.177	7062.78
908.491	7082.89
908.804	6957.47
909.117	6957.7
909.43	6898.49
909.743	6915.44
910.056	6927.64
910.368	6898.72
910.681	6785.27
910.994	6785.73
911.307	6786.86
911.619	6732.39
911.932	6728.1
912.244	6648.1
912.557	6655.11
912.869	6698.72
913.181	6583.02
913.494	6495.56
913.806	6507.09
914.118	6495.79
914.43	6527.43
914.742	6436.13
915.054	6508.67
915.366	6474.1
915.678	6370.6
915.99	6381.44
916.302	6358.17
916.613	6337.83
916.925	6309.13
917.236	6286.98
917.548	6194.55
917.859	6232.97
918.171	6191.62
918.482	6178.28
918.794	6171.73
919.105	6150.26
919.416	6047.21
919.727	6089.7
920.038	6063.94
920.349	6011.51
920.66	5970.38
920.971	5993.88
921.282	5970.61
921.593	5906.2
921.903	5861.68
922.214	5857.84
922.525	5836.6
922.835	5852.64
923.146	5765.87
923.456	5738.75
923.767	5745.3
924.077	5704.85
924.387	5703.72
924.697	5656.04
925.008	5611.07
925.318	5602.93
925.628	5609.94
925.938	5585.98
926.248	5540.11
926.558	5534.46
926.867	5517.51
927.177	5482.71
927.487	5461.01
927.796	5416.27
928.106	5401.58
928.416	5390.51
928.725	5371.75
929.034	5298.53
929.344	5349.38
929.653	5306.89
929.962	5295.82
930.271	5280
930.581	5247.46
930.89	5193.45
931.199	5181.47
931.508	5187.8
931.817	5168.82
932.125	5149.16
932.434	5099.44
932.743	5075.71
933.051	5063.74
933.36	5061.93
933.669	4968.6
933.977	4990.52
934.286	4934.25
934.594	4974.25
934.902	4894.02
935.21	4912.78
935.519	4900.35
935.827	4915.49
936.135	4815.16
936.443	4832.56
936.751	4744.2
937.059	4811.31
937.367	4783.74
937.674	4766.12
937.982	4755.95
938.29	4735.61
938.597	4734.93
938.905	4691.09
939.213	4665.33
939.52	4591.88
939.827	4628.04
940.135	4588.72
940.442	4566.57
940.749	4557.99
941.056	4575.84
941.363	4519.34
941.67	4499.91
941.977	4490.42
942.284	4456.07
942.591	4472.34
942.898	4459.46
943.205	4407.93
943.511	4431.44
943.818	4386.47
944.125	4317.54
944.431	4341.27
944.738	4304.21
945.044	4338.56
945.35	4314.83
945.657	4263.53
945.963	4250.88
946.269	4245
946.575	4161.84
946.881	4212.91
947.187	4171.11
947.493	4138.11
947.799	4124.33
948.105	4106.25
948.41	4045.23
948.716	4087.04
949.022	4110.09
949.327	4064.89
949.633	4036.65
949.938	4031.22
950.244	4037.55
950.549	3921.85
950.854	3960.04
951.16	3949.42
951.465	3941.96
951.77	3950.77
952.075	3911.45
952.38	3914.84
952.685	3834.39
952.99	3864.45
953.294	3844.33
953.599	3817.67
953.904	3814.73
954.209	3805.69
954.513	3796.43
954.818	3756.88
955.122	3794.84
955.426	3729.31
955.731	3727.05
956.035	3680.95
956.339	3730.66
956.643	3684.11
956.948	3672.81
957.252	3640.05
957.556	3588.3
957.86	3580.39
958.163	3603.66
958.467	3560.27
958.771	3554.17
959.075	3590.33
959.378	3508.75
959.682	3506.72
959.985	3463.33
960.289	3440.73
960.592	3441.63
960.896	3431.01
961.199	3426.27
961.502	3421.75
961.805	3416.77
962.108	3369.54
962.411	3373.84
962.714	3368.87
963.017	3358.92
963.32	3345.82
963.623	3277.57
963.926	3292.26
964.228	3274.41
964.531	3256.1
964.833	3251.58
965.136	3219.72
965.438	3225.14
965.741	3232.15
966.043	3274.86
966.345	3174.97
966.648	3171.36
966.95	3181.07
967.252	3166.39
967.554	3145.37
967.856	3136.1
968.158	3088.2
968.46	3076.22
968.761	3060.4
969.063	3077.35
969.365	3035.77
969.666	3060.85
969.968	3004.58
970.269	2988.31
970.571	3007.97
970.872	3026.73
971.174	2956
971.475	2914.19
971.776	2950.8
972.077	2933.4
972.378	2935.43
972.679	2937.24
972.98	2911.93
973.281	2901.31
973.582	2917.13
973.883	2869.9
974.183	2867.41
974.484	2867.41
974.785	2812.95
975.085	2801.2
975.386	2830.35
975.686	2784.02
975.986	2750.35
976.287	2767.3
976.587	2760.07
976.887	2730.69
977.187	2748.32
977.487	2743.35
977.787	2712.39
978.087	2706.06
978.387	2713.97
978.687	2691.37
978.987	2692.27
979.286	2647.53
979.586	2643.69
979.885	2630.58
980.185	2646.85
980.484	2566.63
980.784	2576.12
981.083	2547.19
981.382	2587.42
981.682	2573.63
981.981	2562.11
982.28	2545.84
982.579	2513.07
982.878	2516.23
983.177	2489.79
983.475	2504.03
983.774	2496.57
984.073	2504.71
984.372	2453.86
984.67	2434.88
984.969	2443.69
985.267	2444.37
985.566	2390.13
985.864	2427.42
986.162	2424.48
986.461	2376.58
986.759	2378.38
987.057	2361.66
987.355	2357.59
987.653	2363.47
987.951	2324.83
988.249	2335.45
988.547	2316.24
988.844	2329.35
989.142	2271.49
989.44	2309.23
989.737	2265.62
990.035	2278.27
990.332	2275.34
990.63	2255.22
990.927	2229.01
991.224	2212.06
991.521	2196.92
991.819	2215.9
992.116	2195.11
992.413	2173.42
992.71	2162.12
993.006	2191.04
993.303	2182.68
993.6	2110.59
993.897	2120.99
994.193	2120.54
994.49	2109.46
994.787	2101.55
995.083	2075.57
995.379	2105.17
995.676	2070.14
995.972	2071.05
996.268	2037.38
996.565	2035.12
996.861	2016.59
997.157	2008.45
997.453	1998.05
997.749	2002.57
998.044	1989.47
998.34	1988.11
998.636	1954.89
998.932	1954.21
999.227	1980.88
999.523	1967.32
999.818	1950.37
1000.114	1907.66
1000.409	1917.6
1000.704	1892.97
1001	1898.4
1001.295	1875.12
1001.59	1929.58
1001.885	1889.36
1002.18	1835.57
1002.475	1842.58
1002.77	1861.56
1003.065	1807.1
1003.359	1793.54
1003.654	1780.21
1003.949	1819.08
1004.243	1775.69
1004.538	1768
1004.832	1755.35
1005.127	1772.75
1005.421	1755.35
1005.715	1755.35
1006.009	1763.26
1006.304	1700.44
1006.598	1711.06
1006.892	1698.85
1007.186	1702.02
1007.48	1684.62
1007.773	1672.64
1008.067	1697.95
1008.361	1659.53
1008.655	1659.76
1008.948	1642.58
1009.242	1622.7
1009.535	1622.92
1009.829	1636.26
1010.122	1588.57
1010.415	1587.44
1010.708	1568.91
1011.001	1570.5
1011.295	1566.88
1011.588	1548.12
1011.881	1563.26
1012.173	1545.19
1012.466	1550.61
1012.759	1539.99
1013.052	1551.51
1013.344	1495.7
1013.637	1496.15
1013.93	1492.08
1014.222	1455.7
1014.514	1485.07
1014.807	1452.31
1015.099	1475.36
1015.391	1438.3
1015.683	1452.76
1015.976	1422.02
1016.268	1439.43
1016.56	1392.2
1016.851	1426.09
1017.143	1394.68
1017.435	1394.23
1017.727	1384.51
1018.018	1355.36
1018.31	1367.11
1018.602	1383.38
1018.893	1337.06
1019.185	1347.9
1019.476	1330.95
1019.767	1328.47
1020.058	1320.56
1020.35	1302.71
1020.641	1316.26
1020.932	1341.12
1021.223	1284.85
1021.514	1234.46
1021.804	1265.19
1022.095	1264.06
1022.386	1229.71
1022.677	1256.15
1022.967	1206.66
1023.258	1230.17
1023.548	1233.78
1023.839	1197.85
1024.129	1173.67
1024.419	1207.57
1024.709	1178.64
1025	1167.57
1025.29	1160.34
1025.58	1163.05
1025.87	1144.74
1026.16	1141.58
1026.449	1145.87
1026.739	1141.81
1027.029	1137.96
1027.319	1117.4
1027.608	1118.76
1027.898	1109.49
1028.187	1107.68
1028.477	1114.91
1028.766	1095.25
1029.055	1088.7
1029.344	1063.39
1029.634	1066.1
1029.923	1058.19
1030.212	1052.77
1030.501	1024.07
1030.79	1043.5
1031.078	1024.3
1031.367	1012.09
1031.656	1034.69
1031.945	1009.38
1032.233	1009.83
1032.522	1001.7
1032.81	1004.63
1033.099	969.16
1033.387	972.09
1033.675	990.17
1033.963	988.36
1034.251	979.78
1034.54	959.66
1034.828	950.17
1035.116	934.81
1035.403	926.9
1035.691	929.16
1035.979	950.62
1036.267	917.18
1036.554	918.99
1036.842	919.67
1037.129	921.7
1037.417	892.1
1037.704	902.72
1037.992	896.39
1038.279	882.15
1038.566	871.3
1038.853	871.3
1039.14	871.3
