Data from blue_surface_keyboard_FLMS001491_056.txt Node
Date: Tue Feb 07 11:13:20 GMT 2017
User: dcchb
Spectrometer: FLMS00149
Trigger mode: 0
Integration Time (sec): 2.000000E-2
Scans to average: 10
Electric dark correction enabled: true
Nonlinearity correction enabled: false
Boxcar width: 0
XAxis mode: Wavelengths
Number of Pixels in Spectrum: 2048
>>>>>Begin Spectral Data<<<<<
341.393	-10.28
341.776	-10.28
342.16	-10.28
342.543	-63.16
342.927	-65.2
343.31	-49.6
343.693	-70.62
344.077	-70.17
344.46	-52.32
344.843	-58.42
345.226	-41.92
345.61	-31.52
345.993	-10.51
346.376	-2.37
346.759	12.32
347.142	20.68
347.525	37.63
347.908	54.12
348.291	67.68
348.674	87.79
349.057	107.23
349.44	123.05
349.823	143.16
350.206	154.91
350.588	165.53
350.971	183.61
351.354	213.67
351.737	230.84
352.119	238.52
352.502	235.14
352.884	269.48
353.267	263.16
353.65	285.98
354.032	283.04
354.414	274
354.797	307.22
355.179	316.94
355.562	295.7
355.944	301.35
356.326	297.28
356.709	318.3
357.091	306.55
357.473	310.39
357.855	308.13
358.238	305.42
358.62	334.79
359.002	309.26
359.384	301.8
359.766	305.64
360.148	304.51
360.53	316.71
360.912	290.05
361.294	298.18
361.676	320.33
362.057	271.07
362.439	302.93
362.821	310.61
363.203	283.04
363.584	298.41
363.966	308.81
364.348	301.12
364.729	298.18
365.111	307.45
365.493	280.11
365.874	294.34
366.256	280.11
366.637	296.38
367.019	279.88
367.4	283.72
367.781	292.99
368.163	281.46
368.544	285.08
368.925	295.25
369.306	277.85
369.688	296.15
370.069	292.53
370.45	286.66
370.831	309.03
371.212	281.46
371.593	276.49
371.974	260.9
372.355	278.52
372.736	291.18
373.117	276.94
373.498	280.78
373.879	293.21
374.26	285.08
374.641	284.63
375.021	287.11
375.402	290.27
375.783	299.31
376.163	285.08
376.544	293.66
376.925	292.53
377.305	285.3
377.686	299.31
378.066	295.92
378.447	321.46
378.827	293.66
379.208	273.78
379.588	299.09
379.968	292.31
380.349	283.72
380.729	301.35
381.109	297.73
381.489	294.57
381.87	300.22
382.25	310.39
382.63	294.34
383.01	309.03
383.39	303.61
383.77	301.8
384.15	312.2
384.53	310.84
384.91	307.22
385.29	318.3
385.67	294.12
386.049	310.39
386.429	299.54
386.809	316.94
387.189	314
387.568	297.05
387.948	305.42
388.328	308.35
388.707	311.97
389.087	296.15
389.466	324.17
389.846	308.35
390.225	314.46
390.605	317.84
390.984	309.48
391.363	310.84
391.743	347.67
392.122	332.99
392.501	330.95
392.881	344.51
393.26	322.36
393.639	317.17
394.018	327.34
394.397	323.27
394.776	314
395.155	322.14
395.534	324.62
395.913	309.48
396.292	333.89
396.671	326.66
397.05	330.05
397.429	339.31
397.808	333.21
398.186	334.57
398.565	353.32
398.944	343.15
399.323	329.82
399.701	323.27
400.08	346.77
400.458	349.48
400.837	333.44
401.215	327.34
401.594	339.31
401.972	346.09
402.351	339.54
402.729	334.57
403.107	342.7
403.486	351.06
403.864	351.74
404.242	355.81
404.62	354.91
404.999	361.91
405.377	363.72
405.755	338.64
406.133	360.1
406.511	359.43
406.889	353.55
407.267	370.72
407.645	356.04
408.023	348.8
408.401	354.45
408.779	342.02
409.156	376.37
409.534	366.66
409.912	380.44
410.29	368.46
410.667	374.34
411.045	350.61
411.422	357.84
411.8	360.56
412.178	386.09
412.555	368.46
412.933	385.41
413.31	379.54
413.687	396.71
414.065	387.9
414.442	380.22
414.819	398.07
415.197	382.02
415.574	365.98
415.951	396.26
416.328	390.84
416.705	391.06
417.082	380.67
417.46	364.4
417.837	382.48
418.214	387
418.591	380.44
418.967	395.13
419.344	395.13
419.721	394
420.098	378.63
420.475	381.8
420.852	429.25
421.228	399.2
421.605	379.09
421.982	396.26
422.358	389.48
422.735	401.23
423.111	396.94
423.488	410.95
423.864	417.96
424.241	438.07
424.617	402.59
424.994	414.34
425.37	421.12
425.746	429.71
426.123	433.55
426.499	440.33
426.875	432.42
427.251	432.19
427.627	424.51
428.003	433.1
428.379	456.82
428.756	427.45
429.132	448.01
429.507	457.28
429.883	428.58
430.259	452.53
430.635	456.37
431.011	452.98
431.387	450.04
431.763	438.75
432.138	457.05
432.514	465.64
432.89	471.74
433.265	472.42
433.641	468.58
434.016	472.42
434.392	470.38
434.767	457.28
435.143	493.66
435.518	470.61
435.894	487.33
436.269	487.11
436.644	498.86
437.02	499.76
437.395	491.85
437.77	469.71
438.145	492.08
438.52	515.35
438.895	513.09
439.271	511.74
439.646	511.51
440.021	513.55
440.395	513.09
440.77	521.91
441.145	525.3
441.52	506.77
441.895	500.21
442.27	516.48
442.645	505.64
443.019	515.81
443.394	521.68
443.769	525.52
444.143	537.27
444.518	530.49
444.892	521.91
445.267	550.38
445.641	525.07
446.016	554
446.39	546.09
446.764	543.83
447.139	533.43
447.513	548.12
447.887	546.77
448.262	554.22
448.636	529.82
449.01	548.8
449.384	546.99
449.758	580.44
450.132	563.26
450.506	534.11
450.88	572.53
451.254	544.96
451.628	570.72
452.002	574.56
452.376	591.06
452.75	586.99
453.123	581.79
453.497	588.12
453.871	579.53
454.244	597.61
454.618	603.71
454.992	606.88
455.365	606.88
455.739	605.97
456.112	624.05
456.486	616.14
456.859	607.78
457.232	619.53
457.606	621.11
457.979	626.54
458.352	649.59
458.725	632.19
459.099	650.27
459.472	626.31
459.845	641
460.218	647.55
460.591	646.42
460.964	654.56
461.337	660.43
461.71	663.82
462.083	682.35
462.456	667.67
462.829	665.63
463.201	673.32
463.574	681
463.947	713.77
464.32	692.07
464.692	697.72
465.065	705.63
465.438	715.57
465.81	722.35
466.183	726.2
466.555	699.53
466.928	726.2
467.3	724.39
467.672	730.72
468.045	745.18
468.417	752.18
468.789	741.11
469.161	758.96
469.534	772.3
469.906	767.32
470.278	787.66
470.65	800.09
471.022	791.5
471.394	797.83
471.766	789.47
472.138	819.75
472.51	795.8
472.882	843.93
473.253	826.31
473.625	822.69
473.997	818.4
474.369	858.62
474.74	846.87
475.112	857.72
475.484	875.12
475.855	893.65
476.227	883.71
476.598	895.68
476.97	905.4
477.341	935.91
477.713	916.02
478.084	933.42
478.455	944.04
478.827	953.53
479.198	952.63
479.569	949.01
479.94	969.35
480.311	966.19
480.682	1003.25
481.053	999.63
481.424	1016.81
481.795	1015.45
482.166	1034.89
482.537	1026.3
482.908	1056.13
483.279	1053.64
483.65	1059.29
484.021	1085.06
484.391	1056.13
484.762	1119.41
485.133	1130.93
485.503	1123.02
485.874	1119.18
486.244	1112.4
486.615	1135
486.985	1126.41
487.356	1127.09
487.726	1182.91
488.097	1161.66
488.467	1177.94
488.837	1195.56
489.207	1231.72
489.578	1243.02
489.948	1231.72
490.318	1238.95
490.688	1240.76
491.058	1238.05
491.428	1232.4
491.798	1263.36
492.168	1262.9
492.538	1279.85
492.908	1261.55
493.278	1323.24
493.648	1279.63
494.017	1276.24
494.387	1285.95
494.757	1291.6
495.126	1322.56
495.496	1310.14
495.866	1334.32
496.235	1304.94
496.605	1334.09
496.974	1331.15
497.344	1353.3
497.713	1336.58
498.082	1334.32
498.452	1354.2
498.821	1337.48
499.19	1321.66
499.559	1367.08
499.928	1337.93
500.298	1379.06
500.667	1373.64
501.036	1360.53
501.405	1381.09
501.774	1366.18
502.143	1386.97
502.512	1405.5
502.88	1381.55
503.249	1382.9
503.618	1402.79
503.987	1377.93
504.356	1401.21
504.724	1407.08
505.093	1398.49
505.462	1413.41
505.83	1406.4
506.199	1427.42
506.567	1438.27
506.936	1433.3
507.304	1459.96
507.672	1442.56
508.041	1444.14
508.409	1409.34
508.777	1442.11
509.145	1448.21
509.514	1468.32
509.882	1461.54
510.25	1461.54
510.618	1471.71
510.986	1450.92
511.354	1448.21
511.722	1459.51
512.09	1474.88
512.458	1439.85
512.826	1504.03
513.193	1494.09
513.561	1491.6
513.929	1497.7
514.297	1501.54
514.664	1502.45
515.032	1503.12
515.4	1493.41
515.767	1522.56
516.135	1501.09
516.502	1539.06
516.869	1533.18
517.237	1529.11
517.604	1525.27
517.972	1519.62
518.339	1542.9
518.706	1551.48
519.073	1563.69
519.44	1502.22
519.808	1522.33
520.175	1520.98
520.542	1521.2
520.909	1539.73
521.276	1548.32
521.643	1534.31
522.009	1563.46
522.376	1536.12
522.743	1599.17
523.11	1569.34
523.477	1565.72
523.843	1584.03
524.21	1579.05
524.577	1598.72
524.943	1611.14
525.31	1605.95
525.676	1620.18
526.043	1598.72
526.409	1586.29
526.776	1606.85
527.142	1621.09
527.508	1624.03
527.874	1616.12
528.241	1616.12
528.607	1637.58
528.973	1661.31
529.339	1604.36
529.705	1652.5
530.071	1644.59
530.437	1652.95
530.803	1641.88
531.169	1652.5
531.535	1664.48
531.901	1670.8
532.267	1658.6
532.632	1660.63
532.998	1653.4
533.364	1655.89
533.73	1662.67
534.095	1662.67
534.461	1673.97
534.826	1645.49
535.192	1685.27
535.557	1666.28
535.923	1693.4
536.288	1649.79
536.653	1695.89
537.019	1646.17
537.384	1663.8
537.749	1698.6
538.114	1704.93
538.479	1684.36
538.845	1703.8
539.21	1673.52
539.575	1669
539.94	1695.44
540.305	1667.19
540.67	1710.12
541.034	1698.37
541.399	1673.74
541.764	1697.47
542.129	1716
542.494	1677.36
542.858	1693.18
543.223	1686.85
543.587	1703.57
543.952	1691.82
544.316	1703.35
544.681	1741.31
545.045	1728.66
545.41	1703.57
545.774	1704.02
546.138	1688.66
546.503	1727.3
546.867	1721.88
547.231	1747.19
547.595	1709.45
547.959	1694.31
548.324	1725.72
548.688	1714.87
549.052	1681.2
549.416	1701.09
549.779	1748.77
550.143	1721.2
550.507	1724.36
550.871	1701.99
551.235	1704.7
551.599	1737.47
551.962	1738.82
552.326	1715.55
552.689	1752.61
553.053	1723.23
553.417	1713.29
553.78	1717.36
554.143	1735.89
554.507	1744.02
554.87	1736.34
555.234	1752.16
555.597	1745.83
555.96	1734.3
556.323	1713.74
556.686	1750.12
557.05	1750.58
557.413	1752.16
557.776	1727.98
558.139	1771.14
558.502	1736.79
558.865	1744.93
559.228	1758.94
559.59	1777.24
559.953	1776.11
560.316	1772.72
560.679	1767.98
561.041	1800.52
561.404	1781.31
561.767	1760.97
562.129	1789.9
562.492	1797.58
562.854	1754.64
563.217	1788.99
563.579	1793.51
563.941	1797.81
564.304	1796.22
564.666	1806.39
565.028	1826.96
565.39	1802.1
565.753	1815.66
566.115	1809.1
566.477	1834.19
566.839	1828.54
567.201	1836.9
567.563	1852.04
567.925	1858.14
568.287	1861.98
568.648	1831.25
569.01	1865.37
569.372	1832.83
569.734	1832.16
570.095	1835.77
570.457	1891.14
570.819	1850.91
571.18	1877.13
571.542	1860.86
571.903	1878.26
572.265	1857.24
572.626	1886.84
572.987	1877.8
573.349	1875.32
573.71	1871.93
574.071	1892.72
574.432	1880.29
574.794	1892.27
575.155	1901.76
575.516	1866.96
575.877	1880.97
576.238	1884.58
576.599	1896.11
576.96	1917.35
577.32	1894.98
577.681	1907.86
578.042	1922.55
578.403	1910.12
578.763	1907.18
579.124	1901.31
579.485	1915.09
579.845	1915.32
580.206	1905.15
580.566	1924.36
580.927	1930.46
581.287	1931.36
581.648	1943.11
582.008	1889.78
582.368	1913.73
582.728	1916.9
583.089	1897.46
583.449	1969.55
583.809	1930.01
584.169	1937.69
584.529	1941.08
584.889	1934.75
585.249	1910.57
585.609	1910.12
585.969	1942.89
586.329	1916.67
586.688	1929.78
587.048	1926.39
587.408	1916.9
587.768	1938.14
588.127	1949.21
588.487	1913.96
588.846	1908.54
589.206	1911.02
589.565	1933.4
589.925	1950.34
590.284	1920.97
590.643	1888.88
591.003	1902.89
591.362	1942.89
591.721	1938.14
592.08	1938.59
592.44	1937.69
592.799	1941.08
593.158	1942.21
593.517	1948.76
593.876	1930.91
594.235	1953.28
594.593	1939.27
594.952	1962.77
595.311	1909.89
595.67	1975.88
596.029	1946.5
596.387	1959.16
596.746	1965.49
597.104	1961.87
597.463	1939.5
597.822	1973.17
598.18	1944.92
598.538	1948.76
598.897	1971.13
599.255	1939.72
599.613	1974.75
599.972	1968.87
600.33	1958.25
600.688	1941.98
601.046	1967.52
601.404	1954.19
601.762	1973.17
602.12	1995.31
602.478	2024.01
602.836	1998.93
603.194	1971.13
603.552	1967.97
603.91	1967.97
604.268	1995.99
604.625	2007.29
604.983	2024.47
605.341	1999.83
605.698	2005.48
606.056	2021.98
606.413	2001.19
606.771	2007.52
607.128	2013.85
607.485	2038.7
607.843	2024.47
608.2	2018.14
608.557	2027.4
608.914	1983.79
609.272	2042.55
609.629	2028.53
609.986	2033.73
610.343	2037.8
610.7	2050.68
611.057	2036.44
611.414	2058.82
611.771	2050.91
612.127	2014.98
612.484	2030.34
612.841	2049.78
613.198	2031.02
613.554	2050.23
613.911	2070.79
614.267	2074.18
614.624	2085.26
614.98	2090.91
615.337	2109.89
615.693	2096.56
616.05	2094.3
616.406	2072.37
616.762	2105.82
617.118	2107.63
617.475	2097.91
617.831	2106.5
618.187	2081.19
618.543	2110.79
618.899	2109.89
619.255	2122.32
619.611	2102.43
619.967	2120.96
620.323	2153.73
620.678	2138.59
621.034	2112.83
621.39	2093.17
621.746	2132.26
622.101	2140.85
622.457	2157.12
622.812	2115.54
623.168	2114.41
623.523	2102.66
623.879	2139.04
624.234	2170
624.589	2151.69
624.945	2135.88
625.3	2163.9
625.655	2168.42
626.01	2146.72
626.365	2179.72
626.72	2164.8
627.075	2142.43
627.43	2172.49
627.785	2165.71
628.14	2179.72
628.495	2196.21
628.85	2179.04
629.205	2156.89
629.559	2197.57
629.914	2203.9
630.269	2209.55
630.623	2212.94
630.978	2216.78
631.332	2203.22
631.687	2208.87
632.041	2206.16
632.396	2230.79
632.75	2245.03
633.104	2214.52
633.459	2232.37
633.813	2246.83
634.167	2227.4
634.521	2207.96
634.875	2266.49
635.229	2274.86
635.583	2246.38
635.937	2244.35
636.291	2251.58
636.645	2261.97
636.999	2266.04
637.352	2266.27
637.706	2224.69
638.06	2266.04
638.413	2262.2
638.767	2277.79
639.121	2283.89
639.474	2309.2
639.828	2290.9
640.181	2282.99
640.534	2327.74
640.888	2287.28
641.241	2315.76
641.594	2317.34
641.947	2353.72
642.301	2342.2
642.654	2337.9
643.007	2358.02
643.36	2370.22
643.713	2334.97
644.066	2347.4
644.419	2359.15
644.771	2339.94
645.124	2352.82
645.477	2336.55
645.83	2366.6
646.182	2337.23
646.535	2310.79
646.888	2374.51
647.24	2341.75
647.593	2345.36
647.945	2363.89
648.298	2362.54
648.65	2373.84
649.002	2405.25
649.355	2404.57
649.707	2418.13
650.059	2441.86
650.411	2457.68
650.763	2467.62
651.115	2474.62
651.467	2492.02
651.819	2523.21
652.171	2547.62
652.523	2513.04
652.875	2518.01
653.227	2540.16
653.578	2557.79
653.93	2581.06
654.282	2577.67
654.633	2594.17
654.985	2573.6
655.337	2595.98
655.688	2617.67
656.039	2644.56
656.391	2611.57
656.742	2579.71
657.094	2663.55
657.445	2647.73
657.796	2684.79
658.147	2678.69
658.498	2732.47
658.849	2735.63
659.2	2738.12
659.551	2716.88
659.902	2765.01
660.253	2765.46
660.604	2762.75
660.955	2760.94
661.306	2838.91
661.656	2815.63
662.007	2801.85
662.358	2807.5
662.708	2843.2
663.059	2857.21
663.409	2871.9
663.76	2872.35
664.11	2882.52
664.461	2892.69
664.811	2918
665.161	2945.57
665.511	2954.84
665.862	2979.7
666.212	2971.11
666.562	2970.66
666.912	3034.38
667.262	3011.33
667.612	3019.24
667.962	3015.85
668.312	3023.54
668.662	3096.08
669.011	3071.9
669.361	3122.74
669.711	3091.78
670.06	3115.29
670.41	3113.7
670.76	3104.44
671.109	3146.02
671.459	3182.63
671.808	3144.89
672.157	3200.93
672.507	3191.89
672.856	3200.25
673.205	3221.95
673.554	3220.59
673.904	3222.85
674.253	3285
674.602	3270.08
674.951	3231.67
675.3	3280.7
675.649	3298.56
675.998	3298.56
676.346	3343.75
676.695	3361.38
677.044	3349.4
677.393	3352.12
677.741	3359.12
678.09	3369.06
678.438	3373.58
678.787	3413.81
679.135	3406.8
679.484	3440.7
679.832	3461.49
680.181	3461.94
680.529	3425.79
680.877	3479.12
681.225	3494.94
681.573	3486.57
681.922	3481.38
682.27	3474.15
682.618	3513.47
682.966	3545.1
683.314	3537.2
683.661	3545.33
684.009	3524.77
684.357	3525.44
684.705	3525.22
685.053	3574.93
685.4	3593.24
685.748	3584.43
686.095	3581.71
686.443	3570.19
686.79	3602.05
687.138	3602.96
687.485	3607.48
687.832	3599.57
688.18	3664.65
688.527	3633.92
688.874	3603.63
689.221	3659
689.568	3625.33
689.915	3647.02
690.262	3640.92
690.609	3651.99
690.956	3624.2
691.303	3614.26
691.65	3653.8
691.997	3644.76
692.344	3653.58
692.69	3628.49
693.037	3643.41
693.383	3646.12
693.73	3671.43
694.077	3654.25
694.423	3682.28
694.769	3675.5
695.116	3672.56
695.462	3692.45
695.808	3633.24
696.155	3705.55
696.501	3659.23
696.847	3645.89
697.193	3684.99
697.539	3674.14
697.885	3656.51
698.231	3722.5
698.577	3645.44
698.923	3691.77
699.269	3639.79
699.614	3669.85
699.96	3656.51
700.306	3670.07
700.651	3647.47
700.997	3627.81
701.342	3626.23
701.688	3625.78
702.033	3640.24
702.379	3618.55
702.724	3622.39
703.069	3629.62
703.415	3581.71
703.76	3619
704.105	3621.94
704.45	3609.51
704.795	3592.11
705.14	3625.33
705.485	3606.57
705.83	3590.53
706.175	3594.82
706.52	3600.92
706.865	3583.3
707.209	3569.28
707.554	3601.83
707.899	3586.91
708.243	3563.64
708.588	3547.36
708.932	3559.34
709.277	3516.4
709.621	3557.76
709.966	3553.92
710.31	3535.16
710.654	3546.46
710.998	3546.01
711.342	3559.12
711.687	3527.25
712.031	3532.45
712.375	3526.12
712.719	3568.15
713.063	3526.12
713.407	3593.01
713.75	3504.88
714.094	3517.08
714.438	3519.57
714.782	3507.14
715.125	3496.97
715.469	3532.22
715.812	3536.52
716.156	3469.63
716.499	3497.42
716.843	3535.16
717.186	3494.71
717.53	3538.1
717.873	3526.57
718.216	3533.58
718.559	3525.22
718.902	3472.11
719.246	3503.07
719.589	3519.12
719.932	3518.21
720.275	3518.44
720.617	3502.39
720.96	3519.57
721.303	3516.4
721.646	3489.74
721.989	3491.77
722.331	3517.31
722.674	3521.6
723.016	3532.22
723.359	3539.45
723.701	3489.96
724.044	3523.18
724.386	3507.82
724.729	3505.78
725.071	3513.69
725.413	3510.98
725.755	3562.96
726.097	3487.25
726.439	3529.74
726.782	3540.13
727.124	3556.4
727.465	3538.1
727.807	3483.41
728.149	3531.32
728.491	3496.07
728.833	3530.19
729.175	3519.57
729.516	3523.41
729.858	3568.38
730.199	3560.02
730.541	3519.79
730.882	3556.63
731.224	3534.03
731.565	3529.06
731.906	3594.14
732.248	3548.04
732.589	3556.63
732.93	3568.83
733.271	3551.43
733.612	3521.6
733.953	3552.79
734.294	3562.73
734.635	3541.71
734.976	3571.77
735.317	3591.21
735.658	3525.67
735.999	3594.14
736.339	3591.66
736.68	3627.14
737.021	3586.23
737.361	3601.15
737.702	3567.25
738.042	3609.06
738.383	3583.75
738.723	3624.65
739.063	3586.69
739.404	3645.21
739.744	3624.88
740.084	3665.55
740.424	3628.49
740.764	3662.62
741.104	3656.29
741.444	3676.17
741.784	3666.91
742.124	3676.17
742.464	3686.8
742.804	3660.58
743.143	3668.94
743.483	3671.2
743.823	3684.54
744.162	3746.68
744.502	3694.71
744.841	3763.18
745.181	3750.3
745.52	3737.64
745.86	3776.06
746.199	3768.6
746.538	3826.68
746.877	3819.22
747.216	3856.06
747.556	3813.12
747.895	3858.99
748.234	3813.57
748.573	3877.75
748.911	3863.74
749.25	3904.42
749.589	3917.75
749.928	3896.73
750.267	3920.91
750.605	4007.24
750.944	3960.91
751.283	4006.79
751.621	4039.78
751.96	4014.02
752.298	4015.83
752.636	4051.53
752.975	4071.87
753.313	4042.72
753.651	4124.52
753.989	4135.6
754.327	4153.45
754.666	4087.01
755.004	4151.42
755.342	4202.04
755.679	4201.58
756.017	4229.61
756.355	4281.81
756.693	4302.37
757.031	4312.09
757.368	4274.35
757.706	4312.09
758.044	4337.17
758.381	4376.95
758.719	4395.48
759.056	4398.64
759.394	4389.83
759.731	4343.05
760.068	4409.49
760.405	4396.38
760.743	4451.3
761.08	4477.96
761.417	4451.07
761.754	4461.92
762.091	4479.09
762.428	4477.74
762.765	4445.87
763.102	4495.14
763.438	4495.81
763.775	4534.91
764.112	4505.76
764.449	4495.59
764.785	4530.39
765.122	4511.86
765.458	4561.57
765.795	4524.29
766.131	4515.93
766.467	4528.36
766.804	4525.87
767.14	4480.45
767.476	4573.1
767.812	4523.61
768.148	4519.99
768.485	4526.77
768.821	4536.94
769.157	4508.24
769.492	4451.75
769.828	4509.37
770.164	4470.28
770.5	4505.08
770.836	4514.34
771.171	4513.44
771.507	4481.13
771.842	4485.64
772.178	4456.49
772.513	4483.38
772.849	4508.92
773.184	4497.4
773.519	4447.91
773.855	4495.14
774.19	4425.53
774.525	4450.39
774.86	4442.93
775.195	4394.12
775.53	4428.7
775.865	4437.28
776.2	4377.63
776.535	4367
776.87	4383.27
777.205	4390.96
777.539	4373.33
777.874	4387.34
778.209	4340.34
778.543	4350.96
778.878	4327.23
779.212	4302.15
779.547	4279.77
779.881	4323.62
780.215	4303.95
780.55	4261.02
780.884	4281.81
781.218	4223.96
781.552	4267.57
781.886	4206.33
782.22	4231.19
782.554	4190.51
782.888	4138.31
783.222	4161.59
783.556	4153.45
783.889	4133.11
784.223	4087.92
784.557	4146.67
784.89	4131.08
785.224	4109.84
785.557	4098.54
785.891	4103.28
786.224	4109.84
786.558	4030.97
786.891	4029.61
787.224	3984.64
787.557	4004.53
787.891	4002.95
788.224	3995.71
788.557	4010.85
788.89	3995.26
789.223	4010.4
789.556	3997.3
789.888	3908.94
790.221	3931.08
790.554	3945.77
790.887	3937.18
791.219	3930.63
791.552	3901.93
791.884	3886.11
792.217	3897.19
792.549	3842.5
792.882	3869.62
793.214	3796.4
793.546	3847.7
793.879	3794.14
794.211	3761.37
794.543	3801.59
794.875	3780.58
795.207	3821.93
795.539	3769.28
795.871	3802.05
796.203	3723.86
796.535	3735.83
796.867	3747.36
797.198	3704.87
797.53	3701.03
797.862	3673.69
798.193	3669.4
798.525	3681.37
798.856	3684.99
799.188	3647.93
799.519	3642.05
799.85	3623.75
800.182	3603.86
800.513	3607.25
800.844	3594.82
801.175	3598.66
801.506	3576.29
801.837	3583.75
802.168	3572.45
802.499	3574.26
802.83	3518.89
803.161	3536.52
803.491	3536.29
803.822	3532.22
804.153	3519.12
804.483	3489.29
804.814	3465.33
805.145	3496.07
805.475	3481.83
805.805	3496.29
806.136	3458.1
806.466	3481.83
806.796	3453.58
807.126	3453.36
807.457	3409.51
807.787	3424.2
808.117	3424.66
808.447	3409.51
808.777	3389.18
809.107	3382.4
809.436	3402.96
809.766	3334.94
810.096	3327.26
810.426	3345.34
810.755	3368.16
811.085	3354.83
811.414	3316.41
811.744	3292.23
812.073	3310.76
812.403	3325.68
812.732	3292.91
813.061	3282.96
813.39	3308.95
813.719	3288.16
814.049	3265.34
814.378	3307.37
814.707	3238.45
815.036	3279.57
815.365	3279.35
815.693	3237.09
816.022	3274.83
816.351	3232.34
816.68	3191.67
817.008	3226.69
817.337	3204.55
817.665	3216.53
817.994	3189.41
818.322	3184.66
818.651	3200.03
818.979	3163.87
819.307	3177.66
819.636	3150.09
819.964	3159.58
820.292	3174.04
820.62	3176.07
820.948	3121.61
821.276	3179.69
821.604	3108.51
821.932	3178.33
822.259	3182.18
822.587	3158
822.915	3129.52
823.243	3117.09
823.57	3142.18
823.898	3102.18
824.225	3135.62
824.553	3139.24
824.88	3146.24
825.207	3108.51
825.535	3116.42
825.862	3170.88
826.189	3153.25
826.516	3177.2
826.843	3156.41
827.17	3156.87
827.497	3177.88
827.824	3129.75
828.151	3108.73
828.478	3160.48
828.805	3156.87
829.131	3101.73
829.458	3064.21
829.785	3117.09
830.111	3137.66
830.438	3129.52
830.764	3144.89
831.09	3158.22
831.417	3116.42
831.743	3113.48
832.069	3157.77
832.395	3127.26
832.722	3108.05
833.048	3105.79
833.374	3112.8
833.7	3106.25
834.026	3115.96
834.351	3101.5
834.677	3127.94
835.003	3138.11
835.329	3151.44
835.654	3124.78
835.98	3092.91
836.306	3108.05
836.631	3085.68
836.956	3143.53
837.282	3041.61
837.607	3056.98
837.932	3076.42
838.258	3121.16
838.583	3102.86
838.908	3076.42
839.233	3082.52
839.558	3052.24
839.883	3049.52
840.208	3057.21
840.533	3047.72
840.858	3072.57
841.182	3069.64
841.507	3046.81
841.832	3008.85
842.156	2992.12
842.481	3035.29
842.805	3037.32
843.13	2982.18
843.454	3001.16
843.778	2990.09
844.103	2997.1
844.427	2979.47
844.751	2992.35
845.075	2975.63
845.399	2924.33
845.723	2929.98
846.047	2950.54
846.371	2920.04
846.695	2940.15
847.019	2900.15
847.343	2926.59
847.666	2887.27
847.99	2906.25
848.313	2904.22
848.637	2855.18
848.96	2850.66
849.284	2825.12
849.607	2821.06
849.931	2829.87
850.254	2847.5
850.577	2798.01
850.9	2773.6
851.223	2729.53
851.546	2780.6
851.869	2780.6
852.192	2757.33
852.515	2753.94
852.838	2718.69
853.161	2728.85
853.483	2756.42
853.806	2695.41
854.129	2708.06
854.451	2674.62
854.774	2663.09
855.096	2661.51
855.419	2648.86
855.741	2647.28
856.063	2664.45
856.385	2643.21
856.708	2663.77
857.03	2624.22
857.352	2609.99
857.674	2642.3
857.996	2573.38
858.318	2650.89
858.64	2615.86
858.961	2615.86
859.283	2581.51
859.605	2557.33
859.926	2570.89
860.248	2572.25
860.57	2563.89
860.891	2592.36
861.212	2536.54
861.534	2538.35
861.855	2605.47
862.176	2539.71
862.498	2554.62
862.819	2508.07
863.14	2533.15
863.461	2520.95
863.782	2545.36
864.103	2557.33
864.424	2473.04
864.745	2515.08
865.065	2492.48
865.386	2481.18
865.707	2503.32
866.027	2467.84
866.348	2501.06
866.668	2497
866.989	2486.15
867.309	2455.42
867.63	2480.73
867.95	2474.85
868.27	2414.96
868.59	2473.49
868.91	2462.42
869.23	2422.2
869.55	2417.22
869.87	2468.52
870.19	2464.91
870.51	2427.39
870.83	2401.63
871.15	2373.61
871.469	2404.12
871.789	2450.67
872.109	2453.16
872.428	2392.37
872.748	2437.56
873.067	2407.06
873.386	2430.33
873.706	2402.31
874.025	2404.34
874.344	2393.27
874.663	2405.02
874.982	2377.9
875.301	2411.58
875.62	2408.64
875.939	2381.29
876.258	2391.91
876.577	2352.82
876.896	2376.32
877.214	2351.46
877.533	2358.24
877.852	2388.3
878.17	2359.37
878.489	2391.24
878.807	2373.61
879.125	2379.26
879.444	2383.78
879.762	2370.22
880.08	2343.55
880.398	2321.41
880.716	2360.28
881.034	2338.58
881.352	2337.23
881.67	2331.8
881.988	2359.15
882.306	2316.21
882.624	2334.51
882.941	2328.87
883.259	2314.4
883.577	2293.16
883.894	2288.87
884.212	2295.42
884.529	2293.84
884.846	2294.06
885.164	2307.17
885.481	2311.92
885.798	2300.39
886.115	2307.85
886.432	2279.15
886.75	2238.92
887.067	2257.68
887.383	2268.53
887.7	2234.63
888.017	2248.64
888.334	2260.84
888.651	2235.99
888.967	2234.86
889.284	2240.73
889.6	2223.78
889.917	2214.74
890.233	2196.21
890.55	2212.71
890.866	2237.12
891.182	2196.21
891.498	2167.97
891.815	2186.95
892.131	2172.71
892.447	2164.12
892.763	2137.01
893.079	2161.19
893.395	2175.65
893.71	2160.06
894.026	2134.75
894.342	2129.1
894.657	2138.14
894.973	2141.98
895.289	2118.02
895.604	2114.86
895.92	2109.21
896.235	2107.85
896.55	2064.69
896.865	2076.22
897.181	2086.16
897.496	2067.18
897.811	2106.5
898.126	2065.6
898.441	2090
898.756	2055.2
899.071	2049.32
899.386	2051.36
899.7	2050.45
900.015	2017.46
900.33	2021.08
900.644	1968.42
900.959	2000.29
901.273	2036.22
901.588	1974.98
901.902	1980.63
902.216	1967.74
902.531	2002.09
902.845	1980.85
903.159	1936.56
903.473	1950.8
903.787	1971.13
904.101	1977.91
904.415	1920.74
904.729	1919.16
905.042	1929.33
905.356	1925.71
905.67	1905.37
905.984	1935.88
906.297	1923
906.611	1949.67
906.924	1890.46
907.237	1895.66
907.551	1895.88
907.864	1877.58
908.177	1879.61
908.491	1851.14
908.804	1866.96
909.117	1866.5
909.43	1862.21
909.743	1833.51
910.056	1820.63
910.368	1856.11
910.681	1846.17
910.994	1826.28
911.307	1826.28
911.619	1809.78
911.932	1795.09
912.244	1787.18
912.557	1802.78
912.869	1788.31
913.181	1772.72
913.494	1795.77
913.806	1780.63
914.118	1772.5
914.43	1745.6
914.742	1736.79
915.054	1729.11
915.366	1759.16
915.678	1751.71
915.99	1738.82
916.302	1724.59
916.613	1724.81
916.925	1730.91
917.236	1728.2
917.548	1710.35
917.859	1700.63
918.171	1636.23
918.482	1689.79
918.794	1666.96
919.105	1658.15
919.416	1664.02
919.727	1643.01
920.038	1666.06
920.349	1648.66
920.66	1644.36
920.971	1645.04
921.282	1652.05
921.593	1592.39
921.903	1626.28
922.214	1612.73
922.525	1620.86
922.835	1585.38
923.146	1587.64
923.456	1589.9
923.767	1592.16
924.077	1584.7
924.387	1572.5
924.697	1576.12
925.008	1533.86
925.318	1568.66
925.628	1553.29
925.938	1548.32
926.248	1540.41
926.558	1552.61
926.867	1560.52
927.177	1541.32
927.487	1516.91
927.796	1501.32
928.106	1514.42
928.416	1506.97
928.725	1514.42
929.034	1520.52
929.344	1521.88
929.653	1499.96
929.962	1474.65
930.271	1471.03
930.581	1500.64
930.89	1469.23
931.199	1481.88
931.508	1459.28
931.817	1457.48
932.125	1456.57
932.434	1447.98
932.743	1437.36
933.051	1420.87
933.36	1401.43
933.669	1430.58
933.977	1424.71
934.286	1424.26
934.594	1416.57
934.902	1394.65
935.21	1405.27
935.519	1408.44
935.827	1404.6
936.135	1384.03
936.443	1362.79
936.751	1372.96
937.059	1371.6
937.367	1367.53
937.674	1381.77
937.982	1365.5
938.29	1337.7
938.597	1353.3
938.905	1346.07
939.213	1350.59
939.52	1341.32
939.827	1352.39
940.135	1336.12
940.442	1316.24
940.749	1306.97
941.056	1294.77
941.363	1301.32
941.67	1303.81
941.977	1297.71
942.284	1291.38
942.591	1307.65
942.898	1293.64
943.205	1283.7
943.511	1289.12
943.818	1273.53
944.125	1274.88
944.431	1265.39
944.738	1272.62
945.044	1265.16
945.35	1247.54
945.657	1271.94
945.963	1262.23
946.269	1254.09
946.575	1226.3
946.881	1208.67
947.187	1258.16
947.493	1218.39
947.799	1231.04
948.105	1235.33
948.41	1222.23
948.716	1209.35
949.022	1223.58
949.327	1195.79
949.633	1202.34
949.938	1198.27
950.244	1205.51
950.549	1179.52
950.854	1160.08
951.16	1187.2
951.465	1185.17
951.77	1177.26
952.075	1172.74
952.38	1174.09
952.685	1182.68
952.99	1142.91
953.294	1162.57
953.599	1146.52
953.904	1149.01
954.209	1160.53
954.513	1123.93
954.818	1127.54
955.122	1139.74
955.426	1123.25
955.731	1118.73
956.035	1125.73
956.339	1144.72
956.643	1093.87
956.948	1114.89
957.252	1085.51
957.556	1132.96
957.86	1101.78
958.163	1091.84
958.467	1066.75
958.771	1102.46
959.075	1071.5
959.378	1080.76
959.682	1058.62
959.985	1075.11
960.289	1082.57
960.592	1061.1
960.896	1099.52
961.199	1049.12
961.502	1061.1
961.805	1031.95
962.108	1029.46
962.411	1014.55
962.714	1061.33
963.017	1039.41
963.32	1042.35
963.623	1034.66
963.926	1023.36
964.228	1034.89
964.531	1037.37
964.833	1022.91
965.136	1006.87
965.438	1008.67
965.741	1003.48
966.043	1022.01
966.345	1020.2
966.648	1008.45
966.95	1012.97
967.252	973.42
967.554	972.74
967.856	984.95
968.158	975.45
968.46	989.69
968.761	980.65
969.063	987.66
969.365	978.17
969.666	955.57
969.968	960.77
970.269	963.25
970.571	930.48
970.872	957.6
971.174	948.79
971.475	947.88
971.776	948.79
972.077	947.21
972.378	948.79
972.679	933.65
972.98	926.87
973.281	951.5
973.582	925.74
973.883	937.26
974.183	917.15
974.484	939.3
974.785	901.11
975.085	919.64
975.386	905.63
975.686	907.21
975.986	914.21
976.287	901.56
976.587	888.9
976.887	895
977.187	888
977.487	904.04
977.787	911.73
978.087	887.55
978.387	877.15
978.687	915.12
978.987	892.29
979.286	883.03
979.586	864.27
979.885	881.45
980.185	882.12
980.484	862.46
980.784	874.67
981.083	868.79
981.382	851.16
981.682	844.61
981.981	859.07
982.28	851.84
982.579	845.29
982.878	858.85
983.177	869.02
983.475	840.99
983.774	825.4
984.073	836.48
984.372	814.55
984.67	824.05
984.969	845.51
985.267	837.38
985.566	838.74
985.864	801.45
986.162	821.56
986.461	813.65
986.759	794.22
987.057	798.74
987.355	829.02
987.653	775.01
987.951	802.35
988.249	810.26
988.547	781.34
988.844	800.32
989.142	800.32
989.44	787.21
989.737	783.37
990.035	771.84
990.332	802.8
990.63	787.44
990.927	790.37
991.224	784.73
991.521	761.22
991.819	805.29
992.116	766.42
992.413	777.72
992.71	759.42
993.006	756.48
993.303	752.18
993.6	728
993.897	787.44
994.193	746.99
994.49	758.51
994.787	756.93
995.083	739.08
995.379	735.69
995.676	766.65
995.972	732.3
996.268	734.78
996.565	733.65
996.861	739.75
997.157	707.89
997.453	724.61
997.749	735.46
998.044	716.93
998.34	721.45
998.636	709.02
998.932	709.92
999.227	758.74
999.523	738.62
999.818	722.58
1000.114	718.06
1000.409	695.46
1000.704	696.82
1001	696.82
1001.295	706.31
1001.59	706.31
1001.885	699.53
1002.18	680.55
1002.475	690.26
1002.77	705.18
1003.065	672.64
1003.359	691.39
1003.654	672.41
1003.949	679.42
1004.243	676.48
1004.538	677.16
1004.832	670.38
1005.127	662.47
1005.421	653.88
1005.715	660.21
1006.009	656.59
1006.304	648.23
1006.598	657.72
1006.892	661.56
1007.186	646.88
1007.48	650.49
1007.773	628.35
1008.067	648.68
1008.361	626.54
1008.655	638.74
1008.948	647.55
1009.242	634.45
1009.535	616.82
1009.829	653.43
1010.122	647.1
1010.415	640.1
1010.708	627.44
1011.001	624.96
1011.295	616.59
1011.588	600.32
1011.881	615.46
1012.173	619.98
1012.466	612.98
1012.759	605.07
1013.052	611.85
1013.344	622.47
1013.637	599.87
1013.93	601.23
1014.222	596.93
1014.514	587.67
1014.807	602.13
1015.099	587.22
1015.391	610.49
1015.683	576.6
1015.976	593.32
1016.268	579.53
1016.56	580.44
1016.851	562.58
1017.143	585.18
1017.435	607.1
1017.727	572.75
1018.018	582.24
1018.31	582.24
1018.602	562.58
1018.893	554.22
1019.185	546.09
1019.476	564.17
1019.767	556.93
1020.058	549.93
1020.35	559.87
1020.641	561.23
1020.932	565.97
1021.223	528.01
1021.514	562.13
1021.804	555.8
1022.095	567.56
1022.386	560.32
1022.677	536.82
1022.967	530.04
1023.258	540.21
1023.548	535.01
1023.839	531.62
1024.129	529.59
1024.419	521.91
1024.709	551.06
1025	532.75
1025.29	520.33
1025.58	531.17
1025.87	510.16
1026.16	523.94
1026.449	530.95
1026.739	511.06
1027.029	530.04
1027.319	528.23
1027.608	523.26
1027.898	500.89
1028.187	512.87
1028.477	522.81
1028.766	512.64
1029.055	492.3
1029.344	489.59
1029.634	512.87
1029.923	517.16
1030.212	512.87
1030.501	499.76
1030.79	485.07
1031.078	498.63
1031.367	490.5
1031.656	493.43
1031.945	494.56
1032.233	470.16
1032.522	487.78
1032.81	470.38
1033.099	490.95
1033.387	455.47
1033.675	491.85
1033.963	472.87
1034.251	493.43
1034.54	490.5
1034.828	471.96
1035.116	469.25
1035.403	466.77
1035.691	461.34
1035.979	475.81
1036.267	477.39
1036.554	451.4
1036.842	457.5
1037.129	485.52
1037.417	457.28
1037.704	460.44
1037.992	473.55
1038.279	447.56
1038.566	444.4
1038.853	444.4
1039.14	444.4
