Data from blue_surface_keyboard_FLMS001491_021.txt Node
Date: Tue Feb 07 11:12:50 GMT 2017
User: dcchb
Spectrometer: FLMS00149
Trigger mode: 0
Integration Time (sec): 2.000000E-2
Scans to average: 10
Electric dark correction enabled: true
Nonlinearity correction enabled: false
Boxcar width: 0
XAxis mode: Wavelengths
Number of Pixels in Spectrum: 2048
>>>>>Begin Spectral Data<<<<<
341.393	-16.23
341.776	-16.23
342.16	-16.23
342.543	-58.04
342.927	-67.53
343.31	-58.04
343.693	-73.85
344.077	-63.46
344.46	-48.32
344.843	-56.23
345.226	-51.71
345.61	-41.99
345.993	-25.27
346.376	-9.9
346.759	17.22
347.142	30.55
347.525	55.18
347.908	67.61
348.291	40.49
348.674	98.12
349.057	119.59
349.44	122.53
349.823	152.13
350.206	157.33
350.588	193.03
350.971	191.22
351.354	196.2
351.737	192.35
352.119	231.22
352.502	259.7
352.884	242.3
353.267	246.59
353.65	262.86
354.032	270.54
354.414	282.52
354.797	297.89
355.179	297.21
355.562	297.44
355.944	289.98
356.326	282.52
356.709	326.14
357.091	317.55
357.473	313.48
357.855	338.11
358.238	327.27
358.62	317.32
359.002	308.96
359.384	334.95
359.766	321.62
360.148	317.77
360.53	322.29
360.912	316.42
361.294	313.71
361.676	330.66
362.057	329.75
362.439	316.42
362.821	310.09
363.203	297.89
363.584	330.2
363.966	306.7
364.348	290.66
364.729	304.67
365.111	316.42
365.493	280.04
365.874	283.42
366.256	303.76
366.637	296.98
367.019	290.2
367.4	309.19
367.781	296.76
368.163	276.19
368.544	281.62
368.925	281.84
369.306	289.3
369.688	298.57
370.069	281.16
370.45	287.49
370.831	281.39
371.212	280.71
371.593	293.82
371.974	295.18
372.355	291.56
372.736	285.01
373.117	309.19
373.498	303.31
373.879	295.18
374.26	303.99
374.641	273.26
375.021	305.57
375.402	294.05
375.783	287.27
376.163	276.65
376.544	296.31
376.925	299.92
377.305	302.63
377.686	294.05
378.066	278.45
378.447	314.61
378.827	293.59
379.208	299.47
379.588	288.62
379.968	288.17
380.349	297.44
380.729	286.36
381.109	281.62
381.489	303.99
381.87	296.76
382.25	293.82
382.63	291.11
383.01	292.92
383.39	311.67
383.77	292.24
384.15	309.41
384.53	311.67
384.91	308.51
385.29	307.15
385.67	298.34
386.049	325.23
386.429	298.34
386.809	309.64
387.189	299.47
387.568	335.4
387.948	316.87
388.328	304.44
388.707	323.65
389.087	338.34
389.466	322.75
389.846	311.45
390.225	326.14
390.605	325.68
390.984	309.64
391.363	325.46
391.743	312.8
392.122	316.87
392.501	348.06
392.881	320.26
393.26	327.49
393.639	339.24
394.018	339.92
394.397	338.79
394.776	321.39
395.155	329.3
395.534	323.42
395.913	334.27
396.292	336.98
396.671	342.86
397.05	326.14
397.429	344.89
397.808	325.01
398.186	334.27
398.565	331.56
398.944	335.85
399.323	321.62
399.701	342.63
400.08	336.76
400.458	332.46
400.837	353.71
401.215	362.52
401.594	352.12
401.972	351.67
402.351	328.62
402.729	342.86
403.107	348.06
403.486	350.32
403.864	360.94
404.242	346.25
404.62	342.86
404.999	332.91
405.377	356.87
405.755	358.45
406.133	355.74
406.511	366.81
406.889	356.64
407.267	358.68
407.645	350.54
408.023	372.01
408.401	382.63
408.779	362.29
409.156	359.81
409.534	388.05
409.912	375.17
410.29	372.46
410.667	369.98
411.045	381.5
411.422	383.08
411.8	363.2
412.178	380.37
412.555	381.28
412.933	390.54
413.31	389.86
413.687	397.32
414.065	383.76
414.442	389.18
414.819	374.5
415.197	377.21
415.574	398.68
415.951	393.48
416.328	422.86
416.705	387.6
417.082	391.67
417.46	376.76
417.837	418.79
418.214	393.7
418.591	392.12
418.967	414.72
419.344	386.25
419.721	394.16
420.098	392.57
420.475	414.95
420.852	415.62
421.228	396.87
421.605	402.52
421.982	422.18
422.358	401.16
422.735	409.07
423.111	404.55
423.488	420.37
423.864	433.25
424.241	385.79
424.617	419.24
424.994	424.89
425.37	403.87
425.746	410.2
426.123	414.27
426.499	420.82
426.875	407.04
427.251	422.4
427.627	442.52
428.003	420.37
428.379	404.33
428.756	431.22
429.132	428.51
429.507	437.09
429.883	444.78
430.259	434.83
430.635	439.35
431.011	432.12
431.387	443.65
431.763	447.49
432.138	445.68
432.514	472.35
432.89	473.25
433.265	465.57
433.641	483.42
434.016	455.85
434.392	460.6
434.767	486.81
435.143	486.13
435.518	472.12
435.894	470.31
436.269	481.84
436.644	485.23
437.02	468.5
437.395	485.68
437.77	461.95
438.145	498.33
438.52	506.02
438.895	484.78
439.271	489.75
439.646	471.89
440.021	497.88
440.395	514.61
440.77	500.37
441.145	501.05
441.52	506.92
441.895	519.35
442.27	540.14
442.645	512.8
443.019	522.06
443.394	552.57
443.769	510.31
444.143	516.19
444.518	528.84
444.892	529.97
445.267	533.59
445.641	527.94
446.016	517.54
446.39	525.9
446.764	530.88
447.139	517.09
447.513	529.97
447.887	522.51
448.262	550.31
448.636	525.45
449.01	542.63
449.384	541.27
449.758	559.35
450.132	538.11
450.506	575.85
450.88	567.94
451.254	567.03
451.628	554.15
452.002	538.33
452.376	563.42
452.75	577.2
453.123	590.76
453.497	562.29
453.871	582.4
454.244	612.46
454.618	574.26
454.992	603.87
455.365	614.04
455.739	590.08
456.112	593.93
456.486	608.84
456.859	600.03
457.232	610.65
457.606	609.07
457.979	624.43
458.352	627.6
458.725	640.93
459.099	635.28
459.472	658.78
459.845	628.95
460.218	627.82
460.591	638.9
460.964	637.54
461.337	637.99
461.71	654.49
462.083	649.97
462.456	672.79
462.829	678.44
463.201	671.21
463.574	683.87
463.947	683.64
464.32	688.61
464.692	680.25
465.065	695.39
465.438	686.35
465.81	706.01
466.183	708.05
466.555	713.24
466.928	717.76
467.3	747.82
467.672	722.96
468.045	729.51
468.417	740.36
468.789	740.59
469.161	741.94
469.534	737.2
469.906	729.97
470.278	749.4
470.65	780.36
471.022	753.69
471.394	793.47
471.766	764.77
472.138	776.07
472.51	801.38
472.882	807.93
473.253	800.7
473.625	814.26
473.997	810.64
474.369	828.27
474.74	843.86
475.112	834.6
475.484	817.87
475.855	867.82
476.227	853.58
476.598	854.26
476.97	880.25
477.341	879.12
477.713	888.38
478.084	904.88
478.455	918.89
478.827	933.8
479.198	933.8
479.569	942.84
479.94	944.65
480.311	896.74
480.682	959.11
481.053	954.59
481.424	972.67
481.795	983.52
482.166	1006.34
482.537	999.56
482.908	1008.83
483.279	1017.64
483.65	1031.2
484.021	1047.92
484.391	1051.54
484.762	1039.56
485.133	1043.63
485.503	1068.49
485.874	1068.49
486.244	1073.91
486.615	1089.51
486.985	1120.01
487.356	1113.91
487.726	1108.04
488.097	1105.32
488.467	1133.8
488.837	1128.37
489.207	1162.72
489.578	1164.08
489.948	1173.57
490.318	1171.99
490.688	1160.69
491.058	1203.4
491.428	1197.98
491.798	1209.28
492.168	1214.93
492.538	1209.28
492.908	1228.03
493.278	1224.42
493.648	1215.38
494.017	1256.28
494.387	1232.33
494.757	1260.57
495.126	1221.93
495.496	1259.22
495.866	1249.5
496.235	1281.82
496.605	1274.81
496.974	1254.47
497.344	1286.56
497.713	1271.2
498.082	1300.12
498.452	1284.98
498.821	1284.08
499.19	1271.2
499.559	1292.66
499.928	1275.49
500.298	1289.95
500.667	1316.39
501.036	1313
501.405	1319.1
501.774	1309.39
502.143	1330.18
502.512	1336.96
502.88	1336.73
503.249	1328.14
503.618	1320.23
503.987	1317.52
504.356	1366.79
504.724	1357.75
505.093	1324.98
505.462	1357.75
505.83	1334.02
506.199	1359.78
506.567	1359.55
506.936	1342.83
507.304	1344.87
507.672	1336.28
508.041	1356.16
508.409	1374.92
508.777	1381.25
509.145	1375.15
509.514	1360.01
509.882	1388.03
510.25	1385.54
510.618	1384.86
510.986	1379.89
511.354	1367.24
511.722	1417.18
512.09	1411.98
512.458	1409.27
512.826	1400.01
513.193	1416.5
513.561	1404.98
513.929	1419.67
514.297	1444.3
514.664	1414.92
515.032	1406.11
515.4	1415.37
515.767	1423.28
516.135	1425.09
516.502	1418.31
516.869	1422.38
517.237	1426.67
517.604	1413.56
517.972	1449.27
518.339	1431.19
518.706	1453.34
519.073	1432.55
519.44	1415.6
519.808	1442.26
520.175	1449.27
520.542	1480.46
520.909	1497.63
521.276	1472.77
521.643	1497.86
522.009	1477.52
522.376	1455.82
522.743	1469.61
523.11	1477.29
523.477	1469.61
523.843	1501.92
524.21	1506.22
524.577	1527.23
524.943	1525.65
525.31	1522.71
525.676	1487.01
526.043	1520.45
526.409	1491.75
526.776	1560.91
527.142	1507.12
527.508	1540.79
527.874	1531.3
528.241	1526.56
528.607	1529.95
528.973	1549.83
529.339	1563.17
529.705	1550.74
530.071	1517.29
530.437	1552.09
530.803	1564.3
531.169	1551.64
531.535	1547.57
531.901	1579.21
532.267	1558.65
532.632	1559.32
532.998	1567.91
533.364	1576.95
533.73	1580.79
534.095	1596.84
534.461	1562.49
534.826	1585.09
535.192	1581.47
535.557	1597.29
535.923	1604.52
536.288	1576.27
536.653	1589.38
537.019	1607.46
537.384	1611.07
537.749	1576.27
538.114	1606.55
538.479	1609.04
538.845	1584.41
539.21	1607.46
539.575	1615.14
539.94	1595.71
540.305	1628.47
540.67	1605.2
541.034	1610.62
541.399	1585.09
541.764	1614.46
542.129	1601.13
542.494	1621.02
542.858	1629.38
543.223	1626.89
543.587	1615.14
543.952	1599.77
544.316	1599.1
544.681	1634.8
545.045	1621.69
545.41	1635.93
545.774	1628.25
546.138	1594.8
546.503	1591.86
546.867	1604.75
547.231	1615.59
547.595	1618.98
547.959	1630.06
548.324	1615.82
548.688	1602.03
549.052	1614.69
549.416	1622.37
549.779	1611.3
550.143	1633.22
550.507	1654.24
550.871	1602.94
551.235	1645.42
551.599	1655.37
551.962	1651.07
552.326	1655.14
552.689	1640.23
553.053	1628.93
553.417	1623.5
553.78	1628.02
554.143	1666.44
554.507	1641.13
554.87	1656.72
555.234	1637.29
555.597	1649.04
555.96	1649.94
556.323	1651.52
556.686	1664.63
557.05	1650.39
557.413	1675.03
557.776	1660.56
558.139	1652.65
558.502	1664.63
558.865	1684.97
559.228	1647.68
559.59	1653.78
559.953	1708.47
560.316	1687.68
560.679	1679.09
561.041	1700.56
561.404	1697.4
561.767	1690.17
562.129	1681.58
562.492	1701.01
562.854	1685.42
563.217	1688.59
563.579	1692.2
563.941	1719.09
564.304	1712.54
564.666	1727.45
565.028	1724.97
565.39	1703.27
565.753	1705.99
566.115	1721.35
566.477	1725.42
566.839	1729.49
567.201	1726.32
567.563	1739.88
567.925	1757.06
568.287	1752.31
568.648	1748.02
569.01	1712.54
569.372	1703.95
569.734	1707.57
570.095	1775.59
570.457	1767.91
570.819	1750.96
571.18	1750.96
571.542	1739.21
571.903	1791.63
572.265	1775.14
572.626	1753.44
572.987	1777.4
573.349	1784.85
573.71	1789.37
574.071	1796.83
574.432	1812.2
574.794	1797.28
575.155	1784.63
575.516	1788.24
575.877	1806.77
576.238	1801.12
576.599	1824.4
576.96	1780.33
577.32	1797.28
577.681	1839.09
578.042	1813.78
578.403	1809.71
578.763	1813.1
579.124	1847.23
579.485	1816.04
579.845	1785.53
580.206	1801.12
580.566	1807.45
580.927	1804.74
581.287	1838.64
581.648	1828.69
582.008	1837.51
582.368	1813.78
582.728	1817.4
583.089	1818.98
583.449	1798.64
583.809	1845.19
584.169	1850.84
584.529	1809.94
584.889	1827.34
585.249	1842.25
585.609	1822.82
585.969	1842.03
586.329	1849.03
586.688	1822.82
587.048	1857.85
587.408	1847
587.768	1841.12
588.127	1851.52
588.487	1829.37
588.846	1863.5
589.206	1847.45
589.565	1832.08
589.925	1863.95
590.284	1840.67
590.643	1837.51
591.003	1849.26
591.362	1868.47
591.721	1877.96
592.08	1855.81
592.44	1865.53
592.799	1835.47
593.158	1864.17
593.517	1833.67
593.876	1866.21
594.235	1856.49
594.593	1860.56
594.952	1852.88
595.311	1836.38
595.67	1839.99
596.029	1908.01
596.387	1874.57
596.746	1868.92
597.104	1853.33
597.463	1916.15
597.822	1878.19
598.18	1865.98
598.538	1867.79
598.897	1897.85
599.255	1868.47
599.613	1876.6
599.972	1879.31
600.33	1891.52
600.688	1881.8
601.046	1899.65
601.404	1894.23
601.762	1898.07
602.12	1909.82
602.478	1871.63
602.836	1893.78
603.194	1872.08
603.552	1878.41
603.91	1897.62
604.268	1899.65
604.625	1901.24
604.983	1900.33
605.341	1875.47
605.698	1896.04
606.056	1902.59
606.413	1920.67
606.771	1924.96
607.128	1929.03
607.485	1913.66
607.843	1909.82
608.2	1913.89
608.557	1933.1
608.914	1931.07
609.272	1907.11
609.629	1910.27
609.986	1935.81
610.343	1931.97
610.7	1962.02
611.057	1948.47
611.414	1943.27
611.771	1957.96
612.127	1935.13
612.484	1973.32
612.841	1926.55
613.198	1952.08
613.554	1942.14
613.911	1982.14
614.267	1959.99
614.624	1967.67
614.98	1959.31
615.337	1995.47
615.693	1960.67
616.05	1990.5
616.406	1986.2
616.762	1969.48
617.118	1967.22
617.475	1988.24
617.831	2002.25
618.187	1995.7
618.543	1991.4
618.899	2009.26
619.255	1984.85
619.611	1975.81
619.967	2007.22
620.323	2004.96
620.678	2012.19
621.034	2010.38
621.39	1986.2
621.746	1973.1
622.101	2039.31
622.457	2010.84
622.812	2008.58
623.168	2028.92
623.523	2046.09
623.879	2038.18
624.234	1996.83
624.589	2040.21
624.945	2021.68
625.3	2043.38
625.655	2026.66
626.01	2058.97
626.365	2040.44
626.72	2014.45
627.075	2039.08
627.43	2055.58
627.785	2054.23
628.14	2048.8
628.495	2063.26
628.85	2056.71
629.205	2056.49
629.559	2071.85
629.914	2060.33
630.269	2095.35
630.623	2060.1
630.978	2060.78
631.332	2064.85
631.687	2079.08
632.041	2081.57
632.396	2092.87
632.75	2062.36
633.104	2073.43
633.459	2086.54
633.813	2087.67
634.167	2065.07
634.521	2105.07
634.875	2088.35
635.229	2091.29
635.583	2087.9
635.937	2108.01
636.291	2114.11
636.645	2129.7
636.999	2105.52
637.352	2133.55
637.706	2131.74
638.06	2123.6
638.413	2091.51
638.767	2151.62
639.121	2155.47
639.474	2152.53
639.828	2118.63
640.181	2126.31
640.534	2149.82
640.888	2131.74
641.241	2128.12
641.594	2190.04
641.947	2179.87
642.301	2143.49
642.654	2162.7
643.007	2207.22
643.36	2162.47
643.713	2197.95
644.066	2221
644.419	2176.71
644.771	2177.16
645.124	2163.83
645.477	2198.4
645.83	2173.77
646.182	2169.7
646.535	2207.22
646.888	2188.46
647.24	2193.21
647.593	2222.58
647.945	2211.51
648.298	2214
648.65	2199.53
649.002	2263.26
649.355	2219.42
649.707	2224.62
650.059	2254.67
650.411	2283.37
650.763	2280.66
651.115	2299.87
651.467	2301.68
651.819	2355.23
652.171	2360.21
652.523	2349.59
652.875	2323.6
653.227	2330.15
653.578	2343.48
653.93	2395.69
654.282	2375.12
654.633	2385.06
654.985	2372.18
655.337	2405.18
655.688	2392.07
656.039	2426.87
656.391	2425.06
656.742	2442.01
657.094	2445.4
657.445	2465.06
657.796	2471.16
658.147	2443.82
658.498	2482.46
658.849	2483.37
659.2	2518.85
659.551	2489.24
659.902	2511.16
660.253	2549.81
660.604	2537.6
660.955	2535.12
661.306	2583.03
661.656	2557.72
662.007	2578.51
662.358	2584.61
662.708	2600.88
663.059	2630.48
663.409	2635.91
663.76	2628
664.11	2655.11
664.461	2662.57
664.811	2730.59
665.161	2652.63
665.511	2693.3
665.862	2704.6
666.212	2746.64
666.562	2750.48
666.912	2735.11
667.262	2731.95
667.612	2763.81
667.962	2755.22
668.312	2755
668.662	2778.05
669.011	2799.52
669.361	2766.98
669.711	2802.91
670.06	2828.89
670.41	2812.17
670.76	2853.98
671.109	2861.44
671.459	2830.93
671.808	2841.1
672.157	2896.46
672.507	2844.49
672.856	2915.22
673.205	2898.72
673.554	2921.55
673.904	2908.21
674.253	2987.08
674.602	2916.58
674.951	2924.26
675.3	2911.15
675.649	2973.07
675.998	2999.06
676.346	2975.78
676.695	2977.37
677.044	3002.45
677.393	3025.73
677.741	3007.65
678.09	3045.16
678.438	3014.43
678.787	3048.78
679.135	3066.63
679.484	3062.56
679.832	3055.78
680.181	3074.09
680.529	3102.56
680.877	3084.48
681.225	3107.76
681.573	3148.43
681.922	3131.71
682.27	3117.93
682.618	3116.34
682.966	3171.71
683.314	3133.29
683.661	3132.16
684.009	3180.75
684.357	3134.88
684.705	3162.9
685.053	3163.8
685.4	3202.44
685.748	3178.72
686.095	3201.54
686.443	3208.32
686.79	3215.33
687.138	3207.64
687.485	3197.7
687.832	3225.72
688.18	3217.13
688.527	3237.92
688.874	3274.53
689.221	3241.54
689.568	3279.5
689.915	3271.82
690.262	3228.66
690.609	3228.43
690.956	3234.99
691.303	3231.37
691.65	3214.65
691.997	3230.69
692.344	3214.2
692.69	3254.19
693.037	3244.25
693.383	3249.9
693.73	3261.43
694.077	3221.43
694.423	3249.45
694.769	3250.58
695.116	3260.07
695.462	3255.32
695.808	3223.69
696.155	3244.93
696.501	3234.99
696.847	3264.82
697.193	3227.3
697.539	3244.93
697.885	3247.87
698.231	3217.36
698.577	3205.38
698.923	3232.27
699.269	3218.04
699.614	3209.9
699.96	3229.56
700.306	3192.73
700.651	3205.16
700.997	3188.43
701.342	3208.32
701.688	3178.26
702.033	3166.29
702.379	3197.92
702.724	3180.52
703.069	3192.5
703.415	3136.23
703.76	3147.98
704.105	3162.67
704.45	3158.15
704.795	3172.61
705.14	3159.06
705.485	3132.62
705.83	3149.56
706.175	3185.5
706.52	3138.94
706.865	3084.26
707.209	3190.69
707.554	3130.13
707.899	3120.64
708.243	3152.95
708.588	3114.31
708.932	3137.14
709.277	3161.09
709.621	3127.42
709.966	3106.63
710.31	3121.54
710.654	3102.11
710.998	3094.65
711.342	3108.44
711.687	3082.22
712.031	3079.74
712.375	3082
712.719	3103.92
713.063	3115.89
713.407	3119.73
713.75	3119.96
714.094	3110.7
714.438	3084.26
714.782	3113.63
715.125	3071.15
715.469	3065.72
715.812	3070.24
716.156	3039.74
716.499	3090.13
716.843	3079.51
717.186	3088.1
717.53	3065.27
717.873	3120.86
718.216	3092.16
718.559	3105.05
718.902	3040.19
719.246	3084.93
719.589	3068.66
719.932	3066.18
720.275	3074.99
720.617	3092.16
720.96	3056.23
721.303	3080.19
721.646	3062.56
721.989	3037.25
722.331	3043.35
722.674	3091.03
723.016	3031.6
723.359	3064.14
723.701	3095.55
724.044	3065.95
724.386	3052.62
724.729	3102.56
725.071	3072.73
725.413	3044.93
725.755	3064.59
726.097	3065.5
726.439	3101.43
726.782	3042
727.124	3061.2
727.465	3051.71
727.807	3070.92
728.149	3097.14
728.491	3062.33
728.833	3119.06
729.175	3061.2
729.516	3065.5
729.858	3045.84
730.199	3103.46
730.541	3062.11
730.882	3090.36
731.224	3099.4
731.565	3107.53
731.906	3089.23
732.248	3086.51
732.589	3067.31
732.93	3107.98
733.271	3089.9
733.612	3111.6
733.953	3107.08
734.294	3086.29
734.635	3088.77
734.976	3169.45
735.317	3098.49
735.658	3057.14
735.999	3119.06
736.339	3140.3
736.68	3129
737.021	3114.76
737.361	3127.42
737.702	3133.07
738.042	3163.8
738.383	3151.15
738.723	3159.06
739.063	3184.14
739.404	3167.42
739.744	3219.84
740.084	3178.04
740.424	3204.48
740.764	3241.54
741.104	3254.42
741.444	3191.14
741.784	3228.66
742.124	3261.88
742.464	3235.89
742.804	3212.84
743.143	3240.41
743.483	3274.08
743.823	3270.46
744.162	3277.47
744.502	3269.11
744.841	3295.77
745.181	3351.14
745.52	3346.85
745.86	3358.6
746.199	3384.36
746.538	3378.26
746.877	3409.44
747.216	3423.23
747.556	3433.62
747.895	3469.1
748.234	3462.32
748.573	3465.94
748.911	3496.45
749.25	3489.67
749.589	3545.71
749.928	3531.02
750.267	3557.69
750.605	3559.72
750.944	3613.96
751.283	3601.76
751.621	3662.54
751.96	3649.89
752.298	3602.43
752.636	3668.42
752.975	3715.42
753.313	3704.58
753.651	3703.9
753.989	3725.59
754.327	3777.57
754.666	3795.87
755.004	3794.29
755.342	3831.13
755.679	3872.93
756.017	3845.36
756.355	3877.91
756.693	3878.81
757.031	3942.99
757.368	3949.32
757.706	3958.81
758.044	3978.47
758.381	3957.45
758.719	4026.15
759.056	3978.69
759.394	4046.49
759.731	4027.06
760.068	4074.74
760.405	4119.48
760.743	4108.63
761.08	4145.02
761.417	4114.28
761.754	4117
762.091	4158.58
762.428	4157
762.765	4129.2
763.102	4229.99
763.438	4215.75
763.775	4194.28
764.112	4201.29
764.449	4244.68
764.785	4218.01
765.122	4171.46
765.458	4231.34
765.795	4201.74
766.131	4236.09
766.467	4208.29
766.804	4287.61
767.14	4255.98
767.476	4279.7
767.812	4241.74
768.148	4270.66
768.485	4253.94
768.821	4257.11
769.157	4239.93
769.492	4218.46
769.828	4257.11
770.164	4217.11
770.5	4255.98
770.836	4229.31
771.171	4185.47
771.507	4254.39
771.842	4180.95
772.178	4218.69
772.513	4218.01
772.849	4239.03
773.184	4249.65
773.519	4224.79
773.855	4209.42
774.19	4181.4
774.525	4203.55
774.86	4205.81
775.195	4226.37
775.53	4161.29
775.865	4166.49
776.2	4129.43
776.535	4122.65
776.87	4145.47
777.205	4091.91
777.539	4112.48
777.874	4141.63
778.209	4117.9
778.543	4120.84
778.878	4084.91
779.212	4093.27
779.547	4061.86
779.881	4062.76
780.215	4043.78
780.55	4055.08
780.884	4049.88
781.218	3979.15
781.552	4044.91
781.886	4022.76
782.22	3976.21
782.554	3957.9
782.888	3961.97
783.222	3971.69
783.556	3943.44
783.889	3930.33
784.223	3938.92
784.557	3905.25
784.89	3933.5
785.224	3899.15
785.557	3846.72
785.891	3872.03
786.224	3844.91
786.558	3886.95
786.891	3864.8
787.224	3864.12
787.557	3858.02
787.891	3793.16
788.224	3825.48
788.557	3821.18
788.89	3797
789.223	3790
789.556	3808.76
789.888	3759.94
790.221	3739.15
790.554	3734.41
790.887	3747.51
791.219	3691.02
791.552	3728.31
791.884	3660.06
792.217	3698.25
792.549	3664.35
792.882	3668.65
793.214	3639.95
793.546	3669.32
793.879	3628.65
794.211	3636.78
794.543	3598.14
794.875	3602.43
795.207	3624.81
795.539	3662.77
795.871	3627.97
796.203	3562.43
796.535	3581.42
796.867	3571.93
797.198	3529.22
797.53	3529.89
797.862	3543.9
798.193	3506.84
798.525	3519.5
798.856	3491.93
799.188	3503.68
799.519	3475.43
799.85	3473.4
800.182	3490.35
800.513	3423.91
800.844	3427.97
801.175	3466.62
801.506	3465.04
801.837	3435.43
802.168	3467.3
802.499	3394.76
802.83	3425.26
803.161	3425.49
803.491	3395.43
803.822	3397.69
804.153	3386.39
804.483	3335.1
804.814	3363.8
805.145	3333.97
805.475	3328.32
805.805	3327.19
806.136	3328.54
806.466	3306.85
806.796	3315.21
807.126	3285.15
807.457	3193.63
807.787	3291.03
808.117	3236.57
808.447	3289.9
808.777	3266.62
809.107	3223.01
809.436	3256.91
809.766	3226.17
810.096	3252.39
810.426	3205.38
810.755	3180.52
811.085	3183.91
811.414	3180.52
811.744	3161.99
812.073	3175.33
812.403	3206.51
812.732	3164.03
813.061	3170.81
813.39	3138.26
813.719	3161.09
814.049	3207.64
814.378	3112.05
814.707	3133.97
815.036	3121.32
815.365	3099.17
815.693	3086.29
816.022	3052.39
816.351	3005.84
816.68	3066.85
817.008	3080.19
817.337	3070.02
817.665	3042.9
817.994	3076.8
818.322	3059.85
818.651	3031.6
818.979	3020.75
819.307	3026.63
819.636	3027.76
819.964	2978.5
820.292	3042.9
820.62	3020.75
820.948	3004.26
821.276	3009.23
821.604	3052.39
821.932	3014.88
822.259	3018.04
822.587	3044.48
822.915	2998.38
823.243	3012.39
823.57	2998.83
823.898	3027.99
824.225	2996.12
824.553	3030.25
824.88	2994.99
825.207	3012.39
825.535	3000.19
825.862	2997.7
826.189	3018.04
826.516	2983.92
826.843	3016.91
827.17	2996.57
827.497	3050.13
827.824	3025.5
828.151	3037.48
828.478	3012.84
828.805	3004.94
829.131	2984.37
829.458	3003.35
829.785	2984.37
830.111	2965.84
830.438	2994.77
830.764	2996.35
831.09	2985.73
831.417	3020.3
831.743	2980.3
832.069	2970.13
832.395	2996.8
832.722	2980.3
833.048	2963.81
833.374	2974.88
833.7	2969.68
834.026	2991.15
834.351	2986.18
834.677	2963.13
835.003	3038.38
835.329	2967.65
835.654	2935.56
835.98	2975.78
836.306	2973.98
836.631	2941.21
836.956	2987.08
837.282	2956.57
837.607	2958.83
837.932	2896.69
838.258	2952.96
838.583	2949.12
838.908	2912.96
839.233	2915.67
839.558	2902.34
839.883	2927.2
840.208	2890.59
840.533	2914.77
840.858	2911.15
841.182	2936.01
841.507	2884.71
841.832	2879.51
842.156	2929.23
842.481	2882.9
842.805	2891.94
843.13	2864.15
843.454	2868.89
843.778	2859.63
844.103	2881.55
844.427	2858.72
844.751	2844.49
845.075	2810.14
845.399	2850.36
845.723	2793.19
846.047	2837.71
846.371	2830.25
846.695	2792.74
847.019	2782.34
847.343	2791.38
847.666	2752.06
847.99	2735.34
848.313	2745.73
848.637	2758.84
848.96	2754.09
849.284	2734.21
849.607	2693.08
849.931	2705.06
850.254	2662.8
850.577	2691.72
850.9	2653.08
851.223	2664.38
851.546	2658.05
851.869	2663.93
852.192	2662.35
852.515	2612.86
852.838	2602.91
853.161	2616.24
853.483	2582.12
853.806	2635.23
854.129	2582.57
854.451	2566.53
854.774	2569.24
855.096	2553.87
855.419	2583.7
855.741	2563.82
856.063	2548.68
856.385	2538.28
856.708	2537.83
857.03	2498.96
857.352	2523.14
857.674	2493.31
857.996	2514.55
858.318	2490.82
858.64	2506.64
858.961	2501.45
859.283	2469.58
859.605	2461.22
859.926	2466.64
860.248	2466.64
860.57	2457.15
860.891	2467.77
861.212	2467.32
861.534	2442.92
861.855	2459.41
862.176	2431.16
862.498	2409.24
862.819	2410.15
863.14	2404.5
863.461	2434.33
863.782	2408.11
864.103	2415.12
864.424	2410.37
864.745	2432.52
865.065	2416.7
865.386	2388.23
865.707	2379.64
866.027	2402.92
866.348	2386.65
866.668	2393.65
866.989	2406.53
867.309	2379.64
867.63	2385.74
867.95	2373.31
868.27	2354.78
868.59	2389.13
868.91	2348
869.23	2350.49
869.55	2338.06
869.87	2341.9
870.19	2339.19
870.51	2319.53
870.83	2317.72
871.15	2341.22
871.469	2330.6
871.789	2326.08
872.109	2352.97
872.428	2315.24
872.748	2379.41
873.067	2308.23
873.386	2324.95
873.706	2322.47
874.025	2328.79
874.344	2305.07
874.663	2294.67
874.982	2314.11
875.301	2293.54
875.62	2267.55
875.939	2295.8
876.258	2291.96
876.577	2284.5
876.896	2293.77
877.214	2261
877.533	2243.83
877.852	2265.29
878.17	2246.76
878.489	2265.75
878.807	2278.4
879.125	2214
879.444	2270.49
879.762	2274.11
880.08	2242.92
880.398	2232.3
880.716	2253.32
881.034	2229.14
881.352	2232.07
881.67	2241.34
881.988	2239.08
882.306	2239.08
882.624	2209.48
882.941	2243.6
883.259	2230.49
883.577	2205.63
883.894	2194.79
884.212	2225.52
884.529	2185.97
884.846	2224.84
885.164	2164.05
885.481	2170.38
885.798	2179.19
886.115	2172.19
886.432	2150.04
886.75	2178.52
887.067	2177.39
887.383	2154.56
887.7	2154.34
888.017	2134.68
888.334	2183.04
888.651	2144.17
888.967	2155.24
889.284	2126.99
889.6	2128.8
889.917	2133.09
890.233	2123.15
890.55	2100.33
890.866	2097.39
891.182	2111.85
891.498	2120.21
891.815	2107.11
892.131	2062.14
892.447	2089.93
892.763	2092.87
893.079	2082.47
893.395	2072.08
893.71	2067.78
894.026	2082.25
894.342	2040.89
894.657	2004.51
894.973	2040.21
895.289	2035.47
895.604	2027.11
895.92	2031.63
896.235	2013.32
896.55	2041.34
896.865	2011.97
897.181	2027.56
897.496	1989.37
897.811	1993.89
898.126	1974.91
898.441	1989.37
898.756	1957.51
899.071	1968.58
899.386	1956.83
899.7	1967.45
900.015	1938.75
900.33	1938.07
900.644	1934
900.959	1957.51
901.273	1915.25
901.588	1959.54
901.902	1883.61
902.216	1911.18
902.531	1894.46
902.845	1891.29
903.159	1897.62
903.473	1897.39
903.787	1854
904.101	1877.51
904.415	1875.02
904.729	1869.15
905.042	1872.99
905.356	1855.59
905.67	1840.9
905.984	1848.36
906.297	1832.99
906.611	1844.29
906.924	1853.78
907.237	1838.19
907.551	1845.64
907.864	1833.21
908.177	1841.8
908.491	1816.49
908.804	1802.48
909.117	1775.14
909.43	1781.01
909.743	1799.54
910.056	1769.71
910.368	1762.26
910.681	1748.24
910.994	1773.56
911.307	1739.21
911.619	1741.01
911.932	1736.72
912.244	1749.83
912.557	1726.1
912.869	1724.29
913.181	1722.26
913.494	1717.51
913.806	1710.05
914.118	1712.09
914.43	1668.47
914.742	1698.98
915.054	1667.12
915.366	1656.5
915.678	1694.69
915.99	1656.04
916.302	1673.67
916.613	1652.88
916.925	1640.45
917.236	1637.97
917.548	1666.44
917.859	1630.28
918.171	1631.86
918.482	1645.87
918.794	1635.25
919.105	1588.25
919.416	1590.74
919.727	1601.81
920.038	1618.76
920.349	1591.64
920.66	1589.15
920.971	1595.93
921.282	1586.89
921.593	1543.05
921.903	1559.78
922.214	1548.48
922.525	1563.39
922.835	1544.86
923.146	1527.91
923.456	1526.33
923.767	1520.45
924.077	1533.34
924.387	1524.3
924.697	1517.74
925.008	1498.76
925.318	1512.32
925.628	1486.78
925.938	1495.6
926.248	1495.37
926.558	1482.26
926.867	1467.57
927.177	1526.56
927.487	1463.73
927.796	1477.97
928.106	1442.72
928.416	1454.69
928.725	1480.91
929.034	1470.51
929.344	1475.48
929.653	1442.49
929.962	1434.13
930.271	1403.17
930.581	1440.23
930.89	1441.13
931.199	1401.59
931.508	1423.06
931.817	1402.49
932.125	1404.75
932.434	1419.21
932.743	1373.79
933.051	1407.01
933.36	1370.18
933.669	1402.72
933.977	1376.5
934.286	1376.96
934.594	1365.66
934.902	1353.68
935.21	1373.34
935.519	1357.29
935.827	1336.5
936.135	1360.23
936.443	1329.95
936.751	1326.11
937.059	1321.36
937.367	1310.06
937.674	1327.92
937.982	1310.74
938.29	1323.17
938.597	1296.28
938.905	1305.54
939.213	1267.81
939.52	1288.14
939.827	1300.57
940.135	1309.39
940.442	1284.75
940.749	1295.38
941.056	1272.55
941.363	1273
941.67	1270.52
941.977	1257.18
942.284	1225.32
942.591	1256.28
942.898	1240.46
943.205	1245.21
943.511	1253.57
943.818	1243.63
944.125	1247.24
944.431	1239.11
944.738	1223.51
945.044	1232.78
945.35	1223.74
945.657	1236.62
945.963	1189.16
946.269	1213.34
946.575	1192.1
946.881	1206.56
947.187	1175.15
947.493	1198.65
947.799	1191.88
948.105	1157.3
948.41	1167.7
948.716	1197.98
949.022	1148.49
949.327	1187.81
949.633	1163.18
949.938	1155.49
950.244	1176.73
950.549	1155.49
950.854	1114.14
951.16	1160.92
951.465	1157.53
951.77	1134.25
952.075	1146.9
952.38	1118.88
952.685	1108.71
952.99	1133.8
953.294	1119.11
953.599	1132.22
953.904	1109.17
954.209	1093.35
954.513	1122.27
954.818	1114.59
955.122	1122.27
955.426	1074.36
955.731	1080.69
956.035	1099.67
956.339	1078.21
956.643	1079.79
956.948	1076.62
957.252	1071.88
957.556	1063.52
957.86	1080.01
958.163	1053.12
958.467	1067.13
958.771	1056.51
959.075	1064.42
959.378	1048.15
959.682	1056.06
959.985	1014.25
960.289	1024.87
960.592	1011.99
960.896	1062.39
961.199	1029.85
961.502	1029.85
961.805	1015.38
962.108	1021.26
962.411	1020.35
962.714	1031.65
963.017	1026.91
963.32	998.21
963.623	1016.29
963.926	1032.11
964.228	1004.99
964.531	1007.02
964.833	998.43
965.136	995.04
965.438	983.29
965.741	995.5
966.043	995.95
966.345	993.24
966.648	982.39
966.95	969.51
967.252	958.21
967.554	986.23
967.856	936.74
968.158	948.72
968.46	942.62
968.761	948.04
969.063	957.53
969.365	942.62
969.666	921.6
969.968	919.57
970.269	941.71
970.571	941.49
970.872	931.77
971.174	953.69
971.475	925.67
971.776	930.41
972.077	948.72
972.378	915.72
972.679	912.79
972.98	901.04
973.281	893.8
973.582	916.63
973.883	908.49
974.183	931.54
974.484	896.29
974.785	887.93
975.085	892.67
975.386	871.66
975.686	895.84
975.986	893.35
976.287	892.22
976.587	867.14
976.887	868.04
977.187	878.44
977.487	864.43
977.787	878.66
978.087	860.81
978.387	871.21
978.687	863.52
978.987	856.74
979.286	843.18
979.586	848.83
979.885	856.52
980.185	838.44
980.484	837.99
980.784	828.5
981.083	840.02
981.382	830.75
981.682	830.08
981.981	830.3
982.28	836.63
982.579	819.46
982.878	861.04
983.177	832.56
983.475	817.42
983.774	817.2
984.073	826.46
984.372	805.44
984.67	804.77
984.969	805.67
985.267	789.63
985.566	788.5
985.864	807.03
986.162	812.22
986.461	810.87
986.759	784.2
987.057	795.73
987.355	763.64
987.653	754.82
987.951	790.76
988.249	793.69
988.547	766.58
988.844	787.59
989.142	789.63
989.44	754.15
989.737	754.6
990.035	734.94
990.332	769.97
990.63	758.44
990.927	760.7
991.224	738.55
991.521	760.47
991.819	760.47
992.116	768.61
992.413	765.45
992.71	784.88
993.006	747.14
993.303	742.17
993.6	728.61
993.897	740.81
994.193	760.02
994.49	739.23
994.787	727.71
995.083	725.67
995.379	729.74
995.676	724.77
995.972	736.29
996.268	735.16
996.565	717.09
996.861	710.76
997.157	720.93
997.453	700.81
997.749	705.11
998.044	715.96
998.34	692
998.636	712.34
998.932	710.76
999.227	694.94
999.523	698.78
999.818	700.14
1000.114	688.84
1000.409	693.13
1000.704	705.11
1001	701.49
1001.295	709.85
1001.59	676.41
1001.885	686.35
1002.18	689.74
1002.475	677.99
1002.77	681.38
1003.065	660.14
1003.359	671.66
1003.654	677.99
1003.949	663.3
1004.243	660.82
1004.538	656.07
1004.832	642.29
1005.127	664.21
1005.421	640.48
1005.715	637.31
1006.009	639.8
1006.304	644.55
1006.598	641.38
1006.892	644.55
1007.186	622.62
1007.48	647.48
1007.773	644.32
1008.067	636.86
1008.361	636.86
1008.655	631.89
1008.948	624.66
1009.242	627.6
1009.535	629.63
1009.829	613.59
1010.122	614.26
1010.415	593.25
1010.708	612.23
1011.001	613.36
1011.295	634.6
1011.588	634.15
1011.881	586.69
1012.173	603.19
1012.466	608.61
1012.759	587.82
1013.052	604.55
1013.344	625.56
1013.637	599.8
1013.93	581.72
1014.222	549.63
1014.514	602.51
1014.807	569.07
1015.099	577.2
1015.391	573.81
1015.683	564.55
1015.976	589.63
1016.268	560.93
1016.56	574.94
1016.851	579.91
1017.143	595.05
1017.435	557.54
1017.727	555.51
1018.018	546.02
1018.31	552.57
1018.602	553.7
1018.893	557.32
1019.185	555.51
1019.476	543.08
1019.767	546.92
1020.058	550.54
1020.35	522.97
1020.641	557.99
1020.932	537.2
1021.223	555.28
1021.514	530.42
1021.804	526.58
1022.095	534.04
1022.386	561.84
1022.677	543.3
1022.967	534.04
1023.258	490.88
1023.548	523.42
1023.839	534.72
1024.129	514.61
1024.419	514.38
1024.709	518.22
1025	523.64
1025.29	517.32
1025.58	508.5
1025.87	516.64
1026.16	516.86
1026.449	515.51
1026.739	513.02
1027.029	481.84
1027.319	522.06
1027.608	478.67
1027.898	496.07
1028.187	489.97
1028.477	501.5
1028.766	516.19
1029.055	493.36
1029.344	500.14
1029.634	495.17
1029.923	482.97
1030.212	488.17
1030.501	470.54
1030.79	491.55
1031.078	498.56
1031.367	489.3
1031.656	493.14
1031.945	475.96
1032.233	487.26
1032.522	482.97
1032.81	480.93
1033.099	483.87
1033.387	476.87
1033.675	474.61
1033.963	452.69
1034.251	469.18
1034.54	477.54
1034.828	500.37
1035.116	486.81
1035.403	441.16
1035.691	454.49
1035.979	461.95
1036.267	471.67
1036.554	463.76
1036.842	461.95
1037.129	448.17
1037.417	460.37
1037.704	456.53
1037.992	464.21
1038.279	462.18
1038.566	438
1038.853	438
1039.14	438
