Data from blue_clamp_base_FLMS001491_00023.txt Node
Date: Wed Feb 08 15:15:46 GMT 2017
User: dcchb
Spectrometer: FLMS00149
Trigger mode: 0
Integration Time (sec): 2.000000E-2
Scans to average: 10
Electric dark correction enabled: true
Nonlinearity correction enabled: false
Boxcar width: 0
XAxis mode: Wavelengths
Number of Pixels in Spectrum: 2048
>>>>>Begin Spectral Data<<<<<
341.393	-15
341.776	-15
342.16	-15
342.543	-35.56
342.927	-64.49
343.31	-65.39
343.693	-70.37
344.077	-62.68
344.46	-60.42
344.843	-59.97
345.226	-40.08
345.61	-28.33
345.993	-36.47
346.376	3.08
346.759	11.21
347.142	29.52
347.525	42.4
347.908	61.61
348.291	72.23
348.674	81.04
349.057	122.62
349.44	117.43
349.823	139.57
350.206	155.62
350.588	189.51
350.971	212.34
351.354	216.63
351.737	225.67
352.119	246.01
352.502	263.64
352.884	271.32
353.267	257.76
353.65	262.28
354.032	289.85
354.414	293.92
354.797	297.76
355.179	304.09
355.562	321.04
355.944	310.64
356.326	330.75
356.709	327.14
357.091	339.79
357.473	344.99
357.855	320.58
358.238	333.92
358.62	339.57
359.002	314.94
359.384	319.68
359.766	306.12
360.148	326.46
360.53	358.78
360.912	322.84
361.294	334.14
361.676	337.76
362.057	327.36
362.439	341.38
362.821	317.42
363.203	330.3
363.584	309.51
363.966	326.46
364.348	330.75
364.729	311.55
365.111	316.29
365.493	300.02
365.874	312.22
366.256	310.87
366.637	308.83
367.019	302.96
367.4	297.31
367.781	319
368.163	298.89
368.544	304.54
368.925	310.42
369.306	302.05
369.688	290.3
370.069	296.4
370.45	306.12
370.831	296.18
371.212	309.29
371.593	308.16
371.974	311.32
372.355	319.68
372.736	299.34
373.117	297.76
373.498	309.96
373.879	303.41
374.26	300.47
374.641	301.15
375.021	334.82
375.402	302.73
375.783	321.94
376.163	335.73
376.544	326.91
376.925	294.82
377.305	331.88
377.686	326.46
378.066	307.7
378.447	322.84
378.827	305.22
379.208	317.42
379.588	309.96
379.968	318.1
380.349	333.47
380.729	347.25
381.109	315.84
381.489	338.21
381.87	328.04
382.25	321.49
382.63	330.08
383.01	326.69
383.39	326.23
383.77	340.47
384.15	332.79
384.53	336.4
384.91	320.81
385.29	329.17
385.67	320.36
386.049	352.67
386.429	343.41
386.809	354.03
387.189	364.88
387.568	342.96
387.948	351.09
388.328	336.63
388.707	345.67
389.087	353.35
389.466	350.41
389.846	380.47
390.225	351.54
390.605	367.82
390.984	352.22
391.363	394.26
391.743	369.62
392.122	382.05
392.501	375.5
392.881	377.76
393.26	388.61
393.639	385.22
394.018	388.15
394.397	395.39
394.776	401.71
395.155	386.35
395.534	405.1
395.913	386.57
396.292	417.08
396.671	414.37
397.05	413.24
397.429	423.18
397.808	425.21
398.186	430.86
398.565	439.45
398.944	420.24
399.323	401.26
399.701	434.25
400.08	438.55
400.458	427.25
400.837	465.44
401.215	446.68
401.594	435.61
401.972	431.99
402.351	428.6
402.729	447.59
403.107	456.85
403.486	483.74
403.864	463.63
404.242	478.55
404.62	461.15
404.999	471.32
405.377	487.81
405.755	507.02
406.133	483.74
406.511	489.62
406.889	512.67
407.267	499.56
407.645	503.4
408.023	534.14
408.401	543.18
408.779	555.38
409.156	548.83
409.534	560.58
409.912	531.43
410.29	555.15
410.667	537.98
411.045	557.64
411.422	548.38
411.8	589.5
412.178	585.21
412.555	589.5
412.933	594.93
413.31	609.84
413.687	606.45
414.065	628.15
414.442	628.6
414.819	639.22
415.197	630.41
415.574	654.14
415.951	666.56
416.328	643.97
416.705	648.03
417.082	678.54
417.46	684.19
417.837	675.15
418.214	670.41
418.591	689.39
418.967	701.59
419.344	688.94
419.721	728.26
420.098	734.13
420.475	750.4
420.852	725.09
421.228	734.59
421.605	734.36
421.982	753.79
422.358	764.19
422.735	742.49
423.111	751.08
423.488	743.17
423.864	754.7
424.241	802.61
424.617	783.4
424.994	795.83
425.37	793.11
425.746	802.83
426.123	796.05
426.499	799.22
426.875	852.32
427.251	849.16
427.627	864.75
428.003	862.94
428.379	901.81
428.756	892.32
429.132	921.25
429.507	934.81
429.883	908.82
430.259	939.55
430.635	924.64
431.011	945.2
431.387	994.01
431.763	1013.22
432.138	993.56
432.514	986.33
432.89	993.11
433.265	1046.44
433.641	1041.92
434.016	1045.09
434.392	1064.29
434.767	1092.77
435.143	1096.38
435.518	1100
435.894	1127.8
436.269	1128.02
436.644	1155.59
437.02	1172.09
437.395	1171.18
437.77	1191.52
438.145	1191.75
438.52	1202.6
438.895	1226.1
439.271	1236.94
439.646	1257.74
440.021	1262.93
440.395	1265.19
440.77	1258.87
441.145	1280.79
441.52	1319.43
441.895	1296.38
442.27	1317.62
442.645	1312.42
443.019	1338.64
443.394	1368.01
443.769	1360.11
444.143	1391.07
444.518	1419.76
444.892	1412.08
445.267	1397.17
445.641	1408.69
446.016	1446.2
446.39	1429.03
446.764	1430.39
447.139	1480.1
447.513	1491.63
447.887	1466.77
448.262	1477.84
448.636	1494.57
449.01	1511.29
449.384	1514.9
449.758	1544.96
450.132	1564.39
450.506	1546.09
450.88	1576.37
451.254	1554.22
451.628	1615.24
452.002	1628.35
452.376	1615.47
452.75	1631.96
453.123	1651.17
453.497	1687.1
453.871	1714.67
454.244	1720.1
454.618	1725.07
454.992	1733.88
455.365	1766.87
455.739	1777.04
456.112	1833.54
456.486	1844.61
456.859	1843.48
457.232	1882.35
457.606	1860.88
457.979	1887.78
458.352	1940.66
458.725	1963.48
459.099	1965.06
459.472	2000.31
459.845	2004.16
460.218	2048.45
460.591	2041.44
460.964	2060.2
461.337	2113.31
461.71	2151.72
462.083	2132.51
462.456	2134.1
462.829	2160.54
463.201	2206.86
463.574	2226.75
463.947	2216.58
464.32	2280.08
464.692	2324.15
465.065	2294.77
465.438	2362.11
465.81	2349.91
466.183	2371.6
466.555	2440.3
466.928	2479.62
467.3	2434.88
467.672	2469.23
468.045	2541.54
468.417	2559.4
468.789	2554.65
469.161	2596.23
469.534	2646.17
469.906	2651.37
470.278	2710.58
470.65	2708.77
471.022	2788.99
471.394	2837.35
471.766	2812.72
472.138	2852.5
472.51	2889.56
472.882	2967.52
473.253	2974.98
473.625	3013.62
473.997	3070.34
474.369	3045.94
474.74	3117.8
475.112	3121.87
475.484	3215.42
475.855	3210
476.227	3265.14
476.598	3365.7
476.97	3361.41
477.341	3444.57
477.713	3468.52
478.084	3440.95
478.455	3514.17
478.827	3570.89
479.198	3706.94
479.569	3643.21
479.94	3757.78
480.311	3767.95
480.682	3853.37
481.053	3913.03
481.424	3962.07
481.795	3979.02
482.166	4029.19
482.537	4101.28
482.908	4139.92
483.279	4137.43
483.65	4258.11
484.021	4329.07
484.391	4295.17
484.762	4355.05
485.133	4365.68
485.503	4458.33
485.874	4492.45
486.244	4524.77
486.615	4585.33
486.985	4656.06
487.356	4711.66
487.726	4717.08
488.097	4805.21
488.467	4808.15
488.837	4873.69
489.207	4906
489.578	5009.05
489.948	4978.09
490.318	5037.75
490.688	5049.05
491.058	5081.14
491.428	5133.79
491.798	5171.08
492.168	5233.22
492.538	5302.15
492.908	5296.05
493.278	5397.51
493.648	5335.14
494.017	5417.4
494.387	5435.48
494.757	5460.34
495.126	5525.42
495.496	5522.93
495.866	5545.08
496.235	5584.18
496.605	5632.76
496.974	5592.08
497.344	5657.85
497.713	5663.5
498.082	5701.23
498.452	5777.84
498.821	5780.1
499.19	5791.18
499.559	5818.07
499.928	5827.33
500.298	5832.98
500.667	5923.83
501.036	5892.19
501.405	5891.74
501.774	5915.47
502.143	5938.74
502.512	5996.82
502.88	5977.39
503.249	6016.71
503.618	6019.64
503.987	6039.98
504.356	6042.47
504.724	6100.32
505.093	6092.18
505.462	6119.3
505.83	6142.8
506.199	6187.78
506.567	6263.25
506.936	6211.5
507.304	6290.15
507.672	6299.64
508.041	6274.55
508.409	6322.46
508.777	6324.49
509.145	6390.71
509.514	6406.75
509.882	6364.04
510.25	6425.28
510.618	6435.45
510.986	6458.73
511.354	6526.75
511.722	6558.39
512.09	6576.47
512.458	6508.9
512.826	6560.65
513.193	6594.09
513.561	6600.65
513.929	6584.37
514.297	6746.86
514.664	6734.2
515.032	6699.63
515.4	6684.03
515.767	6737.82
516.135	6724.26
516.502	6719.29
516.869	6810.36
517.237	6829.79
517.604	6813.75
517.972	6832.73
518.339	6925.83
518.706	6844.03
519.073	6867.08
519.44	6920.86
519.808	6955.44
520.175	7004.93
520.542	7029.33
520.909	7063.46
521.276	7050.35
521.643	7089.22
522.009	7098.94
522.376	7144.36
522.743	7160.4
523.11	7232.95
523.477	7242.89
523.843	7279.95
524.21	7310.46
524.577	7380.74
524.943	7387.74
525.31	7430.68
525.676	7415.99
526.043	7517.01
526.409	7530.56
526.776	7583.67
527.142	7599.49
527.508	7601.75
527.874	7600.62
528.241	7733.72
528.607	7680.84
528.973	7695.76
529.339	7717.23
529.705	7780.95
530.071	7770.56
530.437	7803.33
530.803	7898.46
531.169	7898.01
531.535	7885.13
531.901	7967.62
532.267	7995.64
532.632	7983.66
532.998	8054.39
533.364	7987.28
533.73	8032.92
534.095	8153.15
534.461	8106.59
534.826	8111.57
535.192	8150.66
535.557	8225.69
535.923	8181.85
536.288	8257.55
536.653	8275.63
537.019	8191.79
537.384	8318.34
537.749	8300.71
538.114	8302.97
538.479	8321.96
538.845	8333.48
539.21	8280.6
539.575	8323.09
539.94	8397.66
540.305	8441.05
540.67	8417.1
541.034	8433.82
541.399	8472.01
541.764	8421.16
542.129	8501.39
542.494	8519.69
542.858	8507.49
543.223	8518.56
543.587	8588.62
543.952	8619.8
544.316	8584.55
544.681	8598.56
545.045	8601.05
545.41	8663.64
545.774	8670.42
546.138	8705.45
546.503	8672
546.867	8707.93
547.231	8660.48
547.595	8780.7
547.959	8742.51
548.324	8761.94
548.688	8756.07
549.052	8826.58
549.416	8779.35
549.779	8808.05
550.143	8848.5
550.507	8887.37
550.871	8858.67
551.235	8827.03
551.599	8898.21
551.962	8918.55
552.326	8922.84
552.689	8978.44
553.053	8848.5
553.417	8969.85
553.78	9080.58
554.143	8949.51
554.507	9050.98
554.87	8981.15
555.234	9073.57
555.597	9064.99
555.96	9014.37
556.323	9093.91
556.686	9105.21
557.05	9123.97
557.413	9122.84
557.776	9213.46
558.139	9177.53
558.502	9098.66
558.865	9220.24
559.228	9235.38
559.59	9288.94
559.953	9298.2
560.316	9335.04
560.679	9299.56
561.041	9311.99
561.404	9403.74
561.767	9464.3
562.129	9388.59
562.492	9428.37
562.854	9524.86
563.217	9466.33
563.579	9542.04
563.941	9583.39
564.304	9551.08
564.666	9645.09
565.028	9677.4
565.39	9618.87
565.753	9662.94
566.115	9641.7
566.477	9713.56
566.839	9787
567.201	9804.63
567.563	9822.26
567.925	9813.89
568.287	9828.36
568.648	9896.15
569.01	9962.14
569.372	9949.26
569.734	9949.03
570.095	10013.66
570.457	10053.44
570.819	10126.88
571.18	10058.18
571.542	10102.7
571.903	10186.31
572.265	10120.78
572.626	10126.88
572.987	10252.08
573.349	10249.36
573.71	10234.22
574.071	10304.96
574.432	10289.81
574.794	10363.94
575.155	10498.62
575.516	10354.45
575.877	10429.47
576.238	10410.49
576.599	10514.44
576.96	10434.22
577.32	10443.93
577.681	10500.66
578.042	10598.28
578.403	10544.72
578.763	10550.15
579.124	10546.98
579.485	10655.68
579.845	10612.52
580.206	10628.79
580.566	10650.93
580.927	10718.28
581.287	10685.28
581.648	10709.69
582.008	10662.46
582.368	10631.95
582.728	10767.77
583.089	10633.31
583.449	10720.31
583.809	10744.27
584.169	10749.24
584.529	10793.08
584.889	10871.49
585.249	10805.73
585.609	10784.26
585.969	10790.82
586.329	10767.32
586.688	10783.81
587.048	10769.8
587.408	10818.16
587.768	10829.24
588.127	10789.46
588.487	10773.42
588.846	10907.88
589.206	10804.38
589.565	10866.75
589.925	10878.27
590.284	10836.47
590.643	10856.58
591.003	10942.45
591.362	10963.69
591.721	10906.07
592.08	10900.42
592.44	10923.24
592.799	10846.64
593.158	10908.33
593.517	10956.46
593.876	10954.66
594.235	10947.2
594.593	10980.64
594.952	10987.2
595.311	10943.81
595.67	10951.94
596.029	11070.36
596.387	11005.95
596.746	11029.46
597.104	11054.77
597.463	11005.73
597.822	10960.98
598.18	10936.35
598.538	11065.39
598.897	11148.32
599.255	10971.83
599.613	11120.07
599.972	11066.06
600.33	11119.17
600.688	11026.07
601.046	11149.45
601.404	11134.54
601.762	11126.63
602.12	11179.06
602.478	11169.79
602.836	11137.48
603.194	11126.85
603.552	11153.07
603.91	11094.54
604.268	11141.77
604.625	11121.43
604.983	11087.99
605.341	11088.44
605.698	11184.25
606.056	11179.96
606.413	11210.24
606.771	11278.26
607.128	11243.46
607.485	11239.62
607.843	11220.64
608.2	11309.67
608.557	11257.25
608.914	11221.77
609.272	11289.34
609.629	11294.53
609.986	11328.43
610.343	11227.87
610.7	11406.39
611.057	11286.4
611.414	11368.43
611.771	11407.75
612.127	11422.21
612.484	11387.86
612.841	11380.86
613.198	11377.47
613.554	11441.2
613.911	11478.03
614.267	11436.45
614.624	11457.92
614.98	11488.43
615.337	11530.23
615.693	11583.79
616.05	11448.65
616.406	11615.66
616.762	11564.36
617.118	11536.56
617.475	11539.05
617.831	11558.71
618.187	11556.45
618.543	11601.42
618.899	11620.63
619.255	11589.89
619.611	11706.05
619.967	11672.83
620.323	11695.2
620.678	11652.49
621.034	11645.94
621.39	11765.26
621.746	11676.67
622.101	11807.97
622.457	11749.89
622.812	11758.48
623.168	11799.83
623.523	11855.87
623.879	11802.32
624.234	11791.47
624.589	11765.71
624.945	11896.1
625.3	11855.87
625.655	11833.28
626.01	11807.74
626.365	11854.29
626.72	11855.65
627.075	11921.18
627.43	11930.9
627.785	11938.13
628.14	11935.65
628.495	11928.19
628.85	11901.52
629.205	11939.71
629.559	11942.65
629.914	11967.06
630.269	11932.03
630.623	11961.86
630.978	11913.95
631.332	11924.12
631.687	12073.5
632.041	11972.03
632.396	12090.44
632.75	12018.58
633.104	11968.87
633.459	11859.04
633.813	11943.1
634.167	11995.08
634.521	11988.75
634.875	11992.14
635.229	12042.99
635.583	11944.46
635.937	11971.35
636.291	11932.93
636.645	12008.41
636.999	11993.05
637.352	12082.54
637.706	12007.51
638.06	12024.68
638.413	12101.74
638.767	12024.46
639.121	12059.71
639.474	12060.39
639.828	12059.71
640.181	12034.63
640.534	12049.32
640.888	12036.43
641.241	12049.99
641.594	12030.11
641.947	12152.59
642.301	12112.37
642.654	12158.24
643.007	12058.13
643.36	12070.78
643.713	12109.2
644.066	12133.83
644.419	12075.98
644.771	12095.64
645.124	11978.58
645.477	12082.99
645.83	12027.85
646.182	11915.99
646.535	11918.25
646.888	11847.74
647.24	11706.27
647.593	11781.98
647.945	11743.79
648.298	11756.89
648.65	11721.19
649.002	11753.05
649.355	11875.76
649.707	11931.58
650.059	12024.23
650.411	12179.03
650.763	12185.58
651.115	12273.26
651.467	12226.94
651.819	12264.45
652.171	12303.77
652.523	12279.59
652.875	12191.69
653.227	12290.67
653.578	12313.94
653.93	12362.08
654.282	12400.95
654.633	12321.85
654.985	12401.17
655.337	12334.51
655.688	12300.83
656.039	12401.62
656.391	12297.9
656.742	12370.21
657.094	12333.38
657.445	12452.02
657.796	12436.88
658.147	12444.11
658.498	12412.02
658.849	12393.94
659.2	12350.55
659.551	12409.53
659.902	12457.89
660.253	12431.23
660.604	12503.32
660.955	12440.49
661.306	12452.24
661.656	12435.97
662.007	12455.86
662.358	12464.67
662.708	12433.49
663.059	12503.32
663.409	12432.58
663.76	12532.69
664.11	12447.27
664.461	12503.99
664.811	12532.24
665.161	12425.58
665.511	12438.46
665.862	12420.15
666.212	12508.06
666.562	12546.7
666.912	12451.79
667.262	12441.17
667.612	12460.15
667.962	12484.56
668.312	12370.66
668.662	12362.08
669.011	12405.92
669.361	12379.93
669.711	12417.44
670.06	12384.67
670.41	12271.68
670.76	12281.85
671.109	12365.47
671.459	12170.44
671.808	12258.8
672.157	12193.72
672.507	12093.83
672.856	12125.92
673.205	12117.79
673.554	12171.57
673.904	12134.29
674.253	12205.24
674.602	12095.19
674.951	11951.01
675.3	11859.94
675.649	12086.83
675.998	12005.25
676.346	11993.05
676.695	12044.57
677.044	11861.75
677.393	12014.06
677.741	11974.97
678.09	11968.41
678.438	11915.31
678.787	11934.52
679.135	11865.59
679.484	11802.32
679.832	11802.32
680.181	11730.68
680.529	11799.6
680.877	11771.58
681.225	11701.53
681.573	11786.27
681.922	11726.61
682.27	11645.94
682.618	11641.64
682.966	11604.36
683.314	11581.53
683.661	11588.99
684.009	11521.42
684.357	11468.54
684.705	11439.61
685.053	11421.54
685.4	11502.66
685.748	11391.48
686.095	11369.11
686.443	11323.01
686.79	11301.31
687.138	11367.53
687.485	11337.92
687.832	11252.05
688.18	11381.54
688.527	11175.89
688.874	11263.8
689.221	11236.23
689.568	11203.24
689.915	11154.2
690.262	11210.24
690.609	11190.13
690.956	11205.5
691.303	11121.88
691.65	11134.09
691.997	11100.87
692.344	11023.35
692.69	11053.86
693.037	11059.96
693.383	10958.27
693.73	10952.62
694.077	10934.77
694.423	10983.58
694.769	10949.23
695.116	10936.8
695.462	10923.7
695.808	10836.92
696.155	10871.95
696.501	10835.11
696.847	10863.81
697.193	10740.88
697.539	10877.37
697.885	10700.65
698.231	10679.63
698.577	10766.64
698.923	10730.93
699.269	10686.87
699.614	10603.03
699.96	10695.45
700.306	10669.47
700.651	10642.8
700.997	10544.95
701.342	10534.1
701.688	10615
702.033	10562.58
702.379	10603.93
702.724	10550.15
703.069	10597.6
703.415	10475.57
703.76	10494.1
704.105	10490.26
704.45	10578.62
704.795	10523.71
705.14	10399.19
705.485	10519.19
705.83	10453.88
706.175	10485.74
706.52	10471.73
706.865	10408.46
707.209	10430.6
707.554	10423.14
707.899	10361.22
708.243	10373.2
708.588	10331.62
708.932	10352.19
709.277	10349.02
709.621	10290.49
709.966	10276.26
710.31	10358.06
710.654	10221.12
710.998	10265.63
711.342	10265.18
711.687	10272.64
712.031	10141.34
712.375	10218.4
712.719	10206.2
713.063	10214.79
713.407	10264.05
713.75	10200.33
714.094	10212.75
714.438	10156.48
714.782	10138.18
715.125	10126.2
715.469	10137.05
715.812	10075.81
716.156	10105.41
716.499	10162.13
716.843	10097.73
717.186	9987.68
717.53	10114.68
717.873	10046.88
718.216	10120.78
718.559	10041.69
718.902	9938.19
719.246	9981.8
719.589	10011.63
719.932	9945.87
720.275	10002.59
720.617	9979.77
720.96	10005.3
721.303	10041.46
721.646	9983.83
721.989	9896.38
722.331	9931.86
722.674	9966.21
723.016	9987.22
723.359	9999.43
723.701	9967.79
724.044	9925.98
724.386	9881.69
724.729	9937.28
725.071	9938.41
725.413	9883.05
725.755	9844.18
726.097	9885.76
726.439	9822.48
726.782	9888.47
727.124	9932.76
727.465	9860.67
727.807	9872.88
728.149	9845.98
728.491	9917.39
728.833	9961.46
729.175	9965.98
729.516	9928.47
729.858	9860.45
730.199	9877.4
730.541	9916.26
730.882	9857.74
731.224	9935.02
731.565	9809.37
731.906	9897.51
732.248	9845.08
732.589	9861.8
732.93	9815.93
733.271	9892.31
733.612	9920.56
733.953	9952.87
734.294	9872.88
734.635	9796.49
734.976	9947.22
735.317	9965.3
735.658	9952.42
735.999	9916.04
736.339	9979.09
736.68	9941.8
737.021	9993.32
737.361	9909.26
737.702	10046.43
738.042	9907.23
738.383	9978.64
738.723	10048.01
739.063	10023.15
739.404	10074
739.744	10012.99
740.084	9972.76
740.424	9983.38
740.764	10087.33
741.104	10092.08
741.444	10070.38
741.784	10194.68
742.124	10138.86
742.464	10118.52
742.804	10152.87
743.143	10143.6
743.483	10142.7
743.823	10172.3
744.162	10207.1
744.502	10319.87
744.841	10212.53
745.181	10303.83
745.52	10293.88
745.86	10304.73
746.199	10385.18
746.538	10335.01
746.877	10301.79
747.216	10386.08
747.556	10331.85
747.895	10430.83
748.234	10409.59
748.573	10457.72
748.911	10471.5
749.25	10440.77
749.589	10471.5
749.928	10609.35
750.267	10666.3
750.605	10566.87
750.944	10610.71
751.283	10572.97
751.621	10607.55
751.96	10653.42
752.298	10660.2
752.636	10680.09
752.975	10672.63
753.313	10590.15
753.651	10709.92
753.989	10763.7
754.327	10715.57
754.666	10702.23
755.004	10780.42
755.342	10847.09
755.679	10875.34
756.017	10814.09
756.355	10832.4
756.693	10879.4
757.031	10864.26
757.368	10865.84
757.706	10820.65
758.044	10912.85
758.381	10946.75
758.719	10910.36
759.056	11026.29
759.394	11027.87
759.731	10932.28
760.068	10970.02
760.405	10982.23
760.743	10884.37
761.08	10999.17
761.417	10982.68
761.754	10961.43
762.091	11072.39
762.428	11022.22
762.765	11036.24
763.102	11065.16
763.438	11117.36
763.775	10978.61
764.112	11094.09
764.449	11103.13
764.785	11053.86
765.122	11030.81
765.458	11075.33
765.795	11116.69
766.131	11115.1
766.467	11075.56
766.804	11039.17
767.14	11097.93
767.476	11137.7
767.812	11120.75
768.148	11137.02
768.485	11074.43
768.821	11076.46
769.157	11096.57
769.492	11151.49
769.828	11110.58
770.164	11003.02
770.5	11062
770.836	11072.17
771.171	11092.5
771.507	11065.61
771.842	11053.64
772.178	11053.64
772.513	11112.62
772.849	11021.55
773.184	11080.08
773.519	11075.33
773.855	11026.07
774.19	11030.13
774.525	11047.08
774.86	11023.35
775.195	11106.97
775.53	11032.85
775.865	11052.51
776.2	10934.09
776.535	10937.03
776.87	10974.99
777.205	11015.22
777.539	11013.18
777.874	10943.13
778.209	10912.85
778.543	10991.04
778.878	10873.98
779.212	10989.23
779.547	10939.97
779.881	10957.59
780.215	10881.66
780.55	10908.1
780.884	10920.31
781.218	10853.19
781.552	10882.34
781.886	10890.48
782.22	10865.39
782.554	10822
782.888	10750.37
783.222	10775.23
783.556	10765.73
783.889	10728.45
784.223	10719.63
784.557	10726.86
784.89	10812.74
785.224	10729.58
785.557	10685.74
785.891	10709.01
786.224	10677.37
786.558	10730.71
786.891	10579.75
787.224	10605.96
787.557	10615
787.891	10693.87
788.224	10651.39
788.557	10592.86
788.89	10616.36
789.223	10622.69
789.556	10553.08
789.888	10581.78
790.221	10588.79
790.554	10494.1
790.887	10508.57
791.219	10463.37
791.552	10527.77
791.884	10482.58
792.217	10405.07
792.549	10447.78
792.882	10395.8
793.214	10349.02
793.546	10490.94
793.879	10423.6
794.211	10399.87
794.543	10405.29
794.875	10365.52
795.207	10451.17
795.539	10375.24
795.871	10402.58
796.203	10355.8
796.535	10235.58
796.867	10287.33
797.198	10233.77
797.53	10257.05
797.862	10217.95
798.193	10270.61
798.525	10138.41
798.856	10186.77
799.188	10131.63
799.519	10154.9
799.85	10120.1
800.182	10119.65
800.513	10124.17
800.844	10008.24
801.175	10119.42
801.506	10120.33
801.837	10050.27
802.168	10030.84
802.499	9979.77
802.83	10020.44
803.161	10009.82
803.491	10077.16
803.822	9920.78
804.153	9924.85
804.483	9899.99
804.814	9831.07
805.145	9828.81
805.475	9938.19
805.805	9906.55
806.136	9856.61
806.466	9843.27
806.796	9831.97
807.126	9756.04
807.457	9742.48
807.787	9795.14
808.117	9774.12
808.447	9759.66
808.777	9717.63
809.107	9735.48
809.436	9699.32
809.766	9693.45
810.096	9593.56
810.426	9653.9
810.755	9713.11
811.085	9683.28
811.414	9640.11
811.744	9642.37
812.073	9572.09
812.403	9611.41
812.732	9563.05
813.061	9590.85
813.39	9509.27
813.719	9487.8
814.049	9495.03
814.378	9469.04
814.707	9416.39
815.036	9536.39
815.365	9423.62
815.693	9394.7
816.022	9409.84
816.351	9320.8
816.68	9340.69
817.008	9443.28
817.337	9330.52
817.665	9285.55
817.994	9283.74
818.322	9300.91
818.651	9272.89
818.979	9181.59
819.307	9227.92
819.636	9155.83
819.964	9246.23
820.292	9257.98
820.62	9245.1
820.948	9242.16
821.276	9175.49
821.604	9153.35
821.932	9272.21
822.259	9168.49
822.587	9293.68
822.915	9271.76
823.243	9170.52
823.57	9177.08
823.898	9207.81
824.225	9278.09
824.553	9318.99
824.88	9281.71
825.207	9285.77
825.535	9258.88
825.862	9270.41
826.189	9242.38
826.516	9271.54
826.843	9347.24
827.17	9294.81
827.497	9348.82
827.824	9351.99
828.151	9330.52
828.478	9288.71
828.805	9424.07
829.131	9350.18
829.458	9356.96
829.785	9290.07
830.111	9306.56
830.438	9364.19
830.764	9323.29
831.09	9352.89
831.417	9287.13
831.743	9319.22
832.069	9349.73
832.395	9347.24
832.722	9360.35
833.048	9283.06
833.374	9333.23
833.7	9261.82
834.026	9302.5
834.351	9339.1
834.677	9354.47
835.003	9310.4
835.329	9304.76
835.654	9271.76
835.98	9267.02
836.306	9296.85
836.631	9332.33
836.956	9201.93
837.282	9263.85
837.607	9248.71
837.932	9247.13
838.258	9241.25
838.583	9206.45
838.908	9162.39
839.233	9185.44
839.558	9191.76
839.883	9115.38
840.208	9103.4
840.533	9137.53
840.858	9145.66
841.182	9140.24
841.507	9139.79
841.832	9106.34
842.156	9029.73
842.481	9096.4
842.805	9019.57
843.13	9069.73
843.454	8942.05
843.778	8997.87
844.103	9024.99
844.427	9024.54
844.751	8895.27
845.075	8954.03
845.399	8929.17
845.723	8909.06
846.047	8846.69
846.371	8832.68
846.695	8810.98
847.019	8701.38
847.343	8763.53
847.666	8672.91
847.99	8681.04
848.313	8607.6
848.637	8564.44
848.96	8665.68
849.284	8567.83
849.607	8458.68
849.931	8510.2
850.254	8453.03
850.577	8369.86
850.9	8396.3
851.223	8384.1
851.546	8345.91
851.869	8243.54
852.192	8319.02
852.515	8248.06
852.838	8169.64
853.161	8230.66
853.483	8162.41
853.806	8134.62
854.129	8158.8
854.451	8113.37
854.774	8107.72
855.096	8072.7
855.419	8087.61
855.741	8026.14
856.063	7972.81
856.385	8020.72
856.708	7952.93
857.03	7882.87
857.352	7919.48
857.674	7858.24
857.996	7900.95
858.318	7772.82
858.64	7759.03
858.961	7777.56
859.283	7786.6
859.605	7695.53
859.926	7716.32
860.248	7752.03
860.57	7714.06
860.891	7685.59
861.212	7616.66
861.534	7640.84
861.855	7627.29
862.176	7622.31
862.498	7583.22
862.819	7600.62
863.14	7610.34
863.461	7506.38
863.782	7587.29
864.103	7562.88
864.424	7547.06
864.745	7533.73
865.065	7504.12
865.386	7457.35
865.707	7493.96
866.027	7448.53
866.348	7425.26
866.668	7460.96
866.989	7446.95
867.309	7404.47
867.63	7395.2
867.95	7400.17
868.27	7366.95
868.59	7365.82
868.91	7361.3
869.23	7387.74
869.55	7289.22
869.87	7375.31
870.19	7265.26
870.51	7316.11
870.83	7323.11
871.15	7305.26
871.469	7237.47
871.789	7286.96
872.109	7279.95
872.428	7230.91
872.748	7247.41
873.067	7228.43
873.386	7309.33
873.706	7227.97
874.025	7160.4
874.344	7217.13
874.663	7214.64
874.982	7182.1
875.301	7204.92
875.62	7117.69
875.939	7105.94
876.258	7169.67
876.577	7146.85
876.896	7137.13
877.214	7067.98
877.533	7120.18
877.852	7027.98
878.17	7131.48
878.489	7070.69
878.807	7089.67
879.125	7086.96
879.444	7074.53
879.762	7009.45
880.08	6985.27
880.398	6961.09
880.716	6997.47
881.034	7038.37
881.352	7014.65
881.67	6978.71
881.988	6930.13
882.306	6928.32
882.624	6926.29
882.941	6858.94
883.259	6837.48
883.577	6871.15
883.894	6911.6
884.212	6822.56
884.529	6824.82
884.846	6825.05
885.164	6759.06
885.481	6798.38
885.798	6798.38
886.115	6750.47
886.432	6747.31
886.75	6726.07
887.067	6745.27
887.383	6673.41
887.7	6750.47
888.017	6686.75
888.334	6686.29
888.651	6684.94
888.967	6634.32
889.284	6572.17
889.6	6608.78
889.917	6526.3
890.233	6515.68
890.55	6549.12
890.866	6540.76
891.182	6509.8
891.498	6494.66
891.815	6444.04
892.131	6465.73
892.447	6448.56
892.763	6407.2
893.079	6392.29
893.395	6417.6
893.71	6352.52
894.026	6303.48
894.342	6314.78
894.657	6295.12
894.973	6238.85
895.289	6238.85
895.604	6244.04
895.92	6133.77
896.235	6192.29
896.55	6190.03
896.865	6201.11
897.181	6119.3
897.496	6142.8
897.811	6102.13
898.126	6055.12
898.441	6043.15
898.756	6055.12
899.071	6054.45
899.386	6007.21
899.7	5975.8
900.015	5945.52
900.33	5931.51
900.644	5915.01
900.959	5964.05
901.273	5880.44
901.588	5861.23
901.902	5859.42
902.216	5808.8
902.531	5844.06
902.845	5794.11
903.159	5738.75
903.473	5758.86
903.787	5721.57
904.101	5676.15
904.415	5677.96
904.729	5672.31
905.042	5623.04
905.356	5640.9
905.67	5617.17
905.984	5606.1
906.297	5602.48
906.611	5545.53
906.924	5603.61
907.237	5494.91
907.551	5515.7
907.864	5497.4
908.177	5459.43
908.491	5430.51
908.804	5441.58
909.117	5322.71
909.43	5351.41
909.743	5342.6
910.056	5327.46
910.368	5274.35
910.681	5323.62
910.994	5267.57
911.307	5227.57
911.619	5168.82
911.932	5244.98
912.244	5195.94
912.557	5192.77
912.869	5155.94
913.181	5064.41
913.494	5104.41
913.806	5108.03
914.118	5085.21
914.43	5035.49
914.742	5021.03
915.054	4959.33
915.366	5009.5
915.678	4934.93
915.99	4966.11
916.302	4921.59
916.613	4847.92
916.925	4903.29
917.236	4857.64
917.548	4809.51
917.859	4842.73
918.171	4810.64
918.482	4779.45
918.794	4767.93
919.105	4741.71
919.416	4784.2
919.727	4730.86
920.038	4683.86
920.349	4699
920.66	4672.56
920.971	4639.12
921.282	4604.54
921.593	4589.63
921.903	4553.47
922.214	4550.76
922.525	4545.33
922.835	4576.74
923.146	4486.58
923.456	4480.25
923.767	4455.62
924.077	4444.09
924.387	4422.17
924.697	4442.96
925.008	4409.06
925.318	4360.93
925.628	4390.31
925.938	4373.59
926.248	4341.5
926.558	4296.98
926.867	4245.91
927.177	4239.35
927.487	4257.66
927.796	4218.79
928.106	4200.26
928.416	4217.21
928.725	4181.5
929.034	4177.21
929.344	4165
929.653	4161.61
929.962	4083.2
930.271	4052.01
930.581	4056.08
930.89	4032.13
931.199	4034.16
931.508	4005.46
931.817	4043.2
932.125	4035.97
932.434	3943.77
932.743	3948.29
933.051	3933.15
933.36	3970.88
933.669	3929.76
933.977	3891.56
934.286	3905.58
934.594	3864.9
934.902	3868.29
935.21	3837.1
935.519	3808.18
935.827	3807.5
936.135	3777.9
936.443	3759.14
936.751	3778.57
937.059	3714.85
937.367	3714.62
937.674	3707.16
937.982	3728.63
938.29	3711.68
938.597	3658.12
938.905	3650.21
939.213	3649.54
939.52	3657.9
939.827	3664.45
940.135	3580.61
940.442	3611.35
940.749	3617.22
941.056	3537
941.363	3549.65
941.67	3563.21
941.977	3516.21
942.284	3499.48
942.591	3456.55
942.898	3494.29
943.205	3505.81
943.511	3452.25
943.818	3498.13
944.125	3392.37
944.431	3396.21
944.738	3415.42
945.044	3408.64
945.35	3383.78
945.657	3339.94
945.963	3354.86
946.269	3315.08
946.575	3335.87
946.881	3290.22
947.187	3262.88
947.493	3268.08
947.799	3279.83
948.105	3215.65
948.41	3225.59
948.716	3199.61
949.022	3200.51
949.327	3212.71
949.633	3168.19
949.938	3153.05
950.244	3208.87
950.549	3145.14
950.854	3139.95
951.16	3089.33
951.465	3087.07
951.77	3095.2
952.075	3114.86
952.38	3014.3
952.685	3041.42
952.99	3011.14
953.294	3045.03
953.599	2993.06
953.904	3000.97
954.209	2987.18
954.513	2960.06
954.818	2964.36
955.122	2943.79
955.426	2972.94
955.731	2951.7
956.035	2920.52
956.339	2927.75
956.643	2896.34
956.948	2860.86
957.252	2841.2
957.556	2846.62
957.86	2847.3
958.163	2844.59
958.467	2844.81
958.771	2821.08
959.075	2800.07
959.378	2789.22
959.682	2785.38
959.985	2770.24
960.289	2734.53
960.592	2729.34
960.896	2715.1
961.199	2715.1
961.502	2697.92
961.805	2669
962.108	2695.89
962.411	2685.27
962.714	2649.34
963.017	2631.48
963.32	2650.24
963.623	2622.9
963.926	2628.09
964.228	2587.19
964.531	2586.29
964.833	2605.04
965.136	2546.97
965.438	2570.92
965.741	2542.22
966.043	2539.28
966.345	2509.45
966.648	2522.56
966.95	2522.11
967.252	2493.63
967.554	2478.72
967.856	2492.73
968.158	2462.68
968.46	2472.84
968.761	2454.99
969.063	2471.49
969.365	2424.26
969.666	2424.26
969.968	2404.37
970.269	2391.26
970.571	2385.39
970.872	2383.58
971.174	2374.32
971.475	2383.36
971.776	2398.27
972.077	2363.92
972.378	2333.19
972.679	2339.97
972.98	2317.37
973.281	2353.75
973.582	2285.73
973.883	2252.74
974.183	2264.04
974.484	2275.34
974.785	2250.7
975.085	2218.39
975.386	2253.87
975.686	2256.13
975.986	2229.91
976.287	2203.93
976.587	2191.5
976.887	2160.08
977.187	2196.69
977.487	2178.62
977.787	2183.81
978.087	2182.46
978.387	2162.57
978.687	2148.79
978.987	2142.91
979.286	2125.28
979.586	2119.41
979.885	2114.66
980.185	2079.63
980.484	2079.63
980.784	2084.83
981.083	2078.28
981.382	2053.19
981.682	2064.27
981.981	2077.6
982.28	2069.69
982.579	2040.09
982.878	1994.89
983.177	2026.75
983.475	2025.17
983.774	1965.29
984.073	1986.76
984.372	1994.89
984.67	1970.48
984.969	1979.52
985.267	1960.09
985.566	1951.05
985.864	1952.86
986.162	1960.77
986.461	1939.3
986.759	1925.97
987.057	1931.39
987.355	1914.22
987.653	1885.74
987.951	1862.92
988.249	1903.59
988.547	1874.22
988.844	1857.95
989.142	1850.71
989.44	1841
989.737	1809.36
990.035	1804.39
990.332	1805.52
990.63	1807.78
990.927	1798.06
991.224	1797.38
991.521	1770.49
991.819	1785.86
992.116	1798.96
992.413	1745.18
992.71	1767.1
993.006	1758.74
993.303	1740.89
993.6	1736.14
993.897	1729.14
994.193	1718.06
994.49	1719.19
994.787	1723.71
995.083	1703.83
995.379	1672.87
995.676	1685.97
995.972	1682.58
996.268	1696.14
996.565	1673.54
996.861	1654.11
997.157	1652.75
997.453	1643.04
997.749	1613.66
998.044	1639.19
998.34	1637.16
998.636	1608.91
998.932	1617.27
999.227	1605.75
999.523	1547.67
999.818	1592.64
1000.114	1557.39
1000.409	1596.71
1000.704	1565.07
1001	1534.34
1001.295	1516.49
1001.59	1525.75
1001.885	1551.51
1002.18	1517.62
1002.475	1498.41
1002.77	1515.81
1003.065	1504.06
1003.359	1476.26
1003.654	1495.7
1003.949	1481.46
1004.243	1440.78
1004.538	1450.5
1004.832	1471.29
1005.127	1438.52
1005.421	1442.14
1005.715	1438.97
1006.009	1421.8
1006.304	1419.09
1006.598	1373.66
1006.892	1394.68
1007.186	1401.69
1007.48	1358.3
1007.773	1393.32
1008.067	1361.01
1008.361	1364.17
1008.655	1365.3
1008.948	1345.87
1009.242	1350.16
1009.535	1333.44
1009.829	1313.55
1010.122	1329.6
1010.415	1323.5
1010.708	1318.3
1011.001	1297.73
1011.295	1253.22
1011.588	1283.72
1011.881	1274.46
1012.173	1263.61
1012.466	1243.5
1012.759	1263.84
1013.052	1236.49
1013.344	1277.4
1013.637	1233.33
1013.93	1253.44
1014.222	1254.35
1014.514	1219.54
1014.807	1242.59
1015.099	1197.4
1015.391	1203.5
1015.683	1218.19
1015.976	1221.58
1016.268	1178.64
1016.56	1194.46
1016.851	1155.37
1017.143	1129.83
1017.435	1164.63
1017.727	1165.53
1018.018	1151.52
1018.31	1140.68
1018.602	1126.89
1018.893	1133.67
1019.185	1130.28
1019.476	1096.61
1019.767	1069.49
1020.058	1106.78
1020.35	1074.24
1020.641	1080.34
1020.932	1098.64
1021.223	1063.16
1021.514	1073.56
1021.804	1040.79
1022.095	1042.83
1022.386	1041.24
1022.677	1045.99
1022.967	1037.18
1023.258	1020.91
1023.548	1015.26
1023.839	1029.72
1024.129	1034.46
1024.419	1003.05
1024.709	1002.15
1025	983.39
1025.29	973.9
1025.58	989.95
1025.87	956.5
1026.16	978.65
1026.449	974.13
1026.739	983.39
1027.029	970.51
1027.319	951.53
1027.608	942.26
1027.898	943.39
1028.187	937.97
1028.477	923.51
1028.766	917.86
1029.055	883.96
1029.344	929.61
1029.634	896.84
1029.923	895.03
1030.212	924.18
1030.501	918.54
1030.79	892.77
1031.078	892.77
1031.367	880.12
1031.656	878.99
1031.945	871.08
1032.233	855.03
1032.522	859.55
1032.81	858.88
1033.099	826.11
1033.387	846.22
1033.675	833.57
1033.963	823.17
1034.251	844.86
1034.54	831.76
1034.828	810.29
1035.116	792.66
1035.403	809.84
1035.691	791.31
1035.979	819.33
1036.267	803.51
1036.554	827.69
1036.842	793.79
1037.129	791.53
1037.417	767.8
1037.704	780.23
1037.992	766.9
1038.279	782.04
1038.566	750.18
1038.853	750.18
1039.14	750.18
