Data from blue_chair_FLMS001491_00065.txt Node
Date: Wed Feb 08 10:31:33 GMT 2017
User: dcchb
Spectrometer: FLMS00149
Trigger mode: 0
Integration Time (sec): 2.000000E-2
Scans to average: 10
Electric dark correction enabled: true
Nonlinearity correction enabled: false
Boxcar width: 0
XAxis mode: Wavelengths
Number of Pixels in Spectrum: 2048
>>>>>Begin Spectral Data<<<<<
341.393	-16.31
341.776	-16.31
342.16	-16.31
342.543	-66.03
342.927	-69.42
343.31	-62.41
343.693	-83.2
344.077	-72.58
344.46	-58.12
344.843	-58.57
345.226	-59.02
345.61	-21.28
345.993	-20.38
346.376	10.8
346.759	17.13
347.142	18.49
347.525	45.83
347.908	73.18
348.291	71.82
348.674	85.38
349.057	112.95
349.44	112.95
349.823	139.16
350.206	129.67
350.588	171.48
350.971	211.25
351.354	193.17
351.737	229.78
352.119	253.28
352.502	239.73
352.884	252.61
353.267	257.58
353.65	256.9
354.032	272.04
354.414	269.78
354.797	283.79
355.179	283.11
355.562	294.87
355.944	310.46
356.326	288.09
356.709	307.97
357.091	304.13
357.473	338.71
357.855	317.92
358.238	299.38
358.62	298.03
359.002	304.13
359.384	321.76
359.766	313.62
360.148	320.63
360.53	301.19
360.912	319.27
361.294	289.67
361.676	318.59
362.057	311.14
362.439	303
362.821	311.59
363.203	282.44
363.584	291.93
363.966	302.77
364.348	284.47
364.729	293.06
365.111	281.76
365.493	283.57
365.874	294.87
366.256	291.25
366.637	277.46
367.019	287.63
367.4	288.31
367.781	263.45
368.163	282.89
368.544	275.66
368.925	289.22
369.306	289.22
369.688	279.72
370.069	285.6
370.45	299.84
370.831	284.24
371.212	280.63
371.593	266.17
371.974	281.08
372.355	281.53
372.736	277.46
373.117	275.2
373.498	286.05
373.879	298.48
374.26	291.7
374.641	274.53
375.021	298.71
375.402	301.19
375.783	287.41
376.163	279.05
376.544	300.51
376.925	279.05
377.305	300.29
377.686	257.35
378.066	283.57
378.447	292.15
378.827	274.75
379.208	306.62
379.588	273.17
379.968	281.98
380.349	317.46
380.729	294.87
381.109	287.18
381.489	318.82
381.87	268.2
382.25	298.25
382.63	290.57
383.01	282.89
383.39	286.96
383.77	297.58
384.15	289.67
384.53	308.2
384.91	288.31
385.29	293.28
385.67	304.36
386.049	308.65
386.429	310.68
386.809	314.3
387.189	317.24
387.568	283.57
387.948	297.12
388.328	298.03
388.707	304.36
389.087	298.03
389.466	336.22
389.846	300.29
390.225	312.94
390.605	314.07
390.984	328.08
391.363	323.11
391.743	302.55
392.122	316.33
392.501	312.04
392.881	331.02
393.26	328.08
393.639	327.41
394.018	303.68
394.397	339.16
394.776	320.4
395.155	340.06
395.534	318.82
395.913	347.75
396.292	340.97
396.671	351.13
397.05	345.49
397.429	307.97
397.808	330.34
398.186	339.16
398.565	326.5
398.944	330.12
399.323	326.28
399.701	353.85
400.08	339.38
400.458	335.54
400.837	340.29
401.215	335.09
401.594	347.29
401.972	338.71
402.351	352.04
402.729	352.49
403.107	325.37
403.486	355.2
403.864	372.6
404.242	347.52
404.62	359.04
404.999	343.9
405.377	372.15
405.755	355.43
406.133	355.88
406.511	374.86
406.889	372.6
407.267	366.05
407.645	372.83
408.023	381.87
408.401	371.47
408.779	375.54
409.156	383.45
409.534	368.31
409.912	384.35
410.29	394.07
410.667	411.7
411.045	391.81
411.422	396.33
411.8	398.37
412.178	389.1
412.555	402.88
412.933	391.36
413.31	410.79
413.687	414.41
414.065	407.4
414.442	401.3
414.819	411.02
415.197	402.43
415.574	416.67
415.951	403.11
416.328	404.92
416.705	407.86
417.082	401.53
417.46	411.25
417.837	451.25
418.214	423.9
418.591	429.78
418.967	418.7
419.344	435.2
419.721	415.09
420.098	440.17
420.475	434.07
420.852	433.84
421.228	469.1
421.605	452.6
421.982	445.6
422.358	468.65
422.735	460.28
423.111	452.38
423.488	459.83
423.864	486.05
424.241	482.2
424.617	493.5
424.994	492.15
425.37	496.67
425.746	514.97
426.123	504.13
426.499	488.53
426.875	499.15
427.251	499.61
427.627	520.4
428.003	524.69
428.379	524.69
428.756	532.82
429.132	535.08
429.507	524.01
429.883	537.57
430.259	518.59
430.635	537.12
431.011	542.54
431.387	552.49
431.763	573.05
432.138	544.8
432.514	559.26
432.89	588.42
433.265	564.91
433.641	580.96
434.016	592.03
434.392	607.4
434.767	601.3
435.143	614.4
435.518	636.1
435.894	623.67
436.269	623.67
436.644	627.74
437.02	621.86
437.395	624.35
437.77	640.39
438.145	649.88
438.52	653.95
438.895	687.17
439.271	665.48
439.646	683.56
440.021	714.52
440.395	708.41
440.77	690.79
441.145	716.55
441.52	698.24
441.895	737.79
442.27	733.72
442.645	723.33
443.019	745.47
443.394	756.55
443.769	734.4
444.143	720.84
444.518	759.26
444.892	766.04
445.267	792.03
445.641	780.5
446.016	767.17
446.39	771.69
446.764	792.71
447.139	779.15
447.513	786.38
447.887	797.68
448.262	790.9
448.636	800.16
449.01	822.76
449.384	840.16
449.758	812.14
450.132	814.17
450.506	810.11
450.88	845.59
451.254	850.33
451.628	830.67
452.002	859.14
452.376	872.25
452.75	867.96
453.123	869.77
453.497	900.72
453.871	880.61
454.244	887.17
454.618	905.47
454.992	879.26
455.365	896.21
455.739	935.07
456.112	948.86
456.486	958.8
456.859	924.68
457.232	962.64
457.606	946.15
457.979	965.36
458.352	978.24
458.725	987.05
459.099	1001.29
459.472	1000.84
459.845	1012.81
460.218	1017.11
460.591	995.64
460.964	1005.58
461.337	1021.4
461.71	1057.78
462.083	1039.25
462.456	1054.39
462.829	1057.1
463.201	1044.22
463.574	1084.9
463.947	1095.52
464.32	1118.35
464.692	1096.43
465.065	1106.6
465.438	1104.11
465.81	1144.56
466.183	1142.3
466.555	1166.03
466.928	1177.33
467.3	1140.72
467.672	1168.97
468.045	1177.55
468.417	1191.56
468.789	1205.8
469.161	1207.84
469.534	1220.72
469.906	1257.78
470.278	1240.15
470.65	1235.86
471.022	1236.54
471.394	1286.48
471.766	1267.72
472.138	1295.06
472.51	1319.47
472.882	1326.02
473.253	1348.62
473.625	1350.43
473.997	1377.55
474.369	1366.93
474.74	1352.92
475.112	1400.6
475.484	1406.93
475.855	1431.33
476.227	1420.49
476.598	1500.03
476.97	1448.06
477.341	1498.9
477.713	1448.96
478.084	1506.58
478.455	1520.37
478.827	1547.94
479.198	1528.73
479.569	1560.14
479.94	1584.55
480.311	1588.16
480.682	1613.25
481.053	1634.49
481.424	1630.2
481.795	1668.61
482.166	1661.16
482.537	1667.71
482.908	1683.53
483.279	1680.14
483.65	1704.77
484.021	1721.49
484.391	1721.72
484.762	1729.86
485.133	1742.51
485.503	1746.35
485.874	1782.28
486.244	1769.4
486.615	1746.35
486.985	1808.5
487.356	1850.08
487.726	1875.84
488.097	1870.42
488.467	1820.47
488.837	1877.87
489.207	1872
489.578	1873.58
489.948	1889.17
490.318	1898.89
490.688	1886.69
491.058	1914.71
491.428	1887.14
491.798	1918.78
492.168	1919.68
492.538	1920.59
492.908	1957.87
493.278	1964.2
493.648	1943.86
494.017	1951.77
494.387	1965.56
494.757	1982.96
495.126	1979.79
495.496	1957.42
495.866	1978.21
496.235	1956.74
496.605	1959.23
496.974	1960.58
497.344	1929.85
497.713	1942.96
498.082	1953.13
498.452	2003.52
498.821	1962.62
499.19	1959.23
499.559	1944.99
499.928	1985.22
500.298	1945.44
500.667	1965.78
501.036	1956.97
501.405	1963.75
501.774	1938.89
502.143	1991.32
502.512	1960.81
502.88	1965.1
503.249	1973.92
503.618	1962.17
503.987	1956.52
504.356	1968.04
504.724	1949.06
505.093	1952.22
505.462	1933.47
505.83	1926.46
506.199	1925.78
506.567	1962.62
506.936	1916.29
507.304	1924.43
507.672	1926.23
508.041	1935.95
508.409	1931.21
508.777	1942.28
509.145	1909.51
509.514	1918.55
509.882	1914.03
510.25	1878.1
510.618	1923.52
510.986	1896.63
511.354	1885.11
511.722	1903.86
512.09	1896.18
512.458	1912.45
512.826	1893.92
513.193	1885.56
513.561	1891.89
513.929	1898.89
514.297	1889.17
514.664	1898.21
515.032	1851.66
515.4	1875.84
515.767	1911.77
516.135	1881.04
516.502	1850.98
516.869	1880.59
517.237	1859.34
517.604	1825.22
517.972	1837.2
518.339	1799.23
518.706	1852.79
519.073	1839.91
519.44	1855.28
519.808	1816.86
520.175	1806.69
520.542	1816.41
520.909	1835.16
521.276	1807.37
521.643	1833.13
522.009	1790.87
522.376	1822.06
522.743	1808.95
523.11	1799.23
523.477	1800.59
523.843	1778.67
524.21	1799.46
524.577	1789.97
524.943	1812.57
525.31	1787.71
525.676	1822.51
526.043	1806.24
526.409	1790.42
526.776	1808.5
527.142	1826.58
527.508	1783.19
527.874	1792.9
528.241	1814.15
528.607	1778.67
528.973	1798.78
529.339	1805.11
529.705	1794.03
530.071	1821.6
530.437	1777.09
530.803	1774.37
531.169	1795.62
531.535	1820.93
531.901	1817.99
532.267	1789.29
532.632	1787.48
532.998	1778.22
533.364	1799.01
533.73	1823.86
534.095	1820.7
534.461	1811.66
534.826	1794.03
535.192	1809.85
535.557	1784.54
535.923	1820.47
536.288	1781.15
536.653	1777.31
537.019	1785
537.384	1768.27
537.749	1793.58
538.114	1819.12
538.479	1768.72
538.845	1802.85
539.21	1782.96
539.575	1773.7
539.94	1769.85
540.305	1767.37
540.67	1775.5
541.034	1760.14
541.399	1777.09
541.764	1735.05
542.129	1768.72
542.494	1754.71
542.858	1779.12
543.223	1794.49
543.587	1772.79
543.952	1742.74
544.316	1744.54
544.681	1753.81
545.045	1755.39
545.41	1735.96
545.774	1746.58
546.138	1758.1
546.503	1733.47
546.867	1754.94
547.231	1723.08
547.595	1733.02
547.959	1744.77
548.324	1744.54
548.688	1736.64
549.052	1739.12
549.416	1716.97
549.779	1725.11
550.143	1716.75
550.507	1736.41
550.871	1688.5
551.235	1727.6
551.599	1710.87
551.962	1727.37
552.326	1716.97
552.689	1716.3
553.053	1705.45
553.417	1715.84
553.78	1707.71
554.143	1709.52
554.507	1703.42
554.87	1729.18
555.234	1697.99
555.597	1688.27
555.96	1704.77
556.323	1725.56
556.686	1713.58
557.05	1695.28
557.413	1694.6
557.776	1674.94
558.139	1710.65
558.502	1667.94
558.865	1721.27
559.228	1706.35
559.59	1679.01
559.953	1711.78
560.316	1698.44
560.679	1711.33
561.041	1711.1
561.404	1716.97
561.767	1711.78
562.129	1676.07
562.492	1712
562.854	1693.02
563.217	1699.8
563.579	1737.31
563.941	1724.43
564.304	1693.25
564.666	1719.01
565.028	1758.78
565.39	1713.81
565.753	1726.01
566.115	1746.13
566.477	1737.09
566.839	1704.32
567.201	1769.85
567.563	1746.8
567.925	1758.78
568.287	1772.11
568.648	1754.49
569.01	1765.79
569.372	1776.86
569.734	1770.53
570.095	1770.31
570.457	1775.5
570.819	1774.37
571.18	1786.13
571.542	1816.63
571.903	1801.49
572.265	1796.97
572.626	1771.21
572.987	1808.5
573.349	1814.6
573.71	1813.24
574.071	1795.39
574.432	1834.49
574.794	1836.52
575.155	1842.17
575.516	1825.45
575.877	1828.16
576.238	1851.89
576.599	1846.01
576.96	1847.59
577.32	1840.36
577.681	1818.21
578.042	1873.13
578.403	1862.73
578.763	1872.45
579.124	1868.61
579.485	1884.43
579.845	1901.15
580.206	1867.71
580.566	1869.29
580.927	1899.12
581.287	1917.42
581.648	1895.73
582.008	1924.65
582.368	1904.31
582.728	1913.13
583.089	1895.95
583.449	1902.51
583.809	1918.1
584.169	1953.35
584.529	1913.13
584.889	1951.77
585.249	1935.27
585.609	1930.3
585.969	1955.61
586.329	1933.92
586.688	1938.66
587.048	1932.79
587.408	1930.08
587.768	1904.54
588.127	1930.53
588.487	1945.22
588.846	1942.05
589.206	1917.87
589.565	1932.56
589.925	1965.56
590.284	1925.1
590.643	1949.28
591.003	1949.74
591.362	1944.99
591.721	1928.72
592.08	1954.03
592.44	1948.38
592.799	1952
593.158	1967.59
593.517	1959.91
593.876	1943.86
594.235	1933.69
594.593	1961.04
594.952	1944.31
595.311	1946.57
595.67	1924.43
596.029	1926.46
596.387	1954.26
596.746	1979.79
597.104	1917.87
597.463	1951.77
597.822	1952.67
598.18	1932.79
598.538	1935.95
598.897	1935.5
599.255	1931.88
599.613	1934.37
599.972	1968.72
600.33	1964.2
600.688	1968.72
601.046	1979.79
601.404	1952.45
601.762	1940.92
602.12	1961.26
602.478	1962.39
602.836	1981.6
603.194	1953.8
603.552	1946.35
603.91	1902.28
604.268	1945.9
604.625	1973.69
604.983	1955.39
605.341	1965.1
605.698	1935.5
606.056	1941.83
606.413	1955.84
606.771	1939.12
607.128	1968.04
607.485	1937.08
607.843	1968.27
608.2	1952.9
608.557	1976.63
608.914	1941.15
609.272	1969.4
609.629	1969.17
609.986	1939.57
610.343	1966.69
610.7	1959.45
611.057	1953.35
611.414	1960.58
611.771	1977.76
612.127	1943.86
612.484	1976.4
612.841	1967.82
613.198	1982.73
613.554	1991.32
613.911	1979.34
614.267	1984.99
614.624	1981.6
614.98	1960.81
615.337	1980.47
615.693	1961.49
616.05	2006.68
616.406	1990.41
616.762	1982.5
617.118	1991.32
617.475	1991.77
617.831	1994.03
618.187	1980.7
618.543	2013.01
618.899	2036.51
619.255	1979.57
619.611	1974.14
619.967	1987.93
620.323	2011.88
620.678	2001.03
621.034	1977.53
621.39	2017.76
621.746	1991.32
622.101	2013.24
622.457	2001.26
622.812	1976.18
623.168	2006.46
623.523	1999.45
623.879	2000.81
624.234	1978.44
624.589	2031.54
624.945	1987.93
625.3	2053.91
625.655	1998.55
626.01	1989.06
626.365	2012.33
626.72	1994.71
627.075	1997.19
627.43	2038.1
627.785	1985.44
628.14	2026.12
628.495	2028.83
628.85	1995.61
629.205	2021.83
629.559	2012.11
629.914	2009.17
630.269	2001.71
630.623	2019.79
630.978	2011.88
631.332	2020.47
631.687	2041.03
632.041	2021.37
632.396	2046.23
632.75	2032.9
633.104	2029.51
633.459	2006.01
633.813	1999
634.167	1996.06
634.521	2009.85
634.875	2032.22
635.229	1992.9
635.583	2022.05
635.937	2020.02
636.291	1984.99
636.645	2032.9
636.999	2032.9
637.352	1992
637.706	1989.28
638.06	2020.24
638.413	2022.28
638.767	2012.79
639.121	2002.16
639.474	2026.35
639.828	1995.16
640.181	2006.01
640.534	1996.52
640.888	2026.35
641.241	2014.14
641.594	1996.52
641.947	1990.64
642.301	2029.28
642.654	2059.11
643.007	2020.47
643.36	2034.03
643.713	2029.96
644.066	2034.71
644.419	2034.48
644.771	2038.77
645.124	1988.15
645.477	1982.73
645.83	2010.98
646.182	1995.16
646.535	1976.63
646.888	2004.2
647.24	1953.58
647.593	2018.66
647.945	1997.19
648.298	1986.57
648.65	2000.13
649.002	1975.72
649.355	2027.25
649.707	2015.95
650.059	2017.08
650.411	2066.8
650.763	1998.32
651.115	2053.69
651.467	2062.28
651.819	2060.47
652.171	2045.33
652.523	2074.93
652.875	2053.91
653.227	2060.92
653.578	2060.02
653.93	2055.04
654.282	2054.59
654.633	2048.49
654.985	2085.1
655.337	2084.2
655.688	2102.5
656.039	2084.65
656.391	2076.06
656.742	2047.36
657.094	2081.94
657.445	2142.5
657.796	2075.38
658.147	2093.91
658.498	2085.55
658.849	2099.56
659.2	2101.37
659.551	2080.35
659.902	2119.22
660.253	2106.79
660.604	2117.42
660.955	2102.5
661.306	2110.41
661.656	2097.53
662.007	2134.36
662.358	2123.74
662.708	2118.32
663.059	2103.41
663.409	2101.15
663.76	2141.14
664.11	2104.99
664.461	2131.65
664.811	2123.07
665.161	2114.93
665.511	2151.99
665.862	2149.05
666.212	2105.44
666.562	2119.68
666.912	2125.55
667.262	2130.52
667.612	2121.03
667.962	2126.23
668.312	2114.03
668.662	2145.66
669.011	2109.96
669.361	2113.12
669.711	2118.32
670.06	2104.76
670.41	2117.64
670.76	2122.84
671.109	2124.42
671.459	2118.32
671.808	2130.52
672.157	2133.69
672.507	2088.72
672.856	2084.2
673.205	2146.57
673.554	2134.59
673.904	2116.74
674.253	2110.64
674.602	2073.8
674.951	2083.52
675.3	2062.05
675.649	2104.31
675.998	2080.35
676.346	2085.33
676.695	2074.71
677.044	2065.21
677.393	2071.32
677.741	2076.29
678.09	2055.27
678.438	2058.89
678.787	2070.86
679.135	2053.24
679.484	2046.68
679.832	2046.46
680.181	2017.08
680.529	2050.07
680.877	2061.37
681.225	2033.35
681.573	2071.54
681.922	2045.1
682.27	2010.75
682.618	1999
682.966	2028.38
683.314	2041.03
683.661	2026.35
684.009	2010.3
684.357	1977.76
684.705	1978.21
685.053	1960.81
685.4	1970.98
685.748	1959
686.095	1961.94
686.443	1960.36
686.79	1970.98
687.138	2012.33
687.485	1984.76
687.832	1936.86
688.18	1932.11
688.527	1934.6
688.874	1944.99
689.221	1943.86
689.568	1942.28
689.915	1898.44
690.262	1941.6
690.609	1921.04
690.956	1889.4
691.303	1930.75
691.65	1902.51
691.997	1883.52
692.344	1893.24
692.69	1888.72
693.037	1885.33
693.383	1858.89
693.73	1876.97
694.077	1874.26
694.423	1864.77
694.769	1878.33
695.116	1851.43
695.462	1850.3
695.808	1845.78
696.155	1841.49
696.501	1869.51
696.847	1829.74
697.193	1817.08
697.539	1836.07
697.885	1804.88
698.231	1811.21
698.577	1775.96
698.923	1796.75
699.269	1781.38
699.614	1798.1
699.96	1779.12
700.306	1792.45
700.651	1771.89
700.997	1789.52
701.342	1788.16
701.688	1798.33
702.033	1755.17
702.379	1759.23
702.724	1733.25
703.069	1758.78
703.415	1729.4
703.76	1748.84
704.105	1763.08
704.45	1758.56
704.795	1760.59
705.14	1729.4
705.485	1752.45
705.83	1722.17
706.175	1739.35
706.52	1748.84
706.865	1751.55
707.209	1740.25
707.554	1748.84
707.899	1735.51
708.243	1716.3
708.588	1705.45
708.932	1734.15
709.277	1725.11
709.621	1722.62
709.966	1708.16
710.31	1719.46
710.654	1694.6
710.998	1710.42
711.342	1700.7
711.687	1723.3
712.031	1705.22
712.375	1718.1
712.719	1724.66
713.063	1713.36
713.407	1758.78
713.75	1729.86
714.094	1706.35
714.438	1729.86
714.782	1712.68
715.125	1728.05
715.469	1729.63
715.812	1744.32
716.156	1705
716.499	1721.72
716.843	1718.78
717.186	1736.64
717.53	1778.44
717.873	1777.09
718.216	1744.32
718.559	1772.34
718.902	1775.28
719.246	1771.21
719.589	1792
719.932	1781.15
720.275	1785
720.617	1769.18
720.96	1755.62
721.303	1809.63
721.646	1797.42
721.989	1784.09
722.331	1804.43
722.674	1758.78
723.016	1806.01
723.359	1794.94
723.701	1802.17
724.044	1810.98
724.386	1820.02
724.729	1805.33
725.071	1860.7
725.413	1841.49
725.755	1823.41
726.097	1817.76
726.439	1848.72
726.782	1856.18
727.124	1876.52
727.465	1865.45
727.807	1877.42
728.149	1878.33
728.491	1863.86
728.833	1890.08
729.175	1861.6
729.516	1887.59
729.858	1904.99
730.199	1955.61
730.541	1915.39
730.882	1946.8
731.224	1930.98
731.565	1956.74
731.906	1952.45
732.248	1991.09
732.589	1960.81
732.93	1989.06
733.271	2014.59
733.612	2002.84
733.953	1986.57
734.294	2029.73
734.635	2045.33
734.976	2025.89
735.317	2047.59
735.658	2084.65
735.999	2091.65
736.339	2102.28
736.68	2106.79
737.021	2102.5
737.361	2148.38
737.702	2117.64
738.042	2144.53
738.383	2150.41
738.723	2211.88
739.063	2211.88
739.404	2204.65
739.744	2244.64
740.084	2208.49
740.424	2262.72
740.764	2281.25
741.104	2270.41
741.444	2296.85
741.784	2314.02
742.124	2354.02
742.464	2326
742.804	2396.73
743.143	2403.28
743.483	2432.44
743.823	2448.03
744.162	2474.24
744.502	2481.47
744.841	2531.19
745.181	2564.64
745.52	2571.42
745.86	2579.78
746.199	2624.52
746.538	2660
746.877	2696.16
747.216	2756.04
747.556	2759.66
747.895	2800.34
748.234	2827.23
748.573	2851.18
748.911	2937.73
749.25	2935.02
749.589	2946.09
749.928	3018.64
750.267	3079.42
750.605	3096.15
750.944	3143.83
751.283	3180.89
751.621	3255.69
751.96	3255.47
752.298	3318.51
752.636	3367.78
752.975	3431.51
753.313	3456.14
753.651	3513.09
753.989	3539.98
754.327	3642.8
754.666	3679.18
755.004	3714.21
755.342	3763.93
755.679	3822.23
756.017	3861.1
756.355	3956.24
756.693	4036.46
757.031	4056.57
757.368	4112.62
757.706	4197.36
758.044	4171.83
758.381	4253.63
758.719	4282.33
759.056	4391.48
759.394	4426.73
759.731	4492.95
760.068	4561.42
760.405	4600.51
760.743	4660.17
761.08	4700.4
761.417	4795.99
761.754	4792.83
762.091	4830.11
762.428	4939.49
762.765	4943.33
763.102	5061.07
763.438	5053.61
763.775	5131.57
764.112	5162.08
764.449	5194.85
764.785	5247.5
765.122	5262.87
765.458	5327.5
765.795	5370.44
766.131	5435.07
766.467	5463.54
766.804	5496.54
767.14	5582.41
767.476	5596.42
767.812	5637.78
768.148	5704.89
768.485	5739.02
768.821	5752.12
769.157	5753.48
769.492	5871.22
769.828	5866.47
770.164	5910.54
770.5	5921.38
770.836	5941.04
771.171	5962.29
771.507	5992.12
771.842	6025.11
772.178	6020.59
772.513	6101.27
772.849	6118.67
773.184	6072.79
773.519	6169.06
773.855	6155.95
774.19	6158.21
774.525	6170.87
774.86	6209.29
775.195	6260.58
775.53	6329.51
775.865	6304.42
776.2	6271.21
776.535	6298.55
776.87	6363.18
777.205	6304.65
777.539	6314.37
777.874	6365.67
778.209	6361.6
778.543	6365.89
778.878	6385.33
779.212	6400.92
779.547	6381.48
779.881	6450.41
780.215	6438.88
780.55	6427.81
780.884	6471.88
781.218	6454.93
781.552	6478.21
781.886	6498.09
782.22	6497.64
782.554	6496.96
782.888	6471.88
783.222	6413.8
783.556	6432.78
783.889	6487.02
784.223	6447.47
784.557	6444.76
784.89	6482.27
785.224	6476.62
785.557	6485.89
785.891	6441.14
786.224	6468.94
786.558	6505.32
786.891	6416.96
787.224	6490.41
787.557	6489.05
787.891	6530.41
788.224	6433.69
788.557	6494.25
788.89	6438.21
789.223	6496.28
789.556	6443.18
789.888	6513.68
790.221	6455.61
790.554	6482.95
790.887	6460.58
791.219	6450.41
791.552	6468.94
791.884	6407.02
792.217	6399.79
792.549	6496.96
792.882	6410.86
793.214	6409.51
793.546	6455.16
793.879	6373.8
794.211	6340.58
794.543	6397.53
794.875	6313.69
795.207	6466.91
795.539	6336.06
795.871	6397.98
796.203	6353.46
796.535	6353.24
796.867	6315.95
797.198	6351.66
797.53	6288.38
797.862	6380.58
798.193	6335.61
798.525	6317.98
798.856	6302.84
799.188	6255.16
799.519	6273.46
799.85	6263.52
800.182	6268.27
800.513	6283.63
800.844	6206.8
801.175	6252.22
801.506	6266.46
801.837	6261.94
802.168	6258.55
802.499	6219.91
802.83	6212
803.161	6200.47
803.491	6197.53
803.822	6196.63
804.153	6183.3
804.483	6111.66
804.814	6081.61
805.145	6103.98
805.475	6141.72
805.805	6104.2
806.136	6146.91
806.466	6146.01
806.796	6016.52
807.126	6049.74
807.457	6061.95
807.787	6045.9
808.117	6096.07
808.447	6037.76
808.777	6013.13
809.107	6009.07
809.436	6058.33
809.766	6033.02
810.096	6010.65
810.426	6048.61
810.755	5997.09
811.085	5976.98
811.414	5964.77
811.744	5981.04
812.073	5965.45
812.403	5949.63
812.732	5896.75
813.061	5959.35
813.39	5908.28
813.719	5903.53
814.049	5954.38
814.378	5919.58
814.707	5917.32
815.036	5923.19
815.365	5902.18
815.693	5857.88
816.022	5880.48
816.351	5828.05
816.68	5856.53
817.008	5862.18
817.337	5779.24
817.665	5747.15
817.994	5795.06
818.322	5847.49
818.651	5751.22
818.979	5770.2
819.307	5761.61
819.636	5805.45
819.964	5786.92
820.292	5756.19
820.62	5720.49
820.948	5757.32
821.276	5780.82
821.604	5767.72
821.932	5781.5
822.259	5776.3
822.587	5752.12
822.915	5797.77
823.243	5790.54
823.57	5799.81
823.898	5799.35
824.225	5702.86
824.553	5830.09
824.88	5808.84
825.207	5798.22
825.535	5769.52
825.862	5822.86
826.189	5763.65
826.516	5828.28
826.843	5849.07
827.17	5835.51
827.497	5823.31
827.824	5851.78
828.151	5865.11
828.478	5856.98
828.805	5805.45
829.131	5843.87
829.458	5837.32
829.785	5799.13
830.111	5815.17
830.438	5845.68
830.764	5852.46
831.09	5868.28
831.417	5816.08
831.743	5881.16
832.069	5820.6
832.395	5842.29
832.722	5849.97
833.048	5818.79
833.374	5810.43
833.7	5871.67
834.026	5807.49
834.351	5858.56
834.677	5793.93
835.003	5800.26
835.329	5762.52
835.654	5835.28
835.98	5720.03
836.306	5729.3
836.631	5729.52
836.956	5834.15
837.282	5768.85
837.607	5767.94
837.932	5751.9
838.258	5744.44
838.583	5753.48
838.908	5740.82
839.233	5729.07
839.558	5777.21
839.883	5691.79
840.208	5702.18
840.533	5722.75
840.858	5689.53
841.182	5689.98
841.507	5717.32
841.832	5650.2
842.156	5657.89
842.481	5640.04
842.805	5640.04
843.13	5639.13
843.454	5579.92
843.778	5583.77
844.103	5590.77
844.427	5601.62
844.751	5589.64
845.075	5599.13
845.399	5548.06
845.723	5525.46
846.047	5528.4
846.371	5480.27
846.695	5482.75
847.019	5440.27
847.343	5442.53
847.666	5421.74
847.99	5407.95
848.313	5392.58
848.637	5335.64
848.96	5379.48
849.284	5389.87
849.607	5276.43
849.931	5303.77
850.254	5199.37
850.577	5198.24
850.9	5205.24
851.223	5244.34
851.546	5150.78
851.869	5169.77
852.192	5181.74
852.515	5096.32
852.838	5094.29
853.161	5111.24
853.483	5084.34
853.806	5048.86
854.129	5047.73
854.451	5023.1
854.774	4997.11
855.096	4999.15
855.419	4977.91
855.741	5008.19
856.063	4959.15
856.385	4966.38
856.708	4933.39
857.03	4900.17
857.352	4905.14
857.674	4913.05
857.996	4852.94
858.318	4851.36
858.64	4850.68
858.961	4837.34
859.283	4839.6
859.605	4852.26
859.926	4768.42
860.248	4781.98
860.57	4802.09
860.891	4721.19
861.212	4721.64
861.534	4746.95
861.855	4716.67
862.176	4712.6
862.498	4732.71
862.819	4758.7
863.14	4727.97
863.461	4666.05
863.782	4705.82
864.103	4721.19
864.424	4646.62
864.745	4679.38
865.065	4685.03
865.386	4667.18
865.707	4617.01
866.027	4621.31
866.348	4629.21
866.668	4627.18
866.989	4593.28
867.309	4600.97
867.63	4564.13
867.95	4652.49
868.27	4544.47
868.59	4582.21
868.91	4578.14
869.23	4557.35
869.55	4523.23
869.87	4526.17
870.19	4487.75
870.51	4562.1
870.83	4512.16
871.15	4547.86
871.469	4543.34
871.789	4539.95
872.109	4500.4
872.428	4495.21
872.748	4495.43
873.067	4469.22
873.386	4494.98
873.706	4466.28
874.025	4479.61
874.344	4492.49
874.663	4417.47
874.982	4441.2
875.301	4459.28
875.62	4429.9
875.939	4414.76
876.258	4422.89
876.577	4384.02
876.896	4426.73
877.214	4400.07
877.533	4396.9
877.852	4354.87
878.17	4407.3
878.489	4392.61
878.807	4387.19
879.125	4368.88
879.444	4388.99
879.762	4334.76
880.08	4338.15
880.398	4332.95
880.716	4296.34
881.034	4286.17
881.352	4304.03
881.67	4264.48
881.988	4293.86
882.306	4261.54
882.624	4257.92
882.941	4260.18
883.259	4233.52
883.577	4213.18
883.894	4216.8
884.212	4240.75
884.529	4230.81
884.846	4194.42
885.164	4155.1
885.481	4211.82
885.798	4204.14
886.115	4129.79
886.432	4097.7
886.75	4158.72
887.067	4151.94
887.383	4097.25
887.7	4128.44
888.017	4095.9
888.334	4104.93
888.651	4097.03
888.967	4099.06
889.284	4068.33
889.6	4059.06
889.917	3970.93
890.233	4049.34
890.55	3975.22
890.866	4024.03
891.182	3986.07
891.498	4005.5
891.815	4016.58
892.131	3945.16
892.447	3934.09
892.763	3921.21
893.079	3911.95
893.395	3898.16
893.71	3911.27
894.026	3881.66
894.342	3893.41
894.657	3860.42
894.973	3835.56
895.289	3855.45
895.604	3847.99
895.92	3849.12
896.235	3778.62
896.55	3810.7
896.865	3830.82
897.181	3750.59
897.496	3798.28
897.811	3780.2
898.126	3732.97
898.441	3721.22
898.756	3716.47
899.071	3661.78
899.386	3708.56
899.7	3685.96
900.015	3661.78
900.33	3655.45
900.644	3629.92
900.959	3610.48
901.273	3597.15
901.588	3612.97
901.902	3582.91
902.216	3571.62
902.531	3545.63
902.845	3549.02
903.159	3503.37
903.473	3528.45
903.787	3496.36
904.101	3494.78
904.415	3498.62
904.729	3475.35
905.042	3412.07
905.356	3467.44
905.67	3466.31
905.984	3429.02
906.297	3447.32
906.611	3430.83
906.924	3383.6
907.237	3381.56
907.551	3333.88
907.864	3337.72
908.177	3332.07
908.491	3370.26
908.804	3320.32
909.117	3324.62
909.43	3285.97
909.743	3267.44
910.056	3296.37
910.368	3233.09
910.681	3212.53
910.994	3216.37
911.307	3190.16
911.619	3186.31
911.932	3188.8
912.244	3147.22
912.557	3166.65
912.869	3142.93
913.181	3111.74
913.494	3091.4
913.806	3095.47
914.118	3085.53
914.43	3100.44
914.742	3106.32
915.054	3035.36
915.366	3074.23
915.678	3060.22
915.99	3010.5
916.302	3021.8
916.613	3020.67
916.925	3003.27
917.236	2998.52
917.548	2957.62
917.859	2970.95
918.171	2949.26
918.482	2907.23
918.794	2930.28
919.105	2917.62
919.416	2910.16
919.727	2893.89
920.038	2871.29
920.349	2892.08
920.66	2852.99
920.971	2835.36
921.282	2804.63
921.593	2844.4
921.903	2799.66
922.214	2799.66
922.525	2800.56
922.835	2757.17
923.146	2801.01
923.456	2762.82
923.767	2744.52
924.077	2715.37
924.387	2711.3
924.697	2718.08
925.008	2713.78
925.318	2685.99
925.628	2669.49
925.938	2658.64
926.248	2642.6
926.558	2693.67
926.867	2669.72
927.177	2620.68
927.487	2605.99
927.796	2589.72
928.106	2636.27
928.416	2603.96
928.725	2579.1
929.034	2601.7
929.344	2578.65
929.653	2588.14
929.962	2538.42
930.271	2523.73
930.581	2526.67
930.89	2522.83
931.199	2549.72
931.508	2502.94
931.817	2510.63
932.125	2508.59
932.434	2490.29
932.743	2426.79
933.051	2445.77
933.36	2424.75
933.669	2417.52
933.977	2434.24
934.286	2410.52
934.594	2404.19
934.902	2393.57
935.21	2375.49
935.519	2384.53
935.827	2378.2
936.135	2356.73
936.443	2330.97
936.751	2339.11
937.059	2362.83
937.367	2304.76
937.674	2320.35
937.982	2313.12
938.29	2334.36
938.597	2299.78
938.905	2320.12
939.213	2276.73
939.52	2279.22
939.827	2249.16
940.135	2243.74
940.442	2230.41
940.749	2264.3
941.056	2231.76
941.363	2219.11
941.67	2182.73
941.977	2210.07
942.284	2158.54
942.591	2187.7
942.898	2167.13
943.205	2163.97
943.511	2150.86
943.818	2112.44
944.125	2117.64
944.431	2104.76
944.738	2131.2
945.044	2097.08
945.35	2124.65
945.657	2065.89
945.963	2111.99
946.269	2052.33
946.575	2048.94
946.881	2077.87
947.187	2052.56
947.493	2055.5
947.799	2006.68
948.105	2027.25
948.41	2024.76
948.716	2005.1
949.022	1994.71
949.327	2011.43
949.633	1981.6
949.938	1981.6
950.244	1984.09
950.549	1992.9
950.854	1940.7
951.16	1947.7
951.465	1953.35
951.77	1937.99
952.075	1929.17
952.38	1909.51
952.685	1905.67
952.99	1884.88
953.294	1928.95
953.599	1933.47
953.904	1872.9
954.209	1873.35
954.513	1873.81
954.818	1874.94
955.122	1847.82
955.426	1850.3
955.731	1871.77
956.035	1837.2
956.339	1812.11
956.643	1822.96
956.948	1824.54
957.252	1808.5
957.556	1802.85
957.86	1781.15
958.163	1768.95
958.467	1786.8
958.771	1778.67
959.075	1751.55
959.378	1747.71
959.682	1756.07
959.985	1771.89
960.289	1727.82
960.592	1740.02
960.896	1728.05
961.199	1722.62
961.502	1709.29
961.805	1704.77
962.108	1700.03
962.411	1707.26
962.714	1683.98
963.017	1692.57
963.32	1701.83
963.623	1684.66
963.926	1671.55
964.228	1665
964.531	1675.62
964.833	1631.55
965.136	1630.65
965.438	1610.31
965.741	1632.01
966.043	1622.06
966.345	1610.99
966.648	1607.37
966.95	1576.19
967.252	1621.61
967.554	1612.34
967.856	1603.98
968.158	1570.76
968.46	1553.82
968.761	1585.68
969.063	1568.28
969.365	1530.09
969.666	1542.52
969.968	1539.58
970.269	1542.06
970.571	1532.57
970.872	1534.83
971.174	1481.73
971.475	1500.48
971.776	1503.87
972.077	1524.44
972.378	1494.38
972.679	1498
972.98	1464.33
973.281	1498.68
973.582	1476.08
973.883	1473.37
974.183	1437.43
974.484	1462.52
974.785	1451.22
975.085	1439.92
975.386	1455.29
975.686	1421.84
975.986	1431.33
976.287	1423.65
976.587	1421.39
976.887	1422.75
977.187	1408.06
977.487	1396.53
977.787	1399.69
978.087	1371.45
978.387	1375.74
978.687	1365.8
978.987	1384.78
979.286	1326.25
979.586	1381.84
979.885	1356.76
980.185	1348.17
980.484	1351.56
980.784	1356.76
981.083	1342.97
981.382	1335.74
981.682	1314.73
981.981	1317.21
982.28	1296.87
982.579	1317.66
982.878	1302.3
983.177	1300.04
983.475	1292.35
983.774	1295.29
984.073	1271.11
984.372	1300.94
984.67	1255.74
984.969	1276.53
985.267	1261.62
985.566	1279.02
985.864	1240.6
986.162	1252.81
986.461	1252.13
986.759	1258.68
987.057	1230.89
987.355	1253.03
987.653	1217.1
987.951	1189.76
988.249	1211.45
988.547	1224.11
988.844	1196.54
989.142	1214.39
989.44	1195.63
989.737	1174.84
990.035	1154.5
990.332	1170.55
990.63	1161.28
990.927	1163.99
991.224	1179.14
991.521	1143.66
991.819	1167.61
992.116	1142.98
992.413	1152.02
992.71	1145.24
993.006	1155.63
993.303	1131.45
993.6	1121.28
993.897	1144.11
994.193	1148.63
994.49	1115.63
994.787	1112.47
995.083	1079.7
995.379	1116.09
995.676	1098.69
995.972	1092.13
996.268	1084.9
996.565	1077.44
996.861	1093.26
997.157	1079.48
997.453	1069.53
997.749	1071.79
998.044	1053.72
998.34	1054.17
998.636	1050.1
998.932	1095.52
999.227	1050.78
999.523	1069.53
999.818	990.21
1000.114	1013.94
1000.409	1019.59
1000.704	1018.91
1001	1005.13
1001.295	998.12
1001.59	1015.98
1001.885	1014.39
1002.18	1009.2
1002.475	1006.48
1002.77	989.99
1003.065	970.55
1003.359	961.74
1003.654	993.6
1003.949	992.02
1004.243	962.64
1004.538	977.33
1004.832	949.76
1005.127	982.3
1005.421	940.95
1005.715	956.77
1006.009	933.49
1006.304	939.37
1006.598	933.72
1006.892	921.06
1007.186	939.59
1007.48	920.16
1007.773	901.18
1008.067	911.57
1008.361	904.34
1008.655	897.11
1008.948	895.08
1009.242	877.9
1009.535	917
1009.829	903.66
1010.122	867.96
1010.415	867.73
1010.708	900.5
1011.001	879.71
1011.295	859.6
1011.588	866.38
1011.881	878.13
1012.173	874.51
1012.466	853.04
1012.759	838.81
1013.052	852.14
1013.344	855.08
1013.637	842.87
1013.93	829.09
1014.222	822.31
1014.514	827.28
1014.807	815.98
1015.099	856.21
1015.391	824.79
1015.683	813.95
1015.976	801.52
1016.268	819.15
1016.56	782.99
1016.851	789.77
1017.143	780.28
1017.435	764.01
1017.727	765.36
1018.018	790.45
1018.31	774.17
1018.602	789.77
1018.893	761.52
1019.185	760.84
1019.476	738.47
1019.767	779.15
1020.058	740.05
1020.35	756.32
1020.641	728.07
1020.932	758.36
1021.223	750.9
1021.514	748.19
1021.804	731.69
1022.095	736.21
1022.386	742.76
1022.677	718.13
1022.967	737.11
1023.258	724.23
1023.548	688.98
1023.839	698.02
1024.129	688.08
1024.419	703.22
1024.709	701.41
1025	679.04
1025.29	705.7
1025.58	697.34
1025.87	678.36
1026.16	706.61
1026.449	668.64
1026.739	666.61
1027.029	681.75
1027.319	679.71
1027.608	643.33
1027.898	656.66
1028.187	659.6
1028.477	650.79
1028.766	643.78
1029.055	652.37
1029.344	657.79
1029.634	662.77
1029.923	656.66
1030.212	641.75
1030.501	613.5
1030.79	638.13
1031.078	625.48
1031.367	640.17
1031.656	622.77
1031.945	637.91
1032.233	625.03
1032.522	597.23
1032.81	592.03
1033.099	617.12
1033.387	596.33
1033.675	588.42
1033.963	598.36
1034.251	604.24
1034.54	610.11
1034.828	588.42
1035.116	584.35
1035.403	594.52
1035.691	586.16
1035.979	555.2
1036.267	579.83
1036.554	560.39
1036.842	578.7
1037.129	578.7
1037.417	568.3
1037.704	601.3
1037.992	556.1
1038.279	549.55
1038.566	548.19
1038.853	548.19
1039.14	548.19
