Data from blue_clamp_base_FLMS001491_00024.txt Node
Date: Wed Feb 08 15:15:46 GMT 2017
User: dcchb
Spectrometer: FLMS00149
Trigger mode: 0
Integration Time (sec): 2.000000E-2
Scans to average: 10
Electric dark correction enabled: true
Nonlinearity correction enabled: false
Boxcar width: 0
XAxis mode: Wavelengths
Number of Pixels in Spectrum: 2048
>>>>>Begin Spectral Data<<<<<
341.393	-29.19
341.776	-29.19
342.16	-29.19
342.543	-57.67
342.927	-68.97
343.31	-59.48
343.693	-75.97
344.077	-51.11
344.46	-64.67
344.843	-51.79
345.226	-49.31
345.61	-52.24
345.993	-20.38
346.376	22.1
346.759	18.94
347.142	30.24
347.525	23.69
347.908	70.92
348.291	69.56
348.674	93.97
349.057	95.55
349.44	99.84
349.823	152.04
350.206	159.05
350.588	178.03
350.971	195.43
351.354	225.26
351.737	221.42
352.119	239.05
352.502	260.74
352.884	275.2
353.267	263.45
353.65	279.95
354.032	283.34
354.414	304.13
354.797	303.9
355.179	299.61
355.562	299.84
355.944	305.94
356.326	321.08
356.709	334.19
357.091	336.67
357.473	337.58
357.855	327.86
358.238	343.45
358.62	350.23
359.002	326.5
359.384	326.5
359.766	327.63
360.148	312.04
360.53	331.25
360.912	327.63
361.294	331.02
361.676	318.37
362.057	304.58
362.439	316.11
362.821	295.77
363.203	304.81
363.584	317.46
363.966	294.19
364.348	304.58
364.729	294.64
365.111	303.45
365.493	287.18
365.874	298.71
366.256	280.85
366.637	294.87
367.019	291.25
367.4	304.36
367.781	310.01
368.163	296.67
368.544	289.44
368.925	296
369.306	294.41
369.688	285.37
370.069	305.49
370.45	308.42
370.831	298.48
371.212	298.03
371.593	310.91
371.974	323.79
372.355	305.03
372.736	321.76
373.117	305.03
373.498	313.17
373.879	290.57
374.26	310.23
374.641	307.97
375.021	285.37
375.402	309.1
375.783	321.08
376.163	312.27
376.544	301.64
376.925	301.19
377.305	325.6
377.686	312.49
378.066	313.4
378.447	303
378.827	315.66
379.208	308.42
379.588	303.68
379.968	328.54
380.349	309.78
380.729	345.71
381.109	322.44
381.489	318.14
381.87	323.79
382.25	333.28
382.63	333.51
383.01	321.76
383.39	343.9
383.77	331.25
384.15	332.38
384.53	332.6
384.91	340.74
385.29	323.34
385.67	319.95
386.049	344.13
386.429	341.87
386.809	340.51
387.189	328.76
387.568	360.4
387.948	351.59
388.328	344.36
388.707	368.99
389.087	336.9
389.466	354.75
389.846	361.08
390.225	355.65
390.605	358.14
390.984	349.1
391.363	366.5
391.743	371.02
392.122	376.22
392.501	372.38
392.881	370.8
393.26	378.48
393.639	369.89
394.018	383
394.397	385.94
394.776	401.98
395.155	385.94
395.534	378.93
395.913	407.4
396.292	403.11
396.671	403.56
397.05	400.63
397.429	404.01
397.808	415.09
398.186	418.03
398.565	434.3
398.944	399.5
399.323	427.52
399.701	434.97
400.08	422.09
400.458	439.95
400.837	448.08
401.215	436.1
401.594	420.51
401.972	441.08
402.351	465.26
402.729	470.45
403.107	472.49
403.486	463.22
403.864	482.2
404.242	481.98
404.62	491.47
404.999	475.43
405.377	478.82
405.755	483.33
406.133	509.32
406.511	501.64
406.889	491.47
407.267	507.97
407.645	500.96
408.023	521.53
408.401	518.59
408.779	523.79
409.156	536.67
409.534	535.31
409.912	541.19
410.29	540.96
410.667	550.45
411.045	573.95
411.422	587.06
411.8	547.74
412.178	608.98
412.555	566.95
412.933	616.44
413.31	600.39
413.687	622.54
414.065	621.18
414.442	616.66
414.819	632.71
415.197	632.48
415.574	657.79
415.951	657.57
416.328	651.24
416.705	649.43
417.082	653.5
417.46	645.36
417.837	660.96
418.214	673.84
418.591	680.17
418.967	703.67
419.344	723.1
419.721	702.54
420.098	681.75
420.475	701.86
420.852	719.94
421.228	727.4
421.605	735.53
421.982	745.02
422.358	742.99
422.735	740.5
423.111	769.2
423.488	773.95
423.864	784.8
424.241	769.43
424.617	796.77
424.994	796.32
425.37	789.32
425.746	827.73
426.123	831.57
426.499	834.06
426.875	844.46
427.251	814.4
427.627	877.9
428.003	848.3
428.379	878.13
428.756	876.54
429.132	913.38
429.507	899.59
429.883	921.52
430.259	952.7
430.635	921.06
431.011	961.06
431.387	966.71
431.763	988.41
432.138	966.03
432.514	999.71
432.89	993.83
433.265	1049.87
433.641	1030.21
434.016	1056.2
434.392	1087.16
434.767	1074.51
435.143	1081.29
435.518	1113.83
435.894	1124.67
436.269	1138.91
436.644	1158.12
437.02	1178.91
437.395	1164.45
437.77	1164.67
438.145	1191.34
438.52	1203.32
438.895	1218
439.271	1225.69
439.646	1280.15
440.021	1268.4
440.395	1258
440.77	1261.17
441.145	1302.75
441.52	1299.81
441.895	1313.37
442.27	1324.89
442.645	1321.05
443.019	1346.59
443.394	1379.36
443.769	1358.34
444.143	1348.4
444.518	1388.85
444.892	1372.35
445.267	1398.11
445.641	1400.15
446.016	1425.91
446.39	1432.69
446.764	1428.39
447.139	1453.7
447.513	1459.58
447.887	1481.27
448.262	1479.24
448.636	1489.18
449.01	1520.6
449.384	1502.07
449.758	1533.48
450.132	1522.18
450.506	1556.75
450.88	1591.55
451.254	1542.52
451.628	1609.41
452.002	1643.76
452.376	1644.43
452.75	1655.73
453.123	1657.09
453.497	1690.99
453.871	1690.99
454.244	1699.35
454.618	1751.32
454.992	1707.94
455.365	1766.24
455.739	1778.44
456.112	1812.11
456.486	1810.53
456.859	1848.95
457.232	1888.95
457.606	1875.16
457.979	1908.38
458.352	1914.03
458.725	1935.05
459.099	1954.71
459.472	2000.13
459.845	2044.2
460.218	2027.02
460.591	2070.86
460.964	2053.24
461.337	2110.18
461.71	2121.26
462.083	2156.06
462.456	2166.23
462.829	2140.47
463.201	2196.06
463.574	2230.63
463.947	2274.93
464.32	2255.27
464.692	2296.62
465.065	2321.03
465.438	2311.08
465.81	2362.16
466.183	2377.3
466.555	2446
466.928	2442.83
467.3	2428.37
467.672	2493.9
468.045	2510.63
468.417	2568.25
468.789	2540.91
469.161	2576.39
469.534	2648.25
469.906	2677.4
470.278	2683.73
470.65	2705.65
471.022	2761.92
471.394	2798.53
471.766	2803.5
472.138	2850.5
472.51	2889.15
472.882	2968.69
473.253	2957.39
473.625	3023.61
473.997	3024.74
474.369	3056.6
474.74	3109.03
475.112	3128.91
475.484	3193.77
475.855	3224.05
476.227	3275.13
476.598	3324.16
476.97	3321.68
477.341	3412.75
477.713	3453.65
478.084	3473.54
478.455	3548.79
478.827	3582.91
479.198	3649.81
479.569	3661.1
479.94	3776.58
480.311	3731.61
480.682	3822.23
481.053	3890.93
481.424	3965.96
481.795	3956.92
482.166	4051.15
482.537	4057.25
482.908	4170.02
483.279	4189.23
483.65	4276.46
484.021	4292.73
484.391	4344.25
484.762	4352.39
485.133	4358.04
485.503	4431.93
485.874	4452.27
486.244	4518.48
486.615	4587.18
486.985	4603.45
487.356	4654.98
487.726	4738.36
488.097	4772.26
488.467	4782.43
488.837	4890.68
489.207	4954.18
489.578	4962.99
489.948	4961.41
490.318	5046.15
490.688	5054.97
491.058	5080.5
491.428	5165.47
491.798	5188.75
492.168	5285.69
492.538	5292.7
492.908	5356.88
493.278	5367.05
493.648	5343.77
494.017	5361.85
494.387	5444.56
494.757	5479.59
495.126	5521.17
495.496	5532.24
495.866	5543.31
496.235	5586.25
496.605	5567.49
496.974	5628.06
497.344	5661.28
497.713	5670.77
498.082	5732.24
498.452	5755.74
498.821	5782.4
499.19	5739.02
499.559	5794.38
499.928	5835.96
500.298	5875.74
500.667	5934.72
501.036	5871.67
501.405	5910.54
501.774	5902.4
502.143	5954.83
502.512	5961.83
502.88	5994.83
503.249	6001.61
503.618	6037.09
503.987	6038.89
504.356	6070.53
504.724	6083.19
505.093	6060.82
505.462	6096.75
505.83	6103.3
506.199	6179.68
506.567	6238.66
506.936	6255.39
507.304	6245.44
507.672	6237.53
508.041	6224.88
508.409	6337.42
508.777	6366.8
509.145	6345.78
509.514	6357.53
509.882	6379.9
510.25	6399.56
510.618	6464.42
510.986	6430.52
511.354	6465.32
511.722	6526.34
512.09	6592.78
512.458	6543.06
512.826	6595.72
513.193	6640.24
513.561	6581.25
513.929	6642.04
514.297	6695.15
514.664	6658.54
515.032	6710.74
515.4	6763.17
515.767	6734.7
516.135	6768.14
516.502	6682.72
516.869	6868.7
517.237	6868.93
517.604	6757.75
517.972	6853.34
518.339	6887.23
518.706	6861.25
519.073	6944.18
519.44	6883.39
519.808	6989.83
520.175	6957.74
520.542	7071.64
520.909	7071.41
521.276	6992.99
521.643	7099.88
522.009	7160.9
522.376	7128.81
522.743	7153.44
523.11	7194.12
523.477	7270.27
523.843	7279.31
524.21	7350.5
524.577	7353.21
524.943	7368.8
525.31	7346.43
525.676	7462.59
526.043	7517.27
526.409	7525.18
526.776	7581.91
527.142	7550.72
527.508	7600.21
527.874	7672.07
528.241	7675.46
528.607	7660.32
528.973	7701.9
529.339	7698.96
529.705	7740.32
530.071	7827.77
530.437	7844.27
530.803	7846.98
531.169	7909.81
531.535	7868
531.901	7878.17
532.267	7984.15
532.632	8026.87
532.998	8025.74
533.364	8022.57
533.73	8024.83
534.095	8147.54
534.461	8064.83
534.826	8134.21
535.192	8162.23
535.557	8145.96
535.923	8188.22
536.288	8204.26
536.653	8296.91
537.019	8209.23
537.384	8305.95
537.749	8286.07
538.114	8303.02
538.479	8338.72
538.845	8377.82
539.21	8327.87
539.575	8330.59
539.94	8390.92
540.305	8427.31
540.67	8395.67
541.034	8393.86
541.399	8472.73
541.764	8459.4
542.129	8481.54
542.494	8536.68
542.858	8542.78
543.223	8552.95
543.587	8516.8
543.952	8572.84
544.316	8543.69
544.681	8638.6
545.045	8584.59
545.41	8617.36
545.774	8674.31
546.138	8683.57
546.503	8710.24
546.867	8703.68
547.231	8710.46
547.595	8677.02
547.959	8747.52
548.324	8734.87
548.688	8790.01
549.052	8813.74
549.416	8762.21
549.779	8771.03
550.143	8772.38
550.507	8823.23
550.871	8854.41
551.235	8838.37
551.599	8853.74
551.962	8924.92
552.326	8974.64
552.689	8981.42
553.053	8850.57
553.417	8927.41
553.78	8991.59
554.143	8973.51
554.507	9010.34
554.87	9009.21
555.234	9084.01
555.597	9006.73
555.96	9048.53
556.323	9102.77
556.686	9107.29
557.05	9237.68
557.413	9154.52
557.776	9157.46
558.139	9211.01
558.502	9216.21
558.865	9244.46
559.228	9204.01
559.59	9267.51
559.953	9243.33
560.316	9313.16
560.679	9326.27
561.041	9369.65
561.404	9370.11
561.767	9458.69
562.129	9424.57
562.492	9500.27
562.854	9430.9
563.217	9507.05
563.579	9571.01
563.941	9534.85
564.304	9600.16
564.666	9633.15
565.028	9636.31
565.39	9608.29
565.753	9654.62
566.115	9716.99
566.477	9758.35
566.839	9824.78
567.201	9848.29
567.563	9924.67
567.925	9860.04
568.287	9910.21
568.648	9865.23
569.01	9951.79
569.372	9983.65
569.734	9955.18
570.095	9999.69
570.457	10077.66
570.819	10114.95
571.18	10094.16
571.542	10157.88
571.903	10138.22
572.265	10168.05
572.626	10277.2
572.987	10236.98
573.349	10252.57
573.71	10239.24
574.071	10307.48
574.432	10317.65
574.794	10409.63
575.155	10382.51
575.516	10358.78
575.877	10414.83
576.238	10467.25
576.599	10495.05
576.96	10446.46
577.32	10493.24
577.681	10439.23
578.042	10560.36
578.403	10563.97
578.763	10551.54
579.124	10511.09
579.485	10608.49
579.845	10649.62
580.206	10589.96
580.566	10637.19
580.927	10735.04
581.287	10725.33
581.648	10714.48
582.008	10791.31
582.368	10733.91
582.728	10775.95
583.089	10743.4
583.449	10703.63
583.809	10810.97
584.169	10776.17
584.529	10759.45
584.889	10846.9
585.249	10871.54
585.609	10773.46
585.969	10852.78
586.329	10768.49
586.688	10820.46
587.048	10787.24
587.408	10830.41
587.768	10878.54
588.127	10841.25
588.487	10770.75
588.846	10895.26
589.206	10853.91
589.565	10817.07
589.925	10873.8
590.284	10837.86
590.643	10914.25
591.003	10917.41
591.362	10922.38
591.721	10927.13
592.08	10914.92
592.44	10942.49
592.799	10952.89
593.158	10953.12
593.517	10997.41
593.876	10975.26
594.235	10983.85
594.593	10947.69
594.952	11056.16
595.311	10906.56
595.67	10980.46
596.029	11095.71
596.387	11015.04
596.746	11061.14
597.104	10991.98
597.463	11060.46
597.822	10988.14
598.18	10961.93
598.538	11057.52
598.897	11113.79
599.255	11029.05
599.613	11100.23
599.972	11057.75
600.33	11134.58
600.688	11041.25
601.046	11139.55
601.404	11127.8
601.762	11093.9
602.12	11122.15
602.478	11151.98
602.836	11124.86
603.194	11131.19
603.552	11083.51
603.91	11078.54
604.268	11205.31
604.625	11200.57
604.983	11227.69
605.341	11174.81
605.698	11201.47
606.056	11191.53
606.413	11118.76
606.771	11213.9
607.128	11239.89
607.485	11198.31
607.843	11264.07
608.2	11275.59
608.557	11280.11
608.914	11317.4
609.272	11367.12
609.629	11402.6
609.986	11317.17
610.343	11294.12
610.7	11403.95
611.057	11368.92
611.414	11363.27
611.771	11402.14
612.127	11464.74
612.484	11387.91
612.841	11440.79
613.198	11380.45
613.554	11428.13
613.911	11546.55
614.267	11400.11
614.624	11390.39
614.98	11542.48
615.337	11530.28
615.693	11457.51
616.05	11607.56
616.406	11556.49
616.762	11551.97
617.118	11575.7
617.475	11565.08
617.831	11625.41
618.187	11583.83
618.543	11631.06
618.899	11697.73
619.255	11640.1
619.611	11658.63
619.967	11729.14
620.323	11690.95
620.678	11758.74
621.034	11665.64
621.39	11678.07
621.746	11779.31
622.101	11796.71
622.457	11717.16
622.812	11799.65
623.168	11814.11
623.523	11756.94
623.879	11868.35
624.234	11766.2
624.589	11827.67
624.945	11822.47
625.3	11840.78
625.655	11882.13
626.01	11964.16
626.365	11884.62
626.72	11951.06
627.075	11865.41
627.43	11934.33
627.785	11894.79
628.14	11928.68
628.495	12011.39
628.85	11913.77
629.205	11899.31
629.559	11953.54
629.914	11961.45
630.269	11923.26
630.623	11951.51
630.978	11932.3
631.332	12033.31
631.687	12005.74
632.041	12027.44
632.396	12018.62
632.75	11951.73
633.104	11979.98
633.459	11955.8
633.813	12005.52
634.167	12083.03
634.521	12037.16
634.875	11990.15
635.229	11930.72
635.583	12039.87
635.937	11965.52
636.291	12035.35
636.645	11999.87
636.999	12045.06
637.352	12064.95
637.706	12007.33
638.06	12047.78
638.413	12081.45
638.767	12106.76
639.121	12072.41
639.474	12040.54
639.828	11972.07
640.181	12044.84
640.534	12062.47
640.888	12043.71
641.241	12040.54
641.594	12066.76
641.947	12149.02
642.301	12122.8
642.654	12151.28
643.007	12117.83
643.36	12113.76
643.713	12162.35
644.066	12159.64
644.419	12090.04
644.771	12068.11
645.124	11998.74
645.477	12131.16
645.83	12074.44
646.182	11924.16
646.535	11904.5
646.888	11872.64
647.24	11745.19
647.593	11760.33
647.945	11774.79
648.298	11728.01
648.65	11755.13
649.002	11752.87
649.355	11897.05
649.707	11852.08
650.059	12089.36
650.411	12190.6
650.763	12141.33
651.115	12313.53
651.467	12286.19
651.819	12282.12
652.171	12283.93
652.523	12211.16
652.875	12287.77
653.227	12216.81
653.578	12273.76
653.93	12318.05
654.282	12375.68
654.633	12210.71
654.985	12326.19
655.337	12364.6
655.688	12300.65
656.039	12435.56
656.391	12400.08
656.742	12367.99
657.094	12406.64
657.445	12370.71
657.796	12440.76
658.147	12452.51
658.498	12368.67
658.849	12454.09
659.2	12405.06
659.551	12429.91
659.902	12449.8
660.253	12461.78
660.604	12498.16
660.955	12421.78
661.306	12459.29
661.656	12420.2
662.007	12448.44
662.358	12471.04
662.708	12452.74
663.059	12453.87
663.409	12397.6
663.76	12425.62
664.11	12463.81
664.461	12511.95
664.811	12452.74
665.161	12440.53
665.511	12457.26
665.862	12506.3
666.212	12542.9
666.562	12502.68
666.912	12385.39
667.262	12471.04
667.612	12494.09
667.962	12518.5
668.312	12339.75
668.662	12522.79
669.011	12385.17
669.361	12377.49
669.711	12320.31
670.06	12351.5
670.41	12295
670.76	12318.5
671.109	12384.72
671.459	12285.51
671.808	12248.45
672.157	12214.55
672.507	12156.25
672.856	12161.9
673.205	12068.11
673.554	12128.9
673.904	12086.42
674.253	12113.99
674.602	12126.64
674.951	11936.14
675.3	11823.15
675.649	12108.57
675.998	11995.12
676.346	11984.73
676.695	12085.29
677.044	11933.2
677.393	12009.81
677.741	12059.3
678.09	11953.54
678.438	11911.73
678.787	11986.08
679.135	11834.9
679.484	11770.72
679.832	11841.91
680.181	11763.04
680.529	11822.02
680.877	11705.64
681.225	11728.91
681.573	11794.68
681.922	11657.05
682.27	11724.62
682.618	11638.52
682.966	11633.55
683.314	11612.99
683.661	11600.1
684.009	11610.5
684.357	11483.05
684.705	11441.24
685.053	11460
685.4	11431.52
685.748	11383.84
686.095	11385.65
686.443	11341.35
686.79	11306.78
687.138	11387
687.485	11314.69
687.832	11291.64
688.18	11358.3
688.527	11232.66
688.874	11300
689.221	11247.57
689.568	11233.56
689.915	11234.01
690.262	11210.06
690.609	11231.53
690.956	11212.54
691.303	11167.35
691.65	11146.11
691.997	11176.61
692.344	11100.68
692.69	11089.61
693.037	11118.54
693.383	11053
693.73	11093
694.077	10948.37
694.423	10997.63
694.769	10935.94
695.116	10917.86
695.462	10873.8
695.808	10862.5
696.155	10924.42
696.501	10815.49
696.847	10817.98
697.193	10752.44
697.539	10814.36
697.885	10690.98
698.231	10804.65
698.577	10703.86
698.923	10687.59
699.269	10695.04
699.614	10578.66
699.96	10655.95
700.306	10669.73
700.651	10626.12
700.997	10566.01
701.342	10524.88
701.688	10641.49
702.033	10625.67
702.379	10578.66
702.724	10561.94
703.069	10641.26
703.415	10470.19
703.76	10436.29
704.105	10512.45
704.45	10544.77
704.795	10460.7
705.14	10493.69
705.485	10518.33
705.83	10484.2
706.175	10513.13
706.52	10438.1
706.865	10421.38
707.209	10449.17
707.554	10364.66
707.899	10406.69
708.243	10412.57
708.588	10354.26
708.932	10364.88
709.277	10363.3
709.621	10374.15
709.966	10234.04
710.31	10258.9
710.654	10274.94
710.998	10248.5
711.342	10225.45
711.687	10290.08
712.031	10214.15
712.375	10178.45
712.719	10204.44
713.063	10157.43
713.407	10264.77
713.75	10192.46
714.094	10163.76
714.438	10156.75
714.782	10234.26
715.125	10128.96
715.469	10175.51
715.812	10102.06
716.156	10112.91
716.499	10058
716.843	10094.38
717.186	10074.95
717.53	10158.79
717.873	10106.13
718.216	10093.7
718.559	10052.35
718.902	10050.09
719.246	10039.02
719.589	9993.14
719.932	9970.54
720.275	10065.23
720.617	10004.21
720.96	10034.27
721.303	9995.18
721.646	10082.63
721.989	10013.03
722.331	10044.44
722.674	9957.44
723.016	9999.24
723.359	9914.73
723.701	9880.83
724.044	9919.47
724.386	9843.54
724.729	9936.19
725.071	9972.8
725.413	9952.46
725.755	9928.28
726.097	9899.36
726.439	9843.99
726.782	9868.4
727.124	9931.22
727.465	9896.87
727.807	9834.95
728.149	9839.25
728.491	9880.6
728.833	9879.7
729.175	9908.85
729.516	9899.58
729.858	9904.56
730.199	9915.4
730.541	9871.79
730.882	9933.03
731.224	9954.05
731.565	9857.78
731.906	9945.01
732.248	9928.74
732.589	9763.99
732.93	9875.63
733.271	9855.07
733.612	9930.09
733.953	9966.93
734.294	9953.14
734.635	9864.11
734.976	9930.32
735.317	9914.5
735.658	9846.03
735.999	9833.6
736.339	9938.45
736.68	10014.84
737.021	9950.66
737.361	9983.65
737.702	9963.09
738.042	9997.43
738.383	10027.94
738.723	10056.19
739.063	10012.12
739.404	10052.57
739.744	10024.78
740.084	10005.57
740.424	10116.75
740.764	10083.99
741.104	10091.44
741.444	10087.15
741.784	10088.96
742.124	10108.39
742.464	10170.31
742.804	10121.27
743.143	10128.28
743.483	10156.3
743.823	10187.03
744.162	10293.02
744.502	10219.58
744.841	10242.17
745.181	10333.7
745.52	10323.3
745.86	10395.39
746.199	10298.67
746.538	10334.15
746.877	10374.83
747.216	10441.72
747.556	10389.29
747.895	10483.52
748.234	10373.7
748.573	10451.89
748.911	10446.24
749.25	10396.29
749.589	10445.33
749.928	10601.49
750.267	10530.75
750.605	10520.13
750.944	10536.4
751.283	10553.8
751.621	10634.25
751.96	10645.78
752.298	10700.92
752.636	10718.55
752.975	10684.42
753.313	10632.67
753.651	10781.14
753.989	10704.99
754.327	10772.1
754.666	10752.22
755.004	10806.23
755.342	10764.87
755.679	10818.66
756.017	10745.44
756.355	10881.03
756.693	10958.54
757.031	10926.22
757.368	10893.23
757.706	10891.42
758.044	10915.38
758.381	10931.87
758.719	10939.11
759.056	11009.84
759.394	11048.03
759.731	10928.03
760.068	11017.07
760.405	10984.08
760.743	11013.23
761.08	11018.42
761.417	11025.2
761.754	10961.48
762.091	11020.46
762.428	11021.81
762.765	11034.02
763.102	11022.27
763.438	11040.12
763.775	10973
764.112	11131.87
764.449	11145.65
764.785	11101.36
765.122	11102.04
765.458	11024.53
765.795	11079.44
766.131	11119.67
766.467	11117.18
766.804	11105.43
767.14	11106.56
767.476	11180.45
767.812	11085.77
768.148	11176.61
768.485	11114.92
768.821	11114.02
769.157	11085.32
769.492	11141.36
769.828	11117.41
770.164	11061.36
770.5	11115.82
770.836	11141.36
771.171	11050.74
771.507	11107.46
771.842	11022.04
772.178	11052.1
772.513	11128.48
772.849	11093.23
773.184	11091.19
773.519	11113.56
773.855	11055.71
774.19	11170.29
774.525	10982.04
774.86	11106.78
775.195	11078.99
775.53	11010.97
775.865	10998.76
776.2	11026.11
776.535	11001.02
776.87	10975.94
777.205	11000.8
777.539	11032.21
777.874	11014.36
778.209	10921.48
778.543	10945.66
778.878	10994.47
779.212	10913.79
779.547	10883.06
779.881	10900.01
780.215	10915.38
780.55	10977.3
780.884	10889.39
781.218	10868.15
781.552	10981.14
781.886	10837.86
782.22	10830.18
782.554	10876.73
782.888	10758.77
783.222	10837.41
783.556	10834.7
783.889	10711.77
784.223	10717.87
784.557	10744.31
784.89	10816.62
785.224	10759.67
785.557	10776.62
785.891	10707.92
786.224	10670.19
786.558	10763.29
786.891	10596.74
787.224	10667.02
787.557	10605.33
787.891	10681.26
788.224	10656.4
788.557	10664.08
788.89	10666.8
789.223	10609.17
789.556	10494.82
789.888	10633.58
790.221	10475.84
790.554	10489.4
790.887	10507.48
791.219	10435.16
791.552	10510.87
791.884	10526.46
792.217	10417.54
792.549	10404.2
792.882	10347.26
793.214	10392
793.546	10456.41
793.879	10347.26
794.211	10315.84
794.543	10387.26
794.875	10392.45
795.207	10358.78
795.539	10395.16
795.871	10389.51
796.203	10303.19
796.535	10231.55
796.867	10232
797.198	10289.4
797.53	10304.55
797.862	10260.25
798.193	10292.79
798.525	10190.65
798.856	10194.04
799.188	10211.44
799.519	10127.37
799.85	10108.39
800.182	10149.3
800.513	10141.16
800.844	10066.13
801.175	10124.21
801.506	10072.91
801.837	10083.08
802.168	10049.64
802.499	9995.4
802.83	9963.99
803.161	10032.24
803.491	9946.59
803.822	10008.96
804.153	9956.31
804.483	9809.42
804.814	9951.79
805.145	9789.08
805.475	9895.74
805.805	9886.48
806.136	9870.88
806.466	9831.34
806.796	9867.95
807.126	9811.68
807.457	9793.15
807.787	9823.88
808.117	9763.32
808.447	9804.45
808.777	9751.79
809.107	9733.49
809.436	9735.07
809.766	9738.01
810.096	9706.82
810.426	9628.18
810.755	9638.8
811.085	9600.61
811.414	9621.17
811.744	9587.05
812.073	9548.18
812.403	9561.06
812.732	9506.83
813.061	9568.52
813.39	9482.42
813.719	9523.78
814.049	9585.02
814.378	9455.3
814.707	9398.13
815.036	9524.23
815.365	9504.57
815.693	9425.02
816.022	9356.1
816.351	9409.65
816.68	9358.36
817.008	9362.42
817.337	9366.27
817.665	9228.64
817.994	9300.96
818.322	9309.77
818.651	9287.4
818.979	9196.55
819.307	9247.4
819.636	9243.78
819.964	9179.83
820.292	9242.88
820.62	9258.25
820.948	9233.16
821.276	9256.66
821.604	9213.95
821.932	9234.29
822.259	9259.83
822.587	9270
822.915	9212.82
823.243	9241.07
823.57	9227.06
823.898	9266.15
824.225	9238.81
824.553	9239.71
824.88	9315.19
825.207	9280.39
825.535	9362.2
825.862	9312.93
826.189	9211.69
826.516	9210.34
826.843	9323.1
827.17	9262.31
827.497	9304.8
827.824	9349.09
828.151	9366.27
828.478	9379.15
828.805	9373.5
829.131	9340.28
829.458	9379.37
829.785	9298.92
830.111	9297.79
830.438	9368.3
830.764	9317.45
831.09	9313.84
831.417	9251.01
831.743	9360.84
832.069	9367.39
832.395	9308.41
832.722	9288.98
833.048	9262.76
833.374	9338.7
833.7	9317
834.026	9277.91
834.351	9326.04
834.677	9295.31
835.003	9347.51
835.329	9234.29
835.654	9357.9
835.98	9248.3
836.306	9256.66
836.631	9319.94
836.956	9311.58
837.282	9241.07
837.607	9241.75
837.932	9226.61
838.258	9225.03
838.583	9231.81
838.908	9132.6
839.233	9148.64
839.558	9197.23
839.883	9107.74
840.208	9049.21
840.533	9088.31
840.858	9158.81
841.182	9112.49
841.507	9071.58
841.832	9099.15
842.156	9111.81
842.481	9065.71
842.805	9040.62
843.13	8968.76
843.454	8936.67
843.778	8963.56
844.103	8933.73
844.427	8914.53
844.751	8992.04
845.075	8968.08
845.399	8885.15
845.723	8854.64
846.047	8820.29
846.371	8769.22
846.695	8802.44
847.019	8752.04
847.343	8769.22
847.666	8655.32
847.99	8624.59
848.313	8682.44
848.637	8621.43
848.96	8536
849.284	8546.17
849.607	8567.64
849.931	8479.73
850.254	8439.96
850.577	8432.28
850.9	8350.02
851.223	8396.57
851.546	8307.31
851.869	8272.96
852.192	8256.24
852.515	8192.06
852.838	8262.57
853.161	8156.35
853.483	8225.28
853.806	8131.27
854.129	8115.22
854.451	8122.46
854.774	8122.23
855.096	8050.14
855.419	8029.8
855.741	8004.04
856.063	8006.75
856.385	7956.36
856.708	7935.79
857.03	7911.61
857.352	7842.24
857.674	7915.23
857.996	7858.96
858.318	7840.43
858.64	7852.41
858.961	7762.47
859.283	7799.53
859.605	7724.73
859.926	7680.89
860.248	7654.67
860.57	7669.36
860.891	7669.36
861.212	7636.14
861.534	7631.85
861.855	7627.55
862.176	7641.56
862.498	7675.01
862.819	7643.15
863.14	7608.57
863.461	7645.41
863.782	7563.37
864.103	7564.96
864.424	7569.93
864.745	7533.77
865.065	7508.01
865.386	7560.21
865.707	7439.08
866.027	7498.07
866.348	7495.81
866.668	7451.06
866.989	7431.63
867.309	7414
867.63	7403.15
867.95	7433.89
868.27	7430.04
868.59	7396.15
868.91	7373.32
869.23	7349.14
869.55	7272.99
869.87	7349.37
870.19	7344.17
870.51	7346.21
870.83	7299.2
871.15	7255.36
871.469	7320.22
871.789	7292.42
872.109	7258.3
872.428	7245.42
872.748	7254
873.067	7244.74
873.386	7219.2
873.706	7266.21
874.025	7193.67
874.344	7142.59
874.663	7190.95
874.982	7190.05
875.301	7181.24
875.62	7211.07
875.939	7120.45
876.258	7117.28
876.577	7160
876.896	7084.74
877.214	7109.15
877.533	7098.75
877.852	7101.92
878.17	7111.64
878.489	7070.05
878.807	7081.58
879.125	7036.16
879.444	7069.15
879.762	6986.67
880.08	7037.29
880.398	6953.22
880.716	6977.18
881.034	6974.01
881.352	7034.8
881.67	6950.74
881.988	6930.17
882.306	6946.22
882.624	6879.32
882.941	6927.91
883.259	6860.79
883.577	6846.56
883.894	6867.35
884.212	6851.53
884.529	6865.31
884.846	6833.9
885.164	6793.9
885.481	6762.72
885.798	6727.24
886.115	6701.93
886.432	6761.14
886.75	6763.85
887.067	6710.74
887.383	6663.29
887.7	6716.39
888.017	6716.84
888.334	6654.25
888.651	6639.78
888.967	6607.02
889.284	6544.19
889.6	6543.29
889.917	6542.84
890.233	6597.07
890.55	6531.31
890.866	6479.11
891.182	6532.67
891.498	6430.07
891.815	6442.5
892.131	6466.68
892.447	6452.9
892.763	6384.65
893.079	6433.23
893.395	6373.58
893.71	6306.46
894.026	6330.19
894.342	6322.96
894.657	6274.82
894.973	6284.09
895.289	6221.49
895.604	6254.71
895.92	6218.33
896.235	6154.82
896.55	6207.25
896.865	6167.71
897.181	6182.17
897.496	6107.37
897.811	6071.44
898.126	6097.42
898.441	6045.22
898.756	6049.74
899.071	6016.75
899.386	6001.16
899.7	5966.13
900.015	5985.56
900.33	5918.9
900.644	5943.08
900.959	5959.35
901.273	5888.84
901.588	5833.25
901.902	5807.94
902.216	5819.01
902.531	5795.96
902.845	5792.8
903.159	5752.57
903.473	5714.84
903.787	5726.59
904.101	5727.26
904.415	5684.1
904.729	5689.07
905.042	5623.31
905.356	5645.91
905.67	5637.1
905.984	5603.88
906.297	5630.54
906.611	5536.76
906.924	5494.73
907.237	5545.8
907.551	5495.18
907.864	5428.29
908.177	5470.1
908.491	5400.72
908.804	5417.44
909.117	5405.92
909.43	5377.44
909.743	5336.31
910.056	5296.77
910.368	5296.09
910.681	5262.64
910.994	5248.86
911.307	5247.05
911.619	5220.84
911.932	5200.95
912.244	5204.79
912.557	5187.39
912.869	5133.61
913.181	5120.95
913.494	5080.28
913.806	5050.67
914.118	5038.47
914.43	5027.85
914.742	5053.61
915.054	5004.57
915.366	4953.27
915.678	4942.43
915.99	4901.3
916.302	4864.46
916.613	4885.7
916.925	4854.97
917.236	4857.01
917.548	4796.44
917.859	4832.15
918.171	4868.08
918.482	4784.01
918.794	4784.69
919.105	4736.56
919.416	4730.91
919.727	4715.99
920.038	4724.35
920.349	4745.37
920.66	4660.17
920.971	4666.05
921.282	4612.04
921.593	4563.91
921.903	4545.15
922.214	4560.52
922.525	4577.69
922.835	4583.79
923.146	4492.04
923.456	4541.31
923.767	4417.47
924.077	4475.77
924.387	4459.05
924.697	4428.32
925.008	4407.98
925.318	4416.11
925.628	4367.07
925.938	4355.78
926.248	4311.26
926.558	4310.13
926.867	4284.82
927.177	4239.62
927.487	4247.98
927.796	4238.26
928.106	4226.97
928.416	4203.01
928.725	4214.08
929.034	4147.87
929.344	4125.5
929.653	4134.09
929.962	4121.43
930.271	4085.73
930.581	4092.28
930.89	4094.09
931.199	4053.86
931.508	4017.25
931.817	4005.5
932.125	4013.64
932.434	4009.8
932.743	3975.45
933.051	3932.74
933.36	3900.19
933.669	3916.01
933.977	3873.3
934.286	3880.08
934.594	3852.74
934.902	3829.24
935.21	3843.02
935.519	3796.92
935.827	3818.84
936.135	3804.6
936.443	3774.1
936.751	3735
937.059	3777.26
937.367	3742.68
937.674	3742.23
937.982	3727.32
938.29	3684.15
938.597	3710.37
938.905	3664.27
939.213	3659.97
939.52	3631.95
939.827	3628.11
940.135	3620.2
940.442	3548.79
940.749	3594.89
941.056	3537.94
941.363	3547.66
941.67	3537.04
941.977	3545.4
942.284	3486.42
942.591	3505.18
942.898	3464.05
943.205	3514.44
943.511	3443.03
943.818	3444.84
944.125	3457.49
944.431	3405.29
944.738	3415.46
945.044	3310.15
945.35	3396.48
945.657	3338.63
945.963	3330.94
946.269	3314.22
946.575	3319.87
946.881	3309.93
947.187	3281
947.493	3255.47
947.799	3254.79
948.105	3230.16
948.41	3201
948.716	3225.64
949.022	3212.53
949.327	3189.93
949.633	3169.37
949.938	3156.26
950.244	3170.5
950.549	3093.66
950.854	3146.77
951.16	3113.55
951.465	3080.78
951.77	3061.8
952.075	3059.31
952.38	3075.81
952.685	3068.13
952.99	3018.86
953.294	3015.47
953.599	3022.7
953.904	3000.1
954.209	2978.41
954.513	2999.88
954.818	2969.82
955.122	2958.07
955.426	2948.13
955.731	2922.59
956.035	2948.58
956.339	2899.32
956.643	2920.56
956.948	2886.44
957.252	2844.18
957.556	2860.22
957.86	2859.32
958.163	2827.45
958.467	2824.06
958.771	2820.9
959.075	2782.94
959.378	2748.59
959.682	2780.9
959.985	2762.37
960.289	2733.9
960.592	2746.1
960.896	2719.21
961.199	2695.03
961.502	2701.58
961.805	2704.75
962.108	2667.01
962.411	2673.33
962.714	2631.53
963.017	2675.37
963.32	2632.66
963.623	2624.52
963.926	2594.01
964.228	2576.61
964.531	2624.75
964.833	2593.56
965.136	2549.72
965.438	2564.18
965.741	2534.58
966.043	2505.88
966.345	2541.36
966.648	2548.59
966.95	2543.17
967.252	2518.54
967.554	2500.23
967.856	2512.21
968.158	2493.9
968.46	2454.36
968.761	2446.22
969.063	2428.82
969.365	2436.28
969.666	2426.11
969.968	2404.19
970.269	2377.3
970.571	2406.45
970.872	2383.85
971.174	2339.78
971.475	2358.99
971.776	2341.59
972.077	2312.44
972.378	2347.47
972.679	2314.7
972.98	2287.81
973.281	2287.13
973.582	2294.59
973.883	2293.23
974.183	2303.4
974.484	2266.11
974.785	2246.68
975.085	2255.27
975.386	2274.47
975.686	2251.88
975.986	2231.09
976.287	2248.49
976.587	2173.01
976.887	2205.55
977.187	2168.49
977.487	2211.65
977.787	2168.26
978.087	2167.81
978.387	2159
978.687	2166.23
978.987	2135.49
979.286	2132.78
979.586	2101.6
979.885	2097.98
980.185	2118.32
980.484	2065.67
980.784	2069.73
981.083	2079.22
981.382	2048.49
981.682	2060.92
981.981	2088.94
982.28	2054.59
982.579	2042.39
982.878	2037.42
983.177	2014.37
983.475	1979.57
983.774	1979.34
984.073	2005.33
984.372	1969.62
984.67	1966.91
984.969	1967.82
985.267	1968.72
985.566	1981.37
985.864	1940.92
986.162	1949.51
986.461	1952.22
986.759	1929.17
987.057	1873.35
987.355	1896.86
987.653	1895.5
987.951	1896.18
988.249	1881.04
988.547	1867.93
988.844	1846.24
989.142	1850.08
989.44	1807.14
989.737	1841.49
990.035	1836.97
990.332	1833.58
990.63	1835.62
990.927	1789.97
991.224	1778.89
991.521	1792.23
991.819	1775.05
992.116	1748.84
992.413	1772.57
992.71	1767.14
993.006	1741.38
993.303	1736.64
993.6	1734.6
993.897	1719.23
994.193	1712.91
994.49	1708.39
994.787	1699.12
995.083	1708.16
995.379	1680.37
995.676	1693.92
995.972	1669.97
996.268	1688.95
996.565	1642.63
996.861	1682.63
997.157	1633.59
997.453	1655.28
997.749	1603.31
998.044	1632.23
998.34	1650.31
998.636	1598.56
998.932	1603.98
999.227	1580.93
999.523	1594.49
999.818	1562.85
1000.114	1566.24
1000.409	1559.92
1000.704	1555.62
1001	1531.44
1001.295	1538.45
1001.59	1574.61
1001.885	1530.99
1002.18	1527.15
1002.475	1494.61
1002.77	1494.38
1003.065	1476.53
1003.359	1466.36
1003.654	1475.63
1003.949	1475.4
1004.243	1503.65
1004.538	1443.31
1004.832	1446.02
1005.127	1435.85
1005.421	1452.12
1005.715	1443.08
1006.009	1421.16
1006.304	1393.59
1006.598	1427.72
1006.892	1424.55
1007.186	1392.24
1007.48	1406.25
1007.773	1393.82
1008.067	1383.65
1008.361	1384.55
1008.655	1339.81
1008.948	1366.93
1009.242	1321.28
1009.535	1315.4
1009.829	1355.85
1010.122	1326.93
1010.415	1297.55
1010.708	1312.01
1011.001	1304.33
1011.295	1315.4
1011.588	1307.27
1011.881	1253.71
1012.173	1288.96
1012.466	1249.19
1012.759	1223.88
1013.052	1229.98
1013.344	1243.31
1013.637	1241.73
1013.93	1245.12
1014.222	1228.17
1014.514	1193.82
1014.807	1197.89
1015.099	1227.95
1015.391	1220.04
1015.683	1192.92
1015.976	1185.24
1016.268	1187.27
1016.56	1150.21
1016.851	1176.42
1017.143	1152.24
1017.435	1169.87
1017.727	1147.95
1018.018	1142.07
1018.31	1119.25
1018.602	1145.69
1018.893	1122.64
1019.185	1116.54
1019.476	1095.97
1019.767	1101.62
1020.058	1105.01
1020.35	1081.06
1020.641	1078.8
1020.932	1102.98
1021.223	1058.01
1021.514	1070.21
1021.804	1060.49
1022.095	1031.57
1022.386	1035.41
1022.677	1040.83
1022.967	1053.04
1023.258	1006.48
1023.548	1023.66
1023.839	1004.68
1024.129	1022.53
1024.419	1007.39
1024.709	1016.65
1025	985.47
1025.29	970.1
1025.58	1006.71
1025.87	990.44
1026.16	964
1026.449	992.93
1026.739	963.77
1027.029	971.68
1027.319	962.64
1027.608	945.7
1027.898	934.4
1028.187	943.89
1028.477	939.14
1028.766	924.91
1029.055	924.68
1029.344	906.15
1029.634	926.71
1029.923	916.77
1030.212	888.75
1030.501	906.15
1030.79	883.78
1031.078	888.07
1031.367	873.38
1031.656	891.69
1031.945	847.17
1032.233	841.29
1032.522	873.61
1032.81	818.02
1033.099	828.18
1033.387	836.32
1033.675	847.17
1033.963	836.32
1034.251	824.34
1034.54	805.36
1034.828	811.69
1035.116	824.57
1035.403	837.45
1035.691	817.34
1035.979	818.24
1036.267	766.94
1036.554	787.28
1036.842	806.26
1037.129	789.32
1037.417	793.16
1037.704	780.5
1037.992	776.89
1038.279	771.01
1038.566	773.5
1038.853	773.5
1039.14	773.5
