Data from blue_chair_FLMS001491_00014.txt Node
Date: Wed Feb 08 10:29:32 GMT 2017
User: dcchb
Spectrometer: FLMS00149
Trigger mode: 0
Integration Time (sec): 2.000000E-2
Scans to average: 10
Electric dark correction enabled: true
Nonlinearity correction enabled: false
Boxcar width: 0
XAxis mode: Wavelengths
Number of Pixels in Spectrum: 2048
>>>>>Begin Spectral Data<<<<<
341.393	7.46
341.776	7.46
342.16	7.46
342.543	-43.61
342.927	-45.42
343.31	-55.59
343.693	-53.33
344.077	-58.08
344.46	-73.67
344.843	-63.5
345.226	-22.6
345.61	-37.06
345.993	-5.65
346.376	-11.75
346.759	8.59
347.142	21.02
347.525	41.58
347.908	66.89
348.291	55.82
348.674	80.45
349.057	106.89
349.44	133.33
349.823	153.89
350.206	164.52
350.588	166.1
350.971	185.76
351.354	204.51
351.737	225.3
352.119	234.34
352.502	222.37
352.884	233.21
353.267	265.53
353.65	271.41
354.032	275.7
354.414	284.74
354.797	280.67
355.179	300.11
355.562	290.61
355.944	304.17
356.326	329.93
356.709	311.4
357.091	317.73
357.473	338.3
357.855	313.44
358.238	330.61
358.62	322.03
359.002	315.7
359.384	309.82
359.766	314.79
360.148	303.27
360.53	311.18
360.912	313.89
361.294	326.55
361.676	316.83
362.057	315.7
362.439	302.36
362.821	294
363.203	303.49
363.584	293.78
363.966	291.97
364.348	287.45
364.729	324.06
365.111	303.27
365.493	307.79
365.874	293.1
366.256	289.48
366.637	281.8
367.019	290.16
367.4	303.72
367.781	292.87
368.163	283.83
368.544	308.92
368.925	277.51
369.306	282.03
369.688	284.51
370.069	288.13
370.45	299.2
370.831	303.49
371.212	284.96
371.593	302.36
371.974	283.83
372.355	280.9
372.736	280.9
373.117	286.55
373.498	281.57
373.879	279.77
374.26	275.02
374.641	288.13
375.021	289.48
375.402	289.94
375.783	312.99
376.163	279.54
376.544	288.81
376.925	291.29
377.305	284.74
377.686	299.2
378.066	287.45
378.447	300.78
378.827	308.69
379.208	308.69
379.588	285.19
379.968	296.94
380.349	301.24
380.729	315.02
381.109	303.04
381.489	303.27
381.87	317.51
382.25	294
382.63	312.53
383.01	295.36
383.39	304.85
383.77	307.34
384.15	306.88
384.53	320.9
384.91	310.73
385.29	306.43
385.67	299.88
386.049	321.8
386.429	306.21
386.809	294.46
387.189	286.55
387.568	315.47
387.948	305.3
388.328	297.85
388.707	308.01
389.087	323.61
389.466	303.95
389.846	317.05
390.225	303.95
390.605	313.21
390.984	314.34
391.363	305.53
391.743	309.14
392.122	320.22
392.501	312.53
392.881	336.94
393.26	328.35
393.639	332.19
394.018	316.15
394.397	327.9
394.776	314.79
395.155	317.73
395.534	305.98
395.913	336.04
396.292	327.22
396.671	346.66
397.05	334.23
397.429	327
397.808	327.45
398.186	337.17
398.565	332.42
398.944	334.68
399.323	324.06
399.701	337.84
400.08	325.87
400.458	352.53
400.837	327
401.215	351.86
401.594	345.3
401.972	345.08
402.351	337.62
402.729	347.56
403.107	352.31
403.486	353.66
403.864	372.19
404.242	367.9
404.62	351.18
404.999	367
405.377	367.45
405.755	355.47
406.133	355.47
406.511	351.4
406.889	375.13
407.267	352.99
407.645	339.88
408.023	362.02
408.401	388.92
408.779	394.57
409.156	388.69
409.534	374.91
409.912	377.84
410.29	390.95
410.667	388.01
411.045	397.28
411.422	401.35
411.8	383.94
412.178	396.15
412.555	384.4
412.933	397.05
413.31	416.94
413.687	406.32
414.065	409.71
414.442	405.19
414.819	423.27
415.197	411.51
415.574	406.54
415.951	420.1
416.328	405.41
416.705	379.43
417.082	415.36
417.46	423.49
417.837	415.81
418.214	429.82
418.591	415.81
418.967	409.03
419.344	427.11
419.721	415.36
420.098	427.56
420.475	429.14
420.852	432.76
421.228	435.69
421.605	437.5
421.982	434.11
422.358	442.93
422.735	458.75
423.111	443.6
423.488	463.72
423.864	453.77
424.241	451.06
424.617	447.67
424.994	476.82
425.37	477.95
425.746	461.91
426.123	484.73
426.499	497.16
426.875	490.83
427.251	493.55
427.627	507.56
428.003	504.85
428.379	503.04
428.756	503.72
429.132	493.77
429.507	510.27
429.883	515.47
430.259	512.08
430.635	507.11
431.011	512.98
431.387	529.7
431.763	508.91
432.138	530.61
432.514	539.87
432.89	552.98
433.265	550.49
433.641	542.13
434.016	553.88
434.392	563.38
434.767	569.7
435.143	571.28
435.518	580.1
435.894	601.11
436.269	581.68
436.644	594.79
437.02	607.67
437.395	628.01
437.77	630.49
438.145	597.05
438.52	631.17
438.895	630.04
439.271	656.48
439.646	649.93
440.021	650.38
440.395	658.51
440.77	646.08
441.145	652.41
441.52	671.17
441.895	680.66
442.27	702.81
442.645	692.19
443.019	693.77
443.394	696.25
443.769	706.87
444.143	715.24
444.518	716.37
444.892	689.47
445.267	704.39
445.641	721.11
446.016	703.26
446.39	722.92
446.764	731.73
447.139	705.07
447.513	736.93
447.887	737.83
448.262	730.38
448.636	759.53
449.01	772.18
449.384	773.54
449.758	767.44
450.132	764.5
450.506	782.13
450.88	781.22
451.254	742.58
451.628	776.25
452.002	788
452.376	822.35
452.75	803.37
453.123	814.67
453.497	819.87
453.871	824.16
454.244	830.49
454.618	818.96
454.992	821
455.365	837.94
455.739	856.47
456.112	864.38
456.486	876.81
456.859	875.46
457.232	898.96
457.606	874.78
457.979	897.38
458.352	876.81
458.725	893.54
459.099	931.27
459.472	926.3
459.845	926.08
460.218	906.19
460.591	952.07
460.964	969.92
461.337	946.42
461.71	967.88
462.083	969.92
462.456	976.25
462.829	946.87
463.201	962.69
463.574	1008.11
463.947	996.58
464.32	1026.87
464.692	1011.95
465.065	1015.11
465.438	1019.86
465.81	1062.8
466.183	1035.68
466.555	1046.75
466.928	1074.55
467.3	1074.32
467.672	1066.41
468.045	1117.26
468.417	1099.41
468.789	1105.06
469.161	1100.99
469.534	1105.96
469.906	1147.54
470.278	1154.77
470.65	1157.03
471.022	1124.26
471.394	1165.62
471.766	1172.62
472.138	1210.82
472.51	1211.27
472.882	1211.49
473.253	1215.34
473.625	1227.31
473.997	1252.62
474.369	1253.07
474.74	1266.63
475.112	1261.89
475.484	1277.93
475.855	1297.37
476.227	1307.31
476.598	1330.36
476.97	1317.71
477.341	1328.78
477.713	1392.28
478.084	1378.95
478.455	1401.55
478.827	1382.56
479.198	1416.69
479.569	1404.71
479.94	1456.46
480.311	1459.17
480.682	1450.81
481.053	1484.25
481.424	1483.8
481.795	1498.94
482.166	1513.63
482.537	1497.14
482.908	1549.79
483.279	1584.37
483.65	1550.69
484.021	1599.96
484.391	1582.56
484.762	1596.34
485.133	1632.5
485.503	1593.86
485.874	1621.2
486.244	1659.84
486.615	1664.59
486.985	1641.76
487.356	1671.59
487.726	1697.58
488.097	1692.84
488.467	1699.39
488.837	1718.82
489.207	1726.28
489.578	1772.38
489.948	1752.04
490.318	1744.59
490.688	1780.07
491.058	1750.24
491.428	1766.96
491.798	1769.22
492.168	1797.92
492.538	1828.2
492.908	1830.01
493.278	1781.2
493.648	1809.22
494.017	1832.72
494.387	1832.95
494.757	1848.76
495.126	1827.97
495.496	1829.1
495.866	1842.66
496.235	1859.39
496.605	1834.3
496.974	1844.47
497.344	1853.51
497.713	1853.74
498.082	1860.06
498.452	1863.68
498.821	1836.79
499.19	1877.92
499.559	1842.44
499.928	1851.25
500.298	1892.15
500.667	1884.47
501.036	1871.36
501.405	1884.24
501.774	1840.86
502.143	1867.97
502.512	1836.11
502.88	1851.02
503.249	1878.14
503.618	1846.51
503.987	1855.54
504.356	1861.42
504.724	1859.61
505.093	1851.7
505.462	1850.35
505.83	1855.77
506.199	1865.94
506.567	1863.23
506.936	1837.47
507.304	1837.92
507.672	1831.82
508.041	1846.28
508.409	1842.89
508.777	1865.26
509.145	1887.18
509.514	1865.04
509.882	1856.9
510.25	1856.9
510.618	1848.76
510.986	1870.01
511.354	1836.11
511.722	1832.27
512.09	1847.18
512.458	1834.98
512.826	1837.69
513.193	1857.8
513.561	1836.56
513.929	1836.11
514.297	1832.95
514.664	1822.1
515.032	1819.39
515.4	1830.91
515.767	1822.1
516.135	1827.07
516.502	1771.7
516.869	1813.74
517.237	1810.35
517.604	1830.46
517.972	1808.09
518.339	1787.98
518.706	1789.33
519.073	1810.57
519.44	1799.27
519.808	1808.54
520.175	1766.51
520.542	1766.51
520.909	1808.77
521.276	1774.19
521.643	1773.29
522.009	1788.2
522.376	1737.36
522.743	1759.95
523.11	1773.96
523.477	1789.56
523.843	1787.52
524.21	1826.84
524.577	1783.91
524.943	1785.04
525.31	1780.29
525.676	1759.95
526.043	1772.83
526.409	1791.37
526.776	1760.86
527.142	1788.65
527.508	1758.6
527.874	1778.26
528.241	1782.78
528.607	1800.4
528.973	1775.55
529.339	1755.43
529.705	1780.29
530.071	1791.37
530.437	1773.74
530.803	1803.12
531.169	1745.72
531.535	1750.69
531.901	1764.02
532.267	1754.53
532.632	1741.2
532.998	1750.24
533.364	1757.69
533.73	1778.94
534.095	1788.43
534.461	1752.95
534.826	1742.78
535.192	1752.27
535.557	1757.02
535.923	1761.08
536.288	1749.56
536.653	1747.98
537.019	1718.82
537.384	1733.06
537.749	1743.01
538.114	1764.93
538.479	1732.16
538.845	1706.4
539.21	1719.28
539.575	1729.67
539.94	1727.64
540.305	1730.35
540.67	1716.11
541.034	1691.93
541.399	1749.11
541.764	1705.94
542.129	1683.8
542.494	1704.14
542.858	1692.16
543.223	1689
543.587	1723.34
543.952	1696
544.316	1725.15
544.681	1679.5
545.045	1679.28
545.41	1694.64
545.774	1698.03
546.138	1698.49
546.503	1668.66
546.867	1675.44
547.231	1693.97
547.595	1670.24
547.959	1669.56
548.324	1638.6
548.688	1632.05
549.052	1629.79
549.416	1652.61
549.779	1668.43
550.143	1642.89
550.507	1655.78
550.871	1661.2
551.235	1619.62
551.599	1639.5
551.962	1633.18
552.326	1623.01
552.689	1615.32
553.053	1643.35
553.417	1630.01
553.78	1629.79
554.143	1618.71
554.507	1644.48
554.87	1635.66
555.234	1617.13
555.597	1615.55
555.96	1582.78
556.323	1616.91
556.686	1592.95
557.05	1628.88
557.413	1592.27
557.776	1632.27
558.139	1632.05
558.502	1605.38
558.865	1601.31
559.228	1591.14
559.59	1631.14
559.953	1597.25
560.316	1608.77
560.679	1616
561.041	1591.6
561.404	1593.86
561.767	1588.21
562.129	1607.42
562.492	1637.92
562.854	1622.56
563.217	1626.85
563.579	1639.73
563.941	1594.53
564.304	1620.97
564.666	1618.94
565.028	1598.6
565.39	1623.69
565.753	1669.11
566.115	1618.04
566.477	1649.22
566.839	1630.92
567.201	1637.25
567.563	1625.27
567.925	1630.24
568.287	1625.72
568.648	1679.28
569.01	1660.3
569.372	1696.68
569.734	1664.81
570.095	1672.27
570.457	1692.84
570.819	1660.97
571.18	1673.18
571.542	1706.62
571.903	1672.27
572.265	1682.67
572.626	1670.92
572.987	1691.25
573.349	1697.58
573.71	1658.26
574.071	1670.92
574.432	1678.83
574.794	1720.86
575.155	1698.71
575.516	1711.59
575.877	1712.72
576.238	1718.15
576.599	1725.83
576.96	1728.54
577.32	1720.18
577.681	1740.07
578.042	1742.55
578.403	1721.76
578.763	1762.89
579.124	1777.13
579.485	1775.09
579.845	1765.83
580.206	1741.88
580.566	1778.48
580.927	1768.54
581.287	1750.46
581.648	1728.32
582.008	1748.2
582.368	1732.16
582.728	1766.51
583.089	1777.35
583.449	1780.07
583.809	1774.42
584.169	1764.93
584.529	1778.26
584.889	1799.73
585.249	1772.83
585.609	1784.59
585.969	1783.91
586.329	1771.03
586.688	1763.34
587.048	1767.86
587.408	1783.46
587.768	1778.26
588.127	1795.21
588.487	1789.56
588.846	1757.24
589.206	1784.81
589.565	1802.44
589.925	1778.94
590.284	1819.84
590.643	1818.03
591.003	1793.63
591.362	1787.07
591.721	1791.37
592.08	1794.08
592.44	1786.62
592.799	1787.52
593.158	1789.11
593.517	1798.82
593.876	1779.84
594.235	1784.81
594.593	1785.72
594.952	1813.96
595.311	1777.81
595.67	1773.06
596.029	1788.65
596.387	1783.68
596.746	1793.63
597.104	1793.4
597.463	1775.09
597.822	1764.93
598.18	1791.37
598.538	1772.38
598.897	1801.31
599.255	1784.59
599.613	1800.63
599.972	1792.04
600.33	1791.59
600.688	1773.29
601.046	1791.59
601.404	1774.87
601.762	1778.48
602.12	1818.03
602.478	1808.31
602.836	1773.29
603.194	1773.74
603.552	1778.03
603.91	1768.54
604.268	1770.35
604.625	1781.87
604.983	1774.64
605.341	1809.22
605.698	1790.01
606.056	1779.61
606.413	1801.99
606.771	1774.64
607.128	1798.82
607.485	1778.26
607.843	1795.88
608.2	1774.64
608.557	1810.8
608.914	1780.29
609.272	1814.64
609.629	1798.6
609.986	1753.4
610.343	1797.47
610.7	1805.83
611.057	1802.89
611.414	1799.27
611.771	1793.17
612.127	1778.71
612.484	1789.56
612.841	1783.23
613.198	1796.56
613.554	1788.43
613.911	1801.08
614.267	1777.13
614.624	1786.17
614.98	1788.65
615.337	1819.84
615.693	1809.22
616.05	1828.43
616.406	1830.91
616.762	1826.62
617.118	1807.64
617.475	1809.22
617.831	1826.62
618.187	1823.68
618.543	1825.49
618.899	1825.26
619.255	1829.1
619.611	1837.69
619.967	1810.35
620.323	1833.85
620.678	1850.35
621.034	1813.06
621.39	1806.28
621.746	1799.95
622.101	1827.75
622.457	1830.01
622.812	1834.75
623.168	1820.29
623.523	1822.78
623.879	1833.17
624.234	1817.13
624.589	1825.71
624.945	1846.28
625.3	1829.56
625.655	1829.56
626.01	1833.4
626.365	1845.83
626.72	1804.25
627.075	1824.58
627.43	1844.02
627.785	1837.24
628.14	1821.2
628.495	1838.14
628.85	1834.08
629.205	1825.04
629.559	1835.21
629.914	1816.22
630.269	1788.2
630.623	1847.64
630.978	1811.7
631.332	1856.67
631.687	1836.56
632.041	1821.42
632.396	1852.38
632.75	1858.48
633.104	1857.35
633.459	1843.79
633.813	1826.17
634.167	1807.41
634.521	1813.74
634.875	1823.45
635.229	1813.29
635.583	1838.6
635.937	1834.3
636.291	1814.19
636.645	1854.41
636.999	1831.14
637.352	1815.32
637.706	1849.22
638.06	1856.9
638.413	1835.21
638.767	1827.75
639.121	1827.52
639.474	1841.08
639.828	1838.82
640.181	1834.75
640.534	1845.6
640.888	1794.53
641.241	1826.39
641.594	1826.17
641.947	1842.44
642.301	1843.34
642.654	1833.17
643.007	1801.53
643.36	1811.03
643.713	1800.63
644.066	1838.14
644.419	1804.25
644.771	1784.81
645.124	1826.17
645.477	1792.72
645.83	1798.37
646.182	1818.26
646.535	1795.43
646.888	1784.36
647.24	1848.54
647.593	1813.96
647.945	1788.43
648.298	1834.98
648.65	1783.46
649.002	1809.9
649.355	1816.9
649.707	1828.65
650.059	1782.78
650.411	1837.47
650.763	1825.71
651.115	1835.66
651.467	1855.77
651.819	1817.35
652.171	1865.26
652.523	1865.26
652.875	1847.86
653.227	1854.19
653.578	1843.12
653.93	1836.56
654.282	1840.86
654.633	1851.7
654.985	1834.53
655.337	1845.83
655.688	1844.47
656.039	1833.17
656.391	1831.14
656.742	1837.92
657.094	1834.08
657.445	1876.11
657.796	1872.95
658.147	1841.53
658.498	1832.49
658.849	1887.41
659.2	1852.83
659.551	1865.49
659.902	1867.3
660.253	1836.34
660.604	1839.73
660.955	1868.65
661.306	1887.86
661.656	1881.08
662.007	1885.83
662.358	1875.2
662.708	1892.61
663.059	1901.42
663.409	1866.62
663.76	1883.34
664.11	1881.31
664.461	1886.28
664.811	1865.26
665.161	1890.8
665.511	1881.31
665.862	1849.67
666.212	1872.72
666.562	1875.2
666.912	1874.75
667.262	1881.08
667.612	1885.83
667.962	1878.59
668.312	1853.96
668.662	1848.99
669.011	1859.84
669.361	1867.3
669.711	1834.98
670.06	1872.95
670.41	1857.35
670.76	1871.82
671.109	1879.27
671.459	1867.75
671.808	1856
672.157	1817.58
672.507	1848.99
672.856	1872.49
673.205	1838.14
673.554	1857.35
673.904	1846.28
674.253	1852.83
674.602	1846.96
674.951	1827.52
675.3	1804.92
675.649	1863.68
675.998	1815.55
676.346	1831.14
676.695	1828.43
677.044	1827.07
677.393	1818.26
677.741	1828.2
678.09	1838.14
678.438	1819.84
678.787	1822.32
679.135	1839.95
679.484	1791.14
679.832	1795.88
680.181	1783.68
680.529	1791.82
680.877	1798.6
681.225	1800.4
681.573	1776.68
681.922	1766.51
682.27	1794.76
682.618	1780.07
682.966	1761.76
683.314	1775.77
683.661	1774.19
684.009	1779.39
684.357	1787.98
684.705	1780.52
685.053	1783.68
685.4	1762.89
685.748	1753.4
686.095	1761.99
686.443	1764.47
686.79	1756.79
687.138	1752.04
687.485	1758.82
687.832	1741.65
688.18	1736.68
688.527	1727.86
688.874	1736
689.221	1733.97
689.568	1750.46
689.915	1712.27
690.262	1709.11
690.609	1715.89
690.956	1689.9
691.303	1714.31
691.65	1661.43
691.997	1680.41
692.344	1681.31
692.69	1660.75
693.037	1698.71
693.383	1644.7
693.73	1673.63
694.077	1681.99
694.423	1635.89
694.769	1687.19
695.116	1639.05
695.462	1663.46
695.808	1619.84
696.155	1643.12
696.501	1658.49
696.847	1633.86
697.193	1614.42
697.539	1614.19
697.885	1612.61
698.231	1619.17
698.577	1615.55
698.923	1599.28
699.269	1608.77
699.614	1617.13
699.96	1590.47
700.306	1619.17
700.651	1621.88
700.997	1581.88
701.342	1583.91
701.688	1611.71
702.033	1581.65
702.379	1596.34
702.724	1566.06
703.069	1579.17
703.415	1603.57
703.76	1553.41
704.105	1567.42
704.45	1563.35
704.795	1569.9
705.14	1537.59
705.485	1565.16
705.83	1523.35
706.175	1573.74
706.52	1574.42
706.865	1560.18
707.209	1537.36
707.554	1565.83
707.899	1579.62
708.243	1571.71
708.588	1543.01
708.932	1584.59
709.277	1547.3
709.621	1573.97
709.966	1556.8
710.31	1547.08
710.654	1553.63
710.998	1529.45
711.342	1582.78
711.687	1556.12
712.031	1528.55
712.375	1549.56
712.719	1575.1
713.063	1548.89
713.407	1561.99
713.75	1584.14
714.094	1548.66
714.438	1537.36
714.782	1566.29
715.125	1549.79
715.469	1561.54
715.812	1550.24
716.156	1567.64
716.499	1573.29
716.843	1561.09
717.186	1555.44
717.53	1579.85
717.873	1581.2
718.216	1578.72
718.559	1597.02
718.902	1591.37
719.246	1577.59
719.589	1573.74
719.932	1578.49
720.275	1574.65
720.617	1594.08
720.96	1589.34
721.303	1610.35
721.646	1623.23
721.989	1602.44
722.331	1602.44
722.674	1623.69
723.016	1631.82
723.359	1596.12
723.701	1617.81
724.044	1618.49
724.386	1623.91
724.729	1631.14
725.071	1630.47
725.413	1630.92
725.755	1665.27
726.097	1651.48
726.439	1640.86
726.782	1656.23
727.124	1674.31
727.465	1669.33
727.807	1714.98
728.149	1669.11
728.491	1674.53
728.833	1715.66
729.175	1695.1
729.516	1718.37
729.858	1687.87
730.199	1672.72
730.541	1682.22
730.882	1725.15
731.224	1744.59
731.565	1729.45
731.906	1721.31
732.248	1758.37
732.589	1744.81
732.93	1723.12
733.271	1717.24
733.612	1768.32
733.953	1796.56
734.294	1718.37
734.635	1771.93
734.976	1791.14
735.317	1792.5
735.658	1809.9
735.999	1803.57
736.339	1790.91
736.68	1838.82
737.021	1811.93
737.361	1829.78
737.702	1860.06
738.042	1858.93
738.383	1853.28
738.723	1891.48
739.063	1900.74
739.404	1946.84
739.744	1935.54
740.084	1919.95
740.424	1973.28
740.764	1974.19
741.104	1970.12
741.444	1998.82
741.784	2019.61
742.124	2058.7
742.464	2046.05
742.804	2046.95
743.143	2070.45
743.483	2106.84
743.823	2077.01
744.162	2145.48
744.502	2165.59
744.841	2193.84
745.181	2201.07
745.52	2177.57
745.86	2239.49
746.199	2234.29
746.538	2292.6
746.877	2331.69
747.216	2332.37
747.556	2348.19
747.895	2399.26
748.234	2424.57
748.573	2458.69
748.911	2470.67
749.25	2529.43
749.589	2545.47
749.928	2585.47
750.267	2622.53
750.605	2643.55
750.944	2696.65
751.283	2704.79
751.621	2779.14
751.96	2822.98
752.298	2861.62
752.636	2880.38
752.975	2885.57
753.313	2977.1
753.651	3049.19
753.989	3088.96
754.327	3126.25
754.666	3168.73
755.004	3227.03
755.342	3286.02
755.679	3330.53
756.017	3389.52
756.355	3474.71
756.693	3441.27
757.031	3544.77
757.368	3595.39
757.706	3624.76
758.044	3709.28
758.381	3757.64
758.719	3775.27
759.056	3861.14
759.394	3955.83
759.731	3975.94
760.068	4038.76
760.405	4065.66
760.743	4170.06
761.08	4264.52
761.417	4293.22
761.754	4320.34
762.091	4383.39
762.428	4452.54
762.765	4435.36
763.102	4563.5
763.438	4642.36
763.775	4692.98
764.112	4746.99
764.449	4840.78
764.785	4847.33
765.122	4846.88
765.458	4956.25
765.795	4942.24
766.131	5029.47
766.467	5071.05
766.804	5111.96
767.14	5204.83
767.476	5221.56
767.812	5259.07
768.148	5288.67
768.485	5363.25
768.821	5375.45
769.157	5491.61
769.492	5496.8
769.828	5553.98
770.164	5581.55
770.5	5547.2
770.836	5659.06
771.171	5675.78
771.507	5722.34
771.842	5705.61
772.178	5816.57
772.513	5757.14
772.849	5863.57
773.184	5824.48
773.519	5861.54
773.855	5957.36
774.19	5919.62
774.525	5981.31
774.86	6013.85
775.195	6071.93
775.53	6053.85
775.865	6042.55
776.2	6043
776.535	6049.56
776.87	6125.71
777.205	6131.36
777.539	6112.83
777.874	6165.04
778.209	6127.97
778.543	6138.82
778.878	6147.86
779.212	6145.83
779.547	6203
779.881	6226.28
780.215	6267.63
780.55	6222.89
780.884	6239.84
781.218	6265.37
781.552	6322.32
781.886	6312.6
782.22	6264.69
782.554	6270.12
782.888	6275.77
783.222	6292.04
783.556	6262.43
783.889	6235.99
784.223	6181.08
784.557	6279.38
784.89	6288.65
785.224	6292.72
785.557	6259.95
785.891	6276.67
786.224	6277.35
786.558	6278.93
786.891	6269.21
787.224	6235.99
787.557	6266.73
787.891	6225.37
788.224	6276.45
788.557	6280.96
788.89	6339.27
789.223	6279.16
789.556	6265.82
789.888	6276.67
790.221	6211.59
790.554	6265.37
790.887	6221.76
791.219	6303.11
791.552	6240.97
791.884	6256.78
792.217	6238.71
792.549	6247.07
792.882	6191.48
793.214	6224.24
793.546	6223.11
793.879	6205.94
794.211	6165.94
794.543	6125.26
794.875	6163.91
795.207	6203.23
795.539	6147.41
795.871	6185.83
796.203	6120.97
796.535	6177.92
796.867	6119.39
797.198	6177.24
797.53	6118.03
797.862	6080.29
798.193	6122.55
798.525	6069.67
798.856	6086.17
799.188	6018.6
799.519	6001.42
799.85	6009.56
800.182	6047.07
800.513	6023.34
800.844	6037.36
801.175	6009.79
801.506	5986.74
801.837	5969.33
802.168	5970.01
802.499	5962.1
802.83	5953.74
803.161	5963.01
803.491	5918.04
803.822	5940.41
804.153	5927.98
804.483	5877.13
804.814	5842.78
805.145	5917.81
805.475	5900.86
805.805	5853.86
806.136	5904.48
806.466	5885.04
806.796	5896.79
807.126	5807.98
807.457	5874.2
807.787	5845.04
808.117	5850.47
808.447	5838.26
808.777	5805.95
809.107	5804.37
809.436	5830.81
809.766	5742.9
810.096	5815.21
810.426	5759.62
810.755	5758.72
811.085	5724.37
811.414	5780.41
811.744	5747.87
812.073	5735.44
812.403	5684.6
812.732	5737.02
813.061	5680.08
813.39	5679.62
813.719	5641.89
814.049	5719.17
814.378	5667.87
814.707	5707.42
815.036	5643.02
815.365	5650.02
815.693	5613.19
816.022	5602.34
816.351	5590.81
816.68	5560.31
817.008	5623.58
817.337	5567.76
817.665	5542.68
817.994	5527.99
818.322	5544.71
818.651	5533.41
818.979	5495.45
819.307	5525.96
819.636	5507.2
819.964	5518.5
820.292	5552.17
820.62	5522.57
820.948	5480.76
821.276	5536.8
821.604	5536.58
821.932	5540.65
822.259	5567.09
822.587	5517.37
822.915	5455.9
823.243	5531.15
823.57	5521.66
823.898	5565.05
824.225	5515.34
824.553	5508.56
824.88	5512.62
825.207	5507.43
825.535	5507.65
825.862	5553.98
826.189	5537.93
826.516	5549.91
826.843	5554.2
827.17	5558.27
827.497	5518.5
827.824	5573.64
828.151	5610.02
828.478	5584.03
828.805	5565.96
829.131	5614.54
829.458	5524.83
829.785	5560.76
830.111	5599.63
830.438	5594.66
830.764	5582.9
831.09	5581.55
831.417	5547.88
831.743	5596.24
832.069	5570.93
832.395	5549.01
832.722	5577.71
833.048	5574.32
833.374	5564.83
833.7	5550.81
834.026	5538.16
834.351	5553.75
834.677	5520.53
835.003	5568.67
835.329	5519.63
835.654	5504.04
835.98	5489.12
836.306	5506.3
836.631	5480.08
836.956	5539.97
837.282	5533.87
837.607	5501.1
837.932	5489.57
838.258	5446.18
838.583	5493.87
838.908	5426.98
839.233	5482.57
839.558	5441.89
839.883	5424.49
840.208	5449.57
840.533	5396.92
840.858	5392.17
841.182	5418.16
841.507	5436.92
841.832	5414.09
842.156	5434.21
842.481	5359.63
842.805	5359.63
843.13	5345.4
843.454	5319.86
843.778	5304.72
844.103	5337.94
844.427	5274.89
844.751	5313.08
845.075	5280.99
845.399	5251.84
845.723	5230.6
846.047	5224.04
846.371	5170.26
846.695	5173.65
847.019	5167.55
847.343	5192.63
847.666	5111.5
847.99	5116.02
848.313	5066.31
848.637	5067.21
848.96	5064.95
849.284	5040.55
849.607	4999.19
849.931	5018.4
850.254	4944.28
850.577	4974.78
850.9	4913.09
851.223	4938.85
851.546	4922.58
851.869	4890.94
852.192	4888.46
852.515	4852.3
852.838	4860.21
853.161	4849.59
853.483	4804.62
853.806	4805.3
854.129	4731.18
854.451	4805.07
854.774	4762.13
855.096	4734.34
855.419	4763.49
855.741	4717.62
856.063	4699.99
856.385	4707.67
856.708	4720.55
857.03	4696.37
857.352	4633.55
857.674	4669.26
857.996	4607.79
858.318	4595.59
858.64	4586.77
858.961	4588.81
859.283	4561.46
859.605	4545.19
859.926	4570.73
860.248	4523.72
860.57	4557.85
860.891	4537.51
861.212	4529.15
861.534	4506.55
861.855	4495.48
862.176	4485.76
862.498	4463.16
862.819	4475.59
863.14	4480.79
863.461	4444.85
863.782	4464.29
864.103	4484.85
864.424	4440.11
864.745	4476.94
865.065	4351.98
865.386	4394.46
865.707	4375.25
866.027	4412.99
866.348	4380.22
866.668	4414.35
866.989	4367.79
867.309	4349.49
867.63	4417.06
867.95	4321.47
868.27	4321.69
868.59	4358.98
868.91	4326.21
869.23	4300.45
869.55	4295.93
869.87	4306.33
870.19	4335.25
870.51	4307.91
870.83	4313.11
871.15	4242.6
871.469	4258.19
871.789	4260.23
872.109	4276.5
872.428	4241.24
872.748	4266.1
873.067	4233.11
873.386	4214.35
873.706	4235.59
874.025	4211.87
874.344	4205.09
874.663	4191.53
874.982	4208.02
875.301	4208.48
875.62	4189.49
875.939	4183.17
876.258	4186.1
876.577	4153.79
876.896	4169.83
877.214	4168.48
877.533	4160.12
877.852	4125.09
878.17	4138.65
878.489	4095.71
878.807	4154.47
879.125	4149.95
879.444	4101.36
879.762	4086.22
880.08	4065.88
880.398	4069.27
880.716	4076.95
881.034	4060.91
881.352	4046.22
881.67	4075.15
881.988	4055.26
882.306	4019.1
882.624	4038.09
882.941	4023.85
883.259	4034.47
883.577	4000.35
883.894	3962.16
884.212	3987.24
884.529	4011.19
884.846	3956.96
885.164	3962.38
885.481	3957.64
885.798	3923.51
886.115	3889.16
886.432	3932.78
886.75	3911.31
887.067	3867.92
887.383	3867.47
887.7	3888.49
888.017	3914.47
888.334	3867.92
888.651	3826.79
888.967	3865.89
889.284	3847.58
889.6	3855.72
889.917	3762.84
890.233	3784.31
890.55	3780.92
890.866	3771.88
891.182	3795.83
891.498	3746.79
891.815	3766.91
892.131	3735.95
892.447	3712.67
892.763	3739.11
893.079	3675.84
893.395	3659.56
893.71	3649.62
894.026	3676.29
894.342	3689.17
894.657	3656.63
894.973	3612.56
895.289	3646.01
895.604	3624.54
895.92	3581.6
896.235	3561.49
896.55	3575.5
896.865	3583.63
897.181	3561.04
897.496	3545.44
897.811	3537.08
898.126	3544.99
898.441	3491.66
898.756	3481.94
899.071	3507.48
899.386	3496.18
899.7	3451.43
900.015	3469.29
900.33	3397.2
900.644	3373.47
900.959	3358.1
901.273	3408.95
901.588	3361.49
901.902	3343.64
902.216	3340.25
902.531	3348.61
902.845	3307.26
903.159	3335.05
903.473	3322.62
903.787	3315.39
904.101	3275.39
904.415	3266.13
904.729	3252.34
905.042	3227.71
905.356	3233.36
905.67	3201.72
905.984	3197.2
906.297	3224.32
906.611	3161.27
906.924	3169.41
907.237	3171.44
907.551	3166.7
907.864	3101.39
908.177	3114.04
908.491	3107.49
908.804	3113.14
909.117	3072.01
909.43	3072.24
909.743	3076.76
910.056	3067.72
910.368	3034.72
910.681	3037.66
910.994	2988.4
911.307	3029.52
911.619	2980.94
911.932	3003.99
912.244	2955.18
912.557	2978.9
912.869	2956.98
913.181	2903.88
913.494	2921.73
913.806	2929.41
914.118	2907.04
914.43	2902.07
914.742	2872.92
915.054	2864.56
915.366	2848.29
915.678	2837.44
915.99	2827.5
916.302	2805.35
916.613	2810.1
916.925	2794.28
917.236	2803.99
917.548	2747.27
917.859	2803.77
918.171	2785.69
918.482	2761.74
918.794	2758.57
919.105	2762.19
919.416	2734.62
919.727	2682.42
920.038	2721.51
920.349	2697.1
920.66	2681.51
920.971	2686.48
921.282	2706.14
921.593	2624.56
921.903	2630.44
922.214	2632.25
922.525	2613.04
922.835	2581.18
923.146	2573.04
923.456	2621.17
923.767	2583.66
924.077	2559.48
924.387	2553.15
924.697	2537.33
925.008	2531.23
925.318	2511.57
925.628	2542.31
925.938	2548.18
926.248	2495.75
926.558	2503.21
926.867	2476.77
927.177	2464.12
927.487	2459.6
927.796	2415.53
928.106	2447.39
928.416	2429.77
928.725	2411.69
929.034	2439.48
929.344	2434.96
929.653	2433.38
929.962	2402.65
930.271	2383.21
930.581	2380.28
930.89	2385.93
931.199	2367.62
931.508	2355.42
931.817	2341.86
932.125	2346.15
932.434	2338.47
932.743	2302.54
933.051	2283.33
933.36	2287.17
933.669	2307.74
933.977	2269.32
934.286	2241.52
934.594	2300.73
934.902	2290.56
935.21	2251.69
935.519	2246.95
935.827	2234.29
936.135	2231.13
936.443	2254.4
936.751	2216.21
937.059	2182.77
937.367	2218.02
937.674	2192.94
937.982	2174.63
938.29	2161.3
938.597	2171.47
938.905	2175.99
939.213	2147.97
939.52	2129.66
939.827	2133.28
940.135	2101.41
940.442	2109.1
940.749	2101.19
941.056	2126.5
941.363	2106.39
941.67	2065.93
941.977	2093.73
942.284	2040.62
942.591	2071.13
942.898	2063
943.205	2040.85
943.511	2041.08
943.818	2042.88
944.125	2029.1
944.431	1992.94
944.738	2000.4
945.044	1981.64
945.35	1968.08
945.657	1961.98
945.963	1951.36
946.269	1941.42
946.575	1959.5
946.881	1921.76
947.187	1929.67
947.493	1924.92
947.799	1929.21
948.105	1901.87
948.41	1889.22
948.716	1888.99
949.022	1892.61
949.327	1896.67
949.633	1892.83
949.938	1886.73
950.244	1869.56
950.549	1863.23
950.854	1845.38
951.16	1851.02
951.465	1839.05
951.77	1823.23
952.075	1799.73
952.38	1827.3
952.685	1809.67
952.99	1783.46
953.294	1800.4
953.599	1784.59
953.904	1774.42
954.209	1743.91
954.513	1769.22
954.818	1780.07
955.122	1776.68
955.426	1796.11
955.731	1732.61
956.035	1750.69
956.339	1744.81
956.643	1709.79
956.948	1693.51
957.252	1691.03
957.556	1702.33
957.86	1670.01
958.163	1709.11
958.467	1662.78
958.771	1673.85
959.075	1686.74
959.378	1628.43
959.682	1664.59
959.985	1648.54
960.289	1648.09
960.592	1616.23
960.896	1644.25
961.199	1654.19
961.502	1639.5
961.805	1647.19
962.108	1588.88
962.411	1615.32
962.714	1593.4
963.017	1625.95
963.32	1606.06
963.623	1603.35
963.926	1596.34
964.228	1579.39
964.531	1562.9
964.833	1554.31
965.136	1569
965.438	1545.95
965.741	1527.87
966.043	1532.16
966.345	1523.35
966.648	1502.11
966.95	1519.28
967.252	1500.07
967.554	1505.27
967.856	1483.12
968.158	1510.69
968.46	1499.4
968.761	1479.51
969.063	1466.4
969.365	1451.26
969.666	1460.3
969.968	1483.12
970.269	1460.3
970.571	1440.64
970.872	1420.98
971.174	1411.26
971.475	1436.8
971.776	1418.72
972.077	1435.22
972.378	1423.01
972.679	1409
972.98	1419.62
973.281	1392.96
973.582	1390.92
973.883	1438.38
974.183	1394.77
974.484	1387.53
974.785	1378.72
975.085	1367.65
975.386	1359.96
975.686	1354.09
975.986	1363.81
976.287	1345.73
976.587	1345.95
976.887	1318.84
977.187	1344.37
977.487	1337.14
977.787	1344.37
978.087	1338.04
978.387	1340.53
978.687	1300.76
978.987	1315.45
979.286	1314.09
979.586	1310.47
979.885	1292.4
980.185	1252.85
980.484	1263.47
980.784	1277.25
981.083	1291.04
981.382	1283.13
981.682	1243.36
981.981	1261.44
982.28	1252.62
982.579	1249.46
982.878	1219.63
983.177	1247.88
983.475	1230.48
983.774	1219.85
984.073	1230.48
984.372	1193.87
984.67	1209.46
984.969	1178.95
985.267	1182.57
985.566	1228.89
985.864	1188.44
986.162	1193.87
986.461	1169.69
986.759	1175.79
987.057	1191.83
987.355	1197.93
987.653	1183.02
987.951	1166.3
988.249	1163.81
988.547	1152.29
988.844	1164.94
989.142	1176.69
989.44	1130.59
989.737	1131.5
990.035	1127.65
990.332	1122.91
990.63	1111.61
990.927	1123.13
991.224	1107.32
991.521	1099.18
991.819	1121.78
992.116	1091.5
992.413	1093.76
992.71	1082.91
993.006	1092.85
993.303	1091.04
993.6	1083.59
993.897	1101.21
994.193	1063.47
994.49	1103.02
994.787	1063.25
995.083	1070.71
995.379	1066.19
995.676	1052.85
995.972	1066.19
996.268	1066.19
996.565	1021.22
996.861	1044.94
997.157	1010.14
997.453	1027.77
997.749	1031.61
998.044	1027.54
998.34	1046.3
998.636	1016.47
998.932	1002.46
999.227	1006.98
999.523	996.58
999.818	973.53
1000.114	1007.21
1000.409	972.4
1000.704	975.34
1001	996.58
1001.295	960.43
1001.59	963.14
1001.885	965.62
1002.18	966.75
1002.475	951.84
1002.77	951.84
1003.065	913.87
1003.359	932.4
1003.654	926.08
1003.949	931.27
1004.243	907.77
1004.538	913.2
1004.832	940.54
1005.127	918.62
1005.421	922.24
1005.715	893.54
1006.009	913.42
1006.304	912.07
1006.598	887.43
1006.892	899.64
1007.186	863.25
1007.48	872.97
1007.773	881.11
1008.067	871.39
1008.361	872.52
1008.655	865.51
1008.948	861.45
1009.242	879.75
1009.535	863.25
1009.829	849.24
1010.122	871.84
1010.415	850.37
1010.708	861.67
1011.001	847.66
1011.295	853.54
1011.588	860.99
1011.881	838.4
1012.173	846.08
1012.466	807.89
1012.759	813.31
1013.052	815.57
1013.344	803.82
1013.637	822.58
1013.93	798.17
1014.222	795.46
1014.514	780.54
1014.807	820.32
1015.099	780.32
1015.391	756.14
1015.683	787.32
1015.976	801.79
1016.268	786.87
1016.56	762.24
1016.851	790.71
1017.143	777.15
1017.435	760.43
1017.727	736.25
1018.018	741.9
1018.31	758.62
1018.602	747.78
1018.893	741.45
1019.185	741.45
1019.476	733.77
1019.767	740.77
1020.058	721.56
1020.35	707.1
1020.641	692.19
1020.932	738.51
1021.223	703.71
1021.514	690.38
1021.804	695.57
1022.095	705.97
1022.386	720.21
1022.677	720.43
1022.967	693.09
1023.258	698.51
1023.548	659.64
1023.839	678.85
1024.129	692.64
1024.419	656.71
1024.709	680.21
1025	673.2
1025.29	660.77
1025.58	691.51
1025.87	657.16
1026.16	665.97
1026.449	645.86
1026.739	650.38
1027.029	663.26
1027.319	646.08
1027.608	659.19
1027.898	646.76
1028.187	631.85
1028.477	647.21
1028.766	635.92
1029.055	621
1029.344	619.42
1029.634	654.45
1029.923	649.25
1030.212	627.1
1030.501	615.13
1030.79	614
1031.078	628.68
1031.367	604.73
1031.656	616.03
1031.945	585.3
1032.233	586.43
1032.522	591.4
1032.81	588.01
1033.099	602.92
1033.387	583.49
1033.675	576.93
1033.963	590.94
1034.251	604.05
1034.54	594.11
1034.828	587.78
1035.116	564.05
1035.403	568.12
1035.691	574.22
1035.979	588.46
1036.267	578.29
1036.554	574.45
1036.842	575.8
1037.129	554.11
1037.417	543.49
1037.704	547.33
1037.992	558.4
1038.279	546.43
1038.566	566.09
1038.853	566.09
1039.14	566.09
