Data from blue_clamp_base_FLMS001491_00100.txt Node
Date: Wed Feb 08 15:16:49 GMT 2017
User: dcchb
Spectrometer: FLMS00149
Trigger mode: 0
Integration Time (sec): 2.000000E-2
Scans to average: 10
Electric dark correction enabled: true
Nonlinearity correction enabled: false
Boxcar width: 0
XAxis mode: Wavelengths
Number of Pixels in Spectrum: 2048
>>>>>Begin Spectral Data<<<<<
341.393	-7.37
341.776	-7.37
342.16	-7.37
342.543	-65
342.927	-60.93
343.31	-90.53
343.693	-70.65
344.077	-60.93
344.46	-66.13
344.843	-39.24
345.226	-72.91
345.61	-32.46
345.993	-32
346.376	4.6
346.759	-12.12
347.142	34.21
347.525	66.75
347.908	75.34
348.291	80.31
348.674	94.77
349.057	120.99
349.44	134.77
349.823	154.66
350.206	177.93
350.588	192.62
350.971	202.79
351.354	217.71
351.737	237.14
352.119	257.03
352.502	273.52
352.884	258.61
353.267	296.35
353.65	298.16
354.032	307.65
354.414	312.39
354.797	318.49
355.179	316.46
355.562	327.08
355.944	341.09
356.326	350.58
356.709	344.48
357.091	327.76
357.473	340.87
357.855	346.06
358.238	340.19
358.62	346.29
359.002	362.11
359.384	358.27
359.766	350.81
360.148	330.7
360.53	344.93
360.912	324.82
361.294	329.34
361.676	332.28
362.057	331.6
362.439	338.38
362.821	336.12
363.203	324.14
363.584	342
363.966	356.46
364.348	332.28
364.729	337.03
365.111	332.51
365.493	349.23
365.874	325.73
366.256	312.62
366.637	336.57
367.019	333.18
367.4	312.17
367.781	321.43
368.163	326.4
368.544	316.23
368.925	321.66
369.306	314.88
369.688	325.5
370.069	320.98
370.45	323.69
370.831	311.94
371.212	315.78
371.593	313.07
371.974	333.18
372.355	317.82
372.736	338.15
373.117	322.79
373.498	327.31
373.879	311.71
374.26	334.09
374.641	321.88
375.021	325.5
375.402	323.01
375.783	335.9
376.163	357.36
376.544	340.41
376.925	330.47
377.305	360.98
377.686	351.49
378.066	349.68
378.447	358.27
378.827	340.19
379.208	357.14
379.588	350.13
379.968	332.51
380.349	354.43
380.729	360.98
381.109	365.95
381.489	359.85
381.87	376.12
382.25	363.24
382.63	359.4
383.01	358.95
383.39	370.47
383.77	384.03
384.15	386.06
384.53	396.23
384.91	393.97
385.29	385.61
385.67	378.38
386.049	403.46
386.429	384.48
386.809	376.57
387.189	402.33
387.568	373.18
387.948	402.33
388.328	394.2
388.707	382.9
389.087	411.37
389.466	419.51
389.846	416.34
390.225	415.22
390.605	431.26
390.984	403.69
391.363	420.86
391.743	452.05
392.122	418.38
392.501	440.75
392.881	464.25
393.26	438.04
393.639	443.01
394.018	443.24
394.397	445.27
394.776	456.8
395.155	454.31
395.534	466.29
395.913	456.57
396.292	470.13
396.671	461.54
397.05	480.3
397.429	488.21
397.808	469.22
398.186	493.63
398.565	494.76
398.944	485.5
399.323	499.51
399.701	496.57
400.08	511.26
400.458	531.37
400.837	529.34
401.215	546.06
401.594	522.33
401.972	533.4
402.351	547.64
402.729	549.67
403.107	567.98
403.486	568.43
403.864	577.47
404.242	579.28
404.62	569.56
404.999	596
405.377	600.07
405.755	607.98
406.133	627.86
406.511	604.14
406.889	630.8
407.267	612.5
407.645	632.38
408.023	626.06
408.401	648.66
408.779	666.51
409.156	670.58
409.534	676.23
409.912	659.05
410.29	690.24
410.667	700.41
411.045	700.41
411.422	712.61
411.8	707.86
412.178	729.78
412.555	745.83
412.933	721.2
413.31	756.22
413.687	786.05
414.065	777.47
414.442	770.01
414.819	776.11
415.197	797.13
415.574	821.76
415.951	809.78
416.328	835.09
416.705	809.55
417.082	838.25
417.46	825.6
417.837	840.74
418.214	880.74
418.591	893.39
418.967	863.11
419.344	892.49
419.721	918.25
420.098	897.01
420.475	894.52
420.852	922.32
421.228	933.62
421.605	938.59
421.982	971.36
422.358	946.73
422.735	976.56
423.111	969.55
423.488	971.58
423.864	999.15
424.241	1012.71
424.617	1012.49
424.994	1035.99
425.37	1038.7
425.746	1035.99
426.123	1027.85
426.499	1075.76
426.875	1081.64
427.251	1100.39
427.627	1105.14
428.003	1112.82
428.379	1138.13
428.756	1143.78
429.132	1140.85
429.507	1163.44
429.883	1177.68
430.259	1193.05
430.635	1249.32
431.011	1208.19
431.387	1231.24
431.763	1272.82
432.138	1264.23
432.514	1293.38
432.89	1331.35
433.265	1333.16
433.641	1348.52
434.016	1362.76
434.392	1406.6
434.767	1394.85
435.143	1401.63
435.518	1398.69
435.894	1437.79
436.269	1477.11
436.644	1471.91
437.02	1497.67
437.395	1541.29
437.77	1542.64
438.145	1527.73
438.52	1558.24
438.895	1558.46
439.271	1579.03
439.646	1631.91
440.021	1628.06
440.395	1640.72
440.77	1632.81
441.145	1659.02
441.52	1664.45
441.895	1706.71
442.27	1716.88
442.645	1707.84
443.019	1745.35
443.394	1726.59
443.769	1749.42
444.143	1763.2
444.518	1794.39
444.892	1784.9
445.267	1804.56
445.641	1846.36
446.016	1845.69
446.39	1855.18
446.764	1852.47
447.139	1873.03
447.513	1830.32
447.887	1915.51
448.262	1915.51
448.636	1894.05
449.01	1922.75
449.384	1969.98
449.758	1950.09
450.132	1998.9
450.506	2012.69
450.88	2017.21
451.254	2061.27
451.628	2060.82
452.002	2090.43
452.376	2126.81
452.75	2083.65
453.123	2103.76
453.497	2160.71
453.871	2194.38
454.244	2200.03
454.618	2252.68
454.992	2267.37
455.365	2281.83
455.739	2308.72
456.112	2350.98
456.486	2321.83
456.859	2380.59
457.232	2423.52
457.606	2411.09
457.979	2431.66
458.352	2437.31
458.725	2492
459.099	2532.67
459.472	2566.34
459.845	2542.16
460.218	2573.12
460.591	2659.45
460.964	2621.71
461.337	2726.57
461.71	2733.57
462.083	2764.31
462.456	2795.49
462.829	2752.78
463.201	2818.77
463.574	2840.69
463.947	2873.68
464.32	2962.27
464.692	2954.81
465.065	2988.48
465.438	2994.58
465.81	3000.46
466.183	3065.31
466.555	3132.88
466.928	3110.06
467.3	3142.83
467.672	3149.15
468.045	3262.37
468.417	3221.02
468.789	3276.83
469.161	3296.27
469.534	3396.83
469.906	3429.15
470.278	3484.51
470.65	3499.88
471.022	3511.63
471.394	3606.09
471.766	3602.7
472.138	3621.91
472.51	3682.47
472.882	3784.62
473.253	3801.57
473.625	3860.1
473.997	3891.06
474.369	3929.92
474.74	3964.27
475.112	4041.79
475.484	4070.26
475.855	4111.16
476.227	4155.91
476.598	4290.59
476.97	4287.66
477.341	4392.74
477.713	4395.45
478.084	4446.07
478.455	4510.02
478.827	4571.72
479.198	4711.15
479.569	4675.67
479.94	4771.71
480.311	4856
480.682	4917.02
481.053	4956.56
481.424	5026.62
481.795	5053.51
482.166	5115.66
482.537	5202.21
482.908	5317.69
483.279	5356.55
483.65	5367.85
484.021	5444.46
484.391	5508.87
484.762	5559.94
485.133	5537.79
485.503	5604.91
485.874	5768.52
486.244	5786.83
486.615	5835.19
486.985	5857.56
487.356	5964.9
487.726	5985.24
488.097	6112.69
488.467	6108.62
488.837	6171.22
489.207	6250.77
489.578	6321.5
489.948	6323.08
490.318	6382.74
490.688	6418.67
491.058	6481.5
491.428	6553.13
491.798	6630.64
492.168	6665.9
492.538	6695.5
492.908	6750.64
493.278	6801.04
493.648	6746.35
494.017	6828.15
494.387	6879.9
494.757	6827.7
495.126	6926.46
495.496	6915.61
495.866	7025.44
496.235	7075.83
496.605	7076.96
496.974	7150.86
497.344	7135.94
497.713	7175.94
498.082	7179.56
498.452	7227.92
498.821	7272.21
499.19	7255.26
499.559	7313.79
499.928	7338.2
500.298	7361.25
500.667	7408.25
501.036	7441.47
501.405	7427.23
501.774	7372.32
502.143	7401.7
502.512	7492.09
502.88	7492.32
503.249	7488.48
503.618	7524.86
503.987	7507.46
504.356	7643.5
504.724	7547.91
505.093	7614.12
505.462	7610.28
505.83	7653.22
506.199	7748.36
506.567	7780.9
506.936	7798.75
507.304	7860.44
507.672	7777.51
508.041	7779.77
508.409	7906.09
508.777	7969.59
509.145	7958.52
509.514	7960.55
509.882	8015.92
510.25	7977.28
510.618	7980.21
510.986	8041.68
511.354	8124.62
511.722	8172.75
512.09	8193.54
512.458	8133.2
512.826	8198.74
513.193	8218.17
513.561	8293.88
513.929	8271.05
514.297	8322.58
514.664	8397.38
515.032	8367.77
515.4	8443.25
515.767	8462.46
516.135	8497.94
516.502	8347.44
516.869	8549.46
517.237	8477.83
517.604	8488.22
517.972	8613.87
518.339	8681.21
518.706	8616.13
519.073	8660.2
519.44	8704.94
519.808	8734.77
520.175	8746.07
520.542	8870.81
520.909	8805.05
521.276	8806.86
521.643	8914.43
522.009	8883.92
522.376	8946.74
522.743	8927.76
523.11	9023.12
523.477	9091.37
523.843	9111.71
524.21	9166.4
524.577	9207.98
524.943	9265.6
525.31	9307.64
525.676	9380.4
526.043	9351.93
526.409	9384.7
526.776	9486.39
527.142	9445.94
527.508	9558.48
527.874	9576.56
528.241	9593.5
528.607	9606.16
528.973	9720.73
529.339	9669.21
529.705	9787.62
530.071	9831.46
530.437	9865.36
530.803	9845.02
531.169	9876.89
531.535	9951.01
531.901	9927.51
532.267	9973.61
532.632	10043.21
532.998	10002.76
533.364	10085.47
533.73	10109.42
534.095	10230.32
534.461	10254.96
534.826	10227.84
535.192	10265.58
535.557	10395.07
535.923	10317.78
536.288	10386.93
536.653	10472.8
537.019	10381.73
537.384	10444.33
537.749	10420.83
538.114	10532.24
538.479	10474.84
538.845	10519.13
539.21	10541.95
539.575	10639.58
539.94	10604.33
540.305	10617.21
540.67	10642.52
541.034	10736.75
541.399	10684.78
541.764	10781.5
542.129	10783.76
542.494	10834.15
542.858	10889.74
543.223	10815.62
543.587	11030.3
543.952	10893.81
544.316	10961.83
544.681	10969.74
545.045	10943.75
545.41	11068.72
545.774	11115.27
546.138	11042.51
546.503	11112.79
546.867	11126.8
547.231	11256.96
547.595	11185.1
547.959	11224.42
548.324	11219.9
548.688	11309.39
549.052	11297.87
549.416	11273.23
549.779	11310.75
550.143	11353.91
550.507	11461.25
550.871	11466.68
551.235	11414.25
551.599	11507.58
551.962	11514.81
552.326	11501.93
552.689	11594.81
553.053	11437.3
553.417	11521.82
553.78	11664.41
554.143	11665.09
554.507	11675.94
554.87	11704.86
555.234	11744.18
555.597	11765.65
555.96	11748.93
556.323	11880
556.686	11889.94
557.05	11843.16
557.413	11890.85
557.776	11973.56
558.139	11969.94
558.502	11970.39
558.865	12058.07
559.228	12135.13
559.59	12044.74
559.953	12169.93
560.316	12148.47
560.679	12254.68
561.041	12297.84
561.404	12393.88
561.767	12406.54
562.129	12364.96
562.492	12477.04
562.854	12456.03
563.217	12453.99
563.579	12557.72
563.941	12541
564.304	12649.47
564.666	12749.13
565.028	12668.9
565.39	12725.63
565.753	12789.35
566.115	12830.26
566.477	12942.57
566.839	13005.84
567.201	13020.53
567.563	12987.99
567.925	13080.64
568.287	13080.19
568.648	13123.13
569.01	13255.78
569.372	13323.12
569.734	13301.43
570.095	13377.13
570.457	13474.98
570.819	13459.84
571.18	13407.19
571.542	13566.96
571.903	13634.08
572.265	13638.37
572.626	13622.1
572.987	13703.68
573.349	13740.51
573.71	13705.49
574.071	13879.04
574.432	13817.57
574.794	13924.24
575.155	13997
575.516	13903.67
575.877	13973.73
576.238	14039.94
576.599	14017.8
576.96	14086.27
577.32	14043.78
577.681	14136.44
578.042	14229.99
578.403	14259.14
578.763	14194.29
579.124	14314.06
579.485	14313.61
579.845	14365.58
580.206	14303.66
580.566	14352.7
580.927	14396.09
581.287	14434.96
581.648	14407.16
582.008	14455.75
582.368	14504.34
582.728	14607.16
583.089	14549.31
583.449	14490.33
583.809	14536.43
584.169	14561.96
584.529	14532.36
584.889	14601.73
585.249	14591.57
585.609	14479.93
585.969	14618.91
586.329	14484
586.688	14547.05
587.048	14632.47
587.408	14651.22
587.768	14627.95
588.127	14553.83
588.487	14600.6
588.846	14713.14
589.206	14626.82
589.565	14642.64
589.925	14766.7
590.284	14735.29
590.643	14686.03
591.003	14766.7
591.362	14825.01
591.721	14775.52
592.08	14704.78
592.44	14780.26
592.799	14872.69
593.158	14767.83
593.517	14802.86
593.876	14868.39
594.235	14797.44
594.593	14781.39
594.952	14922.18
595.311	14916.75
595.67	14797.44
596.029	14933.03
596.387	14941.16
596.746	14985.23
597.104	14935.51
597.463	14895.96
597.822	14927.38
598.18	14939.35
598.538	14934.83
598.897	14991.33
599.255	14876.76
599.613	15136.86
599.972	14966.92
600.33	14972.35
600.688	14940.26
601.046	15047.6
601.404	15075.39
601.762	15021.84
602.12	15139.8
602.478	15108.16
602.836	15103.42
603.194	15043.76
603.552	15143.87
603.91	15047.82
604.268	15148.16
604.625	15173.7
604.983	15164.21
605.341	15049.18
605.698	15200.59
606.056	15187.26
606.413	15122.85
606.771	15284.88
607.128	15205.79
607.485	15233.13
607.843	15310.42
608.2	15341.83
608.557	15295.95
608.914	15278.55
609.272	15346.57
609.629	15363.07
609.986	15491.65
610.343	15385.67
610.7	15498.66
611.057	15441.71
611.414	15414.82
611.771	15412.56
612.127	15487.59
612.484	15484.88
612.841	15526.68
613.198	15568.49
613.554	15552.9
613.911	15558.09
614.267	15643.52
614.624	15529.39
614.98	15590.64
615.337	15562.16
615.693	15647.36
616.05	15663.4
616.406	15700.91
616.762	15623.4
617.118	15567.36
617.475	15675.83
617.831	15719.67
618.187	15839.89
618.543	15821.14
618.899	15835.37
619.255	15824.08
619.611	15860.23
619.967	15942.94
620.323	15947.24
620.678	15837.18
621.034	15840.57
621.39	15912.21
621.746	15855.26
622.101	16052.09
622.457	15897.97
622.812	15901.59
623.168	16001.47
623.523	16029.04
623.879	16037.63
624.234	15904.3
624.589	16030.85
624.945	15984.52
625.3	15989.95
625.655	16066.55
626.01	16049.83
626.365	16051.41
626.72	16033.56
627.075	16139.32
627.43	16029.72
627.785	16093.67
628.14	16104.29
628.495	16175.48
628.85	16150.39
629.205	16045.54
629.559	16217.51
629.914	16103.16
630.269	16219.09
630.623	16187.46
630.978	16220.68
631.332	16272.65
631.687	16318.75
632.041	16230.17
632.396	16354.46
632.75	16233.56
633.104	16253.44
633.459	16292.99
633.813	16237.17
634.167	16268.58
634.521	16244.18
634.875	16263.61
635.229	16250.05
635.583	16227
635.937	16267.45
636.291	16250.28
636.645	16304.06
636.999	16357.62
637.352	16301.13
637.706	16163.05
638.06	16442.14
638.413	16331.18
638.767	16202.6
639.121	16251.18
639.474	16266.55
639.828	16283.5
640.181	16342.25
640.534	16292.31
640.888	16358.75
641.241	16173.67
641.594	16205.31
641.947	16252.54
642.301	16335.02
642.654	16333.89
643.007	16354.01
643.36	16347.23
643.713	16337.51
644.066	16469.03
644.419	16421.57
644.771	16234.46
645.124	16067.23
645.477	16105.88
645.83	16033.11
646.182	15954.24
646.535	15901.36
646.888	16110.17
647.24	15983.85
647.593	16211.64
647.945	16137.74
648.298	16072.88
648.65	16027.46
649.002	16043.96
649.355	16130.06
649.707	16144.29
650.059	16164.63
650.411	16372.31
650.763	16448.69
651.115	16596.26
651.467	16550.16
651.819	16635.81
652.171	16535.92
652.523	16591.74
652.875	16651.4
653.227	16549.03
653.578	16731.17
653.93	16645.97
654.282	16631.29
654.633	16658.86
654.985	16671.51
655.337	16730.72
655.688	16675.8
656.039	16805.07
656.391	16718.97
656.742	16647.1
657.094	16686.43
657.445	16860.88
657.796	16716.48
658.147	16693.88
658.498	16715.8
658.849	16805.97
659.2	16806.2
659.551	16715.13
659.902	16795.35
660.253	16722.36
660.604	16835.12
660.955	16711.96
661.306	16759.64
661.656	16765.75
662.007	16831.28
662.358	16861.11
662.708	16801.68
663.059	16802.35
663.409	16768.68
663.76	16968.45
664.11	16885.97
664.461	16906.53
664.811	16834.22
665.161	16894.1
665.511	16956.25
665.862	16794.9
666.212	16887.32
666.562	16876.03
666.912	16835.57
667.262	16714.9
667.612	16843.71
667.962	16785.86
668.312	16772.3
668.662	16894.78
669.011	16746.54
669.361	16778.63
669.711	16803.71
670.06	16713.09
670.41	16629.93
670.76	16622.47
671.109	16628.57
671.459	16580.89
671.808	16613.89
672.157	16646.88
672.507	16526.66
672.856	16517.16
673.205	16494.11
673.554	16581.34
673.904	16432.65
674.253	16558.07
674.602	16447.11
674.951	16237.17
675.3	16149.49
675.649	16389.71
675.998	16362.59
676.346	16333.21
676.695	16368.92
677.044	16241.47
677.393	16249.83
677.741	16263.61
678.09	16239.21
678.438	16231.07
678.787	16239.21
679.135	16255.7
679.484	16034.92
679.832	16119.21
680.181	16005.09
680.529	16007.35
680.877	15966.22
681.225	15887.12
681.573	16055.26
681.922	15930.29
682.27	15886.22
682.618	15830.85
682.966	15813.91
683.314	15818.43
683.661	15782.04
684.009	15670.86
684.357	15692.33
684.705	15641.26
685.053	15656.4
685.4	15704.98
685.748	15524.2
686.095	15550.64
686.443	15371.43
686.79	15382.51
687.138	15507.47
687.485	15456.18
687.832	15480.13
688.18	15520.58
688.527	15430.87
688.874	15412.56
689.221	15288.72
689.568	15306.12
689.915	15235.84
690.262	15277.2
690.609	15198.1
690.956	15114.72
691.303	15172.57
691.65	15123.53
691.997	15095.73
692.344	15004.21
692.69	15039.24
693.037	15065.45
693.383	15003.98
693.73	15025.68
694.077	14992.68
694.423	14954.49
694.769	14909.3
695.116	14803.09
695.462	14852.12
695.808	14825.01
696.155	14873.82
696.501	14702.75
696.847	14789.75
697.193	14692.13
697.539	14749.08
697.885	14622.75
698.231	14674.5
698.577	14572.36
698.923	14611.45
699.269	14607.16
699.614	14524
699.96	14526.48
700.306	14530.1
700.651	14465.69
700.997	14436.54
701.342	14466.6
701.688	14466.15
702.033	14391.34
702.379	14411.23
702.724	14377.33
703.069	14470.89
703.415	14277
703.76	14351.12
704.105	14414.4
704.45	14303.89
704.795	14200.84
705.14	14162.2
705.485	14173.05
705.83	14144.35
706.175	14156.55
706.52	14144.8
706.865	14117.68
707.209	14078.36
707.554	14112.71
707.899	14178.47
708.243	14086.49
708.588	14057.12
708.932	13956.1
709.277	14026.83
709.621	14019.6
709.966	13881.53
710.31	13854.86
710.654	13889.89
710.998	13927.85
711.342	13922.43
711.687	13896.67
712.031	13895.54
712.375	13799.27
712.719	13898.48
713.063	13903.22
713.407	13940.06
713.75	13861.64
714.094	13855.31
714.438	13774.19
714.782	13816.67
715.125	13790.91
715.469	13806.05
715.812	13785.03
716.156	13716.79
716.499	13789.55
716.843	13761.53
717.186	13648.54
717.53	13722.21
717.873	13755.43
718.216	13714.53
718.559	13660.52
718.902	13658.26
719.246	13665.71
719.589	13647.86
719.932	13588.65
720.275	13672.04
720.617	13613.74
720.96	13554.3
721.303	13598.6
721.646	13558.15
721.989	13525.15
722.331	13590.46
722.674	13637.92
723.016	13500.07
723.359	13513.85
723.701	13563.12
724.044	13527.64
724.386	13426.62
724.729	13564.02
725.071	13536.45
725.413	13485.15
725.755	13515.66
726.097	13401.54
726.439	13415.78
726.782	13380.98
727.124	13465.04
727.465	13374.2
727.807	13426.62
728.149	13461.65
728.491	13354.76
728.833	13474.31
729.175	13455.1
729.516	13352.28
729.858	13455.55
730.199	13486.06
730.541	13439.51
730.882	13491.48
731.224	13540.75
731.565	13406.29
731.906	13458.71
732.248	13453.29
732.589	13429.11
732.93	13276.8
733.271	13492.61
733.612	13462.56
733.953	13383.46
734.294	13420.75
734.635	13439.96
734.976	13415.78
735.317	13489
735.658	13484.7
735.999	13447.41
736.339	13446.74
736.68	13517.7
737.021	13512.27
737.361	13492.84
737.702	13534.42
738.042	13580.29
738.383	13621.65
738.723	13620.52
739.063	13623.91
739.404	13675.88
739.744	13626.62
740.084	13676.79
740.424	13721.53
740.764	13731.7
741.104	13769.21
741.444	13707.29
741.784	13706.84
742.124	13852.38
742.464	13798.82
742.804	13841.08
743.143	13830.68
743.483	13893.96
743.823	13867.06
744.162	13912.94
744.502	13934.41
744.841	13884.47
745.181	14031.81
745.52	13973.73
745.86	14041.75
746.199	14015.31
746.538	14023.9
746.877	14122.2
747.216	14152.26
747.556	14154.29
747.895	14198.13
748.234	14143.67
748.573	14251.69
748.911	14213.27
749.25	14246.04
749.589	14208.52
749.928	14301.4
750.267	14406.03
750.605	14398.35
750.944	14399.03
751.283	14323.1
751.621	14513.6
751.96	14419.82
752.298	14507.05
752.636	14548.4
752.975	14522.64
753.313	14495.07
753.651	14549.08
753.989	14609.42
754.327	14588.18
754.666	14542.08
755.004	14658
755.342	14662.3
755.679	14702.07
756.017	14639.47
756.355	14695.07
756.693	14720.38
757.031	14747.49
757.368	14831.79
757.706	14712.47
758.044	14837.66
758.381	14912.69
758.719	14865.91
759.056	14845.34
759.394	14934.83
759.731	14945.23
760.068	14909.52
760.405	14934.16
760.743	14888.96
761.08	15000.59
761.417	14984.1
761.754	15061.84
762.091	15004.66
762.428	14924.21
762.765	14842.18
763.102	14999.01
763.438	14947.94
763.775	14930.99
764.112	14986.58
764.449	14991.78
764.785	15040.37
765.122	15003.31
765.458	15066.58
765.795	15021.16
766.131	15066.58
766.467	15107.03
766.804	15078.11
767.14	14937.77
767.476	15016.19
767.812	15001.05
768.148	15054.38
768.485	14921.05
768.821	14935.51
769.157	14957.21
769.492	15057.32
769.828	14994.72
770.164	14946.58
770.5	14945.91
770.836	14980.26
771.171	14944.1
771.507	14999.24
771.842	14978.22
772.178	14881.5
772.513	14961.05
772.849	14917.43
773.184	14961.27
773.519	14957.43
773.855	14891.22
774.19	14849.86
774.525	14830.43
774.86	14921.73
775.195	14910.2
775.53	14867.04
775.865	14888.96
776.2	14820.94
776.535	14832.69
776.87	14754.27
777.205	14779.81
777.539	14788.17
777.874	14804.44
778.209	14684.9
778.543	14687.83
778.878	14678.57
779.212	14665.24
779.547	14717.66
779.881	14690.09
780.215	14703.2
780.55	14714.05
780.884	14717.89
781.218	14722.41
781.552	14672.92
781.886	14670.89
782.22	14578.46
782.554	14582.98
782.888	14434.96
783.222	14499.36
783.556	14402.19
783.889	14500.95
784.223	14449.87
784.557	14420.5
784.89	14486.26
785.224	14388.86
785.557	14467.5
785.891	14315.64
786.224	14434.73
786.558	14372.81
786.891	14296.21
787.224	14288.75
787.557	14143.89
787.891	14362.64
788.224	14266.6
788.557	14265.25
788.89	14278.58
789.223	14254.17
789.556	14148.64
789.888	14153.84
790.221	14032.71
790.554	14058.47
790.887	14035.42
791.219	14088.75
791.552	14161.29
791.884	13978.7
792.217	14036.1
792.549	13950
792.882	13879.04
793.214	13882.43
793.546	13904.13
793.879	13781.19
794.211	13797.24
794.543	13859.61
794.875	13760.85
795.207	13898.93
795.539	13841.53
795.871	13855.31
796.203	13752.49
796.535	13723.34
796.867	13654.87
797.198	13732.15
797.53	13648.54
797.862	13640.18
798.193	13663.45
798.525	13562.21
798.856	13638.37
799.188	13544.81
799.519	13528.09
799.85	13478.83
800.182	13453.52
800.513	13426.17
800.844	13315.21
801.175	13482.44
801.506	13470.24
801.837	13373.07
802.168	13401.77
802.499	13315.89
802.83	13235.44
803.161	13324.48
803.491	13286.52
803.822	13239.28
804.153	13242.9
804.483	13106.18
804.814	13170.59
805.145	13112.28
805.475	13153.19
805.805	13037.93
806.136	13024.38
806.466	13086.52
806.796	13064.83
807.126	13100.31
807.457	12995
807.787	13044.49
808.117	12901.44
808.447	12985.96
808.777	12938.73
809.107	12950.25
809.436	12889.01
809.766	12850.59
810.096	12832.06
810.426	12806.08
810.755	12802.46
811.085	12787.77
811.414	12747.55
811.744	12660.09
812.073	12715.23
812.403	12710.71
812.732	12622.13
813.061	12635.01
813.39	12524.73
813.719	12562.24
814.049	12604.27
814.378	12557.49
814.707	12556.36
815.036	12541.22
815.365	12533.09
815.693	12366.31
816.022	12364.96
816.351	12284.06
816.68	12356.14
817.008	12400.66
817.337	12288.35
817.665	12195.24
817.994	12289.25
818.322	12231.63
818.651	12223.72
818.979	12170.61
819.307	12305.07
819.636	12253.1
819.964	12156.6
820.292	12194.34
820.62	12171.29
820.948	12133.78
821.276	12172.87
821.604	12197.5
821.932	12199.99
822.259	12207
822.587	12152.08
822.915	12153.21
823.243	12200.44
823.57	12165.64
823.898	12155.02
824.225	12204.51
824.553	12148.69
824.88	12207.67
825.207	12165.41
825.535	12126.55
825.862	12225.3
826.189	12171.29
826.516	12272.98
826.843	12212.19
827.17	12318.86
827.497	12310.27
827.824	12355.01
828.151	12256.26
828.478	12235.02
828.805	12311.17
829.131	12327.22
829.458	12302.36
829.785	12168.58
830.111	12304.62
830.438	12289.71
830.764	12281.8
831.09	12298.07
831.417	12289.48
831.743	12255.36
832.069	12288.8
832.395	12280.67
832.722	12364.51
833.048	12226.66
833.374	12303.94
833.7	12271.4
834.026	12262.36
834.351	12238.18
834.677	12245.41
835.003	12266.88
835.329	12251.29
835.654	12205.19
835.98	12149.82
836.306	12179.65
836.631	12128.58
836.956	12194.34
837.282	12226.2
837.607	12083.38
837.932	12163.15
838.258	12197.5
838.583	12158.64
838.908	12032.99
839.233	12116.15
839.558	12016.27
839.883	12069.6
840.208	11971.52
840.533	12005.87
840.858	11966.32
841.182	11941.01
841.507	12019.88
841.832	11883.84
842.156	11887.68
842.481	11902.14
842.805	11870.51
843.13	11891.3
843.454	11805.2
843.778	11843.16
844.103	11798.87
844.427	11771.98
844.751	11788.25
845.075	11726.78
845.399	11667.8
845.723	11634.36
846.047	11672.09
846.371	11489.05
846.695	11580.35
847.019	11497.64
847.343	11441.59
847.666	11424.42
847.99	11359.11
848.313	11393.46
848.637	11280.69
848.96	11291.77
849.284	11202.5
849.607	11129.96
849.931	11175.16
850.254	11051.09
850.577	11029.17
850.9	10967.71
851.223	11014.71
851.546	10855.62
851.869	10823.53
852.192	10948.27
852.515	10754.38
852.838	10758.9
853.161	10715.74
853.483	10708.73
853.806	10670.31
854.129	10553.03
854.451	10596.87
854.774	10515.97
855.096	10505.35
855.419	10522.52
855.741	10485.68
856.063	10386.25
856.385	10404.1
856.708	10320.04
857.03	10307.16
857.352	10391.22
857.674	10313.94
857.996	10304.45
858.318	10227.84
858.64	10207.27
858.961	10183.77
859.283	10146.71
859.605	10139.93
859.926	10111.46
860.248	10115.75
860.57	10064
860.891	10111.91
861.212	9998.47
861.534	9997.79
861.855	9984.68
862.176	10072.36
862.498	9964.79
862.819	9984.45
863.14	9911.46
863.461	9848.87
863.782	9959.82
864.103	9917.11
864.424	9886.6
864.745	9889.32
865.065	9802.31
865.386	9732.03
865.707	9758.47
866.027	9745.82
866.348	9722.99
866.668	9750.79
866.989	9712.82
867.309	9687.29
867.63	9700.62
867.95	9707.4
868.27	9617.23
868.59	9649.32
868.91	9599.61
869.23	9603.67
869.55	9583.11
869.87	9611.81
870.19	9565.48
870.51	9604.13
870.83	9546.73
871.15	9403.91
871.469	9604.58
871.789	9554.64
872.109	9443.9
872.428	9417.24
872.748	9448.2
873.067	9485.94
873.386	9405.04
873.706	9462.89
874.025	9413.62
874.344	9310.57
874.663	9361.19
874.982	9323.23
875.301	9347.18
875.62	9309.44
875.939	9286.85
876.258	9350.8
876.577	9270.58
876.896	9280.29
877.214	9256.11
877.533	9295.43
877.852	9219.73
878.17	9236.23
878.489	9227.86
878.807	9255.66
879.125	9127.75
879.444	9210.01
879.762	9127.75
880.08	9143.8
880.398	9053.41
880.716	9088.89
881.034	9062.9
881.352	9156.91
881.67	9045.72
881.988	9071.94
882.306	9043.91
882.624	9024.71
882.941	8951.94
883.259	8940.41
883.577	8960.3
883.894	8970.92
884.212	8933.41
884.529	8927.31
884.846	8820.19
885.164	8859.06
885.481	8868.78
885.798	8827.2
886.115	8769.57
886.432	8750.36
886.75	8718.05
887.067	8772.96
887.383	8673.98
887.7	8736.13
888.017	8638.05
888.334	8677.37
888.651	8659.97
888.967	8636.69
889.284	8565.28
889.6	8555.11
889.917	8588.56
890.233	8498.39
890.55	8476.02
890.866	8494.32
891.182	8472.4
891.498	8412.97
891.815	8380.2
892.131	8386.98
892.447	8373.42
892.763	8353.09
893.079	8333.88
893.395	8281.45
893.71	8240.09
894.026	8231.51
894.342	8227.67
894.657	8166.2
894.973	8155.12
895.289	8120.78
895.604	8185.41
895.92	8029.7
896.235	8043.72
896.55	8055.01
896.865	8054.79
897.181	7999.42
897.496	7916.26
897.811	7999.2
898.126	7865.41
898.441	7841.91
898.756	7818.86
899.071	7776.15
899.386	7855.02
899.7	7680.79
900.015	7701.35
900.33	7639.43
900.644	7644.18
900.959	7604.63
901.273	7616.16
901.588	7567.57
901.902	7524.86
902.216	7536.38
902.531	7474.46
902.845	7502.94
903.159	7455.48
903.473	7398.08
903.787	7360.57
904.101	7354.02
904.415	7341.36
904.729	7358.54
905.042	7330.74
905.356	7271.98
905.67	7291.64
905.984	7236.28
906.297	7197.18
906.611	7144.98
906.924	7173.46
907.237	7140.24
907.551	7103.17
907.864	7122.16
908.177	7025.66
908.491	7051.42
908.804	6989.51
909.117	6968.26
909.43	6955.83
909.743	6903.63
910.056	6869.06
910.368	6829.28
910.681	6814.82
910.994	6803.75
911.307	6753.13
911.619	6687.59
911.932	6716.97
912.244	6607.59
912.557	6669.29
912.869	6606.01
913.181	6617.99
913.494	6572.34
913.806	6549.07
914.118	6530.53
914.43	6523.53
914.742	6495.96
915.054	6478.78
915.366	6438.56
915.678	6406.47
915.99	6367.37
916.302	6335.06
916.613	6321.27
916.925	6316.08
917.236	6228.17
917.548	6267.26
917.859	6258.68
918.171	6219.81
918.482	6135.29
918.794	6166.25
919.105	6166.25
919.416	6082.41
919.727	6091.45
920.038	6011.68
920.349	6018.23
920.66	5969.19
920.971	6021.85
921.282	5930.78
921.593	5977.1
921.903	5865.47
922.214	5855.3
922.525	5876.99
922.835	5817.56
923.146	5818.24
923.456	5799.03
923.767	5714.51
924.077	5695.98
924.387	5719.93
924.697	5723.78
925.008	5666.6
925.318	5625.25
925.628	5621.86
925.938	5587.51
926.248	5520.84
926.558	5513.84
926.867	5528.98
927.177	5483.33
927.487	5446.04
927.796	5442.43
928.106	5412.6
928.416	5431.13
928.725	5382.54
929.034	5296.22
929.344	5349.77
929.653	5318.36
929.962	5271.36
930.271	5292.37
930.581	5225.71
930.89	5153.62
931.199	5147.97
931.508	5163.56
931.817	5144.81
932.125	5147.29
932.434	5088.54
932.743	5062.55
933.051	5067.52
933.36	5063
933.669	5036.56
933.977	5022.78
934.286	4967.19
934.594	4963.8
934.902	4916.34
935.21	4914.31
935.519	4924.93
935.827	4886.96
936.135	4861.43
936.443	4846.06
936.751	4815.33
937.059	4764.25
937.367	4801.31
937.674	4765.84
937.982	4779.39
938.29	4671.83
938.597	4698.94
938.905	4642
939.213	4646.74
939.52	4595.22
939.827	4604.48
940.135	4574.2
940.442	4533.98
940.749	4533.75
941.056	4572.17
941.363	4497.59
941.67	4527.2
941.977	4458.27
942.284	4453.75
942.591	4448.33
942.898	4402.23
943.205	4379.4
943.511	4397.94
943.818	4377.82
944.125	4343.47
944.431	4345.51
944.738	4345.96
945.044	4313.87
945.35	4299.63
945.657	4277.49
945.963	4267.32
946.269	4210.37
946.575	4219.63
946.881	4200.88
947.187	4136.25
947.493	4165.62
947.799	4140.77
948.105	4152.52
948.41	4150.26
948.716	4131.95
949.022	4067.77
949.327	4088.34
949.633	4050.15
949.938	4040.88
950.244	4038.17
950.549	4002.24
950.854	3959.98
951.16	3990.49
951.465	3956.82
951.77	3933.77
952.075	3934.67
952.38	3920.21
952.685	3878.85
952.99	3852.86
953.294	3865.29
953.599	3816.48
953.904	3822.81
954.209	3732.64
954.513	3825.97
954.818	3776.71
955.122	3783.49
955.426	3739.42
955.731	3722.25
956.035	3671.85
956.339	3690.38
956.643	3618.75
956.948	3675.02
957.252	3637.96
957.556	3613.55
957.86	3593.44
958.163	3624.62
958.467	3596.37
958.771	3530.61
959.075	3587.34
959.378	3511.63
959.682	3504.17
959.985	3471.86
960.289	3460.78
960.592	3424.85
960.896	3478.19
961.199	3411.52
961.502	3439.09
961.805	3397.28
962.108	3401.35
962.411	3405.87
962.714	3364.97
963.017	3323.16
963.32	3303.05
963.623	3298.98
963.926	3312.99
964.228	3278.42
964.531	3250.85
964.833	3272.09
965.136	3254.24
965.438	3234.8
965.741	3217.85
966.043	3249.04
966.345	3172.66
966.648	3196.61
966.95	3173.11
967.252	3134.24
967.554	3141.25
967.856	3143.05
968.158	3091.75
968.46	3108.25
968.761	3091.75
969.063	3086.33
969.365	3071.42
969.666	3035.94
969.968	3026.22
970.269	3032.32
970.571	3004.07
970.872	3002.72
971.174	2994.58
971.475	2966.56
971.776	2946.67
972.077	2957.97
972.378	2905.32
972.679	2941.25
972.98	2906.45
973.281	2886.79
973.582	2899.9
973.883	2876.85
974.183	2869.84
974.484	2862.16
974.785	2826.68
975.085	2804.08
975.386	2816.06
975.686	2808.15
975.986	2797.53
976.287	2781.25
976.587	2741.26
976.887	2732.44
977.187	2751.42
977.487	2717.75
977.787	2701.26
978.087	2676.17
978.387	2691.54
978.687	2673.91
978.987	2648.83
979.286	2657.19
979.586	2645.44
979.885	2674.82
980.185	2649.73
980.484	2617.19
980.784	2611.77
981.083	2591.43
981.382	2625.1
981.682	2587.81
981.981	2569.51
982.28	2513.01
982.579	2520.92
982.878	2518.89
983.177	2514.82
983.475	2517.98
983.774	2491.32
984.073	2478.66
984.372	2450.64
984.67	2430.53
984.969	2452.9
985.267	2449.51
985.566	2407.48
985.864	2438.44
986.162	2437.08
986.461	2379.91
986.759	2420.59
987.057	2374.03
987.355	2384.88
987.653	2347.59
987.951	2322.06
988.249	2322.74
988.547	2320.7
988.844	2283.87
989.142	2306.01
989.44	2318.22
989.737	2270.31
990.035	2270.08
990.332	2259.01
990.63	2222.4
990.927	2238.67
991.224	2230.76
991.521	2223.3
991.819	2187.37
992.116	2223.76
992.413	2183.53
992.71	2170.2
993.006	2159.58
993.303	2164.32
993.6	2144.44
993.897	2151.89
994.193	2110.54
994.49	2107.15
994.787	2064.89
995.083	2109.18
995.379	2083.87
995.676	2087.71
995.972	2080.26
996.268	2053.36
996.565	2031.44
996.861	2050.65
997.157	2019.47
997.453	2033.25
997.749	2020.14
998.044	2001.84
998.34	1983.08
998.636	2001.16
998.932	1955.74
999.227	1949.86
999.523	1954.84
999.818	1956.42
1000.114	1916.87
1000.409	1953.93
1000.704	1892.46
1001	1886.81
1001.295	1876.87
1001.59	1891.56
1001.885	1854.73
1002.18	1890.43
1002.475	1870.32
1002.77	1836.19
1003.065	1817.21
1003.359	1831.22
1003.654	1821.51
1003.949	1754.61
1004.243	1803.2
1004.538	1774.05
1004.832	1765.46
1005.127	1738.8
1005.421	1746.03
1005.715	1754.84
1006.009	1733.15
1006.304	1752.58
1006.598	1693.15
1006.892	1713.49
1007.186	1711
1007.48	1678.01
1007.773	1644.11
1008.067	1647.05
1008.361	1647.05
1008.655	1662.87
1008.948	1623.09
1009.242	1609.53
1009.535	1615.41
1009.829	1589.42
1010.122	1596.65
1010.415	1569.99
1010.708	1604.11
1011.001	1560.72
1011.295	1576.99
1011.588	1574.51
1011.881	1566.6
1012.173	1559.14
1012.466	1533.83
1012.759	1529.31
1013.052	1527.05
1013.344	1532.47
1013.637	1507.84
1013.93	1501.29
1014.222	1510.78
1014.514	1482.31
1014.807	1488.18
1015.099	1456.54
1015.391	1440.95
1015.683	1469.42
1015.976	1454.96
1016.268	1425.36
1016.56	1422.65
1016.851	1433.95
1017.143	1405.47
1017.435	1402.76
1017.727	1390.1
1018.018	1356.21
1018.31	1384.91
1018.602	1339.03
1018.893	1349.65
1019.185	1355.76
1019.476	1331.12
1019.767	1351.01
1020.058	1307.4
1020.35	1310.33
1020.641	1302.2
1020.932	1284.8
1021.223	1282.31
1021.514	1257
1021.804	1247.74
1022.095	1268.98
1022.386	1248.19
1022.677	1258.58
1022.967	1214.29
1023.258	1233.72
1023.548	1223.1
1023.839	1219.04
1024.129	1199.6
1024.419	1202.76
1024.709	1181.3
1025	1180.17
1025.29	1161.41
1025.58	1139.72
1025.87	1162.31
1026.16	1123.22
1026.449	1153.5
1026.739	1133.16
1027.029	1165.7
1027.319	1101.52
1027.608	1107.85
1027.898	1098.36
1028.187	1101.98
1028.477	1087.74
1028.766	1090
1029.055	1094.29
1029.344	1082.09
1029.634	1054.07
1029.923	1062.43
1030.212	1071.47
1030.501	1043
1030.79	1021.98
1031.078	1037.57
1031.367	1041.87
1031.656	1027.63
1031.945	1018.82
1032.233	1010
1032.522	1011.36
1032.81	1009.55
1033.099	967.52
1033.387	979.95
1033.675	972.71
1033.963	984.01
1034.251	951.92
1034.54	989.44
1034.828	958.48
1035.116	924.58
1035.403	954.64
1035.691	927.74
1035.979	920.51
1036.267	930.46
1036.554	910.57
1036.842	901.53
1037.129	906.5
1037.417	903.11
1037.704	904.69
1037.992	891.13
1038.279	871.25
1038.566	883.45
1038.853	883.45
1039.14	883.45
