Data from blue_shiny_book_FLMS001491_00009.txt Node
Date: Wed Feb 08 15:26:27 GMT 2017
User: dcchb
Spectrometer: FLMS00149
Trigger mode: 0
Integration Time (sec): 2.000000E-2
Scans to average: 10
Electric dark correction enabled: true
Nonlinearity correction enabled: false
Boxcar width: 0
XAxis mode: Wavelengths
Number of Pixels in Spectrum: 2048
>>>>>Begin Spectral Data<<<<<
341.393	-9.97
341.776	-9.97
342.16	-9.97
342.543	-93.81
342.927	-57.65
343.31	-63.53
343.693	-73.25
344.077	-86.35
344.46	-42.29
344.843	-54.72
345.226	-50.2
345.61	-21.04
345.993	-24.21
346.376	1.1
346.759	-4.55
347.142	13.08
347.525	41.1
347.908	58.95
348.291	82.91
348.674	91.04
349.057	131.95
349.44	124.94
349.823	150.7
350.206	158.84
350.588	198.84
350.971	218.27
351.354	249.91
351.737	216.01
352.119	253.52
352.502	259.85
352.884	294.43
353.267	295.33
353.65	308.89
354.032	303.01
354.414	338.95
354.797	307.31
355.179	330.36
355.562	338.04
355.944	338.49
356.326	336.69
356.709	343.92
357.091	362.45
357.473	346.63
357.855	359.51
358.238	356.35
358.62	344.37
359.002	362.45
359.384	374.2
359.766	342.11
360.148	353.63
360.53	373.97
360.912	373.52
361.294	340.75
361.676	338.49
362.057	359.74
362.439	355.44
362.821	343.01
363.203	329.91
363.584	336.23
363.966	358.61
364.348	353.18
364.729	350.92
365.111	351.83
365.493	371.26
365.874	331.94
366.256	346.63
366.637	350.25
367.019	303.92
367.4	351.15
367.781	337.14
368.163	341.43
368.544	332.62
368.925	340.3
369.306	361.09
369.688	339.4
370.069	356.57
370.45	334.88
370.831	362
371.212	358.61
371.593	369.91
371.974	339.85
372.355	361.09
372.736	371.49
373.117	357.02
373.498	361.77
373.879	378.94
374.26	372.62
374.641	334.88
375.021	334.43
375.402	356.35
375.783	353.18
376.163	392.5
376.544	398.38
376.925	395.22
377.305	387.98
377.686	384.14
378.066	388.44
378.447	402.45
378.827	392.96
379.208	404.71
379.588	395.89
379.968	388.66
380.349	381.2
380.729	413.07
381.109	402.22
381.489	427.76
381.87	403.12
382.25	406.74
382.63	409.9
383.01	402.67
383.39	421.66
383.77	439.51
384.15	431.15
384.53	443.35
384.91	446.74
385.29	431.82
385.67	463.46
386.049	448.77
386.429	442.22
386.809	448.55
387.189	442.45
387.568	449.45
387.948	471.82
388.328	460.98
388.707	469.34
389.087	489.22
389.466	498.26
389.846	486.96
390.225	499.17
390.605	530.81
390.984	510.69
391.363	507.76
391.743	510.47
392.122	520.64
392.501	519.51
392.881	531.71
393.26	527.64
393.639	557.25
394.018	546.4
394.397	561.76
394.776	559.73
395.155	557.02
395.534	555.21
395.913	579.62
396.292	582.56
396.671	591.37
397.05	609
397.429	586.62
397.808	605.61
398.186	601.76
398.565	604.93
398.944	653.74
399.323	635.44
399.701	616.68
400.08	649.22
400.458	645.6
400.837	625.72
401.215	655.55
401.594	664.36
401.972	672.5
402.351	680.63
402.729	678.37
403.107	701.87
403.486	691.48
403.864	699.61
404.242	719.27
404.62	700.97
404.999	725.15
405.377	749.1
405.755	751.82
406.133	764.25
406.511	750.01
406.889	792.72
407.267	785.49
407.645	786.84
408.023	816.9
408.401	818.71
408.779	828.88
409.156	846.73
409.534	875.65
409.912	876.78
410.29	867.75
410.667	898.48
411.045	921.3
411.422	910.91
411.8	894.19
412.178	939.83
412.555	946.84
412.933	960.17
413.31	997.46
413.687	1022.09
414.065	1020.51
414.442	1011.47
414.819	1031.13
415.197	1044.92
415.574	1061.41
415.951	1078.36
416.328	1079.27
416.705	1095.54
417.082	1115.65
417.46	1149.55
417.837	1128.76
418.214	1152.26
418.591	1168.75
418.967	1199.49
419.344	1184.57
419.721	1197.68
420.098	1223.89
420.475	1233.61
420.852	1262.31
421.228	1226.83
421.605	1267.28
421.982	1291.24
422.358	1318.81
422.735	1342.54
423.111	1321.74
423.488	1349.31
423.864	1354.51
424.241	1394.29
424.617	1399.48
424.994	1404.68
425.37	1391.12
425.746	1457.11
426.123	1442.19
426.499	1453.72
426.875	1439.93
427.251	1516.77
427.627	1533.49
428.003	1592.47
428.379	1596.09
428.756	1598.57
429.132	1646.71
429.507	1644.67
429.883	1689.87
430.259	1679.7
430.635	1686.26
431.011	1700.27
431.387	1772.58
431.763	1794.27
432.138	1792.92
432.514	1818.68
432.89	1864.1
433.265	1921.5
433.641	1921.96
434.016	1968.28
434.392	1987.49
434.767	2032.91
435.143	2001.05
435.518	2054.38
435.894	2080.82
436.269	2088.96
436.644	2130.99
437.02	2148.84
437.395	2143.42
437.77	2200.14
438.145	2239.69
438.52	2296.63
438.895	2340.93
439.271	2310.65
439.646	2356.97
440.021	2360.36
440.395	2373.92
440.77	2334.15
441.145	2408.95
441.52	2436.52
441.895	2476.29
442.27	2469.51
442.645	2503.63
443.019	2535.5
443.394	2526.91
443.769	2598.55
444.143	2613.46
444.518	2667.92
444.892	2632.67
445.267	2604.2
445.641	2713.12
446.016	2697.98
446.39	2689.39
446.764	2727.36
447.139	2750.18
447.513	2781.14
447.887	2787.7
448.262	2834.47
448.636	2849.84
449.01	2887.13
449.384	2953.11
449.758	2940.91
450.132	2983.4
450.506	2975.03
450.88	2955.37
451.254	2987.69
451.628	3042.38
452.002	3054.13
452.376	3085.54
452.75	3132.32
453.123	3220.23
453.497	3260
453.871	3278.76
454.244	3359.88
454.618	3356.27
454.992	3414.12
455.365	3404.63
455.739	3512.87
456.112	3584.06
456.486	3557.84
456.859	3591.52
457.232	3662.02
457.606	3618.86
457.979	3726.88
458.352	3805.75
458.725	3860.21
459.099	3918.74
459.472	4009.36
459.845	4074.67
460.218	4120.99
460.591	4150.37
460.964	4173.2
461.337	4238.05
461.71	4242.35
462.083	4319.18
462.456	4372.96
462.829	4354.43
463.201	4448.22
463.574	4509.46
463.947	4544.49
464.32	4708.32
464.692	4730.02
465.065	4823.57
465.438	4899.28
465.81	4941.99
466.183	5019.5
466.555	5095.66
466.928	5109.67
467.3	5124.36
467.672	5127.07
468.045	5322.32
468.417	5324.58
468.789	5351.47
469.161	5440.05
469.534	5553.95
469.906	5707.84
470.278	5754.62
470.65	5847.5
471.022	5947.61
471.394	6057.67
471.766	6127.49
472.138	6214.05
472.51	6332.46
472.882	6356.64
473.253	6482.06
473.625	6492
473.997	6652.68
474.369	6690.87
474.74	6779
475.112	6894.48
475.484	7073.91
475.855	7249.95
476.227	7281.59
476.598	7503.73
476.97	7576.27
477.341	7725.42
477.713	7872.31
478.084	7959.99
478.455	8151.85
478.827	8175.58
479.198	8466.19
479.569	8403.82
479.94	8582.34
480.311	8731.49
480.682	8956.8
481.053	9096
481.424	9355.43
481.795	9383.91
482.166	9594.97
482.537	9735.08
482.908	10001.74
483.279	10104.34
483.65	10292.13
484.021	10446.93
484.391	10658.67
484.762	10658
485.133	10785.9
485.503	10881.72
485.874	11109.28
486.244	11286.23
486.615	11502.04
486.985	11579.1
487.356	11844.86
487.726	12023.61
488.097	12258.86
488.467	12326.65
488.837	12636.48
489.207	12763.93
489.578	13066.29
489.948	13151.04
490.318	13316.01
490.688	13305.16
491.058	13520.75
491.428	13757.12
491.798	13828.31
492.168	14075.31
492.538	14157.34
492.908	14353.94
493.278	14559.81
493.648	14625.58
494.017	14835.29
494.387	15016.3
494.757	15196.41
495.126	15358.66
495.496	15474.59
495.866	15655.83
496.235	15673.01
496.605	15898.99
496.974	15986.67
497.344	16113.45
497.713	16197.06
498.082	16305.53
498.452	16460.56
498.821	16554.11
499.19	16603.15
499.559	16825.52
499.928	16973.54
500.298	17162.23
500.667	17327.88
501.036	17341.21
501.405	17588.89
501.774	17645.84
502.143	17937.81
502.512	17878.15
502.88	18138.48
503.249	18074.75
503.618	18229.77
503.987	18340.73
504.356	18366.04
504.724	18575.98
505.093	18540.28
505.462	18726.26
505.83	18870.89
506.199	19026.36
506.567	19295.51
506.936	19297.32
507.304	19641.94
507.672	19687.59
508.041	19882.61
508.409	20033.57
508.777	20196.95
509.145	20281.92
509.514	20276.73
509.882	20451.41
510.25	20477.85
510.618	20640.11
510.986	20650.5
511.354	20965.97
511.722	21100.21
512.09	21288.9
512.458	21331.84
512.826	21468.11
513.193	21670.81
513.561	21784.48
513.929	21957.81
514.297	22200.07
514.664	22420.17
515.032	22431.92
515.4	22728.64
515.767	22783.55
516.135	23032.81
516.502	22866.72
516.869	23244.33
517.237	23258.57
517.604	23303.99
517.972	23676.86
518.339	23851.55
518.706	23854.94
519.073	24048.6
519.44	24305.55
519.808	24509.38
520.175	24497.86
520.542	24896.94
520.909	25045.41
521.276	25082.93
521.643	25421.22
522.009	25581.67
522.376	25628
522.743	25774.21
523.11	26117.93
523.477	26331.03
523.843	26498.94
524.21	26757.23
524.577	27011.24
524.943	27068.19
525.31	27158.13
525.676	27614.61
526.043	27632.92
526.409	27858.45
526.776	28041.04
527.142	28216.63
527.508	28479.22
527.874	28699.56
528.241	28864.07
528.607	28965.99
528.973	29302.48
529.339	29318.97
529.705	29628.8
530.071	29757.38
530.437	29904.95
530.803	30114.66
531.169	30113.53
531.535	30265.84
531.901	30418.15
532.267	30553.74
532.632	30901.98
532.998	30916.22
533.364	31090.45
533.73	31453.38
534.095	31656.54
534.461	31722.53
534.826	31890.66
535.192	31958
535.557	32157.32
535.923	32282.29
536.288	32447.03
536.653	32643.41
537.019	32387.14
537.384	32699.22
537.749	32785.1
538.114	32795.04
538.479	32895.83
538.845	32981.03
539.21	33050.63
539.575	33220.34
539.94	33430.51
540.305	33580.78
540.67	33639.31
541.034	33796.82
541.399	33994.56
541.764	34113.2
542.129	34281.33
542.494	34320.43
542.858	34412.63
543.223	34635.67
543.587	34874.31
543.952	34785.5
544.316	34919.96
544.681	34900.75
545.045	35049.22
545.41	35173.06
545.774	35177.8
546.138	35145.26
546.503	35339.83
546.867	35241.53
547.231	35664.12
547.595	35550.45
547.959	35801.97
548.324	35940.95
548.688	36071.57
549.052	36303.2
549.416	36388.62
549.779	36525.57
550.143	36552.01
550.507	36990.41
550.871	36910.64
551.235	36977.3
551.599	37259.56
551.962	37308.6
552.326	37395.37
552.689	37504.07
553.053	37342.72
553.417	37391.3
553.78	37765.98
554.143	37520.79
554.507	37739.77
554.87	37819.32
555.234	38098.18
555.597	38086.88
555.96	38313.77
556.323	38507.89
556.686	38593.99
557.05	39059.06
557.413	39165.5
557.776	39155.55
558.139	39553.28
558.502	39661.75
558.865	39746.5
559.228	39997.79
559.59	40079.37
559.953	40058.58
560.316	40409.53
560.679	40306.93
561.041	40412.47
561.404	40425.35
561.767	40765
562.129	40579.92
562.492	40945.56
562.854	40844.32
563.217	41018.1
563.579	41277.3
563.941	41532.67
564.304	41669.84
564.666	41893.33
565.028	42122.93
565.39	42170.39
565.753	42508.23
566.115	42813.31
566.477	42963.59
566.839	42944.38
567.201	43279.74
567.563	43388.44
567.925	43580.29
568.287	43497.36
568.648	43610.58
569.01	43760.86
569.372	43933.51
569.734	43643.57
570.095	43851.93
570.457	43900.51
570.819	43905.71
571.18	43855.54
571.542	44230.45
571.903	44296.43
572.265	44319.03
572.626	44567.61
572.987	44786.36
573.349	44961.5
573.71	45322.17
574.071	45440.13
574.432	45459.79
574.794	45887.8
575.155	45837.64
575.516	45870.63
575.877	46003.96
576.238	46113.56
576.599	46146.1
576.96	46127.57
577.32	46216.84
577.681	46365.53
578.042	46281.24
578.403	46178.87
578.763	46219.1
579.124	46275.59
579.485	46438.75
579.845	46290.28
580.206	46201.69
580.566	46302.26
580.927	46336.61
581.287	46582.7
581.648	46488.69
582.008	46636.03
582.368	46809.59
582.728	47026.53
583.089	47113.76
583.449	47097.72
583.809	47278.05
584.169	47351.04
584.529	47383.58
584.889	47627.65
585.249	47452.28
585.609	47454.09
585.969	47650.92
586.329	47462
586.688	47459.29
587.048	47315.34
587.408	47246.41
587.768	47188.34
588.127	46907.66
588.487	46837.38
588.846	47238.96
589.206	46796.26
589.565	47002.58
589.925	47155.79
590.284	47062.01
590.643	47166.87
591.003	47279.86
591.362	47411.15
591.721	47514.2
592.08	47438.5
592.44	47783.57
592.799	47818.83
593.158	47858.37
593.517	47821.77
593.876	47958.48
594.235	47944.93
594.593	48218.36
594.952	48217.01
595.311	47915.32
595.67	48046.17
596.029	48216.78
596.387	48030.12
596.746	47944.7
597.104	47642.56
597.463	47686.4
597.822	47720.98
598.18	47513.07
598.538	47468.1
598.897	47666.97
599.255	47210.03
599.613	47830.13
599.972	47665.39
600.33	47836.23
600.688	47756.68
601.046	47985.38
601.404	48234.18
601.762	48163.45
602.12	48408.19
602.478	48467.4
602.836	48567.51
603.194	48399.15
603.552	48609.99
603.91	48451.58
604.268	48699.93
604.625	48445.7
604.983	48521.63
605.341	48420.85
605.698	48603.21
606.056	48730.89
606.413	48652.03
606.771	48761.18
607.128	48621.97
607.485	48326.16
607.843	48304.69
608.2	48468.3
608.557	48522.99
608.914	48422.43
609.272	48582.65
609.629	48676.88
609.986	48796.43
610.343	48655.64
610.7	48866.26
611.057	48900.15
611.414	48984.9
611.771	49135.4
612.127	49359.13
612.484	49448.62
612.841	49556.86
613.198	49477.54
613.554	49535.84
613.911	49710.53
614.267	49643.41
614.624	49805.22
614.98	49751.21
615.337	49991.2
615.693	49813.58
616.05	49769.28
616.406	49891.99
616.762	49659.23
617.118	49693.35
617.475	49628.95
617.831	49670.53
618.187	49625.79
618.543	49541.95
618.899	49724.31
619.255	49560.25
619.611	49605.45
619.967	49794.82
620.323	49709.17
620.678	49639.8
621.034	49579.01
621.39	49684.32
621.746	49644.99
622.101	50081.14
622.457	49997.98
622.812	50020.58
623.168	50180.35
623.523	50172.66
623.879	50378.53
624.234	50217.41
624.589	50305.54
624.945	50377.63
625.3	50448.59
625.655	50429.61
626.01	50375.14
626.365	50315.03
626.72	50216.28
627.075	50189.16
627.43	50006.34
627.785	50004.76
628.14	49902.84
628.495	49913.46
628.85	49873.01
629.205	49689.29
629.559	49880.69
629.914	49644.99
630.269	49660.81
630.623	49629.18
630.978	49479.35
631.332	49627.14
631.687	49862.84
632.041	49696.07
632.396	49880.47
632.75	49776.97
633.104	49783.52
633.459	49785.78
633.813	49842.73
634.167	49797.98
634.521	49807.7
634.875	49951.2
635.229	49790.53
635.583	49835.72
635.937	49747.36
636.291	49822.84
636.645	49865.78
636.999	49649.29
637.352	49670.53
637.706	49390.31
638.06	49585.79
638.413	49369.52
638.767	49135.4
639.121	49278.22
639.474	48762.76
639.828	48848.86
640.181	48871.46
640.534	48726.15
640.888	48622.42
641.241	48393.73
641.594	48564.12
641.947	48671.46
642.301	48508.07
642.654	48638.92
643.007	48420.39
643.36	48410.68
643.713	48441.41
644.066	48640.5
644.419	48500.84
644.771	48555.76
645.124	48343.79
645.477	48622.2
645.83	48259.49
646.182	47837.58
646.535	47587.2
646.888	47542.22
647.24	47237.15
647.593	47587.65
647.945	47455.22
648.298	47137.49
648.65	46985.63
649.002	46980.66
649.355	47227.66
649.707	47074.89
650.059	47360.31
650.411	47789.9
650.763	47739.28
651.115	47947.19
651.467	47777.92
651.819	47634.65
652.171	47575.67
652.523	47527.99
652.875	47525.5
653.227	47357.82
653.578	47483.47
653.93	47589.45
654.282	47341.33
654.633	47191.27
654.985	47326.18
655.337	47314.21
655.688	47299.52
656.039	47529.57
656.391	47164.61
656.742	47388.78
657.094	47417.48
657.445	47681.88
657.796	47734.08
658.147	47719.17
658.498	47765.72
658.849	47831.48
659.2	47774.53
659.551	47732.95
659.902	47839.39
660.253	47762.56
660.604	47792.16
660.955	47522.56
661.306	47486.18
661.656	47563.01
662.007	47400.76
662.358	47241.22
662.708	47248.9
663.059	47227.88
663.409	47034.67
663.76	47174.1
664.11	46984.73
664.461	46831.73
664.811	46710.38
665.161	46717.39
665.511	46653.43
665.862	46755.8
666.212	46878.74
666.562	46897.72
666.912	46925.74
667.262	46798.74
667.612	46918.51
667.962	46885.52
668.312	46982.92
668.662	47212.97
669.011	47138.17
669.361	47075.57
669.711	47203.7
670.06	47192.18
670.41	47159.64
670.76	47056.81
671.109	47269.01
671.459	47264.27
671.808	47198.05
672.157	47370.7
672.507	47020.43
672.856	47118.73
673.205	47182.01
673.554	47100.2
673.904	46876.71
674.253	47005.74
674.602	46907.89
674.951	46187.46
675.3	45861.14
675.649	46441.01
675.998	46325.99
676.346	46355.82
676.695	46305.87
677.044	46031.08
677.393	46012.77
677.741	46005.54
678.09	45842.61
678.438	45763.97
678.787	45900.91
679.135	45922.83
679.484	45529.17
679.832	45807.35
680.181	45519.68
680.529	45750.18
680.877	45714.48
681.225	45733.91
681.573	45926
681.922	45783.85
682.27	45655.72
682.618	45932.55
682.966	45802.16
683.314	45891.87
683.661	45831.08
684.009	45522.39
684.357	45664.99
684.705	45621.82
685.053	45603.52
685.4	45594.25
685.748	45280.36
686.095	45264.77
686.443	44997.21
686.79	45059.13
687.138	45001.73
687.485	44798.12
687.832	44656.65
688.18	44606.93
688.527	44207.17
688.874	44160.39
689.221	43995.88
689.568	43831.59
689.915	43680.86
690.262	43665.26
690.609	43477.7
690.956	43286.52
691.303	43280.64
691.65	43083.36
691.997	43082.45
692.344	42647.21
692.69	42859.41
693.037	42714.33
693.383	42501.91
693.73	42553.43
694.077	42445.64
694.423	42550.72
694.769	42346.2
695.116	42375.35
695.462	42598.63
695.808	42376.71
696.155	42407.9
696.501	42146.43
696.847	42305.53
697.193	41940.79
697.539	42128.36
697.885	41826.22
698.231	41905.54
698.577	41755.26
698.923	41720.68
699.269	41554.59
699.614	41299.22
699.96	41235.5
700.306	41147.82
700.651	40986.01
700.997	40852.68
701.342	40712.8
701.688	40393.03
702.033	40128.41
702.379	40061.29
702.724	39946.04
703.069	40056.55
703.415	39391.93
703.76	39356.45
704.105	39208.43
704.45	39127.53
704.795	38892.96
705.14	38780.2
705.485	38778.16
705.83	38711.04
706.175	38790.36
706.52	38591.95
706.865	38473.54
707.209	38372.52
707.554	38417.49
707.899	38495.46
708.243	38449.81
708.588	38427.66
708.932	38158.52
709.277	38212.07
709.621	38371.39
709.966	38179.76
710.31	38456.59
710.654	38093.21
710.998	38313.77
711.342	38322.13
711.687	38206.88
712.031	37990.61
712.375	37802.82
712.719	37981.35
713.063	37809.37
713.407	37957.84
713.75	37552.43
714.094	37607.34
714.438	37349.05
714.782	37254.13
715.125	37011.2
715.469	36993.8
715.812	36689.85
716.156	36543.19
716.499	36481.72
716.843	36473.36
717.186	36243.09
717.53	36293.93
717.873	36207.16
718.216	35793.38
718.559	35723.78
718.902	35435.88
719.246	35728.75
719.589	35557.23
719.932	35552.26
720.275	35437.01
720.617	35471.36
720.96	35353.84
721.303	35472.26
721.646	35333.51
721.989	35351.13
722.331	35592.48
722.674	35596.1
723.016	35641.75
723.359	35603.1
723.701	35656.89
724.044	35521.52
724.386	35372.83
724.729	35660.28
725.071	35575.53
725.413	35566.27
725.755	35667.06
726.097	35462.99
726.439	35259.61
726.782	35211.93
727.124	35329.21
727.465	35139.39
727.807	35122.21
728.149	35191.14
728.491	34932.61
728.833	34979.62
729.175	34883.8
729.516	34734.2
729.858	34643.81
730.199	34684.03
730.541	34477.94
730.882	34465.05
731.224	34483.13
731.565	34186.87
731.906	34199.3
732.248	34252.18
732.589	34041.11
732.93	33853.32
733.271	33881.79
733.612	33846.09
733.953	33951.62
734.294	33851.96
734.635	33701.46
734.976	33719.54
735.317	33726.09
735.658	33805.18
735.999	33973.32
736.339	33924.05
736.68	34016.03
737.021	34023.71
737.361	33881.79
737.702	34058.06
738.042	34118.62
738.383	34049.7
738.723	34206.08
739.063	34244.27
739.404	34265.06
739.744	34310.26
740.084	34202.01
740.424	34359.29
740.764	34341.67
741.104	34434.32
741.444	34197.04
741.784	34105.97
742.124	34335.57
742.464	34226.87
742.804	34090.37
743.143	34129.7
743.483	34011.28
743.823	33849.7
744.162	33859.87
744.502	33901.91
744.841	33693.55
745.181	33872.75
745.52	33587.56
745.86	33654.68
746.199	33528.13
746.538	33504.85
746.877	33475.7
747.216	33435.93
747.556	33485.19
747.895	33442.26
748.234	33217.63
748.573	33210.17
748.911	33261.7
749.25	33249.27
749.589	33138.54
749.928	33126.11
750.267	33295.37
750.605	33241.13
750.944	33240.45
751.283	33153
751.621	33282.94
751.96	33133.79
752.298	33314.35
752.636	33416.04
752.975	33361.81
753.313	33453.33
753.651	33560.22
753.989	33335.37
754.327	33595.7
754.666	33537.85
755.004	33737.84
755.342	33714.57
755.679	33721.34
756.017	33649.71
756.355	33718.86
756.693	33574.46
757.031	33740.1
757.368	33633.21
757.706	33634.57
758.044	33518.41
758.381	33605.19
758.719	33571.74
759.056	33663.27
759.394	33473.67
759.731	33337.63
760.068	33335.59
760.405	33192.77
760.743	33048.59
761.08	33215.14
761.417	32935.15
761.754	32999.56
762.091	32721.82
762.428	32656.29
762.765	32708.49
763.102	32703.97
763.438	32582.39
763.775	32327.71
764.112	32318.44
764.449	32396.63
764.785	32255.85
765.122	32199.13
765.458	32019.92
765.795	32022.41
766.131	32153.02
766.467	32144.66
766.804	31933.82
767.14	31884.11
767.476	31845.69
767.812	31902.41
768.148	31897.89
768.485	31776.31
768.821	31619.25
769.157	31664.68
769.492	31587.39
769.828	31680.27
770.164	31430.78
770.5	31484.79
770.836	31619.03
771.171	31379.03
771.507	31334.52
771.842	31251.81
772.178	31254.07
772.513	31258.13
772.849	31134.97
773.184	30927.07
773.519	30998.7
773.855	30729.79
774.19	30720.29
774.525	30505.61
774.86	30543.8
775.195	30515.33
775.53	30411.83
775.865	30290.25
776.2	30028.11
776.535	29819.07
776.87	29799.19
777.205	29692.07
777.539	29542.7
777.874	29539.31
778.209	29318.07
778.543	29206.44
778.878	29038.3
779.212	29007.57
779.547	28832.21
779.881	28930.51
780.215	28594.02
780.55	28621.14
780.884	28408.94
781.218	28338.66
781.552	28486.45
781.886	28245.78
782.22	28030.42
782.554	28007.37
782.888	27794.95
783.222	27734.61
783.556	27603.09
783.889	27467.27
784.223	27392.25
784.557	27436.09
784.89	27366.94
785.224	27339.14
785.557	27107.96
785.891	27036.77
786.224	27056.44
786.558	27125.81
786.891	26861.86
787.224	26672.72
787.557	26690.57
787.891	26780.96
788.224	26695.99
788.557	26756.1
788.89	26625.49
789.223	26511.14
789.556	26463.68
789.888	26396.79
790.221	26273.18
790.554	26209.9
790.887	26100.08
791.219	26102.56
791.552	25964.49
791.884	25788.67
792.217	25663.25
792.549	25619.64
792.882	25423.26
793.214	25392.75
793.546	25377.84
793.879	25237.73
794.211	25180.55
794.543	25200.89
794.875	24884.06
795.207	25043.61
795.539	24700.79
795.871	24785.99
796.203	24369.73
796.535	24331.31
796.867	24266.23
797.198	24150.98
797.53	24145.33
797.862	23993.01
798.193	24072.11
798.525	23758.9
798.856	23906.01
799.188	23550.31
799.519	23628.95
799.85	23399.81
800.182	23525.23
800.513	23519.81
800.844	23310.32
801.175	23366.59
801.506	23377.89
801.837	23151.91
802.168	23140.61
802.499	23053.6
802.83	23037.56
803.161	22933.38
803.491	22959.59
803.822	22982.42
804.153	22875.98
804.483	22639.6
804.814	22678.7
805.145	22651.13
805.475	22715.31
805.805	22590.34
806.136	22654.29
806.466	22642.54
806.796	22553.95
807.126	22319.16
807.457	22346.05
807.787	22466.27
808.117	22156.9
808.447	22187.18
808.777	22278.48
809.107	22063.12
809.436	22138.37
809.766	22088.88
810.096	21934.08
810.426	21965.5
810.755	21952.16
811.085	21839.17
811.414	21633.53
811.744	21529.12
812.073	21516.47
812.403	21433.08
812.732	21345.4
813.061	21376.58
813.39	21275.12
813.719	21163.03
814.049	21204.84
814.378	21119.87
814.707	20994
815.036	20859.76
815.365	20839.42
815.693	20592.88
816.022	20754.68
816.351	20608.7
816.68	20440.34
817.008	20540.9
817.337	20359.66
817.665	20270.63
817.994	20422.94
818.322	20400.11
818.651	20215.03
818.979	20179.55
819.307	20248.7
819.636	20153.57
819.964	20058.65
820.292	20118.76
820.62	20128.26
820.948	20033.8
821.276	20132.1
821.604	20105.21
821.932	20079.67
822.259	20071.31
822.587	20008.94
822.915	19989.95
823.243	20224.98
823.57	19979.11
823.898	20143.62
824.225	20073.79
824.553	20031.31
824.88	20189.72
825.207	20189.05
825.535	20162.15
825.862	20112.21
826.189	20111.99
826.516	20182.27
826.843	20309.72
827.17	20253.9
827.497	20205.09
827.824	20181.36
828.151	20340
828.478	20274.24
828.805	20391.53
829.131	20282.38
829.458	20173.9
829.785	20146.11
830.111	20135.94
830.438	20166.45
830.764	20146.56
831.09	20230.17
831.417	20049.16
831.743	20116.05
832.069	20175.94
832.395	20025.43
832.722	20173
833.048	20015.72
833.374	19972.78
833.7	19950.63
834.026	19889.84
834.351	19940.01
834.677	19858.88
835.003	19868.6
835.329	19922.61
835.654	19841.03
835.98	19683.75
836.306	19642.39
836.631	19585.22
836.956	19663.86
837.282	19601.94
837.607	19406.92
837.932	19339.35
838.258	19352.68
838.583	19213.93
838.908	19219.81
839.233	19318.11
839.558	19151.56
839.883	19118.34
840.208	19023.65
840.533	19047.61
840.858	19099.81
841.182	19156.08
841.507	19177.32
841.832	19028.85
842.156	19038.34
842.481	19135.29
842.805	19062.07
843.13	18930.32
843.454	18938.91
843.778	18898.68
844.103	18839.02
844.427	18771.46
844.751	18706.82
845.075	18669.99
845.399	18631.35
845.723	18639.26
846.047	18614.62
846.371	18420.73
846.695	18432.26
847.019	18297.34
847.343	18273.84
847.666	18134.86
847.99	18058.03
848.313	18084.24
848.637	18001.98
848.96	17989.78
849.284	17955.21
849.607	17828.88
849.931	17787.98
850.254	17611.94
850.577	17573.75
850.9	17384.37
851.223	17442.45
851.546	17274.55
851.869	17220.31
852.192	17278.84
852.515	17205.62
852.838	17090.6
853.161	17077.94
853.483	16976.93
853.806	16882.92
854.129	16839.98
854.451	16789.36
854.774	16701.23
855.096	16565.41
855.419	16603.38
855.741	16508.24
856.063	16348.69
856.385	16300.56
856.708	16201.35
857.03	16195.25
857.352	16246.78
857.674	16141.47
857.996	16082.94
858.318	15998.87
858.64	15965.88
858.961	15901.7
859.283	15916.62
859.605	15847.69
859.926	15787.35
860.248	15686.34
860.57	15689.73
860.891	15746.9
861.212	15519.56
861.534	15555.04
861.855	15603.86
862.176	15565.66
862.498	15548.04
862.819	15481.82
863.14	15402.05
863.461	15437.98
863.782	15373.8
864.103	15357.31
864.424	15438.44
864.745	15438.21
865.065	15339.68
865.386	15409.28
865.707	15262.4
866.027	15360.25
866.348	15272.56
866.668	15219.46
866.989	15181.72
867.309	15092.46
867.63	15160.7
867.95	15204.09
868.27	15132.91
868.59	15139.23
868.91	15073.02
869.23	15101.72
869.55	15039.12
869.87	15027.6
870.19	15098.11
870.51	15067.6
870.83	15087.26
871.15	14928.17
871.469	14983.76
871.789	14956.87
872.109	14800.26
872.428	14841.62
872.748	14846.36
873.067	14767.04
873.386	14755.74
873.706	14796.19
874.025	14659.7
874.344	14574.05
874.663	14648.4
874.982	14689.3
875.301	14594.39
875.62	14478.69
875.939	14497.44
876.258	14463.55
876.577	14388.75
876.896	14353.94
877.214	14252.03
877.533	14277.79
877.852	14205.47
878.17	14240.73
878.489	14200.28
878.807	14162.31
879.125	14141.75
879.444	14049.77
879.762	14007.74
880.08	14029.89
880.398	13988.08
880.716	13994.41
881.034	13919.15
881.352	13936.55
881.67	13837.57
881.988	13888.42
882.306	13795.99
882.624	13773.17
882.941	13649.33
883.259	13684.58
883.577	13673.06
883.894	13697.69
884.212	13587.19
884.529	13578.37
884.846	13606.39
885.164	13537.47
885.481	13541.31
885.798	13572.5
886.115	13463.35
886.432	13476.91
886.75	13564.13
887.067	13423.8
887.383	13421.09
887.7	13377.25
888.017	13390.13
888.334	13467.87
888.651	13300.19
888.967	13316.01
889.284	13226.97
889.6	13234.43
889.917	13066.52
890.233	13212.73
890.55	13214.99
890.866	13256.35
891.182	13073.53
891.498	13053.19
891.815	13147.42
892.131	13055.67
892.447	13062
892.763	12966.64
893.079	12833.31
893.395	12852.52
893.71	12855.23
894.026	12845.28
894.342	12785.17
894.657	12661.33
894.973	12655.46
895.289	12717.83
895.604	12522.13
895.92	12455.46
896.235	12404.39
896.55	12470.6
896.865	12400.32
897.181	12314.68
897.496	12326.2
897.811	12278.29
898.126	12106.09
898.441	12147.67
898.756	12044.63
899.071	11991.52
899.386	12040.79
899.7	11845.76
900.015	11857.97
900.33	11800.34
900.644	11681.47
900.959	11736.16
901.273	11744.97
901.588	11669.04
901.902	11571.42
902.216	11495.04
902.531	11505.88
902.845	11465.43
903.159	11376.85
903.473	11301.6
903.787	11244.65
904.101	11152.22
904.415	11222.73
904.729	11110.87
905.042	11070.42
905.356	11136.63
905.67	11011.89
905.984	11051.43
906.297	10987.71
906.611	10904.77
906.924	10909.06
907.237	10831.55
907.551	10816.41
907.864	10797.88
908.177	10768.95
908.491	10781.16
908.804	10713.81
909.117	10634.49
909.43	10634.04
909.743	10637.88
910.056	10557.89
910.368	10508.4
910.681	10456.19
910.994	10421.17
911.307	10411
911.619	10398.57
911.932	10413.48
912.244	10320.15
912.557	10312.69
912.869	10235.86
913.181	10209.87
913.494	10211
913.806	10194.73
914.118	10173.26
914.43	10095.07
914.742	10100.27
915.054	10031.35
915.366	9994.96
915.678	9957.45
915.99	9879.49
916.302	9805.36
916.613	9861.63
916.925	9786.83
917.236	9778.92
917.548	9644.69
917.859	9710.9
918.171	9578.48
918.482	9639.94
918.794	9421.42
919.105	9441.76
919.416	9357.69
919.727	9334.64
920.038	9354.08
920.349	9332.38
920.66	9217.13
920.971	9230.24
921.282	9125.16
921.593	9104.59
921.903	9006.06
922.214	9052.39
922.525	8974.43
922.835	8921.09
923.146	8817.82
923.456	8813.98
923.767	8734.43
924.077	8727.88
924.387	8686.52
924.697	8608.78
925.008	8640.65
925.318	8613.53
925.628	8575.57
925.938	8454.44
926.248	8350.94
926.558	8399.98
926.867	8366.08
927.177	8374.67
927.487	8297.38
927.796	8166.76
928.106	8210.83
928.416	8128.8
928.725	8109.82
929.034	8056.03
929.344	8079.99
929.653	8010.38
929.962	7964.28
930.271	7945.3
930.581	7954.34
930.89	7919.54
931.199	7934.45
931.508	7891.06
931.817	7940.78
932.125	7847
932.434	7796.83
932.743	7742.82
933.051	7724.74
933.36	7717.73
933.669	7682.48
933.977	7669.83
934.286	7655.14
934.594	7641.58
934.902	7547.34
935.21	7566.55
935.519	7613.1
935.827	7537.4
936.135	7508.25
936.443	7452.21
936.751	7423.28
937.059	7474.8
937.367	7389.83
937.674	7359.55
937.982	7378.99
938.29	7336.5
938.597	7326.56
938.905	7194.81
939.213	7196.17
939.52	7200.46
939.827	7217.41
940.135	7147.58
940.442	7098.54
940.749	7084.08
941.056	7088.6
941.363	6926.34
941.67	6976.29
941.977	6980.81
942.284	6889.51
942.591	6877.31
942.898	6811.32
943.205	6781.94
943.511	6738.33
943.818	6753.92
944.125	6678.44
944.431	6693.81
944.738	6560.48
945.044	6574.04
945.35	6516.18
945.657	6451.78
945.963	6481.16
946.269	6433.47
946.575	6427.6
946.881	6393.48
947.187	6371.78
947.493	6322.29
947.799	6319.81
948.105	6284.33
948.41	6206.36
948.716	6239.36
949.022	6140.83
949.327	6140.15
949.633	6080.04
949.938	6040.26
950.244	6077.55
950.549	6034.84
950.854	5944.9
951.16	5946.93
951.465	5951.23
951.77	5865.35
952.075	5816.09
952.38	5824
952.685	5787.84
952.99	5757.79
953.294	5781.97
953.599	5732.48
953.904	5708.3
954.209	5699.93
954.513	5726.15
954.818	5668.98
955.122	5612.48
955.426	5657.45
955.731	5573.61
956.035	5544.23
956.339	5540.17
956.643	5543.33
956.948	5533.84
957.252	5498.81
957.556	5528.19
957.86	5490.67
958.163	5450.45
958.467	5459.94
958.771	5446.16
959.075	5441.18
959.378	5386.95
959.682	5322.54
959.985	5272.83
960.289	5342.2
960.592	5316.89
960.896	5262.21
961.199	5298.14
961.502	5284.13
961.805	5247.29
962.108	5245.71
962.411	5198.71
962.714	5181.53
963.017	5168.65
963.32	5164.36
963.623	5171.14
963.926	5160.97
964.228	5085.49
964.531	5019.5
964.833	5004.36
965.136	5063.12
965.438	5022.21
965.741	5015.43
966.043	4989.22
966.345	4939.95
966.648	4888.43
966.95	4856.12
967.252	4883.91
967.554	4836.91
967.856	4829.68
968.158	4749.68
968.46	4707.87
968.761	4724.59
969.063	4683.92
969.365	4696.8
969.666	4671.94
969.968	4627.42
970.269	4560.98
970.571	4627.42
970.872	4552.62
971.174	4543.58
971.475	4507.88
971.776	4495.22
972.077	4496.35
972.378	4473.98
972.679	4443.24
972.98	4396.47
973.281	4341.78
973.582	4327.54
973.883	4327.77
974.183	4297.03
974.484	4254.32
974.785	4266.3
975.085	4210.03
975.386	4174.33
975.686	4170.71
975.986	4159.86
976.287	4150.82
976.587	4117.6
976.887	4124.61
977.187	4046.42
977.487	4106.08
977.787	4030.15
978.087	3977.27
978.387	4026.76
978.687	4003.03
978.987	3949.02
979.286	3962.58
979.586	3945.4
979.885	3903.15
980.185	3876.71
980.484	3912.41
980.784	3938.63
981.083	3826.54
981.382	3852.3
981.682	3800.55
981.981	3825.18
982.28	3789.25
982.579	3802.13
982.878	3794.45
983.177	3772.53
983.475	3777.73
983.774	3741.57
984.073	3719.2
984.372	3696.37
984.67	3713.09
984.969	3729.59
985.267	3665.19
985.566	3653.66
985.864	3644.4
986.162	3674
986.461	3663.15
986.759	3605.98
987.057	3619.99
987.355	3604.85
987.653	3572.99
987.951	3555.81
988.249	3554.23
988.547	3527.34
988.844	3519.43
989.142	3504.51
989.44	3500.67
989.737	3483.5
990.035	3486.66
990.332	3454.12
990.63	3459.54
990.927	3419.32
991.224	3407.57
991.521	3392.2
991.819	3380
992.116	3360.34
992.413	3365.31
992.71	3310.17
993.006	3285.08
993.303	3273.33
993.6	3245.08
993.897	3246.21
994.193	3239.43
994.49	3170.74
994.787	3168.48
995.083	3183.84
995.379	3171.87
995.676	3152.66
995.972	3127.8
996.268	3131.19
996.565	3087.8
996.861	3083.96
997.157	3086.22
997.453	3090.74
997.749	3026.56
998.044	2990.4
998.34	2972.32
998.636	2990.63
998.932	2955.83
999.227	2925.09
999.523	2886.22
999.818	2893
1000.114	2862.5
1000.409	2837.64
1000.704	2819.56
1001	2774.14
1001.295	2811.42
1001.59	2751.31
1001.885	2781.82
1002.18	2727.36
1002.475	2692.1
1002.77	2718.32
1003.065	2720.35
1003.359	2693.01
1003.654	2690.52
1003.949	2651.65
1004.243	2635.16
1004.538	2622.05
1004.832	2618.43
1005.127	2607.36
1005.421	2555.38
1005.715	2560.36
1006.009	2571.88
1006.304	2533.01
1006.598	2553.58
1006.892	2494.37
1007.186	2480.81
1007.48	2502.5
1007.773	2464.77
1008.067	2433.58
1008.361	2420.93
1008.655	2424.99
1008.948	2403.3
1009.242	2385.9
1009.535	2399.46
1009.829	2361.27
1010.122	2348.38
1010.415	2363.53
1010.708	2343.64
1011.001	2325.33
1011.295	2318.1
1011.588	2302.74
1011.881	2313.58
1012.173	2298.67
1012.466	2282.85
1012.759	2266.58
1013.052	2255.05
1013.344	2231.78
1013.637	2215.05
1013.93	2232.91
1014.222	2189.29
1014.514	2177.09
1014.807	2192
1015.099	2162.85
1015.391	2195.39
1015.683	2157.2
1015.976	2130.09
1016.268	2138.9
1016.56	2125.79
1016.851	2112.01
1017.143	2093.25
1017.435	2080.14
1017.727	2060.03
1018.018	2066.81
1018.31	2050.77
1018.602	2014.16
1018.893	2013.7
1019.185	2027.72
1019.476	1989.98
1019.767	1998.79
1020.058	1961.73
1020.35	1954.5
1020.641	1930.54
1020.932	1920.15
1021.223	1946.14
1021.514	1916.76
1021.804	1889.64
1022.095	1870.43
1022.386	1864.78
1022.677	1855.97
1022.967	1840.83
1023.258	1845.12
1023.548	1805.8
1023.839	1811.68
1024.129	1785.46
1024.419	1766.25
1024.709	1750.21
1025	1731.9
1025.29	1728.29
1025.58	1723.09
1025.87	1693.94
1026.16	1697.78
1026.449	1662.98
1026.739	1668.18
1027.029	1646.71
1027.319	1645.35
1027.608	1619.82
1027.898	1609.87
1028.187	1638.35
1028.477	1593.15
1028.766	1575.3
1029.055	1570.55
1029.344	1556.99
1029.634	1509.54
1029.923	1545.02
1030.212	1533.04
1030.501	1496.2
1030.79	1485.13
1031.078	1464.57
1031.367	1447.17
1031.656	1454.62
1031.945	1446.49
1032.233	1442.87
1032.522	1444
1032.81	1421.18
1033.099	1433.83
1033.387	1409.88
1033.675	1428.41
1033.963	1407.17
1034.251	1361.74
1034.54	1350.44
1034.828	1360.61
1035.116	1345.93
1035.403	1345.7
1035.691	1338.02
1035.979	1321.52
1036.267	1321.97
1036.554	1303.67
1036.842	1317.45
1037.129	1294.4
1037.417	1282.65
1037.704	1264.57
1037.992	1263.67
1038.279	1262.54
1038.566	1245.59
1038.853	1245.59
1039.14	1245.59
