Data from blue_chair_FLMS001491_00055.txt Node
Date: Wed Feb 08 10:31:18 GMT 2017
User: dcchb
Spectrometer: FLMS00149
Trigger mode: 0
Integration Time (sec): 2.000000E-2
Scans to average: 10
Electric dark correction enabled: true
Nonlinearity correction enabled: false
Boxcar width: 0
XAxis mode: Wavelengths
Number of Pixels in Spectrum: 2048
>>>>>Begin Spectral Data<<<<<
341.393	-14.63
341.776	-14.63
342.16	-14.63
342.543	-38.36
342.927	-55.54
343.31	-71.35
343.693	-63.9
344.077	-55.31
344.46	-63.44
344.843	-45.37
345.226	-35.87
345.61	-35.42
345.993	-18.7
346.376	-5.82
346.759	3.45
347.142	28.98
347.525	38.25
347.908	52.94
348.291	85.48
348.674	67.85
349.057	118.25
349.44	120.05
349.823	147.62
350.206	158.7
350.588	169.32
350.971	202.76
351.354	200.96
351.737	225.36
352.119	222.65
352.502	247.96
352.884	261.97
353.267	254.51
353.65	273.04
354.032	261.29
354.414	294.74
354.797	280.95
355.179	317.34
355.562	299.48
355.944	314.4
356.326	310.78
356.709	315.98
357.091	304.91
357.473	322.99
357.855	315.3
358.238	310.78
358.62	328.41
359.002	325.47
359.384	333.61
359.766	315.3
360.148	303.78
360.53	323.66
360.912	307.39
361.294	315.53
361.676	318.92
362.057	310.78
362.439	307.17
362.821	306.04
363.203	296.32
363.584	297.9
363.966	299.94
364.348	308.75
364.729	308.52
365.111	280.95
365.493	307.85
365.874	281.63
366.256	290.44
366.637	282.99
367.019	299.26
367.4	287.73
367.781	281.41
368.163	291.57
368.544	282.08
368.925	281.18
369.306	277.34
369.688	288.86
370.069	289.09
370.45	294.96
370.831	276.89
371.212	290.44
371.593	279.82
371.974	297.68
372.355	285.47
372.736	321.18
373.117	299.48
373.498	290.22
373.879	283.89
374.26	272.82
374.641	261.29
375.021	311.01
375.402	299.71
375.783	293.38
376.163	289.99
376.544	288.86
376.925	335.64
377.305	284.57
377.686	285.02
378.066	297.9
378.447	280.5
378.827	293.83
379.208	308.07
379.588	296.55
379.968	295.87
380.349	297
380.729	291.57
381.109	291.35
381.489	304.23
381.87	307.62
382.25	286.83
382.63	282.99
383.01	281.18
383.39	288.86
383.77	310.78
384.15	312.82
384.53	306.72
384.91	315.08
385.29	314.4
385.67	309.2
386.049	303.1
386.429	299.03
386.809	296.55
387.189	301.74
387.568	317.56
387.948	346.04
388.328	327.51
388.707	323.44
389.087	325.02
389.466	319.6
389.846	318.69
390.225	316.66
390.605	320.95
390.984	315.53
391.363	309.43
391.743	320.73
392.122	306.72
392.501	327.28
392.881	327.05
393.26	331.57
393.639	327.51
394.018	313.49
394.397	324.79
394.776	328.64
395.155	353.04
395.534	328.18
395.913	331.35
396.292	334.28
396.671	320.5
397.05	334.06
397.429	323.44
397.808	320.27
398.186	343.78
398.565	330.22
398.944	352.14
399.323	340.84
399.701	330.44
400.08	329.77
400.458	328.86
400.837	343.32
401.215	356.66
401.594	358.01
401.972	358.24
402.351	349.88
402.729	345.36
403.107	367.73
403.486	351.91
403.864	357.34
404.242	381.97
404.62	347.84
404.999	347.17
405.377	358.92
405.755	375.19
406.133	384
406.511	378.13
406.889	376.09
407.267	383.55
407.645	388.97
408.023	385.36
408.401	398.46
408.779	380.84
409.156	379.48
409.534	386.26
409.912	394.4
410.29	405.92
410.667	398.69
411.045	388.75
411.422	411.8
411.8	385.81
412.178	404.34
412.555	418.35
412.933	393.27
413.31	412.48
413.687	423.55
414.065	407.5
414.442	420.61
414.819	427.84
415.197	436.66
415.574	418.58
415.951	400.95
416.328	423.32
416.705	401.85
417.082	438.92
417.46	451.12
417.837	425.81
418.214	438.46
418.591	430.1
418.967	425.58
419.344	431.91
419.721	448.86
420.098	421.06
420.475	456.77
420.852	461.29
421.228	450.89
421.605	450.21
421.982	469.42
422.358	457.22
422.735	455.19
423.111	458.58
423.488	466.71
423.864	487.05
424.241	479.37
424.617	479.82
424.994	484.56
425.37	489.99
425.746	484.34
426.123	498.12
426.499	513.49
426.875	499.25
427.251	498.35
427.627	503.77
428.003	539.93
428.379	521.17
428.756	513.04
429.132	523.21
429.507	526.6
429.883	515.52
430.259	534.28
430.635	556.43
431.011	544.22
431.387	545.13
431.763	565.47
432.138	554.39
432.514	562.75
432.89	565.92
433.265	550.32
433.641	564.79
434.016	592.13
434.392	579.93
434.767	612.92
435.143	612.47
435.518	612.24
435.894	633.03
436.269	636.42
436.644	608.63
437.02	637.55
437.395	648.18
437.77	655.86
438.145	652.02
438.52	671.45
438.895	694.28
439.271	680.49
439.646	701.51
440.021	701.51
440.395	689.53
440.77	711.9
441.145	708.29
441.52	716.87
441.895	730.21
442.27	753.93
442.645	712.58
443.019	758.68
443.394	749.42
443.769	786.25
444.143	787.61
444.518	768.4
444.892	754.84
445.267	793.26
445.641	780.15
446.016	811.11
446.39	791.9
446.764	795.29
447.139	804.1
447.513	786.02
447.887	806.59
448.262	806.36
448.636	817.66
449.01	816.76
449.384	823.54
449.758	847.27
450.132	820.6
450.506	851.11
450.88	850.88
451.254	872.8
451.628	836.19
452.002	879.13
452.376	870.54
452.75	896.76
453.123	862.18
453.497	880.26
453.871	899.02
454.244	921.84
454.618	914.83
454.992	935.4
455.365	921.39
455.739	952.8
456.112	946.92
456.486	953.7
456.859	954.16
457.232	986.92
457.606	970.43
457.979	997.77
458.352	987.83
458.725	1001.16
459.099	1002.52
459.472	1028.5
459.845	994.83
460.218	1037.09
460.591	1052.23
460.964	1053.59
461.337	1042.51
461.71	1056.53
462.083	1074.38
462.456	1077.09
462.829	1097.2
463.201	1074.6
463.574	1084.77
463.947	1118.67
464.32	1135.62
464.692	1124.77
465.065	1151.66
465.438	1103.98
465.81	1138.11
466.183	1151.89
466.555	1178.33
466.928	1156.64
467.3	1144.66
467.672	1208.61
468.045	1187.82
468.417	1204.77
468.789	1193.47
469.161	1212.23
469.534	1235.73
469.906	1263.07
470.278	1247.03
470.65	1259.01
471.022	1290.42
471.394	1307.37
471.766	1332
472.138	1315.05
472.51	1345.56
472.882	1328.16
473.253	1325.22
473.625	1322.06
473.997	1409.51
474.369	1358.89
474.74	1371.55
475.112	1402.51
475.484	1415.61
475.855	1411.09
476.227	1439.57
476.598	1464.42
476.97	1458.78
477.341	1492.45
477.713	1491.32
478.084	1506.91
478.455	1526.34
478.827	1550.52
479.198	1570.86
479.569	1560.92
479.94	1602.95
480.311	1616.06
480.682	1638.66
481.053	1651.31
481.424	1628.71
481.795	1657.41
482.166	1679.11
482.537	1694.25
482.908	1696.96
483.279	1721.37
483.65	1728.6
484.021	1747.13
484.391	1711.2
484.762	1755.04
485.133	1776.51
485.503	1760.46
485.874	1805.88
486.244	1793.23
486.615	1823.29
486.985	1849.95
487.356	1869.61
487.726	1838.88
488.097	1866.67
488.467	1879.33
488.837	1889.72
489.207	1882.94
489.578	1892.89
489.948	1908.03
490.318	1890.4
490.688	1941.7
491.058	1923.4
491.428	1913
491.798	1947.12
492.168	1999.55
492.538	1958.2
492.908	1969.04
493.278	1997.29
493.648	1987.35
494.017	1988.03
494.387	1997.74
494.757	1969.27
495.126	1958.2
495.496	2027.12
495.866	2001.59
496.235	1993.68
496.605	1993
496.974	1990.29
497.344	2011.3
497.713	1997.29
498.082	2000.68
498.452	2030.96
498.821	1960.23
499.19	2004.52
499.559	1996.84
499.928	1999.1
500.298	1971.3
500.667	2044.3
501.036	1997.52
501.405	2014.47
501.774	1992.55
502.143	2028.93
502.512	2029.38
502.88	1985.54
503.249	2015.37
503.618	1979.21
503.987	2005.65
504.356	1985.32
504.724	2005.65
505.093	1985.54
505.462	1968.37
505.83	1999.33
506.199	1967.46
506.567	1986.22
506.936	1988.7
507.304	2008.82
507.672	1998.87
508.041	1939.44
508.409	1960
508.777	1957.07
509.145	1961.81
509.514	1946.9
509.882	1943.28
510.25	1953.23
510.618	1947.58
510.986	1929.72
511.354	1960.23
511.722	1932.21
512.09	1902.15
512.458	1913.9
512.826	1950.06
513.193	1927.92
513.561	1929.27
513.929	1915.03
514.297	1906
514.664	1920.68
515.032	1911.64
515.4	1905.77
515.767	1914.13
516.135	1901.48
516.502	1873.91
516.869	1911.64
517.237	1898.54
517.604	1862.61
517.972	1869.16
518.339	1873.45
518.706	1851.08
519.073	1873.91
519.44	1866
519.808	1877.07
520.175	1817.86
520.542	1844.3
520.909	1843.4
521.276	1799.78
521.643	1823.74
522.009	1828.48
522.376	1789.61
522.743	1816.96
523.11	1842.49
523.477	1813.57
523.843	1834.81
524.21	1821.7
524.577	1804.53
524.943	1772.44
525.31	1802.27
525.676	1809.27
526.043	1794.36
526.409	1815.38
526.776	1804.08
527.142	1788.71
527.508	1783.74
527.874	1785.09
528.241	1804.3
528.607	1774.47
528.973	1766.56
529.339	1748.71
529.705	1774.7
530.071	1769.95
530.437	1718.66
530.803	1721.14
531.169	1731.99
531.535	1774.02
531.901	1734.93
532.267	1722.05
532.632	1721.59
532.998	1720.24
533.364	1738.77
533.73	1717.3
534.095	1708.26
534.461	1715.72
534.826	1703.74
535.192	1693.35
535.557	1711.2
535.923	1696.74
536.288	1688.37
536.653	1688.37
537.019	1684.08
537.384	1685.44
537.749	1655.83
538.114	1641.82
538.479	1649.96
538.845	1644.98
539.21	1649.73
539.575	1642.27
539.94	1641.82
540.305	1626.68
540.67	1582.84
541.034	1615.16
541.399	1587.36
541.764	1618.77
542.129	1589.85
542.494	1608.6
542.858	1599.56
543.223	1610.86
543.587	1630.75
543.952	1590.3
544.316	1606.79
544.681	1583.52
545.045	1588.26
545.41	1547.36
545.774	1542.61
546.138	1553.69
546.503	1508.04
546.867	1538.55
547.231	1551.88
547.595	1538.55
547.959	1543.07
548.324	1523.18
548.688	1509.4
549.052	1528.6
549.416	1496.06
549.779	1516.63
550.143	1510.98
550.507	1495.61
550.871	1465.1
551.235	1479.57
551.599	1505.1
551.962	1492.67
552.326	1480.7
552.689	1506.68
553.053	1485.89
553.417	1498.1
553.78	1508.04
554.143	1457.42
554.507	1449.51
554.87	1479.34
555.234	1483.41
555.597	1467.36
555.96	1442.28
556.323	1450.64
556.686	1447.02
557.05	1432.34
557.413	1429.17
557.776	1419.23
558.139	1416.97
558.502	1417.42
558.865	1448.61
559.228	1452
559.59	1459.91
559.953	1403.41
560.316	1444.31
560.679	1447.48
561.041	1444.54
561.404	1442.5
561.767	1411.09
562.129	1404.31
562.492	1432.56
562.854	1414.03
563.217	1415.84
563.579	1401.38
563.941	1412.9
564.304	1450.19
564.666	1450.41
565.028	1449.51
565.39	1414.48
565.753	1422.17
566.115	1423.3
566.477	1434.6
566.839	1430.53
567.201	1428.95
567.563	1439.57
567.925	1441.37
568.287	1456.29
568.648	1433.47
569.01	1449.96
569.372	1479.34
569.734	1419.45
570.095	1440.02
570.457	1450.41
570.819	1419.45
571.18	1448.38
571.542	1442.28
571.903	1468.72
572.265	1461.26
572.626	1461.49
572.987	1470.3
573.349	1460.81
573.71	1463.29
574.071	1497.42
574.432	1473.24
574.794	1473.24
575.155	1462.39
575.516	1478.89
575.877	1481.15
576.238	1473.24
576.599	1496.29
576.96	1459.45
577.32	1476.63
577.681	1489.28
578.042	1505.1
578.403	1513.69
578.763	1492.45
579.124	1500.81
579.485	1505.1
579.845	1501.03
580.206	1519.34
580.566	1508.04
580.927	1491.77
581.287	1529.96
581.648	1499.23
582.008	1520.47
582.368	1511.2
582.728	1503.29
583.089	1510.75
583.449	1509.85
583.809	1498.55
584.169	1508.72
584.529	1539.23
584.889	1517.3
585.249	1522.5
585.609	1499.9
585.969	1512.33
586.329	1508.72
586.688	1507.36
587.048	1534.25
587.408	1497.87
587.768	1510.53
588.127	1530.86
588.487	1525.67
588.846	1522.5
589.206	1495.38
589.565	1504.42
589.925	1514.82
590.284	1531.54
590.643	1506.91
591.003	1500.81
591.362	1505.1
591.721	1513.01
592.08	1542.39
592.44	1534.48
592.799	1528.83
593.158	1518.89
593.517	1500.13
593.876	1514.14
594.235	1509.85
594.593	1528.38
594.952	1526.12
595.311	1529.06
595.67	1521.82
596.029	1523.41
596.387	1536.06
596.746	1522.95
597.104	1519.34
597.463	1519.56
597.822	1504.2
598.18	1507.81
598.538	1520.69
598.897	1514.59
599.255	1520.24
599.613	1508.04
599.972	1507.81
600.33	1496.97
600.688	1490.64
601.046	1516.4
601.404	1511.88
601.762	1522.5
602.12	1506.01
602.478	1538.32
602.836	1513.01
603.194	1503.07
603.552	1514.37
603.91	1517.76
604.268	1507.14
604.625	1494.93
604.983	1529.06
605.341	1540.13
605.698	1519.34
606.056	1553.69
606.413	1547.81
606.771	1525.89
607.128	1497.64
607.485	1507.36
607.843	1547.59
608.2	1505.78
608.557	1512.11
608.914	1532.67
609.272	1514.14
609.629	1529.73
609.986	1522.73
610.343	1515.27
610.7	1534.48
611.057	1557.76
611.414	1514.14
611.771	1512.11
612.127	1551.65
612.484	1536.74
612.841	1548.49
613.198	1557.08
613.554	1533.58
613.911	1526.57
614.267	1538.1
614.624	1556.85
614.98	1551.65
615.337	1528.83
615.693	1540.35
616.05	1548.49
616.406	1553.69
616.762	1554.37
617.118	1563.63
617.475	1544.42
617.831	1545.78
618.187	1546
618.543	1545.55
618.899	1550.52
619.255	1566.79
619.611	1538.32
619.967	1560.02
620.323	1564.31
620.678	1565.89
621.034	1573.35
621.39	1559.34
621.746	1539.68
622.101	1566.57
622.457	1577.64
622.812	1558.66
623.168	1543.74
623.523	1563.18
623.879	1583.29
624.234	1558.43
624.589	1576.51
624.945	1558.21
625.3	1559.56
625.655	1591.88
626.01	1582.84
626.365	1592.56
626.72	1573.12
627.075	1587.36
627.43	1585.55
627.785	1571.99
628.14	1568.6
628.495	1578.77
628.85	1547.81
629.205	1550.75
629.559	1575.16
629.914	1581.48
630.269	1588.94
630.623	1578.32
630.978	1553.24
631.332	1551.65
631.687	1599.34
632.041	1568.15
632.396	1574.03
632.75	1548.72
633.104	1584.87
633.459	1572.44
633.813	1560.47
634.167	1557.53
634.521	1540.58
634.875	1579.22
635.229	1577.19
635.583	1573.57
635.937	1579.45
636.291	1603.18
636.645	1554.59
636.999	1557.76
637.352	1546.23
637.706	1573.57
638.06	1527.02
638.413	1542.16
638.767	1560.47
639.121	1553.24
639.474	1562.28
639.828	1546.68
640.181	1550.98
640.534	1580.58
640.888	1555.27
641.241	1546.46
641.594	1510.98
641.947	1572.67
642.301	1564.54
642.654	1565.89
643.007	1574.48
643.36	1565.67
643.713	1588.49
644.066	1565.89
644.419	1560.24
644.771	1539
645.124	1555.27
645.477	1544.87
645.83	1551.2
646.182	1543.07
646.535	1526.34
646.888	1532.67
647.24	1543.74
647.593	1540.13
647.945	1524.08
648.298	1501.71
648.65	1531.32
649.002	1518.21
649.355	1530.86
649.707	1544.2
650.059	1526.8
650.411	1552.33
650.763	1542.61
651.115	1553.69
651.467	1550.3
651.819	1584.65
652.171	1599.11
652.523	1567.25
652.875	1548.72
653.227	1541.26
653.578	1556.17
653.93	1563.86
654.282	1562.05
654.633	1556.63
654.985	1589.39
655.337	1579
655.688	1560.69
656.039	1571.09
656.391	1556.4
656.742	1570.64
657.094	1561.37
657.445	1597.53
657.796	1593.23
658.147	1556.85
658.498	1576.74
658.849	1597.53
659.2	1588.94
659.551	1590.07
659.902	1592.56
660.253	1588.49
660.604	1550.07
660.955	1605.89
661.306	1584.42
661.656	1581.26
662.007	1597.75
662.358	1594.59
662.708	1569.05
663.059	1586.23
663.409	1579.68
663.76	1583.52
664.11	1569.73
664.461	1553.91
664.811	1598.88
665.161	1563.41
665.511	1589.62
665.862	1595.04
666.212	1609.51
666.562	1581.26
666.912	1587.81
667.262	1586.68
667.612	1573.35
667.962	1580.58
668.312	1593.91
668.662	1610.64
669.011	1571.09
669.361	1581.03
669.711	1580.13
670.06	1551.88
670.41	1568.38
670.76	1574.48
671.109	1580.58
671.459	1554.37
671.808	1560.02
672.157	1577.42
672.507	1554.37
672.856	1581.03
673.205	1565.67
673.554	1570.86
673.904	1560.69
674.253	1559.56
674.602	1569.73
674.951	1558.21
675.3	1550.98
675.649	1572.9
675.998	1533.58
676.346	1553.69
676.695	1563.41
677.044	1545.55
677.393	1577.19
677.741	1514.37
678.09	1539.9
678.438	1527.02
678.787	1528.38
679.135	1532.67
679.484	1542.16
679.832	1524.54
680.181	1510.98
680.529	1518.89
680.877	1523.18
681.225	1528.38
681.573	1536.29
681.922	1539.68
682.27	1516.63
682.618	1533.8
682.966	1520.47
683.314	1506.91
683.661	1504.42
684.009	1490.19
684.357	1505.1
684.705	1516.63
685.053	1497.87
685.4	1482.73
685.748	1494.03
686.095	1501.03
686.443	1487.02
686.79	1466.23
687.138	1464.65
687.485	1497.64
687.832	1486.12
688.18	1459.23
688.527	1476.18
688.874	1487.25
689.221	1470.98
689.568	1475.95
689.915	1469.85
690.262	1486.35
690.609	1472.79
690.956	1457.42
691.303	1465.33
691.65	1436.4
691.997	1443.18
692.344	1431.88
692.69	1428.72
693.037	1386.91
693.383	1427.36
693.73	1447.7
694.077	1428.95
694.423	1427.14
694.769	1419
695.116	1393.24
695.462	1402.51
695.808	1409.74
696.155	1423.52
696.501	1415.39
696.847	1370.87
697.193	1382.39
697.539	1383.3
697.885	1398.89
698.231	1383.97
698.577	1413.13
698.923	1385.1
699.269	1374.26
699.614	1372.9
699.96	1372.22
700.306	1369.06
700.651	1378.33
700.997	1363.18
701.342	1371.77
701.688	1358.66
702.033	1353.47
702.379	1358.89
702.724	1338.78
703.069	1386.01
703.415	1349.4
703.76	1359.57
704.105	1386.46
704.45	1358.66
704.795	1343.75
705.14	1341.94
705.485	1365.9
705.83	1338.55
706.175	1357.76
706.52	1357.99
706.865	1354.82
707.209	1368.16
707.554	1330.42
707.899	1345.33
708.243	1366.35
708.588	1348.72
708.932	1338.33
709.277	1351.21
709.621	1372.9
709.966	1356.18
710.31	1329.74
710.654	1369.51
710.998	1361.83
711.342	1363.64
711.687	1353.24
712.031	1364.77
712.375	1379.46
712.719	1343.98
713.063	1379
713.407	1385.1
713.75	1364.99
714.094	1367.93
714.438	1357.31
714.782	1366.8
715.125	1375.84
715.469	1377.2
715.812	1396.18
716.156	1398.21
716.499	1360.7
716.843	1392.79
717.186	1371.09
717.53	1357.99
717.873	1384.2
718.216	1384.65
718.559	1384.2
718.902	1366.8
719.246	1394.37
719.589	1406.35
719.932	1446.35
720.275	1397.31
720.617	1404.54
720.96	1409.06
721.303	1403.64
721.646	1411.32
721.989	1423.97
722.331	1427.82
722.674	1422.17
723.016	1446.8
723.359	1438.21
723.701	1440.24
724.044	1434.82
724.386	1466.91
724.729	1463.52
725.071	1437.76
725.413	1450.87
725.755	1451.77
726.097	1459
726.439	1489.06
726.782	1478.66
727.124	1466.68
727.465	1474.82
727.807	1473.24
728.149	1483.86
728.491	1463.75
728.833	1496.06
729.175	1519.11
729.516	1533.58
729.858	1542.84
730.199	1535.38
730.541	1522.5
730.882	1530.86
731.224	1548.04
731.565	1539.23
731.906	1557.3
732.248	1579
732.589	1564.54
732.93	1589.39
733.271	1586.91
733.612	1589.17
733.953	1602.05
734.294	1600.69
734.635	1622.16
734.976	1626
735.317	1640.69
735.658	1622.16
735.999	1630.52
736.339	1673.46
736.68	1644.31
737.021	1663.52
737.361	1691.09
737.702	1697.19
738.042	1671.65
738.383	1699.67
738.723	1742.38
739.063	1732.89
739.404	1763.4
739.744	1791.42
740.084	1806.11
740.424	1803.4
740.764	1795.94
741.104	1823.51
741.444	1847.69
741.784	1847.92
742.124	1859.89
742.464	1912.77
742.804	1935.6
743.143	1938.54
743.483	1938.54
743.823	1988.93
744.162	2004.52
744.502	2021.25
744.841	2026.67
745.181	2106.22
745.52	2078.65
745.86	2095.37
746.199	2145.08
746.538	2176.95
746.877	2207.46
747.216	2229.38
747.556	2281.58
747.895	2300.79
748.234	2304.18
748.573	2360.45
748.911	2410.39
749.25	2398.64
749.589	2455.81
749.928	2475.02
750.267	2535.13
750.605	2577.16
750.944	2606.99
751.283	2669.82
751.621	2737.16
751.96	2760.21
752.298	2805.63
752.636	2883.14
752.975	2916.14
753.313	2987.1
753.651	2997.04
753.989	3113.42
754.327	3176.47
754.666	3178.05
755.004	3256.24
755.342	3296.47
755.679	3358.84
756.017	3448.33
756.355	3540.08
756.693	3581.43
757.031	3693.07
757.368	3680.86
757.706	3813.74
758.044	3858.71
758.381	3914.53
758.719	4032.49
759.056	4046.5
759.394	4144.58
759.731	4203.56
760.068	4330.79
760.405	4405.36
760.743	4453.5
761.08	4555.87
761.417	4598.58
761.754	4662.98
762.091	4753.6
762.428	4784.11
762.765	4882.87
763.102	4988.85
763.438	5059.36
763.775	5128.51
764.112	5192.46
764.449	5329.86
764.785	5330.31
765.122	5419.58
765.458	5479.01
765.795	5581.38
766.131	5653.69
766.467	5685.1
766.804	5783.41
767.14	5839.68
767.476	5872.9
767.812	5956.06
768.148	6039.67
768.485	6078.09
768.821	6161.93
769.157	6224.3
769.492	6298.42
769.828	6377.97
770.164	6379.32
770.5	6464.75
770.836	6503.39
771.171	6513.56
771.507	6616.61
771.842	6602.59
772.178	6704.74
772.513	6761.23
772.849	6746.55
773.184	6834.91
773.519	6893.43
773.855	6932.76
774.19	6970.72
774.525	6994
774.86	7069.93
775.195	7137.04
775.53	7110.6
775.865	7160.55
776.2	7196.48
776.535	7181.11
776.87	7266.08
777.205	7312.86
777.539	7313.76
777.874	7352.18
778.209	7353.31
778.543	7440.76
778.878	7400.54
779.212	7423.36
779.547	7400.09
779.881	7500.88
780.215	7490.26
780.55	7588.56
780.884	7463.59
781.218	7509.46
781.552	7600.08
781.886	7494.32
782.22	7622.23
782.554	7615.68
782.888	7541.55
783.222	7585.62
783.556	7604.6
783.889	7622.45
784.223	7570.25
784.557	7612.29
784.89	7620.42
785.224	7644.38
785.557	7644.83
785.891	7675.79
786.224	7646.86
786.558	7648.67
786.891	7619.29
787.224	7653.19
787.557	7609.8
787.891	7681.21
788.224	7676.92
788.557	7697.26
788.89	7719.85
789.223	7715.11
789.556	7680.98
789.888	7672.4
790.221	7710.81
790.554	7724.15
790.887	7663.81
791.219	7701.55
791.552	7696.13
791.884	7622.45
792.217	7654.77
792.549	7623.81
792.882	7657.26
793.214	7600.53
793.546	7694.09
793.879	7621.78
794.211	7618.84
794.543	7627.43
794.875	7610.25
795.207	7634.21
795.539	7605.96
795.871	7661.55
796.203	7586.98
796.535	7581.1
796.867	7579.97
797.198	7576.35
797.53	7581.55
797.862	7517.82
798.193	7499.07
798.525	7535.9
798.856	7535.68
799.188	7462.69
799.519	7441.89
799.85	7442.57
800.182	7496.81
800.513	7470.14
800.844	7367.77
801.175	7476.24
801.506	7496.58
801.837	7395.34
802.168	7443.7
802.499	7395.57
802.83	7364.16
803.161	7355.57
803.491	7376.81
803.822	7372.07
804.153	7299.53
804.483	7362.8
804.814	7234.67
805.145	7271.5
805.475	7349.02
805.805	7262.69
806.136	7265.63
806.466	7312.18
806.796	7250.49
807.126	7270.37
807.457	7259.3
807.787	7252.52
808.117	7167.1
808.447	7216.36
808.777	7202.35
809.107	7196.7
809.436	7110.38
809.766	7143.15
810.096	7087.78
810.426	7189.92
810.755	7106.08
811.085	7105.18
811.414	7101.34
811.744	7076.48
812.073	7093.66
812.403	7083.26
812.732	7029.25
813.061	7051.62
813.39	7016.37
813.719	7061.34
814.049	7042.58
814.378	6983.15
814.707	6979.31
815.036	6943.38
815.365	6993.54
815.693	6898.41
816.022	6958.97
816.351	6910.84
816.68	6902.7
817.008	6941.79
817.337	6902.47
817.665	6815.7
817.994	6832.42
818.322	6830.84
818.651	6834.23
818.979	6867.45
819.307	6801.46
819.636	6858.63
819.964	6790.61
820.292	6822.93
820.62	6835.13
820.948	6773.66
821.276	6872.64
821.604	6804.62
821.932	6909.03
822.259	6876.94
822.587	6781.35
822.915	6783.15
823.243	6815.47
823.57	6858.63
823.898	6859.76
824.225	6822.93
824.553	6829.03
824.88	6846.66
825.207	6846.43
825.535	6814.11
825.862	6817.05
826.189	6764.4
826.516	6864.06
826.843	6872.19
827.17	6902.02
827.497	6866.09
827.824	6887.56
828.151	6901.34
828.478	6887.11
828.805	6922.13
829.131	6875.13
829.458	6867.45
829.785	6852.98
830.111	6875.13
830.438	6900.21
830.764	6872.19
831.09	6853.89
831.417	6826.32
831.743	6895.47
832.069	6899.76
832.395	6869.03
832.722	6895.24
833.048	6876.03
833.374	6846.66
833.7	6833.1
834.026	6876.71
834.351	6838.07
834.677	6855.7
835.003	6818.41
835.329	6816.83
835.654	6809.14
835.98	6770.73
836.306	6814.34
836.631	6758.07
836.956	6789.48
837.282	6806.21
837.607	6805.98
837.932	6850.72
838.258	6770.95
838.583	6765.75
838.908	6718.75
839.233	6725.98
839.558	6700.67
839.883	6686.66
840.208	6700.22
840.533	6681.69
840.858	6664.51
841.182	6651.41
841.507	6577.06
841.832	6653.44
842.156	6584.74
842.481	6636.27
842.805	6645.31
843.13	6628.36
843.454	6589.04
843.778	6582.93
844.103	6551.52
844.427	6529.6
844.751	6504.29
845.075	6476.5
845.399	6497.06
845.723	6465.88
846.047	6441.47
846.371	6443.5
846.695	6402.15
847.019	6347.46
847.343	6341.58
847.666	6323.05
847.99	6276.5
848.313	6281.02
848.637	6300.68
848.96	6267.69
849.284	6245.54
849.607	6181.14
849.931	6157.63
850.254	6132.1
850.577	6100.91
850.9	6052.33
851.223	6035.15
851.546	6036.73
851.869	6002.16
852.192	6043.29
852.515	5976.85
852.838	5953.8
853.161	5924.19
853.483	5925.1
853.806	5905.44
854.129	5892.33
854.451	5849.62
854.774	5873.35
855.096	5804.65
855.419	5802.84
855.741	5756.52
856.063	5742.96
856.385	5788.6
856.708	5757.42
857.03	5761.03
857.352	5777.08
857.674	5702.73
857.996	5663.18
858.318	5629.96
858.64	5586.35
858.961	5618.89
859.283	5628.84
859.605	5522.85
859.926	5586.35
860.248	5570.76
860.57	5569.4
860.891	5523.53
861.212	5474.94
861.534	5533.02
861.855	5450.76
862.176	5487.82
862.498	5534.15
862.819	5473.13
863.14	5481.27
863.461	5402.63
863.782	5447.14
864.103	5404.66
864.424	5388.16
864.745	5420.48
865.065	5399.01
865.386	5383.19
865.707	5357.88
866.027	5330.54
866.348	5325.79
866.668	5293.7
866.989	5355.4
867.309	5297.32
867.63	5335.06
867.95	5308.39
868.27	5279.01
868.59	5294.15
868.91	5279.47
869.23	5320.82
869.55	5255.29
869.87	5245.34
870.19	5163.54
870.51	5236.53
870.83	5261.61
871.15	5164.44
871.469	5199.47
871.789	5263.19
872.109	5189.3
872.428	5208.51
872.748	5125.57
873.067	5160.37
873.386	5179.13
873.706	5170.54
874.025	5160.15
874.344	5119.47
874.663	5115.63
874.982	5132.58
875.301	5086.7
875.62	5093.48
875.939	5059.81
876.258	5073.14
876.577	5086.93
876.896	5055.06
877.214	5009.64
877.533	5054.61
877.852	5019.59
878.17	5070.21
878.489	5021.39
878.807	5045.12
879.125	4957.67
879.444	5032.69
879.762	4988.63
880.08	4982.07
880.398	4987.04
880.716	4985.91
881.034	4979.13
881.352	4930.1
881.67	4881.06
881.988	4949.08
882.306	4920.83
882.624	4881.74
882.941	4869.53
883.259	4882.64
883.577	4858.46
883.894	4825.01
884.212	4836.31
884.529	4822.75
884.846	4794.28
885.164	4805.81
885.481	4787.05
885.798	4759.03
886.115	4765.58
886.432	4745.24
886.75	4757.9
887.067	4773.72
887.383	4728.07
887.7	4706.37
888.017	4665.02
888.334	4718.12
888.651	4634.96
888.967	4656.88
889.284	4633.83
889.6	4641.06
889.917	4603.78
890.233	4585.92
890.55	4583.21
890.866	4547.06
891.182	4572.37
891.498	4559.94
891.815	4543.67
892.131	4519.49
892.447	4512.48
892.763	4491.24
893.079	4496.66
893.395	4436.32
893.71	4444.46
894.026	4453.27
894.342	4435.19
894.657	4372.82
894.973	4378.92
895.289	4383.67
895.604	4391.81
895.92	4355.65
896.235	4298.47
896.55	4311.13
896.865	4297.12
897.181	4267.06
897.496	4248.53
897.811	4229.32
898.126	4226.84
898.441	4230.23
898.756	4256.44
899.071	4205.14
899.386	4185.26
899.7	4156.33
900.015	4102.77
900.33	4082.89
900.644	4128.54
900.959	4097.58
901.273	4066.62
901.588	4059.38
901.902	4046.73
902.216	4053.28
902.531	4043.79
902.845	4029.1
903.159	3972.16
903.473	3996.11
903.787	3945.94
904.101	3930.12
904.415	3880.41
904.729	3888.32
905.042	3874.76
905.356	3870.46
905.67	3871.59
905.984	3882.89
906.297	3859.16
906.611	3815.32
906.924	3804.48
907.237	3805.38
907.551	3771.48
907.864	3770.13
908.177	3726.96
908.491	3731.94
908.804	3693.74
909.117	3680.19
909.43	3682.45
909.743	3659.17
910.056	3607.42
910.368	3654.88
910.681	3645.16
910.994	3633.41
911.307	3570.13
911.619	3573.97
911.932	3562.67
912.244	3505.95
912.557	3547.53
912.869	3504.15
913.181	3472.06
913.494	3489.46
913.806	3451.49
914.118	3500.08
914.43	3424.15
914.742	3437.25
915.054	3417.59
915.366	3398.16
915.678	3420.53
915.99	3409.01
916.302	3366.52
916.613	3375.11
916.925	3347.77
917.236	3369.01
917.548	3336.47
917.859	3286.98
918.171	3305.51
918.482	3294.21
918.794	3249.46
919.105	3200.88
919.416	3253.53
919.727	3207.88
920.038	3204.49
920.349	3169.46
920.66	3173.08
920.971	3218.05
921.282	3143.7
921.593	3135.57
921.903	3137.38
922.214	3130.14
922.525	3114.1
922.835	3118.17
923.146	3080.2
923.456	3030.26
923.767	3037.94
924.077	3066.87
924.387	3054.67
924.697	3031.62
925.008	3031.16
925.318	3006.31
925.628	3004.27
925.938	3002.24
926.248	2955.46
926.558	2956.36
926.867	2934.22
927.177	2959.98
927.487	2933.76
927.796	2914.78
928.106	2876.37
928.416	2887.66
928.725	2867.55
929.034	2862.81
929.344	2867.1
929.653	2832.3
929.962	2845.86
930.271	2833.2
930.581	2784.39
930.89	2817.84
931.199	2785.52
931.508	2792.3
931.817	2798.18
932.125	2758.85
932.434	2774.45
932.743	2739.42
933.051	2733.77
933.36	2708.69
933.669	2679.99
933.977	2722.24
934.286	2701
934.594	2661.68
934.902	2657.16
935.21	2652.19
935.519	2648.8
935.827	2635.02
936.135	2618.07
936.443	2645.41
936.751	2625.75
937.059	2621
937.367	2573.55
937.674	2558.18
937.982	2572.42
938.29	2577.84
938.597	2573.77
938.905	2569.48
939.213	2515.47
939.52	2504.85
939.827	2497.39
940.135	2502.36
940.442	2507.34
940.749	2463.04
941.056	2439.31
941.363	2448.13
941.67	2451.97
941.977	2461.46
942.284	2401.58
942.591	2432.08
942.898	2458.07
943.205	2402.03
943.511	2369.94
943.818	2412.42
944.125	2365.64
944.431	2373.1
944.738	2369.03
945.044	2354.12
945.35	2322.93
945.657	2343.72
945.963	2301.01
946.269	2323.84
946.575	2307.57
946.881	2278.87
947.187	2288.58
947.493	2246.78
947.799	2265.99
948.105	2256.27
948.41	2275.02
948.716	2228.25
949.022	2212.88
949.327	2251.3
949.633	2184.18
949.938	2230.96
950.244	2215.37
950.549	2166.78
950.854	2164.75
951.16	2159.1
951.465	2190.28
951.77	2136.27
952.075	2143.28
952.38	2136.05
952.685	2143.95
952.99	2106.22
953.294	2104.41
953.599	2090.85
953.904	2088.14
954.209	2078.87
954.513	2046.78
954.818	2074.8
955.122	2053.56
955.426	2041.81
955.731	2018.53
956.035	2021.92
956.339	2037.74
956.643	2027.57
956.948	1988.93
957.252	2003.85
957.556	1998.42
957.86	1980.34
958.163	2026.67
958.467	1984.64
958.771	1961.13
959.075	1928.14
959.378	1950.29
959.682	1948.03
959.985	1966.56
960.289	1922.04
960.592	1943.51
960.896	1896.28
961.199	1902.61
961.502	1879.1
961.805	1870.29
962.108	1875.26
962.411	1856.96
962.714	1855.37
963.017	1840.01
963.32	1881.59
963.623	1839.1
963.926	1847.24
964.228	1823.51
964.531	1838.65
964.833	1866.45
965.136	1791.42
965.438	1805.88
965.741	1760.01
966.043	1808.82
966.345	1774.93
966.648	1789.84
966.95	1755.26
967.252	1758.2
967.554	1744.87
967.856	1715.27
968.158	1717.3
968.46	1733.57
968.761	1709.62
969.063	1708.03
969.365	1706.68
969.666	1692.67
969.968	1676.62
970.269	1712.1
970.571	1686.34
970.872	1673.01
971.174	1644.31
971.475	1654.02
971.776	1660.13
972.077	1658.09
972.378	1613.35
972.679	1622.39
972.98	1632.33
973.281	1616.29
973.582	1621.48
973.883	1629.39
974.183	1588.49
974.484	1610.64
974.785	1594.36
975.085	1584.2
975.386	1599.79
975.686	1597.08
975.986	1558.66
976.287	1549.62
976.587	1551.43
976.887	1562.5
977.187	1526.8
977.487	1518.66
977.787	1526.8
978.087	1532.45
978.387	1518.89
978.687	1515.27
978.987	1500.58
979.286	1481.37
979.586	1526.8
979.885	1509.4
980.185	1478.89
980.484	1489.51
980.784	1466.01
981.083	1472.56
981.382	1470.07
981.682	1466.46
981.981	1449.96
982.28	1433.24
982.579	1433.01
982.878	1442.73
983.177	1422.84
983.475	1433.47
983.774	1454.71
984.073	1436.63
984.372	1427.82
984.67	1387.36
984.969	1378.78
985.267	1374.26
985.566	1403.64
985.864	1350.08
986.162	1375.61
986.461	1384.65
986.759	1374.26
987.057	1318.21
987.355	1364.54
987.653	1341.94
987.951	1344.2
988.249	1298.1
988.547	1343.75
988.844	1329.97
989.142	1318.44
989.44	1299.91
989.737	1309.4
990.035	1269.18
990.332	1301.49
990.63	1307.37
990.927	1278.89
991.224	1276.86
991.521	1275.5
991.819	1279.8
992.116	1248.84
992.413	1246.8
992.71	1242.06
993.006	1251.1
993.303	1254.03
993.6	1227.59
993.897	1229.18
994.193	1196.18
994.49	1222.4
994.787	1200.02
995.083	1174.26
995.379	1207.93
995.676	1192.34
995.972	1198.22
996.268	1193.02
996.565	1184.21
996.861	1170.87
997.157	1187.6
997.453	1162.29
997.749	1153.25
998.044	1162.74
998.34	1158.9
998.636	1150.31
998.932	1124.32
999.227	1150.99
999.523	1117.77
999.818	1107.82
1000.114	1106.02
1000.409	1116.64
1000.704	1118.22
1001	1110.76
1001.295	1089.52
1001.59	1067.83
1001.885	1100.59
1002.18	1081.61
1002.475	1073.02
1002.77	1072.57
1003.065	1050.42
1003.359	1064.21
1003.654	1068.5
1003.949	1056.98
1004.243	1054.04
1004.538	1058.11
1004.832	1041.16
1005.127	1026.7
1005.421	1027.37
1005.715	1027.6
1006.009	1006.13
1006.304	1014.95
1006.598	996.87
1006.892	986.02
1007.186	1001.16
1007.48	990.99
1007.773	1000.26
1008.067	986.02
1008.361	986.02
1008.655	984.21
1008.948	990.54
1009.242	962.74
1009.535	970.88
1009.829	947.15
1010.122	930.65
1010.415	956.19
1010.708	922.29
1011.001	914.38
1011.295	936.08
1011.588	935.85
1011.881	895.85
1012.173	909.41
1012.466	908.28
1012.759	924.55
1013.052	906.7
1013.344	901.05
1013.637	911.44
1013.93	885.46
1014.222	897.43
1014.514	888.39
1014.807	878.23
1015.099	868.06
1015.391	876.42
1015.683	854.05
1015.976	865.8
1016.268	847.04
1016.56	823.54
1016.851	829.19
1017.143	847.49
1017.435	830.77
1017.727	842.75
1018.018	817.21
1018.31	828.06
1018.602	823.99
1018.893	815.4
1019.185	792.13
1019.476	823.99
1019.767	795.52
1020.058	801.39
1020.35	815.4
1020.641	798.23
1020.932	783.76
1021.223	794.61
1021.514	778.34
1021.804	773.6
1022.095	769.53
1022.386	781.5
1022.677	739.92
1022.967	761.39
1023.258	734.5
1023.548	759.36
1023.839	738.12
1024.129	770.66
1024.419	749.87
1024.709	743.99
1025	748.74
1025.29	718.68
1025.58	728.85
1025.87	722.3
1026.16	714.16
1026.449	714.84
1026.739	725.01
1027.029	720.94
1027.319	704.67
1027.608	746.25
1027.898	725.01
1028.187	687.72
1028.477	698.12
1028.766	695.63
1029.055	694.5
1029.344	678.91
1029.634	692.47
1029.923	678.91
1030.212	679.13
1030.501	670.77
1030.79	668.97
1031.078	655.41
1031.367	663.77
1031.656	656.76
1031.945	651.11
1032.233	660.6
1032.522	654.5
1032.81	650.89
1033.099	655.86
1033.387	651.34
1033.675	635.75
1033.963	664.45
1034.251	635.52
1034.54	623.54
1034.828	649.76
1035.116	623.32
1035.403	626.93
1035.691	607.27
1035.979	623.77
1036.267	610.44
1036.554	600.49
1036.842	593.94
1037.129	605.24
1037.417	598.23
1037.704	593.26
1037.992	588.97
1038.279	606.82
1038.566	585.35
1038.853	585.35
1039.14	585.35
