Data from blue_surface_keyboard_FLMS001491_011.txt Node
Date: Tue Feb 07 11:12:42 GMT 2017
User: dcchb
Spectrometer: FLMS00149
Trigger mode: 0
Integration Time (sec): 2.000000E-2
Scans to average: 10
Electric dark correction enabled: true
Nonlinearity correction enabled: false
Boxcar width: 0
XAxis mode: Wavelengths
Number of Pixels in Spectrum: 2048
>>>>>Begin Spectral Data<<<<<
341.393	8.21
341.776	8.21
342.16	8.21
342.543	-56.2
342.927	-64.79
343.31	-86.48
343.693	-86.71
344.077	-72.24
344.46	-53.49
344.843	-55.75
345.226	-66.59
345.61	-24.79
345.993	-3.09
346.376	7.98
346.759	12.95
347.142	25.38
347.525	60.41
347.908	69.67
348.291	82.1
348.674	79.39
349.057	111.25
349.44	101.76
349.823	143.57
350.206	172.04
350.588	172.5
350.971	201.2
351.354	205.71
351.737	217.69
352.119	209.33
352.502	234.64
352.884	263.79
353.267	268.99
353.65	265.37
354.032	268.99
354.414	299.27
354.797	291.36
355.179	299.72
355.562	283.68
355.944	299.05
356.326	297.92
356.709	321.42
357.091	309.44
357.473	318.48
357.855	318.71
358.238	303.11
358.62	309.22
359.002	305.6
359.384	311.93
359.766	342.66
360.148	300.4
360.53	286.39
360.912	308.99
361.294	290.01
361.676	304.02
362.057	316.67
362.439	284.81
362.821	303.11
363.203	309.67
363.584	296.33
363.966	292.04
364.348	276
364.729	311.7
365.111	269.44
365.493	290.01
365.874	291.14
366.256	299.95
366.637	290.46
367.019	276.22
367.4	279.16
367.781	286.16
368.163	297.24
368.544	287.52
368.925	276.22
369.306	303.79
369.688	286.39
370.069	287.75
370.45	282.78
370.831	282.1
371.212	285.49
371.593	273.51
371.974	283
372.355	274.87
372.736	286.16
373.117	290.01
373.498	270.12
373.879	265.6
374.26	274.41
374.641	294.3
375.021	261.08
375.402	296.79
375.783	311.7
376.163	278.48
376.544	273.51
376.925	283.9
377.305	292.72
377.686	304.7
378.066	292.49
378.447	286.16
378.827	314.19
379.208	299.27
379.588	280.97
379.968	282.1
380.349	294.07
380.729	305.15
381.109	290.91
381.489	280.29
381.87	303.79
382.25	301.53
382.63	313.28
383.01	304.24
383.39	304.02
383.77	303.34
384.15	315.54
384.53	309.22
384.91	291.14
385.29	313.73
385.67	299.27
386.049	297.24
386.429	313.51
386.809	315.99
387.189	301.31
387.568	303.57
387.948	306.5
388.328	304.02
388.707	315.09
389.087	322.77
389.466	311.02
389.846	296.11
390.225	297.69
390.605	298.37
390.984	318.48
391.363	308.54
391.743	306.5
392.122	328.42
392.501	304.92
392.881	338.14
393.26	324.81
393.639	327.52
394.018	296.79
394.397	314.64
394.776	324.58
395.155	332.49
395.534	326.16
395.913	313.96
396.292	340.63
396.671	326.16
397.05	327.29
397.429	308.54
397.808	312.83
398.186	347.41
398.565	328.2
398.944	343.79
399.323	334.53
399.701	337.46
400.08	342.89
400.458	334.3
400.837	333.4
401.215	330.68
401.594	344.69
401.972	344.69
402.351	347.18
402.729	342.21
403.107	346.28
403.486	339.72
403.864	343.11
404.242	355.77
404.62	339.72
404.999	354.19
405.377	347.18
405.755	347.86
406.133	359.38
406.511	351.7
406.889	339.95
407.267	347.63
407.645	349.89
408.023	367.97
408.401	345.6
408.779	347.18
409.156	350.57
409.534	353.73
409.912	352.38
410.29	343.79
410.667	359.84
411.045	366.16
411.422	366.16
411.8	373.85
412.178	379.04
412.555	366.39
412.933	354.64
413.31	371.59
413.687	369.55
414.065	398.48
414.442	355.32
414.819	390.79
415.197	377.91
415.574	387.18
415.951	386.73
416.328	373.17
416.705	363.9
417.082	395.77
417.46	389.66
417.837	385.37
418.214	367.97
418.591	397.12
418.967	381.08
419.344	382.43
419.721	404.58
420.098	402.09
420.475	383.79
420.852	389.66
421.228	376.11
421.605	405.03
421.982	389.89
422.358	410.68
422.735	411.59
423.111	414.3
423.488	402.32
423.864	410
424.241	397.12
424.617	399.16
424.994	417.23
425.37	413.39
425.746	427.63
426.123	423.11
426.499	419.95
426.875	407.74
427.251	396.44
427.627	407.52
428.003	414.52
428.379	424.01
428.756	432.83
429.132	440.51
429.507	436.67
429.883	426.05
430.259	442.54
430.635	436.22
431.011	446.61
431.387	423.79
431.763	452.04
432.138	445.71
432.514	429.21
432.89	445.48
433.265	445.03
433.641	465.82
434.016	496.55
434.392	463.56
434.767	461.08
435.143	478.93
435.518	474.41
435.894	473.73
436.269	459.49
436.644	478.02
437.02	492.49
437.395	475.99
437.77	468.98
438.145	491.13
438.52	489.55
438.895	502.88
439.271	474.63
439.646	481.41
440.021	492.49
440.395	499.27
440.77	497.46
441.145	506.72
441.52	522.54
441.895	511.47
442.27	519.6
442.645	526.38
443.019	514.86
443.394	520.51
443.769	532.71
444.143	516.44
444.518	516.89
444.892	533.62
445.267	519.83
445.641	520.73
446.016	514.18
446.39	547.17
446.764	528.19
447.139	533.16
447.513	525.25
447.887	515.54
448.262	536.78
448.636	545.14
449.01	525.71
449.384	575.87
449.758	548.3
450.132	565.71
450.506	553.28
450.88	551.92
451.254	540.17
451.628	551.24
452.002	540.4
452.376	568.64
452.75	559.83
453.123	562.54
453.497	580.39
453.871	555.54
454.244	577.46
454.618	565.03
454.992	565.48
455.365	573.84
455.739	576.78
456.112	586.5
456.486	584.24
456.859	591.02
457.232	604.35
457.606	618.36
457.979	606.83
458.352	612.03
458.725	621.3
459.099	604.57
459.472	613.39
459.845	612.94
460.218	638.7
460.591	609.55
460.964	619.94
461.337	619.49
461.71	632.6
462.083	650.9
462.456	649.77
462.829	653.84
463.201	657
463.574	642.54
463.947	676.44
464.32	680.73
464.692	666.04
465.065	666.27
465.438	695.65
465.81	692.03
466.183	681.41
466.555	699.49
466.928	705.14
467.3	730.22
467.672	718.02
468.045	711.92
468.417	715.53
468.789	722.31
469.161	727.74
469.534	729.99
469.906	743.33
470.278	735.87
470.65	737
471.022	735.64
471.394	758.92
471.766	759.6
472.138	773.61
472.51	782.87
472.882	789.43
473.253	780.16
473.625	793.95
473.997	802.76
474.369	814.96
474.74	790.56
475.112	834.62
475.484	802.08
475.855	831.91
476.227	822.42
476.598	837.11
476.97	885.92
477.341	865.36
477.713	904.68
478.084	878.69
478.455	909.2
478.827	867.84
479.198	920.05
479.569	933.15
479.94	943.55
480.311	918.69
480.682	935.41
481.053	952.14
481.424	938.35
481.795	977.67
482.166	956.43
482.537	988.75
482.908	1016.09
483.279	994.85
483.65	1019.7
484.021	1051.79
484.391	1026.26
484.762	1052.25
485.133	1054.05
485.503	1046.14
485.874	1054.05
486.244	1050.66
486.615	1073.71
486.985	1103.77
487.356	1082.53
487.726	1110.32
488.097	1129.53
488.467	1127.95
488.837	1131.57
489.207	1120.72
489.578	1158.01
489.948	1169.31
490.318	1148.51
490.688	1155.29
491.058	1141.51
491.428	1182.19
491.798	1189.19
492.168	1200.27
492.538	1199.59
492.908	1215.63
493.278	1194.39
493.648	1198.01
494.017	1225.58
494.387	1239.81
494.757	1266.7
495.126	1225.58
495.496	1238
495.866	1238.23
496.235	1263.54
496.605	1243.88
496.974	1277.55
497.344	1284.1
497.713	1261.05
498.082	1252.92
498.452	1244.78
498.821	1277.1
499.19	1293.6
499.559	1282.75
499.928	1283.43
500.298	1284.33
500.667	1332.46
501.036	1302.64
501.405	1306.02
501.774	1300.38
502.143	1278.91
502.512	1319.81
502.88	1326.82
503.249	1310.54
503.618	1288.85
503.987	1301.96
504.356	1341.28
504.724	1346.25
505.093	1318.68
505.462	1311.22
505.83	1311
506.199	1324.78
506.567	1347.61
506.936	1338.34
507.304	1337.21
507.672	1336.76
508.041	1353.48
508.409	1358.23
508.777	1353.48
509.145	1375.85
509.514	1353.48
509.882	1366.14
510.25	1369.07
510.618	1383.09
510.986	1365.01
511.354	1371.11
511.722	1391.67
512.09	1382.86
512.458	1379.7
512.826	1399.13
513.193	1384.67
513.561	1362.75
513.929	1412.69
514.297	1396.64
514.664	1430.09
515.032	1400.26
515.4	1431.45
515.767	1408.62
516.135	1416.53
516.502	1385.34
516.869	1423.54
517.237	1419.69
517.604	1393.03
517.972	1427.15
518.339	1461.05
518.706	1427.83
519.073	1426.93
519.44	1402.97
519.808	1429.41
520.175	1435.97
520.542	1458.34
520.909	1459.47
521.276	1418.11
521.643	1459.47
522.009	1457.43
522.376	1450.88
522.743	1455.63
523.11	1466.7
523.477	1446.13
523.843	1474.83
524.21	1454.72
524.577	1471.9
524.943	1467.38
525.31	1493.14
525.676	1508.51
526.043	1478.68
526.409	1486.59
526.776	1514.83
527.142	1478.9
527.508	1510.54
527.874	1483.42
528.241	1479.58
528.607	1520.03
528.973	1517.77
529.339	1501.05
529.705	1526.36
530.071	1505.12
530.437	1539.47
530.803	1547.6
531.169	1542.63
531.535	1510.09
531.901	1524.1
532.267	1524.1
532.632	1541.95
532.998	1538.11
533.364	1558.67
533.73	1520.26
534.095	1530.65
534.461	1533.59
534.826	1553.25
535.192	1526.36
535.557	1549.18
535.923	1541.27
536.288	1565.23
536.653	1543.76
537.019	1543.76
537.384	1543.08
537.749	1589.41
538.114	1570.42
538.479	1564.55
538.845	1565.45
539.21	1552.35
539.575	1569.07
539.94	1566.36
540.305	1587.15
540.67	1574.27
541.034	1554.61
541.399	1576.53
541.764	1579.92
542.129	1567.94
542.494	1567.04
542.858	1558.22
543.223	1578.79
543.587	1573.36
543.952	1566.13
544.316	1567.26
544.681	1560.93
545.045	1573.81
545.41	1583.53
545.774	1572.23
546.138	1589.41
546.503	1577.88
546.867	1562.74
547.231	1583.53
547.595	1570.42
547.959	1574.04
548.324	1576.75
548.688	1576.98
549.052	1612.46
549.416	1605.45
549.779	1581.95
550.143	1580.59
550.507	1596.19
550.871	1573.59
551.235	1593.48
551.599	1583.08
551.962	1553.48
552.326	1590.54
552.689	1609.97
553.053	1584.89
553.417	1609.75
553.78	1596.64
554.143	1604.55
554.507	1572.46
554.87	1587.6
555.234	1596.64
555.597	1631.21
555.96	1589.86
556.323	1604.32
556.686	1561.16
557.05	1600.71
557.413	1573.36
557.776	1622.4
558.139	1595.51
558.502	1614.94
558.865	1616.75
559.228	1609.97
559.59	1625.56
559.953	1622.63
560.316	1627.6
560.679	1614.04
561.041	1629.41
561.404	1630.76
561.767	1614.49
562.129	1628.95
562.492	1630.31
562.854	1626.92
563.217	1630.76
563.579	1635.96
563.941	1621.95
564.304	1662.17
564.666	1658.56
565.028	1662.17
565.39	1656.98
565.753	1655.62
566.115	1679.12
566.477	1649.52
566.839	1675.05
567.201	1691.55
567.563	1665.11
567.925	1710.08
568.287	1687.48
568.648	1683.19
569.01	1698.78
569.372	1700.14
569.734	1686.58
570.095	1684.32
570.457	1715.96
570.819	1684.55
571.18	1705.56
571.542	1684.55
571.903	1710.08
572.265	1718.9
572.626	1683.42
572.987	1693.81
573.349	1693.13
573.71	1749.63
574.071	1760.93
574.432	1694.49
574.794	1746.24
575.155	1765.9
575.516	1732.45
575.877	1718.9
576.238	1714.15
576.599	1758.89
576.96	1709.18
577.32	1732.68
577.681	1713.47
578.042	1750.76
578.403	1726.35
578.763	1777.65
579.124	1749.4
579.485	1739.69
579.845	1739.23
580.206	1716.18
580.566	1732.45
580.927	1748.05
581.287	1749.86
581.648	1753.7
582.008	1748.27
582.368	1781.94
582.728	1788.05
583.089	1768.39
583.449	1756.18
583.809	1748.73
584.169	1742.85
584.529	1741.04
584.889	1761.83
585.249	1774.26
585.609	1787.14
585.969	1792.79
586.329	1739.46
586.688	1755.28
587.048	1773.36
587.408	1805.22
587.768	1758.44
588.127	1762.28
588.487	1776.97
588.846	1758.67
589.206	1751.44
589.565	1755.73
589.925	1772.23
590.284	1781.94
590.643	1792.34
591.003	1803.41
591.362	1787.37
591.721	1801.38
592.08	1775.84
592.44	1784.43
592.799	1798.22
593.158	1779.46
593.517	1773.81
593.876	1783.98
594.235	1784.66
594.593	1810.64
594.952	1790.53
595.311	1778.55
595.67	1800.02
596.029	1765.45
596.387	1798.44
596.746	1824.66
597.104	1824.43
597.463	1806.35
597.822	1807.71
598.18	1812
598.538	1808.61
598.897	1794.6
599.255	1799.12
599.613	1804.54
599.972	1815.84
600.33	1813.81
600.688	1780.59
601.046	1821.27
601.404	1803.86
601.762	1825.11
602.12	1820.59
602.478	1853.13
602.836	1835.5
603.194	1798.89
603.552	1843.19
603.91	1820.14
604.268	1875.5
604.625	1836.41
604.983	1854.03
605.341	1819.23
605.698	1869.85
606.056	1816.07
606.413	1850.19
606.771	1856.52
607.128	1841.83
607.485	1855.62
607.843	1862.39
608.2	1859.91
608.557	1891.77
608.914	1871.43
609.272	1875.5
609.629	1852.68
609.986	1864.43
610.343	1849.74
610.7	1867.37
611.057	1895.39
611.414	1847.93
611.771	1880.02
612.127	1876.18
612.484	1886.8
612.841	1901.72
613.198	1873.02
613.554	1869.17
613.911	1911.66
614.267	1895.61
614.624	1890.19
614.98	1884.09
615.337	1913.47
615.693	1880.47
616.05	1899
616.406	1907.14
616.762	1942.84
617.118	1936.74
617.475	1947.14
617.831	1909.17
618.187	1928.83
618.543	1930.42
618.899	1918.66
619.255	1941.49
619.611	1950.98
619.967	1950.3
620.323	1970.87
620.678	1942.39
621.034	1950.53
621.39	1942.39
621.746	1968.61
622.101	1931.55
622.457	1955.73
622.812	1995.27
623.168	1977.87
623.523	1967.02
623.879	1946.01
624.234	1969.51
624.589	1961.83
624.945	1972.9
625.3	2001.83
625.655	1992.79
626.01	2013.13
626.365	1984.43
626.72	1991.2
627.075	2004.31
627.43	1985.56
627.785	2030.98
628.14	1999.79
628.495	2018.77
628.85	1990.53
629.205	2038.66
629.559	2043.18
629.914	2016.97
630.269	2000.47
630.623	2024.65
630.978	2045.67
631.332	2020.58
631.687	2042.28
632.041	2037.98
632.396	2056.51
632.75	2046.57
633.104	2022.62
633.459	2043.41
633.813	2008.83
634.167	2033.92
634.521	2034.82
634.875	2061.94
635.229	2039.79
635.583	2078.89
635.937	2059.9
636.291	2076.4
636.645	2097.64
636.999	2064.88
637.352	2067.13
637.706	2063.29
638.06	2104.42
638.413	2061.26
638.767	2090.41
639.121	2122.05
639.474	2100.58
639.828	2104.2
640.181	2107.59
640.534	2131.09
640.888	2087.93
641.241	2133.57
641.594	2137.87
641.947	2162.05
642.301	2130.86
642.654	2124.76
643.007	2158.88
643.36	2179.9
643.713	2146.91
644.066	2167.47
644.419	2176.74
644.771	2183.29
645.124	2161.82
645.477	2163.86
645.83	2153.69
646.182	2156.62
646.535	2167.02
646.888	2176.96
647.24	2178.32
647.593	2188.94
647.945	2177.87
648.298	2207.47
648.65	2200.92
649.002	2192.1
649.355	2236.62
649.707	2201.82
650.059	2253.8
650.411	2246.57
650.763	2276.85
651.115	2308.71
651.467	2309.84
651.819	2308.48
652.171	2340.57
652.523	2335.83
652.875	2352.55
653.227	2332.21
653.578	2387.35
653.93	2344.87
654.282	2379.44
654.633	2372.44
654.985	2416.96
655.337	2380.12
655.688	2416.5
656.039	2412.66
656.391	2439.33
656.742	2416.28
657.094	2452.89
657.445	2467.12
657.796	2458.76
658.147	2475.71
658.498	2495.15
658.849	2494.47
659.2	2518.65
659.551	2556.16
659.902	2551.42
660.253	2562.26
660.604	2587.57
660.955	2561.36
661.306	2556.16
661.656	2564.3
662.007	2627.8
662.358	2595.93
662.708	2617.85
663.059	2648.14
663.409	2650.85
663.76	2663.5
664.11	2659.66
664.461	2666.22
664.811	2688.14
665.161	2720.9
665.511	2703.5
665.862	2786.89
666.212	2782.6
666.562	2769.94
666.912	2789.38
667.262	2763.16
667.612	2811.97
667.962	2795.48
668.312	2830.28
668.662	2852.2
669.011	2825.76
669.361	2857.85
669.711	2897.4
670.06	2876.61
670.41	2886.77
670.76	2917.73
671.109	2919.32
671.459	2918.64
671.808	2944.17
672.157	2961.57
672.507	2964.51
672.856	2982.59
673.205	3009.26
673.554	3015.13
673.904	3004.74
674.253	3033.44
674.602	3003.83
674.951	2999.54
675.3	3000.9
675.649	3057.62
675.998	3063.04
676.346	3114.34
676.695	3140.1
677.044	3133.32
677.393	3110.27
677.741	3191.85
678.09	3159.54
678.438	3137.39
678.787	3194.56
679.135	3172.87
679.484	3176.03
679.832	3246.54
680.181	3209.03
680.529	3218.29
680.877	3232.98
681.225	3263.04
681.573	3266.65
681.922	3267.33
682.27	3286.54
682.618	3274.56
682.966	3290.61
683.314	3328.57
683.661	3274.56
684.009	3311.4
684.357	3324.73
684.705	3292.19
685.053	3324.5
685.4	3373.54
685.748	3298.29
686.095	3354.78
686.443	3331.73
686.79	3363.15
687.138	3366.76
687.485	3371.51
687.832	3347.55
688.18	3398.85
688.527	3353.88
688.874	3393.88
689.221	3388.23
689.568	3390.49
689.915	3425.29
690.262	3420.09
690.609	3425.97
690.956	3417.61
691.303	3448.79
691.65	3447.89
691.997	3438.62
692.344	3417.61
692.69	3411.73
693.037	3496.7
693.383	3433.2
693.73	3423.48
694.077	3402.92
694.423	3458.96
694.769	3462.58
695.116	3443.82
695.462	3400.66
695.808	3466.87
696.155	3442.92
696.501	3432.75
696.847	3454.9
697.193	3422.13
697.539	3453.99
697.885	3456.7
698.231	3414.67
698.577	3450.6
698.923	3469.81
699.269	3431.84
699.614	3430.49
699.96	3465.52
700.306	3448.79
700.651	3406.53
700.997	3420.09
701.342	3439.75
701.688	3459.41
702.033	3419.87
702.379	3402.02
702.724	3404.27
703.069	3386.87
703.415	3392.52
703.76	3403.14
704.105	3395.46
704.45	3426.87
704.795	3395.46
705.14	3432.97
705.485	3396.37
705.83	3347.33
706.175	3405.63
706.52	3375.58
706.865	3369.25
707.209	3355.01
707.554	3376.25
707.899	3407.89
708.243	3373.77
708.588	3388.91
708.932	3333.09
709.277	3370.15
709.621	3378.06
709.966	3349.14
710.31	3389.59
710.654	3366.54
710.998	3387.78
711.342	3366.31
711.687	3359.76
712.031	3312.75
712.375	3292.41
712.719	3338.97
713.063	3330.6
713.407	3335.58
713.75	3333.32
714.094	3343.49
714.438	3368.57
714.782	3360.66
715.125	3311.62
715.469	3343.26
715.812	3303.03
716.156	3335.8
716.499	3355.91
716.843	3370.15
717.186	3317.27
717.53	3368.12
717.873	3362.92
718.216	3324.28
718.559	3339.19
718.902	3308.01
719.246	3322.7
719.589	3322.7
719.932	3334.67
720.275	3280.21
720.617	3330.6
720.96	3304.39
721.303	3343.71
721.646	3339.19
721.989	3309.59
722.331	3350.94
722.674	3329.25
723.016	3337.16
723.359	3315.24
723.701	3307.1
724.044	3308.23
724.386	3286.31
724.729	3288.35
725.071	3331.28
725.413	3321.79
725.755	3329.25
726.097	3348.91
726.439	3263.71
726.782	3280.89
727.124	3382.58
727.465	3340.77
727.807	3333.54
728.149	3321.11
728.491	3315.92
728.833	3385.29
729.175	3356.59
729.516	3341.9
729.858	3344.84
730.199	3370.6
730.541	3329.93
730.882	3329.47
731.224	3343.94
731.565	3326.31
731.906	3358.4
732.248	3322.47
732.589	3376.93
732.93	3335.12
733.271	3350.49
733.612	3409.47
733.953	3358.63
734.294	3365.18
734.635	3330.15
734.976	3385.29
735.317	3362.69
735.658	3373.77
735.999	3345.29
736.339	3388
736.68	3374.45
737.021	3350.49
737.361	3374.45
737.702	3416.7
738.042	3450.38
738.383	3442.92
738.723	3443.82
739.063	3498.06
739.404	3443.82
739.744	3472.52
740.084	3432.97
740.424	3470.26
740.764	3488.57
741.104	3488.57
741.444	3466.42
741.784	3469.81
742.124	3485.63
742.464	3510.26
742.804	3546.19
743.143	3494.67
743.483	3539.41
743.823	3524.27
744.162	3505.06
744.502	3576.47
744.841	3523.82
745.181	3586.87
745.52	3572.63
745.86	3570.6
746.199	3625.06
746.538	3591.84
746.877	3610.15
747.216	3680.88
747.556	3628.22
747.895	3683.59
748.234	3720.2
748.573	3680.2
748.911	3690.82
749.25	3722.46
749.589	3729.69
749.928	3773.76
750.267	3767.43
750.605	3798.61
750.944	3809.24
751.283	3804.26
751.621	3819.41
751.96	3809.91
752.298	3891.27
752.636	3888.1
752.975	3883.81
753.313	3913.64
753.651	3932.62
753.989	3952.06
754.327	3960.19
754.666	3974.2
755.004	4010.81
755.342	4012.17
755.679	4057.14
756.017	4039.96
756.355	4034.09
756.693	4097.82
757.031	4132.84
757.368	4098.04
757.706	4143.24
758.044	4152.73
758.381	4156.8
758.719	4207.87
759.056	4196.34
759.394	4213.75
759.731	4189.34
760.068	4245.16
760.405	4214.65
760.743	4272.5
761.08	4236.34
761.417	4277.7
761.754	4331.48
762.091	4269.56
762.428	4308.88
762.765	4307.98
763.102	4319.05
763.438	4293.29
763.775	4300.97
764.112	4317.92
764.449	4348.88
764.785	4333.06
765.122	4316.34
765.458	4378.49
765.795	4377.58
766.131	4405.15
766.467	4355.66
766.804	4354.98
767.14	4353.63
767.476	4348.2
767.812	4378.03
768.148	4366.28
768.485	4376.9
768.821	4407.64
769.157	4381.42
769.492	4350.69
769.828	4398.83
770.164	4341.43
770.5	4339.84
770.836	4331.26
771.171	4345.72
771.507	4328.54
771.842	4329.22
772.178	4341.88
772.513	4323.57
772.849	4333.52
773.184	4311.82
773.519	4346.62
773.855	4309.56
774.19	4289.45
774.525	4282.67
774.86	4274.76
775.195	4277.7
775.53	4252.84
775.865	4266.17
776.2	4263.46
776.535	4187.98
776.87	4221.2
777.205	4239.06
777.539	4237.25
777.874	4225.72
778.209	4150.02
778.543	4173.97
778.878	4129.45
779.212	4145.95
779.547	4152.28
779.881	4150.7
780.215	4128.32
780.55	4127.42
780.884	4105.5
781.218	4113.18
781.552	4151.37
781.886	4070.47
782.22	4070.7
782.554	4104.14
782.888	4004.71
783.222	4043.13
783.556	3995.9
783.889	4019.85
784.223	3983.69
784.557	3994.77
784.89	3995.67
785.224	3961.77
785.557	3948.22
785.891	3990.7
786.224	3912.51
786.558	3940.08
786.891	3914.77
787.224	3899.86
787.557	3895.79
787.891	3855.11
788.224	3873.64
788.557	3848.11
788.89	3828.44
789.223	3837.26
789.556	3833.42
789.888	3854.88
790.221	3861.66
790.554	3730.82
790.887	3780.76
791.219	3791.61
791.552	3804.26
791.884	3797.48
792.217	3740.99
792.549	3713.42
792.882	3708.67
793.214	3700.54
793.546	3700.09
793.879	3643.59
794.211	3662.57
794.543	3694.66
794.875	3667.54
795.207	3661.22
795.539	3662.57
795.871	3673.19
796.203	3650.37
796.535	3604.04
796.867	3599.07
797.198	3579.64
797.53	3602.01
797.862	3583.93
798.193	3599.3
798.525	3554.55
798.856	3547.55
799.188	3506.19
799.519	3537.38
799.85	3545.06
800.182	3499.19
800.513	3524.95
800.844	3482.46
801.175	3532.86
801.506	3483.14
801.837	3473.65
802.168	3452.86
802.499	3456.02
802.83	3458.74
803.161	3473.88
803.491	3424.39
803.822	3445.86
804.153	3411.28
804.483	3378.51
804.814	3350.49
805.145	3381.68
805.475	3381.68
805.805	3366.99
806.136	3390.72
806.466	3376.03
806.796	3331.73
807.126	3350.04
807.457	3336.48
807.787	3297.61
808.117	3339.19
808.447	3297.16
808.777	3323.37
809.107	3280.44
809.436	3289.25
809.766	3273.43
810.096	3254.9
810.426	3274.56
810.755	3281.57
811.085	3271.4
811.414	3230.72
811.744	3228.46
812.073	3226.43
812.403	3224.84
812.732	3196.6
813.061	3187.33
813.39	3211.51
813.719	3171.96
814.049	3199.31
814.378	3205.64
814.707	3190.5
815.036	3150.72
815.365	3148.24
815.693	3126.99
816.022	3127.9
816.351	3144.17
816.68	3085.64
817.008	3144.39
817.337	3114.11
817.665	3091.97
817.994	3095.81
818.322	3119.99
818.651	3076.83
818.979	3076.15
819.307	3084.28
819.636	3074.11
819.964	3058.07
820.292	3047.22
820.62	3059.43
820.948	3052.65
821.276	3061.69
821.604	3031.63
821.932	3076.83
822.259	3026.43
822.587	3047
822.915	3019.2
823.243	3036.37
823.57	3043.83
823.898	3043.15
824.225	3024.17
824.553	3021.01
824.88	3052.42
825.207	3062.59
825.535	3038.41
825.862	3056.71
826.189	3059.88
826.516	3073.21
826.843	3069.14
827.17	3010.84
827.497	3044.74
827.824	3058.52
828.151	3045.19
828.478	3052.87
828.805	3065.3
829.131	3020.56
829.458	3042.02
829.785	3021.23
830.111	3023.72
830.438	3063.27
830.764	3025.3
831.09	3024.85
831.417	3027.56
831.743	3040.44
832.069	3030.95
832.395	2976.94
832.722	2989.37
833.048	3068.92
833.374	3028.47
833.7	3019.88
834.026	2978.07
834.351	2992.53
834.677	3042.48
835.003	3054.45
835.329	2999.54
835.654	3001.35
835.98	3014.91
836.306	2997.51
836.631	2986.43
836.956	2974.46
837.282	3024.4
837.607	3011.74
837.932	2971.52
838.258	2983.95
838.583	3006.32
838.908	2974.46
839.233	2985.3
839.558	2940.33
839.883	2924.06
840.208	2936.72
840.533	2959.31
840.858	2953.67
841.182	2952.54
841.507	2927.9
841.832	2961.57
842.156	2920.45
842.481	2933.78
842.805	2908.69
843.13	2909.82
843.454	2910.73
843.778	2900.11
844.103	2884.97
844.427	2917.51
844.751	2885.19
845.075	2859.2
845.399	2862.37
845.723	2821.01
846.047	2874.12
846.371	2857.62
846.695	2816.95
847.019	2819.88
847.343	2798.64
847.666	2831.86
847.99	2786.44
848.313	2776.72
848.637	2749.38
848.96	2762.03
849.284	2713.45
849.607	2765.87
849.931	2751.41
850.254	2743.95
850.577	2689.49
850.9	2700.34
851.223	2694.01
851.546	2682.26
851.869	2642.94
852.192	2689.04
852.515	2657.4
852.838	2629.83
853.161	2639.32
853.483	2633.22
853.806	2609.95
854.129	2628.48
854.451	2655.37
854.774	2613.11
855.096	2577.86
855.419	2578.53
855.741	2611.98
856.063	2554.81
856.385	2637.52
856.708	2548.7
857.03	2571.75
857.352	2542.83
857.674	2517.74
857.996	2558.87
858.318	2516.61
858.64	2550.74
858.961	2524.52
859.283	2534.92
859.605	2496.05
859.926	2514.58
860.248	2470.74
860.57	2513.9
860.891	2501.02
861.212	2444.98
861.534	2483.85
861.855	2456.28
862.176	2457.18
862.498	2426.45
862.819	2472.77
863.14	2456.73
863.461	2435.71
863.782	2430.97
864.103	2428.03
864.424	2428.03
864.745	2455.15
865.065	2415.83
865.386	2436.39
865.707	2407.92
866.027	2440.46
866.348	2368.82
866.668	2437.29
866.989	2421.02
867.309	2402.04
867.63	2366.56
867.95	2433.68
868.27	2368.14
868.59	2384.64
868.91	2379.44
869.23	2380.35
869.55	2363.17
869.87	2365.21
870.19	2382.61
870.51	2400.01
870.83	2406.34
871.15	2370.63
871.469	2357.75
871.789	2358.43
872.109	2365.88
872.428	2337.64
872.748	2374.25
873.067	2318.2
873.386	2375.6
873.706	2350.52
874.025	2353.23
874.344	2322.27
874.663	2306.9
874.982	2374.47
875.301	2339.67
875.62	2302.61
875.939	2324.76
876.258	2312.55
876.577	2316.85
876.896	2301.03
877.214	2309.39
877.533	2311.42
877.852	2321.59
878.17	2319.56
878.489	2300.12
878.807	2267.36
879.125	2291.08
879.444	2310.52
879.762	2292.67
880.08	2266.23
880.398	2250.18
880.716	2252.67
881.034	2244.98
881.352	2254.25
881.67	2207.02
881.988	2271.88
882.306	2249.95
882.624	2244.53
882.941	2287.24
883.259	2251.08
883.577	2232.78
883.894	2229.62
884.212	2230.29
884.529	2241.14
884.846	2229.62
885.164	2231.88
885.481	2237.53
885.798	2188.71
886.115	2174.25
886.432	2172.44
886.75	2198.66
887.067	2190.97
887.383	2161.82
887.7	2190.3
888.017	2184.19
888.334	2170.18
888.651	2157.98
888.967	2180.8
889.284	2172.22
889.6	2147.13
889.917	2130.86
890.233	2146
890.55	2125.89
890.866	2133.8
891.182	2164.76
891.498	2113.01
891.815	2099.68
892.131	2112.56
892.447	2092.44
892.763	2070.07
893.079	2117.08
893.395	2096.51
893.71	2074.82
894.026	2094.7
894.342	2091.77
894.657	2055.16
894.973	2078.89
895.289	2076.85
895.604	2060.58
895.92	2029.85
896.235	2072.33
896.55	2030.53
896.865	2061.49
897.181	2016.97
897.496	2031.43
897.811	2012.22
898.126	2023.52
898.441	1993.69
898.756	2033.01
899.071	1989.17
899.386	1977.42
899.7	1957.08
900.015	1992.11
900.33	1960.92
900.644	1944.43
900.959	1933.13
901.273	1918.66
901.588	1941.26
901.902	1913.92
902.216	1938.32
902.531	1925.22
902.845	1898.78
903.159	1926.57
903.473	1922.28
903.787	1936.06
904.101	1878.89
904.415	1895.84
904.729	1875.5
905.042	1873.02
905.356	1864.43
905.67	1881.83
905.984	1874.15
906.297	1832.56
906.611	1834.82
906.924	1834.15
907.237	1831.89
907.551	1856.52
907.864	1822.85
908.177	1840.93
908.491	1809.06
908.804	1857.65
909.117	1794.83
909.43	1799.35
909.743	1778.1
910.056	1781.49
910.368	1813.81
910.681	1766.35
910.994	1805.67
911.307	1784.88
911.619	1759.35
911.932	1713.25
912.244	1736.97
912.557	1754.37
912.869	1742.4
913.181	1733.81
913.494	1746.24
913.806	1686.81
914.118	1661.95
914.43	1729.52
914.742	1711.89
915.054	1720.03
915.366	1689.74
915.678	1681.61
915.99	1633.25
916.302	1648.84
916.613	1683.87
916.925	1640.25
917.236	1659.91
917.548	1634.15
917.859	1675.96
918.171	1654.94
918.482	1632.57
918.794	1639.35
919.105	1619.69
919.416	1631.89
919.727	1613.59
920.038	1620.14
920.349	1627.82
920.66	1555.51
920.971	1594.83
921.282	1615.62
921.593	1604.55
921.903	1576.07
922.214	1583.53
922.525	1563.19
922.835	1557.32
923.146	1546.7
923.456	1532.46
923.767	1547.15
924.077	1539.01
924.387	1525.23
924.697	1531.56
925.008	1529.3
925.318	1512.8
925.628	1527.49
925.938	1514.83
926.248	1485.68
926.558	1495.85
926.867	1475.06
927.177	1498.11
927.487	1495.17
927.796	1475.51
928.106	1479.13
928.416	1473.93
928.725	1465.34
929.034	1429.86
929.344	1478.9
929.653	1438.22
929.962	1401.62
930.271	1449.3
930.581	1449.07
930.89	1430.77
931.199	1447.04
931.508	1424.67
931.817	1394.38
932.125	1439.58
932.434	1409.53
932.743	1395.06
933.051	1398.68
933.36	1366.59
933.669	1385.57
933.977	1396.64
934.286	1374.05
934.594	1358.45
934.902	1379.24
935.21	1388.28
935.519	1355.52
935.827	1358.9
936.135	1352.13
936.443	1314.16
936.751	1340.15
937.059	1342.86
937.367	1336.31
937.674	1360.94
937.982	1324.1
938.29	1316.87
938.597	1317.1
938.905	1294.5
939.213	1293.14
939.52	1290.88
939.827	1289.53
940.135	1307.83
940.442	1276.2
940.749	1289.53
941.056	1286.36
941.363	1271.68
941.67	1269.19
941.977	1267.83
942.284	1257.44
942.591	1265.35
942.898	1256.76
943.205	1259.25
943.511	1258.34
943.818	1280.49
944.125	1238.23
944.431	1221.51
944.738	1241.17
945.044	1222.41
945.35	1237.33
945.657	1209.53
945.963	1214.95
946.269	1195.75
946.575	1227.38
946.881	1191
947.187	1203.2
947.493	1188.06
947.799	1214.95
948.105	1184.45
948.41	1182.19
948.716	1169.98
949.022	1158.91
949.327	1170.21
949.633	1132.7
949.938	1169.08
950.244	1156.2
950.549	1161.17
950.854	1163.88
951.16	1148.06
951.465	1162.75
951.77	1151.45
952.075	1114.84
952.38	1132.47
952.685	1141.28
952.99	1130.66
953.294	1135.41
953.599	1114.84
953.904	1117.33
954.209	1099.93
954.513	1107.61
954.818	1107.84
955.122	1102.19
955.426	1103.77
955.731	1111.45
956.035	1096.99
956.339	1082.98
956.643	1088.86
956.948	1088.18
957.252	1069.65
957.556	1078.91
957.86	1075.52
958.163	1070.78
958.467	1057.22
958.771	1079.36
959.075	1087.73
959.378	1045.92
959.682	1038.91
959.985	1051.34
960.289	1022.87
960.592	1043.21
960.896	1038.69
961.199	1045.24
961.502	1027.16
961.805	1019.93
962.108	1023.32
962.411	1012.7
962.714	1019.7
963.017	1031.68
963.32	983.77
963.623	984.45
963.926	999.37
964.228	990.55
964.531	1004.11
964.833	1013.83
965.136	980.16
965.438	1002.08
965.741	984.45
966.043	1007.73
966.345	982.19
966.648	975.86
966.95	944
967.252	975.41
967.554	988.29
967.856	967.28
968.158	955.98
968.46	954.17
968.761	945.13
969.063	956.66
969.365	929.31
969.666	932.93
969.968	947.16
970.269	952.59
970.571	913.49
970.872	943.55
971.174	931.12
971.475	918.24
971.776	937.22
972.077	935.64
972.378	915.07
972.679	927.28
972.98	929.99
973.281	917.33
973.582	914.62
973.883	911.46
974.183	903.55
974.484	898.13
974.785	890.67
975.085	877.79
975.386	888.41
975.686	909.43
975.986	920.05
976.287	892.02
976.587	859.94
976.887	891.35
977.187	881.18
977.487	870.33
977.787	887.73
978.087	890.44
978.387	842.31
978.687	857.22
978.987	853.61
979.286	881.18
979.586	859.26
979.885	852.25
980.185	848.64
980.484	836.88
980.784	834.4
981.083	834.4
981.382	857.22
981.682	859.94
981.981	840.27
982.28	821.29
982.579	824
982.878	842.31
983.177	819.03
983.475	843.44
983.774	831.01
984.073	844.57
984.372	815.64
984.67	821.74
984.969	804.34
985.267	821.29
985.566	803.21
985.864	800.73
986.162	813.61
986.461	804.34
986.759	813.38
987.057	804.57
987.355	795.98
987.653	790.56
987.951	775.87
988.249	782.42
988.547	801.63
988.844	781.07
989.142	770.67
989.44	767.51
989.737	774.97
990.035	746.04
990.332	760.5
990.63	772.93
990.927	788.75
991.224	762.08
991.521	778.58
991.819	758.92
992.116	758.69
992.413	749.66
992.71	755.53
993.006	749.43
993.303	721.63
993.6	735.19
993.897	748.53
994.193	734.97
994.49	732.25
994.787	750.11
995.083	718.24
995.379	713.27
995.676	727.51
995.972	743.1
996.268	712.82
996.565	712.37
996.861	738.13
997.157	715.08
997.453	708.75
997.749	697
998.044	700.17
998.34	717.11
998.636	706.94
998.932	729.32
999.227	697.45
999.523	700.62
999.818	691.8
1000.114	712.14
1000.409	669.21
1000.704	687.51
1001	695.19
1001.295	682.99
1001.59	686.38
1001.885	704.46
1002.18	694.52
1002.475	669.21
1002.77	670.56
1003.065	666.27
1003.359	652.03
1003.654	664.69
1003.949	664.69
1004.243	666.49
1004.538	661.07
1004.832	673.5
1005.127	646.16
1005.421	637.34
1005.715	650.9
1006.009	638.47
1006.304	635.31
1006.598	622.43
1006.892	644.12
1007.186	621.98
1007.48	631.47
1007.773	619.72
1008.067	641.41
1008.361	635.08
1008.655	631.47
1008.948	606.83
1009.242	621.3
1009.535	616.55
1009.829	619.94
1010.122	614.52
1010.415	619.26
1010.708	620.39
1011.001	619.04
1011.295	607.51
1011.588	621.75
1011.881	614.29
1012.173	600.96
1012.466	588.3
1012.759	598.47
1013.052	589.21
1013.344	584.91
1013.637	621.98
1013.93	579.26
1014.222	605.03
1014.514	580.62
1014.807	569.32
1015.099	571.13
1015.391	576.78
1015.683	572.26
1015.976	569.32
1016.268	567.51
1016.56	577.46
1016.851	570.68
1017.143	582.43
1017.435	586.04
1017.727	570.68
1018.018	554.86
1018.31	569.55
1018.602	577.23
1018.893	543.56
1019.185	585.59
1019.476	548.08
1019.767	553.28
1020.058	571.58
1020.35	561.19
1020.641	554.18
1020.932	539.27
1021.223	534.52
1021.514	558.93
1021.804	568.19
1022.095	546.95
1022.386	553.95
1022.677	529.77
1022.967	518.48
1023.258	542.2
1023.548	536.33
1023.839	526.84
1024.129	536.33
1024.419	525.93
1024.709	511.7
1025	525.25
1025.29	531.36
1025.58	518.93
1025.87	522.54
1026.16	515.31
1026.449	513.28
1026.739	514.63
1027.029	496.55
1027.319	505.37
1027.608	515.54
1027.898	506.27
1028.187	507.4
1028.477	511.7
1028.766	506.95
1029.055	493.84
1029.344	490.23
1029.634	478.02
1029.923	483.22
1030.212	501.3
1030.501	508.76
1030.79	478.02
1031.078	477.35
1031.367	488.19
1031.656	494.29
1031.945	469.89
1032.233	478.02
1032.522	469.21
1032.81	479.15
1033.099	473.73
1033.387	493.62
1033.675	459.27
1033.963	459.49
1034.251	463.34
1034.54	477.35
1034.828	445.71
1035.116	464.24
1035.403	468.53
1035.691	450.68
1035.979	449.55
1036.267	468.31
1036.554	463.34
1036.842	495.2
1037.129	450.23
1037.417	462.21
1037.704	437.57
1037.992	443.67
1038.279	448.87
1038.566	461.98
1038.853	461.98
1039.14	461.98
