Data from blue_shiny_book_FLMS001491_00004.txt Node
Date: Wed Feb 08 15:26:26 GMT 2017
User: dcchb
Spectrometer: FLMS00149
Trigger mode: 0
Integration Time (sec): 2.000000E-2
Scans to average: 10
Electric dark correction enabled: true
Nonlinearity correction enabled: false
Boxcar width: 0
XAxis mode: Wavelengths
Number of Pixels in Spectrum: 2048
>>>>>Begin Spectral Data<<<<<
341.393	-12.85
341.776	-12.85
342.16	-12.85
342.543	-52.63
342.927	-41.33
343.31	-64.38
343.693	-50.14
344.077	-52.17
344.46	-56.02
344.843	-44.94
345.226	-41.55
345.61	-30.03
345.993	-33.42
346.376	-11.95
346.759	30.08
347.142	28.73
347.525	37.32
347.908	59.69
348.291	45.45
348.674	85
349.057	98.33
349.44	144.66
349.823	152.57
350.206	170.42
350.588	207.25
350.971	236.86
351.354	241.15
351.737	267.59
352.119	271.43
352.502	278.44
352.884	290.42
353.267	279.12
353.65	313.92
354.032	310.75
354.414	318.89
354.797	322.96
355.179	345.78
355.562	322.96
355.944	359.34
356.326	339.23
356.709	347.14
357.091	365.44
357.473	373.58
357.855	352.79
358.238	343.75
358.62	363.18
359.002	365.89
359.384	351.88
359.766	346.91
360.148	356.4
360.53	348.27
360.912	344.2
361.294	350.98
361.676	362.5
362.057	340.58
362.439	364.76
362.821	368.83
363.203	352.56
363.584	365.89
363.966	350.3
364.348	339.23
364.729	338.78
365.111	347.36
365.493	364.09
365.874	343.52
366.256	337.42
366.637	338.1
367.019	343.52
367.4	350.75
367.781	351.66
368.163	319.57
368.544	345.33
368.925	331.32
369.306	357.53
369.688	346.69
370.069	333.8
370.45	358.44
370.831	356.4
371.212	358.44
371.593	339.68
371.974	362.28
372.355	363.41
372.736	372.22
373.117	359.34
373.498	374.03
373.879	372
374.26	360.02
374.641	362.96
375.021	366.8
375.402	371.09
375.783	364.09
376.163	380.58
376.544	378.32
376.925	369.28
377.305	391.43
377.686	376.06
378.066	391.88
378.447	396.18
378.827	391.43
379.208	401.6
379.588	399.79
379.968	396.18
380.349	424.88
380.729	397.31
381.109	395.5
381.489	412.45
381.87	427.36
382.25	411.54
382.63	444.99
383.01	432.79
383.39	436.85
383.77	445.89
384.15	412.9
384.53	440.92
384.91	441.6
385.29	434.59
385.67	440.69
386.049	466.91
386.429	454.71
386.809	440.02
387.189	473.69
387.568	463.52
387.948	492.67
388.328	497.87
388.707	463.52
389.087	482.95
389.466	520.01
389.846	506.46
390.225	509.17
390.605	506.46
390.984	534.7
391.363	515.27
391.743	508.04
392.122	512.11
392.501	535.16
392.881	568.15
393.26	535.38
393.639	567.24
394.018	533.12
394.397	563.18
394.776	548.94
395.155	554.36
395.534	571.31
395.913	562.95
396.292	594.14
396.671	591.43
397.05	588.04
397.429	618.09
397.808	602.95
398.186	619.22
398.565	621.48
398.944	623.29
399.323	625.32
399.701	642.5
400.08	652.44
400.458	663.51
400.837	673.46
401.215	654.93
401.594	657.41
401.972	674.81
402.351	681.37
402.729	690.86
403.107	718.43
403.486	707.81
403.864	718.65
404.242	714.13
404.62	729.05
404.999	760.91
405.377	748.71
405.755	760.23
406.133	764.98
406.511	762.49
406.889	788.48
407.267	777.86
407.645	804.3
408.023	832.32
408.401	831.87
408.779	811.98
409.156	854.92
409.534	858.54
409.912	874.81
410.29	892.66
410.667	891.08
411.045	904.41
411.422	931.76
411.8	929.5
412.178	915.48
412.555	948.93
412.933	969.49
413.31	1000.45
413.687	995.93
414.065	1017.85
414.442	1037.74
414.819	1003.62
415.197	1048.81
415.574	1080.45
415.951	1066.89
416.328	1069.83
416.705	1101.69
417.082	1097.4
417.46	1099.21
417.837	1136.27
418.214	1163.39
418.591	1148.25
418.967	1171.52
419.344	1197.06
419.721	1241.8
420.098	1214.01
420.475	1211.07
420.852	1247.45
421.228	1275.25
421.605	1267.34
421.982	1262.37
422.358	1288.58
422.735	1328.13
423.111	1322.93
423.488	1348.02
423.864	1358.86
424.241	1384.4
424.617	1385.98
424.994	1411.06
425.37	1445.19
425.746	1429.14
426.123	1430.27
426.499	1462.14
426.875	1475.92
427.251	1519.99
427.627	1552.76
428.003	1584.17
428.379	1583.72
428.756	1625.75
429.132	1624.17
429.507	1663.04
429.883	1672.07
430.259	1689.02
430.635	1741.23
431.011	1733.54
431.387	1773.09
431.763	1790.94
432.138	1822.81
432.514	1827.32
432.89	1843.6
433.265	1891.73
433.641	1916.14
434.016	1959.07
434.392	1978.06
434.767	2053.08
435.143	2025.96
435.518	2050.37
435.894	2072.52
436.269	2068
436.644	2115.68
437.02	2147.54
437.395	2166.52
437.77	2204.04
438.145	2220.76
438.52	2273.19
438.895	2322.68
439.271	2325.84
439.646	2371.04
440.021	2352.06
440.395	2367.2
440.77	2342.57
441.145	2399.74
441.52	2436.8
441.895	2448.55
442.27	2527.65
442.645	2478.61
443.019	2581.66
443.394	2572.62
443.769	2587.98
444.143	2575.33
444.518	2676.57
444.892	2627.53
445.267	2639.51
445.641	2650.35
446.016	2657.81
446.39	2703.69
446.764	2719.5
447.139	2727.41
447.513	2753.63
447.887	2779.84
448.262	2783.23
448.636	2825.94
449.01	2949.1
449.384	2919.95
449.758	2938.26
450.132	2961.08
450.506	2940.52
450.88	2985.03
451.254	2991.81
451.628	3063.22
452.002	3048.99
452.376	3082.43
452.75	3157.91
453.123	3194.29
453.497	3272.26
453.871	3283.11
454.244	3357.68
454.618	3371.24
454.992	3420.96
455.365	3436.32
455.739	3524.23
456.112	3539.6
456.486	3585.24
456.859	3560.61
457.232	3636.77
457.606	3661.63
457.979	3746.6
458.352	3809.42
458.725	3841.06
459.099	3891.68
459.472	3997.66
459.845	4042.18
460.218	4139.81
460.591	4081.05
460.964	4132.12
461.337	4218
461.71	4295.96
462.083	4330.76
462.456	4323.3
462.829	4342.96
463.201	4451.89
463.574	4510.64
463.947	4556.97
464.32	4676.74
464.692	4730.53
465.065	4777.53
465.438	4915.15
465.81	4945.89
466.183	4999.44
466.555	5022.27
466.928	5099.1
467.3	5131.19
467.672	5162.6
468.045	5283.05
468.417	5334.13
468.789	5377.29
469.161	5429.49
469.534	5576.38
469.906	5716.71
470.278	5722.59
470.65	5799.65
471.022	5909.48
471.394	6150.38
471.766	6143.82
472.138	6158.74
472.51	6294.33
472.882	6368.45
473.253	6435.57
473.625	6513.98
473.997	6633.75
474.369	6710.36
474.74	6809.34
475.112	6908.32
475.484	7059.05
475.855	7184.7
476.227	7247.75
476.598	7514.86
476.97	7622.43
477.341	7785.13
477.713	7922.08
478.084	7946.94
478.455	8108.97
478.827	8180.6
479.198	8397.77
479.569	8448.85
479.94	8657.2
480.311	8706.47
480.682	8875.95
481.053	9160.47
481.424	9359.1
481.795	9402.72
482.166	9621.02
482.537	9776.95
482.908	9972.87
483.279	10136.94
483.65	10291.06
484.021	10490.37
484.391	10475.69
484.762	10591.61
485.133	10718.62
485.503	10856.24
485.874	11137.36
486.244	11229.11
486.615	11369.9
486.985	11555.88
487.356	11806.05
487.726	11975.76
488.097	12284.23
488.467	12293.49
488.837	12715.63
489.207	12820.71
489.578	12928.95
489.948	13100.47
490.318	13334.37
490.688	13314.25
491.058	13607.13
491.428	13773.9
491.798	13897.29
492.168	14183.16
492.538	14093.44
492.908	14313.78
493.278	14464.28
493.648	14602.58
494.017	14836.02
494.387	15053.42
494.757	15115.79
495.126	15401.66
495.496	15462.9
495.866	15644.59
496.235	15799.61
496.605	15861.98
496.974	15959.83
497.344	16121.64
497.713	16234.18
498.082	16246.61
498.452	16444.57
498.821	16586.48
499.19	16609.31
499.559	16909.19
499.928	16944.22
500.298	17099.01
500.667	17173.36
501.036	17419.46
501.405	17617.64
501.774	17729.05
502.143	17882.72
502.512	17926.56
502.88	18105.54
503.249	18084.75
503.618	18235.03
503.987	18282.49
504.356	18375.82
504.724	18449.71
505.093	18584.62
505.462	18714.34
505.83	18872.53
506.199	18979.64
506.567	19287.88
506.936	19222.35
507.304	19584.37
507.672	19641.09
508.041	19840.64
508.409	20081.53
508.777	20133.51
509.145	20298.03
509.514	20312.49
509.882	20401.53
510.25	20544.12
510.618	20719.26
510.986	20643.1
511.354	20985.69
511.722	21027.5
512.09	21356.08
512.458	21177.78
512.826	21580.48
513.193	21601.95
513.561	21776.63
513.929	21949.51
514.297	22161.25
514.664	22374.13
515.032	22369.61
515.4	22631.75
515.767	22811.86
516.135	22905.19
516.502	22887.56
516.869	23251.17
517.237	23354.89
517.604	23332.3
517.972	23575.45
518.339	23745.62
518.706	23797.82
519.073	23979.74
519.44	24148.09
519.808	24466.73
520.175	24408.2
520.542	24885.7
520.909	24997.56
521.276	25062.87
521.643	25367.04
522.009	25570.66
522.376	25701.27
522.743	25784.21
523.11	26003.19
523.477	26249.73
523.843	26466.45
524.21	26735.14
524.577	27006.78
524.943	27155.92
525.31	27176.71
525.676	27435.24
526.043	27584.16
526.409	27704.38
526.776	28007.88
527.142	28132.4
527.508	28416.68
527.874	28622.1
528.241	28830
528.607	28950.23
528.973	29282.65
529.339	29306.15
529.705	29416.2
530.071	29653.94
530.437	29785.69
530.803	30010.09
531.169	30171.44
531.535	30111.1
531.901	30403.07
532.267	30555.38
532.632	30751.31
532.998	30925.09
533.364	31123.28
533.73	31334.8
534.095	31584.06
534.461	31567.33
534.826	31906.53
535.192	31999.64
535.557	32150.6
535.923	32216.58
536.288	32407.09
536.653	32468.55
537.019	32415.22
537.384	32515.56
537.749	32735.89
538.114	32854.08
538.479	32944.25
538.845	33087.97
539.21	32975.43
539.575	33296.78
539.94	33295.65
540.305	33523.89
540.67	33526.6
541.034	33738.8
541.399	33901.74
541.764	34042.97
542.129	34294.72
542.494	34350.54
542.858	34500.36
543.223	34511.89
543.587	34727.93
543.952	34756.63
544.316	34885.66
544.681	34712.56
545.045	34963.4
545.41	35191.42
545.774	35011.76
546.138	35180.57
546.503	35274.35
546.867	35284.98
547.231	35541.01
547.595	35612.2
547.959	35796.38
548.324	35810.39
548.688	35941.91
549.052	36281.33
549.416	36326.76
549.779	36421.44
550.143	36613.75
550.507	36851.04
550.871	36884.93
551.235	36878.83
551.599	37193.63
551.962	37315.21
552.326	37217.58
552.689	37380.29
553.053	37205.6
553.417	37280.18
553.78	37645.14
554.143	37643.11
554.507	37671.58
554.87	37846.49
555.234	38095.07
555.597	37934.62
555.96	38274.95
556.323	38391.34
556.686	38591.33
557.05	38860.48
557.413	39055.5
557.776	39264.53
558.139	39472.21
558.502	39453.91
558.865	39609.61
559.228	39924.63
559.59	40079.88
559.953	40022.03
560.316	40257.27
560.679	40172.53
561.041	40382.02
561.404	40322.36
561.767	40640.77
562.129	40472.18
562.492	40909.69
562.854	40800.54
563.217	40898.84
563.579	41267.19
563.941	41370.24
564.304	41502.44
564.666	41749.44
565.028	42063.78
565.39	42187.17
565.753	42453.38
566.115	42614.27
566.477	43006.58
566.839	43013.81
567.201	43285.22
567.563	43322.28
567.925	43517.75
568.287	43348.49
568.648	43525.66
569.01	43579.67
569.372	43780.57
569.734	43533.8
570.095	43919.1
570.457	43979.21
570.819	43905.54
571.18	43891.76
571.542	44191.86
571.903	44222.37
572.265	44472.76
572.626	44428.69
572.987	44631.85
573.349	44960.65
573.71	45149.35
574.071	45226.86
574.432	45410.36
574.794	45874.08
575.155	45786.17
575.516	45767.64
575.877	45905.71
576.238	46124.47
576.599	46108.65
576.96	46173.73
577.32	46259.15
577.681	46170.57
578.042	46352.71
578.403	46283.78
578.763	46284.69
579.124	46173.05
579.485	46281.07
579.845	46311.13
580.206	46079.04
580.566	46309.32
580.927	46180.96
581.287	46446.49
581.648	46326.27
582.008	46764.67
582.368	46730.55
582.728	46931
583.089	47046.25
583.449	46996.08
583.809	47253.93
584.169	47278.11
584.529	47314.26
584.889	47725.78
585.249	47455.5
585.609	47245.34
585.969	47493.92
586.329	47374.83
586.688	47470.64
587.048	47308.39
587.408	47143.65
587.768	47076.53
588.127	46953.82
588.487	46873.15
588.846	47163.53
589.206	46894.16
589.565	46886.25
589.925	47109.07
590.284	46946.82
590.643	47021.16
591.003	47155.85
591.362	47355.39
591.721	47322.4
592.08	47438.78
592.44	47660.24
592.799	47694.14
593.158	47716.97
593.517	47981.37
593.876	47889.84
594.235	47926.23
594.593	47960.58
594.952	48208.7
595.311	47955.6
595.67	48043.96
596.029	48018.88
596.387	48016.17
596.746	48074.02
597.104	47723.97
597.463	47602.39
597.822	47768.04
598.18	47548.83
598.538	47507.25
598.897	47718.77
599.255	47312.68
599.613	47833.12
599.972	47462.74
600.33	47686.23
600.688	47595.84
601.046	47790.18
601.404	48087.58
601.762	48048.48
602.12	48375.25
602.478	48328.25
602.836	48487.11
603.194	48247.8
603.552	48516.49
603.91	48365.31
604.268	48653.66
604.625	48384.52
604.983	48559.88
605.341	48395.82
605.698	48573.21
606.056	48615.93
606.413	48608.69
606.771	48633.33
607.128	48673.32
607.485	48273.56
607.843	48271.53
608.2	48444.18
608.557	48506.32
608.914	48297.29
609.272	48585.42
609.629	48541.35
609.986	48577.96
610.343	48558.98
610.7	48783.15
611.057	48825.86
611.414	48856.37
611.771	49150.6
612.127	49308.11
612.484	49356.02
612.841	49504.94
613.198	49429.01
613.554	49560.53
613.911	49747.42
614.267	49698.61
614.624	49678.27
614.98	49804.82
615.337	49777.48
615.693	49729.57
616.05	49773.18
616.406	49925.04
616.762	49618.16
617.118	49671.72
617.475	49467.88
617.831	49561.21
618.187	49564.6
618.543	49520.99
618.899	49660.42
619.255	49492.96
619.611	49602.79
619.967	49759.17
620.323	49606.18
620.678	49540.87
621.034	49546.52
621.39	49589.01
621.746	49654.54
622.101	50010.24
622.457	49817.7
622.812	50016.34
623.168	50133.17
623.523	50235.77
623.879	50272.15
624.234	50126.85
624.589	50363.22
624.945	50287.75
625.3	50338.37
625.655	50386.05
626.01	50352.6
626.365	50312.15
626.72	50182.89
627.075	50064.02
627.43	50095.89
627.785	49824.48
628.14	49904.48
628.495	49869
628.85	49723.69
629.205	49610.48
629.559	49809.11
629.914	49572.96
630.269	49562.11
630.623	49542.91
630.978	49280.09
631.332	49748.78
631.687	49761.43
632.041	49651.6
632.396	49847.76
632.75	49738.61
633.104	49797.14
633.459	49588.55
633.813	49751.71
634.167	49722.11
634.521	49802.79
634.875	49847.08
635.229	49782.45
635.583	49616.35
635.937	49693.18
636.291	49588.33
636.645	49650.25
636.999	49538.39
637.352	49621.1
637.706	49451.61
638.06	49553.53
638.413	49342.01
638.767	49066.76
639.121	49079.87
639.474	48756.94
639.828	48813.21
640.181	48687.56
640.534	48715.36
640.888	48558.3
641.241	48406.21
641.594	48396.95
641.947	48561.92
642.301	48365.76
642.654	48435.36
643.007	48384.97
643.36	48374.12
643.713	48358.3
644.066	48646.21
644.419	48418.19
644.771	48470.39
645.124	48459.09
645.477	48497.51
645.83	48182.49
646.182	47825.89
646.535	47608.95
646.888	47547.25
647.24	47318.78
647.593	47436.52
647.945	47389.97
648.298	47300.93
648.65	47131.44
649.002	46888.06
649.355	47065.23
649.707	47111.11
650.059	47304.77
650.411	47811.2
650.763	47767.59
651.115	48036.96
651.467	47663.63
651.819	47562.62
652.171	47565.56
652.523	47529.63
652.875	47431.1
653.227	47377.09
653.578	47607.36
653.93	47496.18
654.282	47386.35
654.633	47133.48
654.985	47336.64
655.337	47404.21
655.688	47346.58
656.039	47517.2
656.391	47139.58
656.742	47229.29
657.094	47472.9
657.445	47675.16
657.796	47714.48
658.147	47603.52
658.498	47663.63
658.849	47739.79
659.2	47617.99
659.551	47604.43
659.902	47710.41
660.253	47723.29
660.604	47748.83
660.955	47480.36
661.306	47509.74
661.656	47334.83
662.007	47301.16
662.358	47206.24
662.708	47170.31
663.059	47245.11
663.409	47067.49
663.76	47254.6
664.11	46940.94
664.461	46807.16
664.811	46751.79
665.161	46676.32
665.511	46576.66
665.862	46748.18
666.212	46782.75
666.562	46872.47
666.912	46755.86
667.262	46739.59
667.612	46777.56
667.962	47021.62
668.312	46876.31
668.662	47068.62
669.011	47039.02
669.361	46895.52
669.711	47062.97
670.06	47073.82
670.41	47086.25
670.76	47072.24
671.109	47314.04
671.459	47078.34
671.808	47075.85
672.157	47187.49
672.507	46904.33
672.856	46921.51
673.205	47043.31
673.554	47079.92
673.904	46811.23
674.253	47085.57
674.602	46898.68
674.951	46157.68
675.3	45900.74
675.649	46400.16
675.998	46182.54
676.346	46149.78
676.695	46183.45
677.044	45777.58
677.393	45994.98
677.741	45965.37
678.09	45784.14
678.438	45598.15
678.787	45782.1
679.135	45790.69
679.484	45427.08
679.832	45719.05
680.181	45531.03
680.529	45678.6
680.877	45631.82
681.225	45518.15
681.573	45950.01
681.922	45791.14
682.27	45616
682.618	45786.39
682.966	45714.76
683.314	45948.65
683.661	45801.31
684.009	45575.33
684.357	45513.63
684.705	45504.37
685.053	45512.28
685.4	45560.64
685.748	45164.26
686.095	45273.41
686.443	44962.24
686.79	44823.93
687.138	44898.06
687.485	44827.1
687.832	44481.8
688.18	44512.98
688.527	44082.03
688.874	44036.16
689.221	43972.43
689.568	43794.81
689.915	43654.7
690.262	43635.04
690.609	43469.62
690.956	43284.31
691.303	43157.76
691.65	43002.51
691.997	42871.9
692.344	42723.42
692.69	42707.38
693.037	42673.71
693.383	42494.96
693.73	42575.86
694.077	42419.25
694.423	42536.76
694.769	42384.68
695.116	42342.87
695.462	42392.59
695.808	42304.45
696.155	42287.96
696.501	42058.13
696.847	42288.63
697.193	41959.83
697.539	42090.22
697.885	41843.22
698.231	41802.09
698.577	41830.11
698.923	41644.58
699.269	41587.41
699.614	41303.12
699.96	41231.03
700.306	41149.68
700.651	40892.74
700.997	40753.98
701.342	40506.08
701.688	40250.72
702.033	40207.11
702.379	40004.85
702.724	39674.01
703.069	39864.74
703.415	39224.08
703.76	39271.99
704.105	39142.95
704.45	39095.05
704.795	38760.59
705.14	38580.26
705.485	38700.25
705.83	38555.85
706.175	38688.95
706.52	38531.67
706.865	38503.87
707.209	38431.56
707.554	38398.11
707.899	38467.94
708.243	38267.04
708.588	38263.2
708.932	38154.96
709.277	38302.98
709.621	38273.82
709.966	38074.51
710.31	38451.45
710.654	37989.76
710.998	38282.19
711.342	38260.94
711.687	38108.4
712.031	37969.88
712.375	37925.58
712.719	37938.47
713.063	37824.34
713.407	37761.3
713.75	37478.59
714.094	37587.29
714.438	37312.49
714.782	37235.43
715.125	37156.34
715.469	37057.36
715.812	36689.69
716.156	36454.44
716.499	36591.38
716.843	36460.31
717.186	36050.83
717.53	36171.28
717.873	36060.77
718.216	35839.31
718.559	35776.94
718.902	35712.31
719.246	35771.52
719.589	35461.69
719.932	35424.63
720.275	35500.56
720.617	35381.7
720.96	35401.81
721.303	35400.45
721.646	35441.58
721.989	35360.45
722.331	35556.61
722.674	35404.97
723.016	35630.96
723.359	35553.22
723.701	35642.93
724.044	35327.91
724.386	35397.29
724.729	35518.19
725.071	35552.77
725.413	35457.63
725.755	35446.78
726.097	35396.39
726.439	35317.52
726.782	35253.34
727.124	35331.75
727.465	35131.53
727.807	35060.58
728.149	35057.19
728.491	34979.67
728.833	34948.94
729.175	34762.73
729.516	34596.41
729.858	34637.54
730.199	34583.98
730.541	34432.34
730.882	34317.09
731.224	34403.87
731.565	34224.44
731.906	34089.98
732.248	34026.7
732.589	33806.37
732.93	33869.65
733.271	33853.6
733.612	33816.09
733.953	33879.36
734.294	33719.82
734.635	33593.72
734.976	33751.68
735.317	33638.24
735.658	33770.21
735.999	33898.35
736.339	33833.26
736.68	33984.9
737.021	33720.72
737.361	33803.43
737.702	34037.33
738.042	33933.15
738.383	34116.19
738.723	34066.25
739.063	34119.36
739.404	34217.66
739.744	34279.58
740.084	34238.22
740.424	34335.17
740.764	34356.19
741.104	34368.62
741.444	34094.72
741.784	34171.33
742.124	34203.87
742.464	34115.06
742.804	34019.7
743.143	33998.46
743.483	33985.8
743.823	33699.71
744.162	33938.12
744.502	33755.52
744.841	33690.89
745.181	33837.78
745.52	33599.6
745.86	33622.65
746.199	33435.53
746.538	33478.47
746.877	33440.28
747.216	33463.1
747.556	33343.33
747.895	33340.17
748.234	33287.97
748.573	33103.11
748.911	33242.09
749.25	33241.19
749.589	33128.87
749.928	33192.38
750.267	33278.48
750.605	33374.74
750.944	33209.55
751.283	33238.48
751.621	33221.53
751.96	33033.96
752.298	33276.22
752.636	33468.98
752.975	33361.41
753.313	33337.46
753.651	33569.77
753.989	33377.23
754.327	33619.26
754.666	33506.04
755.004	33701.29
755.342	33705.13
755.679	33752.59
756.017	33540.62
756.355	33702.64
756.693	33628.75
757.031	33687.28
757.368	33658.35
757.706	33681.63
758.044	33459.94
758.381	33666.04
758.719	33522.08
759.056	33467.17
759.394	33578.13
759.731	33286.16
760.068	33276.22
760.405	33234.18
760.743	33022.21
761.08	33163.9
761.417	32949.67
761.754	32878.94
762.091	32836.68
762.428	32728.21
762.765	32572.28
763.102	32674.2
763.438	32559.85
763.775	32313.98
764.112	32386.97
764.449	32427.42
764.785	32268.11
765.122	32044.38
765.458	31977.94
765.795	32040.32
766.131	32071.05
766.467	31972.07
766.804	31938.4
767.14	31778.18
767.476	31848.91
767.812	31791.73
768.148	31926.42
768.485	31732.75
768.821	31688.46
769.157	31591.51
769.492	31494.79
769.828	31669.7
770.164	31511.29
770.5	31392.42
770.836	31472.87
771.171	31357.62
771.507	31303.84
771.842	31179.32
772.178	31266.32
772.513	31138.64
772.849	31098.65
773.184	30923.51
773.519	30908.14
773.855	30810.97
774.19	30618.21
774.525	30633.35
774.86	30517.42
775.195	30570.75
775.53	30423.64
775.865	30264.09
776.2	30078.11
776.535	29852.35
776.87	29833.59
777.205	29683.54
777.539	29420.05
777.874	29528.97
778.209	29173.27
778.543	29057.34
778.878	29025.71
779.212	28896.22
779.547	28735.54
779.881	28804.47
780.215	28535.1
780.55	28591.59
780.884	28457.13
781.218	28202.9
781.552	28257.59
781.886	28150.7
782.22	28015.34
782.554	27883.59
782.888	27830.26
783.222	27651.96
783.556	27529.7
783.889	27546.87
784.223	27322.47
784.557	27376.48
784.89	27314.79
785.224	27248.13
785.557	27158.64
785.891	27091.07
786.224	27095.59
786.558	27029.83
786.891	26796.16
787.224	26738.99
787.557	26713
787.891	26736.27
788.224	26741.7
788.557	26681.81
788.89	26540.35
789.223	26525.88
789.556	26362.27
789.888	26399.11
790.221	26241.15
790.554	26106.91
790.887	26164.76
791.219	26044.99
791.552	25925.22
791.884	25752.12
792.217	25614.5
792.549	25651.56
792.882	25452.47
793.214	25382.86
793.546	25327.95
793.879	25230.55
794.211	25004.79
794.543	25123.44
794.875	24900.62
795.207	24931.58
795.539	24814.29
795.871	24723.45
796.203	24431.7
796.535	24325.94
796.867	24185.16
797.198	24126.63
797.53	24154.87
797.862	23899.06
798.193	23919.63
798.525	23780.65
798.856	23800.53
799.188	23678.5
799.519	23549.47
799.85	23387.66
800.182	23418.17
800.513	23495.68
800.844	23199.87
801.175	23339.53
801.506	23295.01
801.837	23059.53
802.168	23111.74
802.499	23135.69
802.83	22951.74
803.161	22871.74
803.491	22970.27
803.822	23003.49
804.153	22846.89
804.483	22799.88
804.814	22707.45
805.145	22737.06
805.475	22695.48
805.805	22673.33
806.136	22649.38
806.466	22556.5
806.796	22630.17
807.126	22355.82
807.457	22401.7
807.787	22336.62
808.117	22263.17
808.447	22191.08
808.777	22246.22
809.107	22064.31
809.436	21951.54
809.766	22094.59
810.096	21954.03
810.426	21844.88
810.755	21933.46
811.085	21687.82
811.414	21696.63
811.744	21480.14
812.073	21477.43
812.403	21433.59
812.732	21295.29
813.061	21215.06
813.39	21101.85
813.719	21046.48
814.049	21235.85
814.378	21170.32
814.707	20956.54
815.036	20985.92
815.365	20808.97
815.693	20592.48
816.022	20747.96
816.351	20522.88
816.68	20403.56
817.008	20520.39
817.337	20307.29
817.665	20369.21
817.994	20357.23
818.322	20323.56
818.651	20154.98
818.979	20027.07
819.307	20240.63
819.636	20093.06
819.964	20017.58
820.292	20077.47
820.62	19979.16
820.948	19946.4
821.276	20056
821.604	20041.31
821.932	20014.42
822.259	19985.94
822.587	20051.7
822.915	19912.05
823.243	20101.42
823.57	20024.36
823.898	20138.26
824.225	20057.58
824.553	20064.13
824.88	20080.4
825.207	20266.61
825.535	20192.94
825.862	20249.89
826.189	20022.78
826.516	20202.66
826.843	20246.73
827.17	20281.08
827.497	20266.61
827.824	20193.4
828.151	20213.06
828.478	20213.96
828.805	20343.67
829.131	20195.43
829.458	20170.35
829.785	19940.29
830.111	20133.51
830.438	20178.71
830.764	20080.18
831.09	20037.24
831.417	19952.95
831.743	20073.62
832.069	20093.96
832.395	19912.95
832.722	20018.03
833.048	19879.28
833.374	19906.62
833.7	19838.38
834.026	19761.77
834.351	19856.91
834.677	19847.42
835.003	19868.88
835.329	19849.22
835.654	19719.96
835.98	19702.34
836.306	19600.42
836.631	19496.69
836.956	19586.63
837.282	19556.12
837.607	19399.97
837.932	19315.9
838.258	19396.58
838.583	19301.44
838.908	19181.67
839.233	19154.1
839.558	19075.01
839.883	19096.48
840.208	19051.28
840.533	19001.56
840.858	19158.17
841.182	19026.42
841.507	19117.27
841.832	19048.11
842.156	18959.08
842.481	19038.17
842.805	18906.2
843.13	18815.13
843.454	18930.83
843.778	18876.37
844.103	18832.53
844.427	18788.69
844.751	18664.4
845.075	18710.5
845.399	18627.79
845.723	18503.95
846.047	18457.85
846.371	18409.26
846.695	18447.45
847.019	18184.63
847.343	18138.99
847.666	18142.6
847.99	18096.95
848.313	18096.73
848.637	18001.81
848.96	17875.04
849.284	17868.94
849.607	17802.5
849.931	17783.52
850.254	17611.54
850.577	17475.05
850.9	17322.51
851.223	17397.76
851.546	17264.89
851.869	17236.19
852.192	17223.08
852.515	17087.49
852.838	17111.89
853.161	17084.32
853.483	16980.15
853.806	16888.17
854.129	16734.28
854.451	16732.7
854.774	16604.11
855.096	16675.75
855.419	16477.11
855.741	16505.58
856.063	16422.2
856.385	16399.6
856.708	16234.63
857.03	16181.07
857.352	16212.26
857.674	16214.52
857.996	16033.05
858.318	15915.09
858.64	15994.18
858.961	15915.54
859.283	15814.98
859.605	15746.28
859.926	15809.78
860.248	15684.14
860.57	15569.11
860.891	15687.75
861.212	15605.72
861.534	15595.78
861.855	15475.55
862.176	15564.59
862.498	15566.4
862.819	15506.51
863.14	15406.18
863.461	15469.68
863.782	15336.35
864.103	15395.1
864.424	15336.35
864.745	15366.18
865.065	15337.25
865.386	15334.54
865.707	15282.11
866.027	15254.32
866.348	15265.84
866.668	15207.09
866.989	15189.23
867.309	15052.51
867.63	15160.31
867.95	15252.06
868.27	15062.91
868.59	15158.5
868.91	15126.18
869.23	15140.42
869.55	15053.19
869.87	15134.77
870.19	15019.97
870.51	15106.98
870.83	15026.75
871.15	14937.26
871.469	14912.63
871.789	14969.58
872.109	14918.96
872.428	14835.34
872.748	14884.61
873.067	14747.44
873.386	14673.09
873.706	14705.18
874.025	14593.54
874.344	14584.05
874.663	14634.45
874.982	14510.38
875.301	14503.15
875.62	14416.37
875.939	14455.02
876.258	14408.01
876.577	14348.13
876.896	14301.12
877.214	14234
877.533	14302.03
877.852	14278.07
878.17	14188.58
878.489	14181.35
878.807	14149.03
879.125	14158.53
879.444	14013.67
879.762	14001.47
880.08	13987.68
880.398	13898.87
880.716	13945.88
881.034	13850.29
881.352	13907.46
881.67	13870.62
881.988	13834.69
882.306	13849.16
882.624	13713.79
882.941	13658.65
883.259	13634.7
883.577	13617.75
883.894	13606.68
884.212	13518.32
884.529	13530.97
884.846	13540.92
885.164	13523.06
885.481	13561.71
885.798	13565.1
886.115	13487.36
886.432	13521.93
886.75	13438.54
887.067	13413.01
887.383	13384.54
887.7	13431.54
888.017	13385.89
888.334	13398.09
888.651	13337.76
888.967	13205.78
889.284	13257.53
889.6	13276.97
889.917	13129.85
890.233	13184.09
890.55	13144.77
890.866	13214.14
891.182	13090.98
891.498	13134.6
891.815	13086.92
892.131	12974.38
892.447	12980.93
892.763	12950.42
893.079	12894.15
893.395	12867.49
893.71	12848.5
894.026	12822.97
894.342	12804.21
894.657	12653.93
894.973	12650.54
895.289	12664.1
895.604	12570.77
895.92	12616.42
896.235	12449.42
896.55	12405.8
896.865	12427.72
897.181	12287.39
897.496	12222.76
897.811	12155.41
898.126	12099.15
898.441	12089.88
898.756	12003.1
899.071	11947.28
899.386	12038.58
899.7	11873.16
900.015	11861.64
900.33	11771.47
900.644	11737.8
900.959	11794.75
901.273	11656.67
901.588	11599.95
901.902	11579.16
902.216	11488.09
902.531	11449.22
902.845	11374.87
903.159	11303.23
903.473	11271.14
903.787	11249.68
904.101	11172.84
904.415	11159.51
904.729	11113.63
905.042	11020.08
905.356	11031.15
905.67	10995.45
905.984	11007.65
906.297	10952.28
906.611	10883.58
906.924	10933.3
907.237	10866.18
907.551	10807.65
907.864	10769.91
908.177	10774.89
908.491	10748.67
908.804	10689.01
909.117	10647.88
909.43	10631.39
909.743	10553.88
910.056	10593.2
910.368	10522.24
910.681	10509.58
910.994	10508
911.307	10418.29
911.619	10369.93
911.932	10393.43
912.244	10345.52
912.557	10326.76
912.869	10295.12
913.181	10183.49
913.494	10248.57
913.806	10135.13
914.118	10166.31
914.43	10134
914.742	10078.18
915.054	10029.14
915.366	9985.08
915.678	9989.82
915.99	9861.46
916.302	9823.72
916.613	9765.2
916.925	9771.07
917.236	9727
917.548	9610.62
917.859	9659.66
918.171	9624.18
918.482	9540.12
918.794	9467.12
919.105	9491.3
919.416	9334.25
919.727	9331.99
920.038	9325.66
920.349	9275.26
920.66	9204.31
920.971	9187.58
921.282	9124.08
921.593	9123.86
921.903	9002.96
922.214	8959.57
922.525	9047.7
922.835	8905.56
923.146	8817.42
923.456	8823.3
923.767	8754.6
924.077	8774.49
924.387	8702.62
924.697	8621.5
925.008	8548.73
925.318	8522.74
925.628	8488.39
925.938	8496.08
926.248	8394.16
926.558	8383.08
926.867	8319.58
927.177	8321.39
927.487	8282.97
927.796	8216.08
928.106	8208.85
928.416	8122.75
928.725	8094.96
929.034	8092.47
929.344	8007.28
929.653	8015.41
929.962	8000.04
930.271	7903.32
930.581	7953.27
930.89	7895.41
931.199	7905.36
931.508	7945.81
931.817	7886.6
932.125	7824
932.434	7820.16
932.743	7697.23
933.051	7709.43
933.36	7712.37
933.669	7686.83
933.977	7675.31
934.286	7670.56
934.594	7648.64
934.902	7587.17
935.21	7529.1
935.519	7559.6
935.827	7556.21
936.135	7496.55
936.443	7404.58
936.751	7459.95
937.059	7421.75
937.367	7377.24
937.674	7418.82
937.982	7386.73
938.29	7281.87
938.597	7266.96
938.905	7170.01
939.213	7264.47
939.52	7173.17
939.827	7136.34
940.135	7146.73
940.442	7126.17
940.749	7074.87
941.056	7062.67
941.363	6984.03
941.67	6985.16
941.977	6854.54
942.284	6830.58
942.591	6872.39
942.898	6850.02
943.205	6831.49
943.511	6759.17
943.818	6710.13
944.125	6619.74
944.431	6627.65
944.738	6614.77
945.044	6519.18
945.35	6549.01
945.657	6480.08
945.963	6476.47
946.269	6369.8
946.575	6436.7
946.881	6366.64
947.187	6364.61
947.493	6273.31
947.799	6299.07
948.105	6187.21
948.41	6208.45
948.716	6164.16
949.022	6155.12
949.327	6097.27
949.633	6045.52
949.938	6074.44
950.244	6091.39
950.549	6045.29
950.854	6020.43
951.16	5961.91
951.465	5918.06
951.77	5869.48
952.075	5852.08
952.38	5824.51
952.685	5812.98
952.99	5814.79
953.294	5770.27
953.599	5725.98
953.904	5720.33
954.209	5671.07
954.513	5677.39
954.818	5647.11
955.122	5580.22
955.426	5623.61
955.731	5561.92
956.035	5575.02
956.339	5570.73
956.643	5535.02
956.948	5516.72
957.252	5547.68
957.556	5513.33
957.86	5464.07
958.163	5442.82
958.467	5484.63
958.771	5388.36
959.075	5370.73
959.378	5368.02
959.682	5317.18
959.985	5353.56
960.289	5322.15
960.592	5240.12
960.896	5314.46
961.199	5296.84
961.502	5221.59
961.805	5213
962.108	5218.42
962.411	5178.88
962.714	5167.58
963.017	5166.45
963.32	5125.54
963.623	5110.85
963.926	5109.05
964.228	5025.43
964.531	5042.83
964.833	5030.86
965.136	5010.29
965.438	5011.65
965.741	4946.11
966.043	4965.32
966.345	4906.79
966.648	4931.42
966.95	4898.66
967.252	4841.26
967.554	4847.58
967.856	4780.92
968.158	4735.72
968.46	4794.25
968.761	4731.88
969.063	4693.01
969.365	4689.4
969.666	4592.45
969.968	4600.59
970.269	4604.88
970.571	4579.79
970.872	4512.23
971.174	4484.2
971.475	4538.21
971.776	4472.45
972.077	4526.46
972.378	4460.25
972.679	4459.35
972.98	4385
973.281	4325.11
973.582	4360.82
973.883	4300.48
974.183	4274.04
974.484	4283.98
974.785	4212.57
975.085	4193.36
975.386	4234.27
975.686	4184.55
975.986	4132.8
976.287	4132.57
976.587	4103.2
976.887	4089.41
977.187	4090.32
977.487	4088.28
977.787	4083.54
978.087	4029.75
978.387	4032.01
978.687	4024.56
978.987	3984.33
979.286	3950.21
979.586	3928.06
979.885	3910.89
980.185	3855.29
980.484	3908.17
980.784	3848.06
981.083	3855.29
981.382	3804.9
981.682	3839.25
981.981	3804.67
982.28	3806.03
982.579	3826.37
982.878	3806.93
983.177	3793.37
983.475	3763.09
983.774	3729.87
984.073	3697.56
984.372	3689.87
984.67	3718.8
984.969	3719.03
985.267	3687.39
985.566	3681.97
985.864	3679.48
986.162	3679.25
986.461	3644.45
986.759	3623.44
987.057	3584.11
987.355	3614.4
987.653	3584.57
987.951	3582.08
988.249	3567.62
988.547	3542.99
988.844	3567.62
989.142	3534.17
989.44	3513.61
989.737	3516.77
990.035	3453.95
990.332	3446.49
990.63	3450.78
990.927	3429.99
991.224	3436.55
991.521	3413.95
991.819	3342.09
992.116	3342.54
992.413	3338.02
992.71	3314.29
993.006	3307.96
993.303	3281.75
993.6	3295.53
993.897	3237.23
994.193	3222.99
994.49	3180.28
994.787	3187.06
995.083	3160.17
995.379	3146.61
995.676	3146.61
995.972	3114.07
996.268	3129.66
996.565	3092.6
996.861	3056.9
997.157	3058.93
997.453	3020.51
997.749	3015.99
998.044	2999.95
998.34	2964.24
998.636	2949.1
998.932	2943.68
999.227	2945.26
999.523	2927.18
999.818	2905.04
1000.114	2836.34
1000.409	2839.95
1000.704	2833.85
1001	2796.34
1001.295	2817.13
1001.59	2769.67
1001.885	2739.62
1002.18	2730.58
1002.475	2749.33
1002.77	2686.29
1003.065	2689.45
1003.359	2676.34
1003.654	2663.69
1003.949	2666.4
1004.243	2620.3
1004.538	2614.87
1004.832	2592.73
1005.127	2595.67
1005.421	2559.28
1005.715	2543.69
1006.009	2567.87
1006.304	2531.71
1006.598	2464.6
1006.892	2491.71
1007.186	2467.08
1007.48	2468.44
1007.773	2448.55
1008.067	2429.34
1008.361	2435.9
1008.655	2426.86
1008.948	2372.85
1009.242	2394.09
1009.535	2390.47
1009.829	2354.09
1010.122	2347.09
1010.415	2366.97
1010.708	2355.22
1011.001	2324.03
1011.295	2320.42
1011.588	2288.56
1011.881	2296.92
1012.173	2290.82
1012.466	2245.62
1012.759	2253.08
1013.052	2269.35
1013.344	2236.13
1013.637	2227.31
1013.93	2214.89
1014.222	2209.91
1014.514	2197.26
1014.807	2177.15
1015.099	2192.51
1015.391	2216.47
1015.683	2147.99
1015.976	2160.2
1016.268	2122.68
1016.56	2094.44
1016.851	2076.81
1017.143	2101.89
1017.435	2074.55
1017.727	2068.67
1018.018	2049.01
1018.31	2038.84
1018.602	2036.36
1018.893	2048.34
1019.185	1983.25
1019.476	1993.42
1019.767	1991.39
1020.058	1960.65
1020.35	1945.97
1020.641	1912.75
1020.932	1904.84
1021.223	1913.42
1021.514	1865.97
1021.804	1856.02
1022.095	1862.8
1022.386	1851.5
1022.677	1834.78
1022.967	1841.56
1023.258	1825.29
1023.548	1773.54
1023.839	1807.89
1024.129	1785.74
1024.419	1780.32
1024.709	1772.19
1025	1749.81
1025.29	1677.5
1025.58	1693.54
1025.87	1713.43
1026.16	1697.61
1026.449	1681.34
1026.739	1650.15
1027.029	1658.29
1027.319	1643.6
1027.608	1600.44
1027.898	1611.06
1028.187	1625.75
1028.477	1579.65
1028.766	1601.34
1029.055	1553.89
1029.344	1531.29
1029.634	1560.21
1029.923	1527.45
1030.212	1535.58
1030.501	1506.2
1030.79	1492.87
1031.078	1477.96
1031.367	1458.29
1031.656	1489.48
1031.945	1449.48
1032.233	1435.24
1032.522	1429.82
1032.81	1437.28
1033.099	1409.71
1033.387	1404.74
1033.675	1381.91
1033.963	1369.03
1034.251	1384.17
1034.54	1353.89
1034.828	1343.27
1035.116	1335.81
1035.403	1342.37
1035.691	1351.41
1035.979	1316.6
1036.267	1342.59
1036.554	1312.31
1036.842	1284.74
1037.129	1265.76
1037.417	1300.56
1037.704	1262.37
1037.992	1256.72
1038.279	1251.97
1038.566	1238.41
1038.853	1238.41
1039.14	1238.41
