Data from blue_clamp_base_FLMS001491_00002.txt Node
Date: Wed Feb 08 15:15:27 GMT 2017
User: dcchb
Spectrometer: FLMS00149
Trigger mode: 0
Integration Time (sec): 2.000000E-2
Scans to average: 10
Electric dark correction enabled: true
Nonlinearity correction enabled: false
Boxcar width: 0
XAxis mode: Wavelengths
Number of Pixels in Spectrum: 2048
>>>>>Begin Spectral Data<<<<<
341.393	-8.14
341.776	-8.14
342.16	-8.14
342.543	-64.18
342.927	-75.48
343.31	-49.26
343.693	-66.89
344.077	-68.7
344.46	-60.79
344.843	-59.21
345.226	-37.51
345.61	-39.32
345.993	-22.37
346.376	-11.53
346.759	4.07
347.142	19.89
347.525	42.26
347.908	62.37
348.291	68.7
348.674	92.65
349.057	125.65
349.44	118.41
349.823	137.17
350.206	175.36
350.588	177.4
350.971	198.86
351.354	214.68
351.737	227.56
352.119	233.67
352.502	227.34
352.884	256.94
353.267	268.02
353.65	268.92
354.032	296.26
354.414	294.91
354.797	300.78
355.179	329.93
355.562	302.59
355.944	326.77
356.326	328.58
356.709	331.29
357.091	319.77
357.473	326.32
357.855	328.58
358.238	341.46
358.62	348.01
359.002	318.86
359.384	340.56
359.766	334.45
360.148	324.96
360.53	331.74
360.912	344.4
361.294	323.61
361.676	318.18
362.057	331.74
362.439	328.58
362.821	363.15
363.203	330.61
363.584	314.79
363.966	292.87
364.348	309.82
364.729	324.51
365.111	327.45
365.493	300.78
365.874	316.38
366.256	319.54
366.637	296.94
367.019	304.17
367.4	326.09
367.781	297.39
368.163	310.5
368.544	309.37
368.925	320.22
369.306	303.27
369.688	301.46
370.069	310.95
370.45	295.59
370.831	296.49
371.212	284.51
371.593	305.3
371.974	313.44
372.355	315.25
372.736	311.4
373.117	328.35
373.498	317.05
373.879	331.74
374.26	325.42
374.641	309.82
375.021	336.94
375.402	315.92
375.783	314.79
376.163	302.82
376.544	322.25
376.925	345.75
377.305	341.46
377.686	309.14
378.066	303.95
378.447	341.01
378.827	303.27
379.208	330.84
379.588	330.16
379.968	327
380.349	322.48
380.729	318.18
381.109	322.03
381.489	319.09
381.87	338.97
382.25	357.05
382.63	339.2
383.01	339.88
383.39	336.94
383.77	341.69
384.15	330.84
384.53	345.98
384.91	349.82
385.29	361.35
385.67	346.43
386.049	352.08
386.429	346.43
386.809	365.19
387.189	350.73
387.568	350.95
387.948	344.4
388.328	359.09
388.707	351.86
389.087	383.04
389.466	367
389.846	375.81
390.225	375.58
390.605	365.41
390.984	359.99
391.363	389.14
391.743	369.48
392.122	376.71
392.501	368.35
392.881	388.69
393.26	390.05
393.639	400.67
394.018	382.81
394.397	417.62
394.776	391.85
395.155	388.46
395.534	396.83
395.913	407.67
396.292	405.41
396.671	399.76
397.05	422.59
397.429	421.91
397.808	420.1
398.186	428.01
398.565	433.66
398.944	438.18
399.323	434.34
399.701	474.11
400.08	456.94
400.458	455.58
400.837	470.04
401.215	428.24
401.594	461.68
401.972	469.37
402.351	467.78
402.729	451.51
403.107	496.03
403.486	506.43
403.864	498.52
404.242	489.93
404.62	499.65
404.999	504.62
405.377	514.79
405.755	525.41
406.133	522.47
406.511	519.76
406.889	549.14
407.267	543.71
407.645	533.32
408.023	540.78
408.401	561.57
408.779	567.22
409.156	584.84
409.534	575.58
409.912	550.27
410.29	617.61
410.667	591.85
411.045	616.25
411.422	633.2
411.8	615.8
412.178	632.75
412.555	638.4
412.933	644.5
413.31	634.79
413.687	629.59
414.065	656.25
414.442	661.9
414.819	661.68
415.197	675.46
415.574	697.38
415.951	709.13
416.328	702.58
416.705	694.45
417.082	693.32
417.46	712.07
417.837	745.74
418.214	723.37
418.591	715.24
418.967	747.55
419.344	746.65
419.721	760.43
420.098	748
420.475	765.86
420.852	786.19
421.228	761.79
421.605	789.36
421.982	792.07
422.358	779.19
422.735	797.27
423.111	812.18
423.488	825.97
423.864	835.46
424.241	860.54
424.617	837.49
424.994	872.97
425.37	843.82
425.746	861.45
426.123	851.73
426.499	891.5
426.875	884.5
427.251	904.83
427.627	925.85
428.003	898.51
428.379	939.64
428.756	969.24
429.132	1006.08
429.507	958.39
429.883	986.19
430.259	997.49
430.635	1035.68
431.011	1029.8
431.387	1015.34
431.763	1053.31
432.138	1064.15
432.514	1091.04
432.89	1051.95
433.265	1091.04
433.641	1124.94
434.016	1120.42
434.392	1143.47
434.767	1175.79
435.143	1172.4
435.518	1190.25
435.894	1174.66
436.269	1223.02
436.644	1217.6
437.02	1220.31
437.395	1279.97
437.77	1264.83
438.145	1271.15
438.52	1307.08
438.895	1313.41
439.271	1310.47
439.646	1335.78
440.021	1346.86
440.395	1373.98
440.77	1330.81
441.145	1330.13
441.52	1389.12
441.895	1414.65
442.27	1404.03
442.645	1406.06
443.019	1410.36
443.394	1442.67
443.769	1447.42
444.143	1437.48
444.518	1465.27
444.892	1472.73
445.267	1511.82
445.641	1513.18
446.016	1500.3
446.39	1518.38
446.764	1554.31
447.139	1554.54
447.513	1553.86
447.887	1565.83
448.262	1569.68
448.636	1571.26
449.01	1600.86
449.384	1635.66
449.758	1641.76
450.132	1626.85
450.506	1693.74
450.88	1673.4
451.254	1697.36
451.628	1730.35
452.002	1709.11
452.376	1711.14
452.75	1744.13
453.123	1772.61
453.497	1751.14
453.871	1779.39
454.244	1829.1
454.618	1860.52
454.992	1891.48
455.365	1878.37
455.739	1944.58
456.112	1938.25
456.486	1907.52
456.859	1944.58
457.232	2024.58
457.606	1993.62
457.979	2021.64
458.352	2082.88
458.725	2070.23
459.099	2118.36
459.472	2113.84
459.845	2151.36
460.218	2180.28
460.591	2185.48
460.964	2194.07
461.337	2251.47
461.71	2260.05
462.083	2292.37
462.456	2276.1
462.829	2276.1
463.201	2327.62
463.574	2352.48
463.947	2359.26
464.32	2420.95
464.692	2438.13
465.065	2448.75
465.438	2490.33
465.81	2531.68
466.183	2507.28
466.555	2570.33
466.928	2561.97
467.3	2597.45
467.672	2594.51
468.045	2671.79
468.417	2692.81
468.789	2692.58
469.161	2723.77
469.534	2767.61
469.906	2803.09
470.278	2826.82
470.65	2849.87
471.022	2900.94
471.394	2971.67
471.766	2993.82
472.138	3043.99
472.51	3066.81
472.882	3093.03
473.253	3138.45
473.625	3162.63
473.997	3236.07
474.369	3215.06
474.74	3200.37
475.112	3277.2
475.484	3389.97
475.855	3408.5
476.227	3391.1
476.598	3550.64
476.97	3511.77
477.341	3569.17
477.713	3601.04
478.084	3633.58
478.455	3747.25
478.827	3728.26
479.198	3848.71
479.569	3840.58
479.94	3925.09
480.311	3933.68
480.682	4011.42
481.053	4090.97
481.424	4126.45
481.795	4158.53
482.166	4226.56
482.537	4271.3
482.908	4337.74
483.279	4332.99
483.65	4389.94
484.021	4484.18
484.391	4489.37
484.762	4457.06
485.133	4547.9
485.503	4584.74
485.874	4650.95
486.244	4662.7
486.615	4784.96
486.985	4768.01
487.356	4884.84
487.726	4854.79
488.097	4970.49
488.467	4959.87
488.837	5061.11
489.207	5104.5
489.578	5176.14
489.948	5178.85
490.318	5236.92
490.688	5205.96
491.058	5267.43
491.428	5291.39
491.798	5357.37
492.168	5446.18
492.538	5442.12
492.908	5504.71
493.278	5496.8
493.648	5491.83
494.017	5551.94
494.387	5573.64
494.757	5597.59
495.126	5674.88
495.496	5625.84
495.866	5660.19
496.235	5730.47
496.605	5737.25
496.974	5761.43
497.344	5758.27
497.713	5825.61
498.082	5858.15
498.452	5898.15
498.821	5839.85
499.19	5873.74
499.559	5911.48
499.928	5932.5
500.298	5953.06
500.667	5956.23
501.036	5969.11
501.405	5991.25
501.774	6009.33
502.143	6012.27
502.512	5996.23
502.88	6065.83
503.249	6068.09
503.618	6072.83
503.987	6090.91
504.356	6111.03
504.724	6166.84
505.093	6109.22
505.462	6161.87
505.83	6228.76
506.199	6170.23
506.567	6296.56
506.936	6202.55
507.304	6292.04
507.672	6278.48
508.041	6317.12
508.409	6298.82
508.777	6349.21
509.145	6380.4
509.514	6399.61
509.882	6391.47
510.25	6416.33
510.618	6436.89
510.986	6452.26
511.354	6459.72
511.722	6553.27
512.09	6546.49
512.458	6533.61
512.826	6546.72
513.193	6588.98
513.561	6594.4
513.929	6613.16
514.297	6668.3
514.664	6639.37
515.032	6661.07
515.4	6779.26
515.767	6689.99
516.135	6706.49
516.502	6729.77
516.869	6777
517.237	6737.9
517.604	6723.89
517.972	6811.35
518.339	6852.02
518.706	6826.71
519.073	6843.89
519.44	6842.31
519.808	6922.08
520.175	6885.92
520.542	6937.9
520.909	6941.96
521.276	6960.27
521.643	7015.63
522.009	7043.43
522.376	7061.74
522.743	7035.07
523.11	7089.53
523.477	7124.56
523.843	7173.6
524.21	7265.12
524.577	7197.78
524.943	7270.54
525.31	7247.49
525.676	7278.45
526.043	7369.3
526.409	7349.64
526.776	7436.41
527.142	7437.09
527.508	7448.62
527.874	7485.45
528.241	7481.84
528.607	7480.26
528.973	7594.38
529.339	7538.11
529.705	7631.89
530.071	7657.88
530.437	7696.29
530.803	7660.82
531.169	7744.88
531.535	7714.15
531.901	7772.68
532.267	7721.6
532.632	7775.61
532.998	7818.33
533.364	7852
533.73	7924.99
534.095	7898.32
534.461	8003.86
534.826	7969.73
535.192	7966.34
535.557	7979.9
535.923	7947.14
536.288	7997.53
536.653	8081.14
537.019	8010.18
537.384	8085.89
537.749	8096.74
538.114	8182.16
538.479	8175.15
538.845	8143.51
539.21	8204.76
539.575	8221.48
539.94	8147.36
540.305	8187.13
540.67	8265.55
541.034	8255.6
541.399	8299.67
541.764	8282.95
542.129	8297.63
542.494	8387.12
542.858	8340.12
543.223	8412.66
543.587	8414.69
543.952	8383.06
544.316	8392.1
544.681	8454.92
545.045	8464.64
545.41	8490.4
545.774	8461.92
546.138	8439.33
546.503	8513.9
546.867	8506.67
547.231	8656.04
547.595	8616.04
547.959	8573.56
548.324	8583.28
548.688	8602.03
549.052	8595.25
549.416	8672.31
549.779	8613.33
550.143	8726.1
550.507	8678.42
550.871	8689.26
551.235	8683.84
551.599	8773.55
551.962	8830.5
552.326	8844.29
552.689	8825.98
553.053	8775.59
553.417	8797.73
553.78	8821.24
554.143	8832.76
554.507	8816.49
554.87	8829.15
555.234	8960.89
555.597	8863.5
555.96	8910.05
556.323	8892.87
556.686	8943.95
557.05	8965.64
557.413	8946.66
557.776	8967.9
558.139	9016.94
558.502	9002.02
558.865	9071.85
559.228	9091.96
559.59	9081.12
559.953	9083.38
560.316	9216.48
560.679	9175.35
561.041	9199.98
561.404	9224.16
561.767	9251.06
562.129	9211.74
562.492	9363.6
562.854	9290.38
563.217	9346.42
563.579	9324.5
563.941	9386.42
564.304	9421
564.666	9452.41
565.028	9442.46
565.39	9508
565.753	9487.66
566.115	9524.04
566.477	9549.35
566.839	9574.44
567.201	9644.49
567.563	9589.35
567.925	9716.58
568.287	9692.63
568.648	9699.86
569.01	9780.08
569.372	9822.57
569.734	9802.45
570.095	9874.54
570.457	9858.5
570.819	9904.37
571.18	9884.49
571.542	9955.22
571.903	10021.66
572.265	10002
572.626	10037.25
572.987	10019.62
573.349	10060.98
573.71	10149.34
574.071	10083.12
574.432	10099.85
574.794	10209.9
575.155	10220.97
575.516	10227.3
575.877	10243.12
576.238	10293.29
576.599	10256.68
576.96	10357.47
577.32	10265.72
577.681	10368.09
578.042	10368.99
578.403	10401.31
578.763	10372.38
579.124	10431.82
579.485	10468.88
579.845	10499.84
580.206	10508.2
580.566	10502.55
580.927	10450.57
581.287	10550.01
581.648	10582.32
582.008	10577.12
582.368	10613.05
582.728	10559.27
583.089	10573.73
583.449	10597.24
583.809	10577.12
584.169	10581.87
584.529	10627.07
584.889	10712.94
585.249	10565.6
585.609	10551.81
585.969	10702.77
586.329	10610.79
586.688	10680.17
587.048	10716.55
587.408	10690.11
587.768	10663.22
588.127	10679.04
588.487	10669.32
588.846	10784.35
589.206	10630.91
589.565	10707.74
589.925	10742.32
590.284	10711.81
590.643	10741.86
591.003	10663
591.362	10802.43
591.721	10800.39
592.08	10761.75
592.44	10792.03
592.799	10731.7
593.158	10807.4
593.517	10799.49
593.876	10850.56
594.235	10773.05
594.593	10853.5
594.952	10857.79
595.311	10738.93
595.67	10808.98
596.029	10877.45
596.387	10858.92
596.746	10938.92
597.104	10912.03
597.463	10865.7
597.822	10886.95
598.18	10825.93
598.538	10801.75
598.897	10905.7
599.255	10890.34
599.613	11011.01
599.972	10827.51
600.33	10890.11
600.688	10839.49
601.046	10988.19
601.404	10994.74
601.762	11008.07
602.12	11014.85
602.478	10962.2
602.836	11011.24
603.194	10946.38
603.552	10936.44
603.91	11000.61
604.268	11008.3
604.625	11053.04
604.983	10969.88
605.341	10983.21
605.698	11036.09
606.056	11042.2
606.413	11072.48
606.771	11073.38
607.128	11077.9
607.485	10967.4
607.843	11055.98
608.2	11160.61
608.557	11211.68
608.914	11141.18
609.272	11099.6
609.629	11183.89
609.986	11202.87
610.343	11118.8
610.7	11226.82
611.057	11152.02
611.414	11243.09
611.771	11171.91
612.127	11207.84
612.484	11205.13
612.841	11255.75
613.198	11240.61
613.554	11269.08
613.911	11305.47
614.267	11381.62
614.624	11290.78
614.98	11354.73
615.337	11296.65
615.693	11384.79
616.05	11347.05
616.406	11401.51
616.762	11374.84
617.118	11372.36
617.475	11363.54
617.831	11407.38
618.187	11388.85
618.543	11390.89
618.899	11422.3
619.255	11463.65
619.611	11455.29
619.967	11514.95
620.323	11560.83
620.678	11449.42
621.034	11478.79
621.39	11521.28
621.746	11491.22
622.101	11580.71
622.457	11493.03
622.812	11567.61
623.168	11672.46
623.523	11579.36
623.879	11555.85
624.234	11491.68
624.589	11621.84
624.945	11564.44
625.3	11629.52
625.655	11586.14
626.01	11702.07
626.365	11702.97
626.72	11673.37
627.075	11617.1
627.43	11664.55
627.785	11634.5
628.14	11695.51
628.495	11681.5
628.85	11736.64
629.205	11729.18
629.559	11748.17
629.914	11740.03
630.269	11707.94
630.623	11684.66
630.978	11749.3
631.332	11847.82
631.687	11781.39
632.041	11816.64
632.396	11877.65
632.75	11854.15
633.104	11833.81
633.459	11839.69
633.813	11811.89
634.167	11772.57
634.521	11777.32
634.875	11859.58
635.229	11832.01
635.583	11833.81
635.937	11883.76
636.291	11827.26
636.645	11898.9
636.999	11815.96
637.352	11992.68
637.706	11860.71
638.06	11935.05
638.413	11933.92
638.767	11885.56
639.121	11888.27
639.474	11864.55
639.828	11988.39
640.181	11907.03
640.534	11981.61
640.888	11963.98
641.241	11954.04
641.594	11966.92
641.947	11911.78
642.301	12015.05
642.654	12028.84
643.007	12019.34
643.36	11988.84
643.713	12006.69
644.066	12112
644.419	12082.85
644.771	12002.4
645.124	11960.82
645.477	11963.75
645.83	11796.53
646.182	11857.77
646.535	11726.25
646.888	11776.19
647.24	11767.6
647.593	11860.71
647.945	11815.06
648.298	11775.51
648.65	11742.52
649.002	11794.94
649.355	11848.5
649.707	11879.24
650.059	11951.32
650.411	12110.42
650.763	12099.57
651.115	12318.32
651.467	12216.63
651.819	12230.19
652.171	12253.24
652.523	12241.71
652.875	12233.58
653.227	12229.06
653.578	12337.98
653.93	12374.82
654.282	12290.52
654.633	12296.17
654.985	12299.11
655.337	12376.4
655.688	12362.16
656.039	12539.56
656.391	12425.21
656.742	12345.21
657.094	12393.57
657.445	12531.87
657.796	12406.45
658.147	12387.7
658.498	12398.09
658.849	12458.88
659.2	12471.99
659.551	12443.51
659.902	12398.32
660.253	12451.42
660.604	12403.52
660.955	12467.69
661.306	12523.96
661.656	12485.77
662.007	12491.42
662.358	12500.69
662.708	12537.3
663.059	12533.91
663.409	12459.33
663.76	12532.1
664.11	12463.4
664.461	12584.75
664.811	12512.21
665.161	12485.55
665.511	12527.81
665.862	12520.8
666.212	12630.63
666.562	12597.18
666.912	12507.02
667.262	12502.95
667.612	12444.87
667.962	12467.69
668.312	12441.48
668.662	12571.65
669.011	12532.78
669.361	12489.16
669.711	12443.29
670.06	12424.76
670.41	12338.21
670.76	12357.19
671.109	12426.57
671.459	12394.48
671.808	12283.97
672.157	12323.07
672.507	12204.42
672.856	12269.51
673.205	12272.67
673.554	12347.25
673.904	12254.59
674.253	12242.62
674.602	12156.74
674.951	12077.2
675.3	12044.88
675.649	12199
675.998	12175.05
676.346	12200.58
676.695	12205.33
677.044	12062.28
677.393	12051.66
677.741	12072.9
678.09	11952.68
678.438	11929.4
678.787	12027.25
679.135	11988.16
679.484	11881.72
679.832	11944.54
680.181	11894.15
680.529	11860.03
680.877	11809.18
681.225	11808.5
681.573	11883.53
681.922	11712.46
682.27	11749.97
682.618	11787.03
682.966	11696.64
683.314	11725.12
683.661	11673.14
684.009	11630.65
684.357	11512.47
684.705	11574.61
685.053	11512.69
685.4	11580.26
685.748	11532.13
686.095	11526.25
686.443	11482.64
686.79	11448.51
687.138	11472.47
687.485	11397.67
687.832	11465.46
688.18	11336.65
688.527	11344.11
688.874	11326.48
689.221	11324.9
689.568	11219.59
689.915	11301.62
690.262	11284.45
690.609	11194.73
690.956	11258.91
691.303	11258.91
691.65	11166.26
691.997	11165.58
692.344	11109.76
692.69	11155.41
693.037	11123.32
693.383	11091.23
693.73	11115.64
694.077	11042.87
694.423	11053.27
694.769	11082.19
695.116	11048.75
695.462	11022.76
695.808	10985.25
696.155	11015.98
696.501	10899.37
696.847	10849.88
697.193	10879.94
697.539	10955.64
697.885	10897.57
698.231	10773.5
698.577	10913.84
698.923	10841.07
699.269	10831.81
699.614	10806.27
699.96	10700.74
700.306	10799.26
700.651	10683.79
700.997	10726.05
701.342	10697.12
701.688	10677.69
702.033	10656.89
702.379	10673.17
702.724	10663.67
703.069	10734.41
703.415	10629.55
703.76	10583.9
704.105	10590
704.45	10578.03
704.795	10577.8
705.14	10487.63
705.485	10541.42
705.83	10459.16
706.175	10523.34
706.52	10527.63
706.865	10479.72
707.209	10444.92
707.554	10510.23
707.899	10509.1
708.243	10449.89
708.588	10475.66
708.932	10420.97
709.277	10421.65
709.621	10431.36
709.966	10322.44
710.31	10377.58
710.654	10327.64
710.998	10336.68
711.342	10387.3
711.687	10370.12
712.031	10381.2
712.375	10269.79
712.719	10308.2
713.063	10305.72
713.407	10342.55
713.75	10278.15
714.094	10305.49
714.438	10296.45
714.782	10260.75
715.125	10239.5
715.469	10332.84
715.812	10238.37
716.156	10174.42
716.499	10214.42
716.843	10272.95
717.186	10165.16
717.53	10277.7
717.873	10234.53
718.216	10277.92
718.559	10222.33
718.902	10162.67
719.246	10181.88
719.589	10139.62
719.932	10147.98
720.275	10150.24
720.617	10137.59
720.96	10177.36
721.303	10120.19
721.646	10189.34
721.989	10105.95
722.331	10157.25
722.674	10125.38
723.016	10154.54
723.359	10167.19
723.701	10171.03
724.044	10142.56
724.386	10065.95
724.729	10069.57
725.071	10117.7
725.413	10117.25
725.755	10150.02
726.097	10091.26
726.439	10038.61
726.782	10075.89
727.124	10160.18
727.465	10096.23
727.807	10135.78
728.149	10078.61
728.491	10013.3
728.833	10105.27
729.175	10138.26
729.516	10156.57
729.858	10130.36
730.199	10130.58
730.541	10146.4
730.882	10142.56
731.224	10163.35
731.565	10114.76
731.906	10110.02
732.248	10208.77
732.589	10085.16
732.93	10151.82
733.271	10098.27
733.612	10148.66
733.953	10145.72
734.294	10117.25
734.635	10148.66
734.976	10244.48
735.317	10200.18
735.658	10207.42
735.999	10243.57
736.339	10207.87
736.68	10303.91
737.021	10249.67
737.361	10246.28
737.702	10268.2
738.042	10231.82
738.383	10326.96
738.723	10328.99
739.063	10290.35
739.404	10355.43
739.744	10376.9
740.084	10367.41
740.424	10406.73
740.764	10343
741.104	10439.27
741.444	10415.32
741.784	10508.65
742.124	10546.16
742.464	10495.77
742.804	10497.58
743.143	10519.5
743.483	10637.91
743.823	10543.45
744.162	10578.03
744.502	10662.54
744.841	10653.73
745.181	10575.99
745.52	10712.26
745.86	10745.25
746.199	10740.28
746.538	10799.04
746.877	10821.41
747.216	10855.31
747.556	10856.44
747.895	10868.19
748.234	10829.55
748.573	10900.96
748.911	10989.54
749.25	11014.17
749.589	10924.23
749.928	11046.94
750.267	11094.62
750.605	11098.01
750.944	11092.36
751.283	11117.67
751.621	11189.54
751.96	11127.62
752.298	11221.85
752.636	11186.37
752.975	11283.32
753.313	11246.03
753.651	11311.57
753.989	11339.36
754.327	11262.75
754.666	11279.93
755.004	11368.29
755.342	11410.55
755.679	11456.42
756.017	11431.79
756.355	11451.68
756.693	11510.88
757.031	11467.5
757.368	11539.13
757.706	11571.22
758.044	11537.55
758.381	11562.86
758.719	11606.02
759.056	11674.5
759.394	11648.06
759.731	11595.85
760.068	11645.8
760.405	11606.7
760.743	11664.1
761.08	11732.57
761.417	11666.59
761.754	11711.78
762.091	11751.56
762.428	11718.11
762.765	11765.57
763.102	11831.78
763.438	11834.49
763.775	11881.72
764.112	11764.89
764.449	11912.46
764.785	11840.82
765.122	11864.32
765.458	11827.94
765.795	11895.51
766.131	11920.59
766.467	11952.23
766.804	11860.25
767.14	11876.52
767.476	11874.26
767.812	11916.3
768.148	11892.12
768.485	11793.59
768.821	11808.28
769.157	11864.77
769.492	11926.01
769.828	11902.06
770.164	11801.72
770.5	11827.26
770.836	11877.88
771.171	11877.2
771.507	11919.23
771.842	11808.73
772.178	11896.86
772.513	11865.9
772.849	11879.91
773.184	11875.85
773.519	11881.04
773.855	11858.67
774.19	11866.81
774.525	11910.42
774.86	11892.34
775.195	11934.15
775.53	11956.52
775.865	11881.04
776.2	11862.29
776.535	11821.38
776.87	11785
777.205	11806.47
777.539	11747.26
777.874	11866.13
778.209	11764.89
778.543	11808.96
778.878	11769.86
779.212	11691.44
779.547	11765.79
779.881	11851.89
780.215	11765.79
780.55	11752.23
780.884	11789.75
781.218	11754.27
781.552	11794.49
781.886	11661.61
782.22	11735.96
782.554	11729.86
782.888	11606.93
783.222	11606.93
783.556	11641.28
783.889	11630.88
784.223	11559.7
784.557	11601.73
784.89	11662.07
785.224	11586.36
785.557	11571.67
785.891	11554.27
786.224	11567.61
786.558	11653.7
786.891	11508.62
787.224	11459.36
787.557	11501.39
787.891	11460.94
788.224	11442.64
788.557	11543.43
788.89	11503.2
789.223	11507.72
789.556	11432.24
789.888	11417.55
790.221	11445.57
790.554	11447.61
790.887	11375.97
791.219	11356.99
791.552	11337.78
791.884	11272.25
792.217	11296.43
792.549	11282.87
792.882	11310.66
793.214	11222.98
793.546	11283.55
793.879	11222.08
794.211	11142.31
794.543	11307.95
794.875	11191.12
795.207	11247.84
795.539	11168.97
795.871	11204.23
796.203	11120.39
796.535	11091.23
796.867	11041.07
797.198	11147.5
797.53	11132.59
797.862	11113.83
798.193	11172.59
798.525	11032.48
798.856	11059.14
799.188	10950.9
799.519	10999.48
799.85	10920.16
800.182	10933.95
800.513	10972.14
800.844	10891.69
801.175	10887.4
801.506	10968.53
801.837	10969.66
802.168	10919.26
802.499	10861.86
802.83	10835.65
803.161	10804.24
803.491	10842.2
803.822	10792.94
804.153	10736.89
804.483	10763.56
804.814	10725.82
805.145	10763.11
805.475	10696.89
805.805	10626.84
806.136	10797.46
806.466	10710.9
806.796	10680.85
807.126	10602.89
807.457	10630.45
807.787	10589.78
808.117	10546.16
808.447	10582.77
808.777	10654.64
809.107	10606.05
809.436	10507.97
809.766	10594.52
810.096	10550.46
810.426	10468.65
810.755	10486.28
811.085	10479.05
811.414	10467.07
811.744	10445.38
812.073	10344.36
812.403	10461.65
812.732	10338.94
813.061	10393.85
813.39	10326.51
813.719	10344.13
814.049	10408.99
814.378	10395.43
814.707	10265.49
815.036	10300.07
815.365	10293.29
815.693	10231.82
816.022	10218.71
816.351	10186.17
816.68	10209.22
817.008	10195.44
817.337	10097.36
817.665	10133.07
817.994	10132.84
818.322	10130.81
818.651	10063.69
818.979	10032.5
819.307	10150.24
819.636	10112.28
819.964	10003.13
820.292	10041.09
820.62	10073.86
820.948	9950.25
821.276	10039.74
821.604	10056.46
821.932	10022.79
822.259	10058.94
822.587	10085.61
822.915	10037.93
823.243	10122.22
823.57	10105.95
823.898	10067.98
824.225	10092.16
824.553	10097.59
824.88	10158.15
825.207	10112.95
825.535	10043.13
825.862	10035.67
826.189	10101.43
826.516	10112.73
826.843	10146.4
827.17	10174.65
827.497	10158.15
827.824	10158.83
828.151	10161.99
828.478	10140.75
828.805	10216.45
829.131	10162.22
829.458	10096.68
829.785	10106.63
830.111	10136.46
830.438	10170.58
830.764	10183.24
831.09	10111.15
831.417	10187.53
831.743	10152.28
832.069	10197.92
832.395	10124.93
832.722	10189.79
833.048	10157.47
833.374	10126.97
833.7	10097.36
834.026	10085.16
834.351	10096.91
834.677	10169.45
835.003	10170.35
835.329	10178.26
835.654	10071.37
835.98	10127.87
836.306	10166.29
836.631	10023.47
836.956	10127.64
837.282	10077.02
837.607	10071.83
837.932	10056.01
838.258	10047.65
838.583	10063.69
838.908	10025.73
839.233	10089.68
839.558	9966.07
839.883	9990.25
840.208	9865.28
840.533	9925.39
840.858	9967.42
841.182	9951.38
841.507	9962.45
841.832	9806.07
842.156	9901.43
842.481	9907.54
842.805	9884.49
843.13	9849.23
843.454	9830.93
843.778	9834.77
844.103	9779.4
844.427	9765.84
844.751	9735.79
845.075	9657.83
845.399	9709.12
845.723	9663.47
846.047	9663.93
846.371	9636.81
846.695	9667.99
847.019	9563.36
847.343	9490.15
847.666	9498.06
847.99	9435.46
848.313	9439.98
848.637	9356.59
848.96	9376.93
849.284	9370.38
849.607	9251.96
849.931	9218.97
850.254	9167.44
850.577	9171.96
850.9	9080.89
851.223	9098.74
851.546	9009.48
851.869	8971.97
852.192	9093.09
852.515	8989.82
852.838	8860.33
853.161	8939.65
853.483	8912.31
853.806	8838.19
854.129	8858.3
854.451	8799.99
854.774	8812.88
855.096	8753.22
855.419	8714.8
855.741	8717.06
856.063	8647.23
856.385	8641.58
856.708	8597.06
857.03	8629.6
857.352	8623.95
857.674	8499.66
857.996	8540.57
858.318	8440
858.64	8489.95
858.961	8490.62
859.283	8452.43
859.605	8413.56
859.926	8444.07
860.248	8417.63
860.57	8386.45
860.891	8385.32
861.212	8366.79
861.534	8273
861.855	8369.05
862.176	8335.37
862.498	8280.23
862.819	8293.57
863.14	8245.43
863.461	8245.21
863.782	8181.71
864.103	8241.14
864.424	8232.55
864.745	8159.56
865.065	8214.02
865.386	8120.01
865.707	8182.16
866.027	8259.9
866.348	8151.42
866.668	8148.49
866.989	8088.37
867.309	8077.98
867.63	8041.37
867.95	8067.13
868.27	7956.63
868.59	8062.61
868.91	8032.33
869.23	8015.83
869.55	7938.32
869.87	8016.96
870.19	7995.27
870.51	8014.93
870.83	7966.12
871.15	7892.9
871.469	7997.53
871.789	7946.91
872.109	7940.13
872.428	7872.34
872.748	7908.49
873.067	7931.77
873.386	7891.09
873.706	7916.85
874.025	7774.03
874.344	7813.35
874.663	7817.2
874.982	7718.67
875.301	7815.61
875.62	7746.24
875.939	7724.54
876.258	7749.4
876.577	7710.53
876.896	7795.5
877.214	7720.7
877.533	7726.58
877.852	7688.61
878.17	7690.42
878.489	7633.02
878.807	7758.21
879.125	7609.97
879.444	7712.34
879.762	7670.31
880.08	7640.7
880.398	7545.79
880.716	7627.6
881.034	7569.07
881.352	7616.97
881.67	7548.05
881.988	7553.93
882.306	7544.21
882.624	7521.61
882.941	7503.08
883.259	7478
883.577	7484.55
883.894	7445.23
884.212	7427.83
884.529	7377.66
884.846	7419.69
885.164	7401.84
885.481	7366.13
885.798	7394.16
886.115	7321.84
886.432	7333.37
886.75	7332.46
887.067	7342.18
887.383	7262.86
887.7	7299.92
888.017	7237.1
888.334	7254.72
888.651	7202.97
888.967	7223.54
889.284	7193.48
889.6	7173.82
889.917	7095.18
890.233	7131.79
890.55	7073.71
890.866	7122.98
891.182	7103.54
891.498	7047.27
891.815	7008.4
892.131	6984.9
892.447	6958.24
892.763	6935.18
893.079	6934.96
893.395	6860.61
893.71	6900.38
894.026	6864
894.342	6907.84
894.657	6849.54
894.973	6832.59
895.289	6803.44
895.604	6761.18
895.92	6690.45
896.235	6767.51
896.55	6675.76
896.865	6686.38
897.181	6673.5
897.496	6666.72
897.811	6682.54
898.126	6640.96
898.441	6575.42
898.756	6604.8
899.071	6559.15
899.386	6548.98
899.7	6517.34
900.015	6481.41
900.33	6420.62
900.644	6412.03
900.959	6426.5
901.273	6312.83
901.588	6373.39
901.902	6286.16
902.216	6309.89
902.531	6318.7
902.845	6312.38
903.159	6269.89
903.473	6233.06
903.787	6200.97
904.101	6201.42
904.415	6196
904.729	6107.64
905.042	6112.38
905.356	6071.25
905.67	6098.82
905.984	6098.37
906.297	6067.41
906.611	5997.81
906.924	6031.93
907.237	5957.81
907.551	5912.61
907.864	5977.92
908.177	5906.51
908.491	5891.14
908.804	5851.82
909.117	5854.54
909.43	5770.24
909.743	5796.46
910.056	5806.63
910.368	5749.23
910.681	5691.38
910.994	5708.1
911.307	5685.73
911.619	5679.62
911.932	5610.25
912.244	5571.83
912.557	5631.26
912.869	5607.54
913.181	5516.92
913.494	5511.49
913.806	5496.8
914.118	5491.61
914.43	5513.75
914.742	5473.53
915.054	5403.02
915.366	5403.02
915.678	5389.24
915.99	5372.51
916.302	5285.51
916.613	5331.16
916.925	5262.23
917.236	5311.72
917.548	5290.48
917.859	5301.56
918.171	5205.06
918.482	5191.73
918.794	5175.23
919.105	5157.38
919.416	5116.7
919.727	5085.97
920.038	5099.3
920.349	5088.68
920.66	5052.97
920.971	5024.95
921.282	5052.97
921.593	4968.68
921.903	5016.82
922.214	4998.74
922.525	4925.29
922.835	4883.71
923.146	4882.13
923.456	4857.05
923.767	4875.8
924.077	4855.47
924.387	4796.26
924.697	4758.29
925.008	4804.39
925.318	4753.1
925.628	4706.99
925.938	4675.81
926.248	4635.81
926.558	4667.67
926.867	4631.97
927.177	4639.88
927.487	4586.09
927.796	4581.8
928.106	4576.15
928.416	4516.72
928.725	4551.29
929.034	4504.29
929.344	4488.02
929.653	4512.65
929.962	4473.55
930.271	4445.98
930.581	4426.78
930.89	4412.99
931.199	4360.34
931.508	4387.23
931.817	4383.61
932.125	4342.71
932.434	4357.17
932.743	4297.97
933.051	4306.1
933.36	4281.92
933.669	4234.46
933.977	4243.5
934.286	4257.29
934.594	4224.07
934.902	4177.52
935.21	4148.82
935.519	4124.41
935.827	4152.21
936.135	4142.94
936.443	4075.15
936.751	4085.32
937.059	4122.83
937.367	4072.66
937.674	4060.91
937.982	3994.25
938.29	4022.72
938.597	4027.01
938.905	3952.44
939.213	3934.13
939.52	3946.34
939.827	3949.27
940.135	3924.64
940.442	3903.4
940.749	3887.13
941.056	3906.11
941.363	3842.16
941.67	3827.7
941.977	3824.98
942.284	3782.73
942.591	3799.22
942.898	3809.17
943.205	3766.68
943.511	3736.85
943.818	3711.77
944.125	3683.74
944.431	3696.63
944.738	3649.85
945.044	3708.15
945.35	3650.53
945.657	3618.66
945.963	3567.36
946.269	3606.01
946.575	3576.86
946.881	3547.93
947.187	3593.13
947.493	3559.45
947.799	3568.27
948.105	3506.12
948.41	3472.23
948.716	3479.91
949.022	3516.97
949.327	3423.64
949.633	3456.18
949.938	3427.03
950.244	3407.37
950.549	3359.69
950.854	3384.54
951.16	3361.72
951.465	3383.87
951.77	3325.11
952.075	3332.34
952.38	3285.79
952.685	3342.51
952.99	3258.45
953.294	3273.36
953.599	3248.73
953.904	3206.02
954.209	3249.41
954.513	3225.23
954.818	3221.84
955.122	3181.39
955.426	3174.38
955.731	3185.9
956.035	3148.17
956.339	3149.07
956.643	3140.71
956.948	3117.66
957.252	3121.95
957.556	3105
957.86	3109.52
958.163	3065.46
958.467	3036.98
958.771	3027.72
959.075	3045.8
959.378	2976.42
959.682	3045.12
959.985	2963.31
960.289	2942.07
960.592	2974.39
960.896	2942.3
961.199	2922.41
961.502	2933.71
961.805	2938
962.108	2894.61
962.411	2866.14
962.714	2832.24
963.017	2841.06
963.32	2890.32
963.623	2858.91
963.926	2840.15
964.228	2826.59
964.531	2852.81
964.833	2785.46
965.136	2752.7
965.438	2766.03
965.741	2751.34
966.043	2733.04
966.345	2721.51
966.648	2752.7
966.95	2745.69
967.252	2671.34
967.554	2675.41
967.856	2703.43
968.158	2659.82
968.46	2670.89
968.761	2654.62
969.063	2622.98
969.365	2626.82
969.666	2576.88
969.968	2593.6
970.269	2600.16
970.571	2582.53
970.872	2584.79
971.174	2540.72
971.475	2546.83
971.776	2558.8
972.077	2523.32
972.378	2500.5
972.679	2506.37
972.98	2486.04
973.281	2512.48
973.582	2482.65
973.883	2492.14
974.183	2471.8
974.484	2461.18
974.785	2417.34
975.085	2394.97
975.386	2432.03
975.686	2404.68
975.986	2405.59
976.287	2342.54
976.587	2351.58
976.887	2386.83
977.187	2354.97
977.487	2392.48
977.787	2328.3
978.087	2308.64
978.387	2286.72
978.687	2317
978.987	2288.98
979.286	2293.27
979.586	2266.38
979.885	2245.14
980.185	2243.33
980.484	2261.41
980.784	2217.79
981.083	2246.49
981.382	2246.04
981.682	2227.29
981.981	2206.72
982.28	2206.95
982.579	2182.32
982.878	2176.21
983.177	2155.2
983.475	2166.95
983.774	2138.47
984.073	2146.61
984.372	2131.24
984.67	2142.09
984.969	2097.57
985.267	2100.28
985.566	2105.48
985.864	2112.71
986.162	2070
986.461	2074.07
986.759	2028.65
987.057	2038.82
987.355	2035.88
987.653	2017.57
987.951	2023.9
988.249	1997.69
988.547	2007.18
988.844	1991.13
989.142	1973.06
989.44	2001.98
989.737	1947.29
990.035	1975.54
990.332	1957.69
990.63	1943.45
990.927	1942.55
991.224	1907.75
991.521	1929.21
991.819	1959.5
992.116	1892.83
992.413	1884.47
992.71	1885.6
993.006	1869.1
993.303	1862.1
993.6	1879.27
993.897	1876.33
994.193	1904.36
994.49	1841.31
994.787	1824.81
995.083	1830.01
995.379	1768.77
995.676	1771.48
995.972	1786.39
996.268	1786.62
996.565	1780.07
996.861	1751.37
997.157	1771.48
997.453	1714.31
997.749	1749.78
998.044	1747.52
998.34	1713.18
998.636	1726.96
998.932	1726.51
999.227	1689.67
999.523	1720.41
999.818	1711.37
1000.114	1658.26
1000.409	1646.51
1000.704	1657.58
1001	1693.06
1001.295	1632.05
1001.59	1637.25
1001.885	1647.19
1002.18	1614.42
1002.475	1593.86
1002.77	1583.91
1003.065	1586.4
1003.359	1580.3
1003.654	1576.23
1003.949	1587.98
1004.243	1564.93
1004.538	1561.09
1004.832	1530.13
1005.127	1532.39
1005.421	1540.52
1005.715	1526.29
1006.009	1517.02
1006.304	1514.31
1006.598	1476.35
1006.892	1489
1007.186	1493.75
1007.48	1468.44
1007.773	1427.76
1008.067	1453.07
1008.361	1433.41
1008.655	1445.84
1008.948	1439.96
1009.242	1424.6
1009.535	1384.82
1009.829	1424.14
1010.122	1423.24
1010.415	1419.4
1010.708	1407.42
1011.001	1361.55
1011.295	1370.81
1011.588	1387.08
1011.881	1358.83
1012.173	1337.14
1012.466	1333.75
1012.759	1373.07
1013.052	1333.07
1013.344	1340.53
1013.637	1320.42
1013.93	1326.29
1014.222	1297.37
1014.514	1293.98
1014.807	1308.67
1015.099	1286.29
1015.391	1284.49
1015.683	1241.32
1015.976	1270.48
1016.268	1257.82
1016.56	1264.15
1016.851	1260.31
1017.143	1243.36
1017.435	1211.95
1017.727	1227.31
1018.018	1200.42
1018.31	1201.78
1018.602	1216.92
1018.893	1209.91
1019.185	1195.22
1019.476	1202.23
1019.767	1174.21
1020.058	1163.59
1020.35	1143.02
1020.641	1146.86
1020.932	1125.62
1021.223	1130.37
1021.514	1148.22
1021.804	1125.39
1022.095	1121.33
1022.386	1084.72
1022.677	1081.55
1022.967	1068.22
1023.258	1091.27
1023.548	1078.84
1023.839	1087.2
1024.129	1046.3
1024.419	1053.08
1024.709	1038.84
1025	1069.35
1025.29	1044.94
1025.58	1037.94
1025.87	1026.64
1026.16	1022.35
1026.449	1039.52
1026.739	1030.48
1027.029	1018.96
1027.319	992.52
1027.608	989.8
1027.898	995.23
1028.187	979.64
1028.477	1022.8
1028.766	988.22
1029.055	959.97
1029.344	939.86
1029.634	939.41
1029.923	971.73
1030.212	921.56
1030.501	961.56
1030.79	917.04
1031.078	930.6
1031.367	908
1031.656	934.21
1031.945	914.78
1032.233	914.1
1032.522	908
1032.81	887.89
1033.099	895.12
1033.387	877.49
1033.675	881.33
1033.963	876.36
1034.251	890.15
1034.54	851.73
1034.828	866.87
1035.116	835.01
1035.403	839.53
1035.691	839.98
1035.979	839.3
1036.267	823.03
1036.554	808.79
1036.842	820.77
1037.129	804.95
1037.417	794.1
1037.704	822.8
1037.992	816.25
1038.279	812.18
1038.566	782.58
1038.853	782.58
1039.14	782.58
