Data from blue_chair_FLMS001491_00005.txt Node
Date: Wed Feb 08 10:28:55 GMT 2017
User: dcchb
Spectrometer: FLMS00149
Trigger mode: 0
Integration Time (sec): 2.000000E-2
Scans to average: 10
Electric dark correction enabled: true
Nonlinearity correction enabled: false
Boxcar width: 0
XAxis mode: Wavelengths
Number of Pixels in Spectrum: 2048
>>>>>Begin Spectral Data<<<<<
341.393	-23.22
341.776	-23.22
342.16	-23.22
342.543	-58.02
342.927	-65.48
343.31	-67.96
343.693	-86.04
344.077	-82.88
344.46	-51.69
344.843	-37.91
345.226	-54.41
345.61	-7.85
345.993	-9.89
346.376	-11.92
346.759	32.6
347.142	37.8
347.525	32.6
347.908	55.2
348.291	81.18
348.674	69.66
349.057	101.52
349.44	144.01
349.823	153.05
350.206	157.79
350.588	176.32
350.971	192.82
351.354	197.79
351.737	217.68
352.119	232.14
352.502	235.08
352.884	264.68
353.267	264.46
353.65	287.73
354.032	270.56
354.414	262.42
354.797	277.79
355.179	299.26
355.562	292.03
355.944	313.27
356.326	286.83
356.709	295.87
357.091	326.15
357.473	304.23
357.855	313.49
358.238	314.62
358.62	321.86
359.002	324.57
359.384	300.84
359.766	310.56
360.148	306.49
360.53	308.52
360.912	319.14
361.294	305.36
361.676	311.46
362.057	310.56
362.439	323.89
362.821	301.07
363.203	300.84
363.584	297.45
363.966	303.78
364.348	293.38
364.729	294.29
365.111	283.44
365.493	300.61
365.874	287.05
366.256	274.17
366.637	289.31
367.019	274.17
367.4	306.04
367.781	285.7
368.163	297.22
368.544	288.18
368.925	293.16
369.306	299.94
369.688	277.56
370.069	273.04
370.45	285.02
370.831	279.15
371.212	277.34
371.593	278.02
371.974	290.67
372.355	286.83
372.736	264.46
373.117	287.73
373.498	292.25
373.879	270.11
374.26	302.65
374.641	295.19
375.021	275.98
375.402	282.08
375.783	292.03
376.163	284.12
376.544	287.28
376.925	306.04
377.305	299.71
377.686	287.73
378.066	300.16
378.447	294.29
378.827	308.52
379.208	290.67
379.588	293.83
379.968	301.52
380.349	279.37
380.729	279.6
381.109	290.9
381.489	298.81
381.87	288.18
382.25	275.3
382.63	294.51
383.01	307.85
383.39	294.06
383.77	281.18
384.15	302.2
384.53	303.55
384.91	304.23
385.29	300.39
385.67	291.12
386.049	314.85
386.429	308.97
386.809	315.75
387.189	313.04
387.568	304.46
387.948	305.36
388.328	329.09
388.707	310.78
389.087	294.74
389.466	299.26
389.846	321.63
390.225	322.53
390.605	317.34
390.984	321.4
391.363	315.53
391.743	314.62
392.122	309.2
392.501	285.7
392.881	328.41
393.26	315.3
393.639	333.38
394.018	298.35
394.397	322.76
394.776	329.77
395.155	337.22
395.534	318.47
395.913	335.19
396.292	344.68
396.671	325.02
397.05	329.77
397.429	329.54
397.808	364.11
398.186	350.1
398.565	359.37
398.944	338.35
399.323	332.7
399.701	331.8
400.08	339.71
400.458	353.27
400.837	369.09
401.215	334.06
401.594	354.4
401.972	350.33
402.351	352.59
402.729	349.43
403.107	374.96
403.486	354.62
403.864	354.4
404.242	339.26
404.62	359.37
404.999	361.18
405.377	372.25
405.755	365.24
406.133	363.44
406.511	347.84
406.889	387.62
407.267	365.92
407.645	376.09
408.023	364.57
408.401	366.37
408.779	387.84
409.156	389.65
409.534	372.93
409.912	372.93
410.29	391.91
410.667	394.85
411.045	390.78
411.422	425.36
411.8	388.29
412.178	407.05
412.555	372.7
412.933	408.18
413.31	401.18
413.687	384.45
414.065	385.36
414.442	425.58
414.819	401.63
415.197	394.17
415.574	402.76
415.951	399.14
416.328	421.97
416.705	427.84
417.082	427.84
417.46	431.68
417.837	413.6
418.214	421.97
418.591	413.83
418.967	404.11
419.344	409.09
419.721	434.62
420.098	427.16
420.475	413.83
420.852	435.75
421.228	410.67
421.605	436.88
421.982	442.3
422.358	447.95
422.735	443.66
423.111	445.92
423.488	450.67
423.864	454.73
424.241	469.2
424.617	447.5
424.994	456.54
425.37	451.57
425.746	442.98
426.123	462.87
426.499	482.53
426.875	465.13
427.251	483.43
427.627	491.79
428.003	504.68
428.379	508.29
428.756	476.88
429.132	511.68
429.507	479.14
429.883	508.74
430.259	512.59
430.635	519.82
431.011	511
431.387	534.05
431.763	521.4
432.138	526.6
432.514	540.61
432.89	512.36
433.265	541.74
433.641	558.01
434.016	578.35
434.392	558.91
434.767	547.84
435.143	540.38
435.518	569.53
435.894	570.44
436.269	564.11
436.644	598.23
437.02	610.89
437.395	581.74
437.77	606.14
438.145	602.07
438.52	629.42
438.895	624.9
439.271	644.79
439.646	634.62
440.021	664.9
440.395	644.56
440.77	653.15
441.145	650.66
441.52	646.82
441.895	641.4
442.27	675.52
442.645	670.55
443.019	687.04
443.394	719.36
443.769	685.69
444.143	685.46
444.518	710.55
444.892	688.4
445.267	695.18
445.641	702.18
446.016	712.81
446.39	720.94
446.764	717.33
447.139	733.6
447.513	757.55
447.887	739.47
448.262	743.09
448.636	717.78
449.01	748.29
449.384	722.3
449.758	755.52
450.132	754.61
450.506	754.16
450.88	775.18
451.254	751.9
451.628	779.02
452.002	800.94
452.376	785.12
452.75	797.32
453.123	779.47
453.497	809.07
453.871	811.79
454.244	832.8
454.618	807.04
454.992	800.94
455.365	837.32
455.739	834.16
456.112	846.81
456.486	857.66
456.859	857.21
457.232	867.83
457.606	857.66
457.979	848.85
458.352	893.82
458.725	893.14
459.099	891.78
459.472	906.02
459.845	903.76
460.218	900.15
460.591	896.76
460.964	908.51
461.337	933.82
461.71	936.3
462.083	940.82
462.456	953.93
462.829	951.44
463.201	951.22
463.574	959.35
463.947	985.57
464.32	971.78
464.692	977.43
465.065	1001.39
465.438	1009.75
465.81	1008.62
466.183	1013.36
466.555	1045.9
466.928	1045.45
467.3	1015.85
467.672	1049.29
468.045	1056.75
468.417	1074.83
468.789	1042.29
469.161	1042.74
469.534	1082.97
469.906	1080.25
470.278	1079.35
470.65	1114.6
471.022	1117.77
471.394	1117.99
471.766	1133.81
472.138	1148.05
472.51	1164.77
472.882	1155.96
473.253	1150.99
473.625	1178.1
473.997	1211.1
474.369	1198.22
474.74	1212.45
475.112	1188.73
475.484	1224.88
475.855	1240.7
476.227	1249.97
476.598	1261.49
476.97	1268.27
477.341	1257.65
477.713	1301.49
478.084	1277.54
478.455	1322.73
478.827	1306.91
479.198	1337.65
479.569	1330.19
479.94	1350.53
480.311	1357.53
480.682	1362.73
481.053	1406.35
481.424	1414.26
481.795	1423.75
482.166	1419
482.537	1440.02
482.908	1450.19
483.279	1453.13
483.65	1457.87
484.021	1460.81
484.391	1480.7
484.762	1487.7
485.133	1504.42
485.503	1541.48
485.874	1510.98
486.244	1530.86
486.615	1537.42
486.985	1551.88
487.356	1532.45
487.726	1577.87
488.097	1571.09
488.467	1589.39
488.837	1579
489.207	1575.61
489.578	1595.04
489.948	1614.7
490.318	1596.17
490.688	1615.61
491.058	1623.52
491.428	1642.05
491.798	1652.89
492.168	1642.95
492.538	1661.26
492.908	1652.22
493.278	1642.95
493.648	1649.73
494.017	1659.67
494.387	1635.27
494.757	1654.48
495.126	1672.33
495.496	1633.01
495.866	1629.84
496.235	1646.11
496.605	1675.27
496.974	1666.91
497.344	1646.34
497.713	1666.45
498.082	1679.79
498.452	1655.61
498.821	1658.77
499.19	1670.97
499.559	1665.55
499.928	1652.89
500.298	1617.42
500.667	1655.61
501.036	1637.53
501.405	1652.67
501.774	1642.95
502.143	1641.14
502.512	1644.08
502.88	1640.69
503.249	1633.69
503.618	1612.9
503.987	1632.56
504.356	1643.63
504.724	1619.45
505.093	1602.95
505.462	1598.66
505.83	1612.67
506.199	1623.06
506.567	1602.27
506.936	1605.21
507.304	1609.05
507.672	1609.28
508.041	1588.49
508.409	1606.34
508.777	1613.8
509.145	1602.5
509.514	1602.95
509.882	1573.57
510.25	1550.07
510.618	1588.49
510.986	1588.04
511.354	1593.69
511.722	1592.56
512.09	1560.02
512.458	1540.13
512.826	1556.17
513.193	1520.02
513.561	1532.22
513.929	1549.17
514.297	1561.15
514.664	1562.28
515.032	1536.74
515.4	1526.57
515.767	1519.56
516.135	1522.95
516.502	1530.64
516.869	1528.83
517.237	1522.95
517.604	1516.85
517.972	1505.78
518.339	1514.82
518.706	1502.62
519.073	1503.97
519.44	1483.86
519.808	1480.92
520.175	1461.94
520.542	1477.53
520.909	1480.24
521.276	1472.11
521.643	1473.01
522.009	1469.4
522.376	1469.62
522.743	1439.11
523.11	1460.36
523.477	1475.72
523.843	1472.11
524.21	1453.13
524.577	1457.42
524.943	1428.72
525.31	1424.43
525.676	1446.35
526.043	1475.05
526.409	1440.24
526.776	1437.31
527.142	1469.62
527.508	1437.76
527.874	1420.81
528.241	1446.57
528.607	1444.76
528.973	1421.04
529.339	1417.42
529.705	1410.41
530.071	1443.86
530.437	1410.19
530.803	1445.22
531.169	1449.28
531.535	1426.01
531.901	1428.49
532.267	1401.38
532.632	1420.58
532.998	1417.65
533.364	1436.4
533.73	1432.34
534.095	1419.23
534.461	1411.77
534.826	1421.26
535.192	1426.23
535.557	1402.96
535.923	1434.6
536.288	1426.23
536.653	1401.6
537.019	1432.79
537.384	1421.04
537.749	1385.56
538.114	1404.31
538.479	1412.67
538.845	1426.23
539.21	1407.25
539.575	1405.9
539.94	1401.83
540.305	1396.4
540.67	1397.31
541.034	1406.35
541.399	1412.9
541.764	1386.46
542.129	1401.6
542.494	1401.6
542.858	1392.56
543.223	1393.92
543.587	1390.3
543.952	1407.03
544.316	1365.22
544.681	1369.29
545.045	1365.22
545.41	1360.02
545.774	1372.22
546.138	1362.51
546.503	1347.82
546.867	1351.66
547.231	1377.65
547.595	1348.95
547.959	1358.44
548.324	1347.59
548.688	1366.12
549.052	1333.13
549.416	1339.23
549.779	1319.57
550.143	1342.39
550.507	1361.15
550.871	1337.42
551.235	1327.25
551.599	1316.41
551.962	1333.13
552.326	1305.33
552.689	1312.56
553.053	1321.15
553.417	1299.46
553.78	1328.38
554.143	1333.13
554.507	1326.8
554.87	1332.45
555.234	1298.1
555.597	1305.33
555.96	1313.24
556.323	1320.7
556.686	1307.82
557.05	1327.25
557.413	1308.95
557.776	1326.8
558.139	1310.76
558.502	1301.72
558.865	1325.22
559.228	1268.72
559.59	1292.45
559.953	1317.99
560.316	1311.21
560.679	1321.15
561.041	1298.55
561.404	1313.24
561.767	1303.75
562.129	1308.95
562.492	1315.28
562.854	1342.17
563.217	1296.29
563.579	1338.78
563.941	1299.46
564.304	1299.23
564.666	1302.17
565.028	1331.77
565.39	1289.74
565.753	1302.85
566.115	1333.35
566.477	1329.97
566.839	1339.68
567.201	1313.69
567.563	1348.72
567.925	1324.99
568.287	1324.09
568.648	1347.82
569.01	1357.53
569.372	1337.42
569.734	1322.51
570.095	1335.84
570.457	1345.56
570.819	1332.22
571.18	1343.07
571.542	1329.06
571.903	1353.24
572.265	1372.22
572.626	1378.78
572.987	1361.83
573.349	1385.1
573.71	1387.59
574.071	1402.05
574.432	1386.91
574.794	1367.25
575.155	1417.87
575.516	1380.81
575.877	1407.48
576.238	1386.01
576.599	1422.62
576.96	1415.39
577.32	1433.24
577.681	1410.41
578.042	1420.36
578.403	1414.03
578.763	1409.28
579.124	1409.51
579.485	1441.37
579.845	1426.91
580.206	1444.99
580.566	1456.52
580.927	1430.75
581.287	1466.23
581.648	1461.71
582.008	1475.05
582.368	1483.18
582.728	1474.14
583.089	1495.38
583.449	1484.76
583.809	1434.82
584.169	1472.11
584.529	1437.31
584.889	1487.93
585.249	1475.72
585.609	1445.22
585.969	1475.95
586.329	1463.97
586.688	1499.23
587.048	1455.61
587.408	1479.34
587.768	1498.1
588.127	1472.11
588.487	1475.72
588.846	1480.24
589.206	1499.45
589.565	1481.15
589.925	1488.6
590.284	1503.29
590.643	1494.25
591.003	1513.91
591.362	1500.58
591.721	1480.92
592.08	1477.98
592.44	1525.21
592.799	1478.44
593.158	1498.1
593.517	1523.18
593.876	1471.2
594.235	1477.76
594.593	1487.48
594.952	1490.41
595.311	1477.31
595.67	1480.24
596.029	1499.23
596.387	1484.54
596.746	1491.54
597.104	1477.08
597.463	1485.89
597.822	1470.3
598.18	1480.7
598.538	1485.89
598.897	1495.38
599.255	1480.92
599.613	1487.93
599.972	1492.45
600.33	1494.71
600.688	1471.66
601.046	1478.44
601.404	1477.08
601.762	1482.28
602.12	1480.02
602.478	1470.07
602.836	1488.38
603.194	1489.51
603.552	1508.04
603.91	1478.89
604.268	1456.52
604.625	1473.69
604.983	1510.3
605.341	1462.39
605.698	1494.03
606.056	1496.29
606.413	1472.33
606.771	1474.37
607.128	1459.91
607.485	1482.96
607.843	1483.41
608.2	1486.57
608.557	1477.31
608.914	1484.99
609.272	1505.78
609.629	1497.42
609.986	1501.49
610.343	1496.97
610.7	1496.51
611.057	1499
611.414	1492.22
611.771	1491.32
612.127	1458.78
612.484	1488.6
612.841	1478.44
613.198	1500.36
613.554	1496.29
613.911	1499.45
614.267	1508.04
614.624	1488.83
614.98	1506.46
615.337	1524.08
615.693	1494.03
616.05	1471.88
616.406	1493.35
616.762	1511.43
617.118	1477.98
617.475	1483.41
617.831	1487.48
618.187	1523.63
618.543	1512.11
618.899	1500.58
619.255	1548.49
619.611	1522.28
619.967	1494.93
620.323	1515.27
620.678	1482.05
621.034	1494.93
621.39	1482.73
621.746	1473.01
622.101	1538.32
622.457	1532.67
622.812	1532.22
623.168	1519.56
623.523	1529.51
623.879	1524.54
624.234	1522.5
624.589	1523.63
624.945	1516.4
625.3	1512.56
625.655	1553.24
626.01	1513.01
626.365	1503.75
626.72	1525.67
627.075	1497.64
627.43	1518.21
627.785	1520.47
628.14	1546.23
628.495	1522.05
628.85	1524.76
629.205	1512.11
629.559	1556.85
629.914	1509.4
630.269	1524.54
630.623	1522.5
630.978	1530.86
631.332	1555.95
631.687	1519.79
632.041	1544.87
632.396	1540.13
632.75	1536.97
633.104	1525.67
633.459	1505.55
633.813	1487.48
634.167	1519.11
634.521	1523.41
634.875	1560.02
635.229	1542.39
635.583	1542.61
635.937	1518.21
636.291	1526.34
636.645	1545.78
636.999	1520.02
637.352	1540.13
637.706	1505.33
638.06	1516.85
638.413	1529.73
638.767	1521.37
639.121	1518.66
639.474	1533.35
639.828	1539.68
640.181	1527.47
640.534	1540.13
640.888	1518.66
641.241	1522.73
641.594	1521.82
641.947	1542.16
642.301	1537.64
642.654	1539.9
643.007	1561.15
643.36	1506.01
643.713	1512.79
644.066	1537.19
644.419	1530.19
644.771	1513.91
645.124	1537.64
645.477	1533.12
645.83	1515.72
646.182	1497.64
646.535	1493.35
646.888	1513.91
647.24	1513.01
647.593	1545.78
647.945	1517.76
648.298	1480.92
648.65	1539
649.002	1531.32
649.355	1507.36
649.707	1519.79
650.059	1538.77
650.411	1573.57
650.763	1525.67
651.115	1558.66
651.467	1577.19
651.819	1569.05
652.171	1579.68
652.523	1570.64
652.875	1561.37
653.227	1570.18
653.578	1586.23
653.93	1582.84
654.282	1559.11
654.633	1595.72
654.985	1576.29
655.337	1577.19
655.688	1583.74
656.039	1574.93
656.391	1587.59
656.742	1582.16
657.094	1594.59
657.445	1610.41
657.796	1587.36
658.147	1595.04
658.498	1582.61
658.849	1626
659.2	1608.83
659.551	1621.48
659.902	1624.87
660.253	1601.82
660.604	1594.36
660.955	1574.48
661.306	1578.77
661.656	1616.74
662.007	1624.42
662.358	1620.58
662.708	1647.92
663.059	1619.22
663.409	1608.15
663.76	1618.32
664.11	1626.91
664.461	1640.69
664.811	1614.48
665.161	1651.09
665.511	1629.39
665.862	1607.47
666.212	1613.57
666.562	1634.82
666.912	1642.95
667.262	1618.77
667.612	1637.98
667.962	1612.67
668.312	1615.16
668.662	1629.39
669.011	1645.89
669.361	1599.11
669.711	1630.3
670.06	1651.09
670.41	1605.66
670.76	1612.22
671.109	1600.92
671.459	1617.64
671.808	1621.93
672.157	1603.4
672.507	1592.33
672.856	1609.96
673.205	1594.36
673.554	1612.67
673.904	1587.13
674.253	1606.57
674.602	1595.49
674.951	1579.68
675.3	1572.67
675.649	1582.16
675.998	1583.52
676.346	1575.83
676.695	1569.28
677.044	1588.72
677.393	1607.47
677.741	1577.87
678.09	1604.99
678.438	1606.12
678.787	1555.5
679.135	1575.61
679.484	1550.3
679.832	1553.46
680.181	1555.5
680.529	1553.46
680.877	1559.11
681.225	1588.49
681.573	1562.95
681.922	1553.24
682.27	1539.68
682.618	1555.27
682.966	1560.92
683.314	1546.23
683.661	1572.44
684.009	1505.33
684.357	1509.62
684.705	1496.06
685.053	1528.38
685.4	1531.54
685.748	1509.85
686.095	1515.72
686.443	1483.86
686.79	1481.37
687.138	1516.4
687.485	1503.75
687.832	1471.66
688.18	1497.19
688.527	1489.73
688.874	1486.8
689.221	1476.4
689.568	1474.59
689.915	1463.75
690.262	1473.69
690.609	1484.09
690.956	1459.45
691.303	1463.75
691.65	1447.48
691.997	1424.88
692.344	1447.48
692.69	1435.72
693.037	1443.18
693.383	1426.01
693.73	1405.44
694.077	1406.57
694.423	1420.36
694.769	1428.27
695.116	1400.92
695.462	1407.93
695.808	1404.77
696.155	1448.83
696.501	1426.46
696.847	1387.82
697.193	1406.12
697.539	1405.44
697.885	1395.05
698.231	1395.5
698.577	1374.94
698.923	1390.08
699.269	1391.88
699.614	1358.21
699.96	1375.61
700.306	1372
700.651	1364.99
700.997	1374.03
701.342	1358.44
701.688	1371.55
702.033	1368.61
702.379	1342.39
702.724	1371.32
703.069	1386.69
703.415	1355.28
703.76	1343.52
704.105	1362.51
704.45	1318.89
704.795	1339.23
705.14	1317.54
705.485	1351.66
705.83	1332
706.175	1324.77
706.52	1326.8
706.865	1327.71
707.209	1322.73
707.554	1327.25
707.899	1367.93
708.243	1342.17
708.588	1332.45
708.932	1341.72
709.277	1344.2
709.621	1327.71
709.966	1325.67
710.31	1335.61
710.654	1315.5
710.998	1339.68
711.342	1332.45
711.687	1343.3
712.031	1332
712.375	1334.71
712.719	1365.9
713.063	1325.67
713.407	1356.63
713.75	1341.26
714.094	1320.47
714.438	1354.6
714.782	1342.85
715.125	1347.14
715.469	1330.42
715.812	1356.63
716.156	1352.34
716.499	1342.17
716.843	1367.7
717.186	1368.16
717.53	1386.23
717.873	1365.22
718.216	1353.92
718.559	1399.57
718.902	1366.57
719.246	1378.1
719.589	1386.91
719.932	1373.81
720.275	1418.1
720.617	1397.31
720.96	1386.23
721.303	1373.58
721.646	1402.51
721.989	1380.81
722.331	1416.97
722.674	1450.64
723.016	1428.27
723.359	1443.63
723.701	1416.52
724.044	1410.41
724.386	1402.51
724.729	1446.12
725.071	1454.03
725.413	1434.14
725.755	1454.93
726.097	1468.94
726.439	1460.13
726.782	1493.8
727.124	1485.89
727.465	1458.32
727.807	1523.63
728.149	1491.32
728.491	1518.21
728.833	1515.95
729.175	1530.86
729.516	1516.63
729.858	1545.55
730.199	1525.89
730.541	1513.01
730.882	1533.8
731.224	1570.64
731.565	1583.29
731.906	1579
732.248	1583.74
732.589	1570.64
732.93	1578.09
733.271	1606.79
733.612	1624.19
733.953	1620.35
734.294	1609.28
734.635	1637.53
734.976	1627.81
735.317	1649.96
735.658	1652.22
735.999	1684.98
736.339	1653.57
736.68	1689.5
737.021	1696.28
737.361	1710.29
737.702	1740.8
738.042	1749.39
738.383	1726.34
738.723	1719.56
739.063	1752.33
739.404	1792.78
739.744	1811.76
740.084	1790.07
740.424	1828.93
740.764	1823.06
741.104	1881.14
741.444	1906.45
741.784	1906
742.124	1905.09
742.464	1944.41
742.804	1979.44
743.143	1970.17
743.483	1986.44
743.823	2000.23
744.162	2047.46
744.502	2061.25
744.841	2095.82
745.181	2136.5
745.52	2110.74
745.86	2168.59
746.199	2192.77
746.538	2223.27
746.877	2264.63
747.216	2301.24
747.556	2295.59
747.895	2363.16
748.234	2344.63
748.573	2425.76
748.911	2455.13
749.25	2482.25
749.589	2518.18
749.928	2512.76
750.267	2552.76
750.605	2601.8
750.944	2636.15
751.283	2649.25
751.621	2758.18
751.96	2775.58
752.298	2812.64
752.636	2895.12
752.975	2880.88
753.313	2912.3
753.651	3030.03
753.989	3058.73
754.327	3098.28
754.666	3161.78
755.004	3192.06
755.342	3243.59
755.679	3277.48
756.017	3313.64
756.355	3419.18
756.693	3442.23
757.031	3472.51
757.368	3538.49
757.706	3570.81
758.044	3688.77
758.381	3725.83
758.719	3773.06
759.056	3818.04
759.394	3866.17
759.731	3913.63
760.068	3963.12
760.405	3965.83
760.743	4046.5
761.08	4094.86
761.417	4121.98
761.754	4190.68
762.091	4255.31
762.428	4276.78
762.765	4393.61
763.102	4385.7
763.438	4431.35
763.775	4494.4
764.112	4542.31
764.449	4591.57
764.785	4637.45
765.122	4637.22
765.458	4699.59
765.795	4745.69
766.131	4824.34
766.467	4830.89
766.804	4865.01
767.14	4878.8
767.476	4950.21
767.812	4962.19
768.148	5035.18
768.485	5048.06
768.821	5066.14
769.157	5115.18
769.492	5116.98
769.828	5208.51
770.164	5191.56
770.5	5273.59
770.836	5278.34
771.171	5318.11
771.507	5384.77
771.842	5384.32
772.178	5393.81
772.513	5421.16
772.849	5473.58
773.184	5476.52
773.519	5521.04
773.855	5578.67
774.19	5501.61
774.525	5537.09
774.86	5620.93
775.195	5686.01
775.53	5641.72
775.865	5640.59
776.2	5648.5
776.535	5658.89
776.87	5671.77
777.205	5720.81
777.539	5666.57
777.874	5724.2
778.209	5758.55
778.543	5790.41
778.878	5784.54
779.212	5787.47
779.547	5744.99
779.881	5866.57
780.215	5823.18
780.55	5839.68
780.884	5837.87
781.218	5843.97
781.552	5879.22
781.886	5840.81
782.22	5871.54
782.554	5833.8
782.888	5844.42
783.222	5858.89
783.556	5884.87
783.889	5861.37
784.223	5819.34
784.557	5902.05
784.89	5857.76
785.224	5858.66
785.557	5883.29
785.891	5894.82
786.224	5908.15
786.558	5905.66
786.891	5870.18
787.224	5878.77
787.557	5855.5
787.891	5867.92
788.224	5896.4
788.557	5906.12
788.89	5929.39
789.223	5909.05
789.556	5823.41
789.888	5871.09
790.221	5882.61
790.554	5844.2
790.887	5815.27
791.219	5863.41
791.552	5878.77
791.884	5841.03
792.217	5881.71
792.549	5855.04
792.882	5837.64
793.214	5795.84
793.546	5832.67
793.879	5855.72
794.211	5785.67
794.543	5889.85
794.875	5850.52
795.207	5878.55
795.539	5836.51
795.871	5789.51
796.203	5808.49
796.535	5756.97
796.867	5786.8
797.198	5798.1
797.53	5848.49
797.862	5775.05
798.193	5781.15
798.525	5741.37
798.856	5755.39
799.188	5703.64
799.519	5735.95
799.85	5729.62
800.182	5765.78
800.513	5747.93
800.844	5693.01
801.175	5741.15
801.506	5692.56
801.837	5702.51
802.168	5669.96
802.499	5685.78
802.83	5644.43
803.161	5681.49
803.491	5703.18
803.822	5734.37
804.153	5634.48
804.483	5630.87
804.814	5590.87
805.145	5640.36
805.475	5649.63
805.805	5594.26
806.136	5631.09
806.466	5582.28
806.796	5618.21
807.126	5586.58
807.457	5559.68
807.787	5583.64
808.117	5586.12
808.447	5523.08
808.777	5592.68
809.107	5568.95
809.436	5508.16
809.766	5588.38
810.096	5512.68
810.426	5531.21
810.755	5488.73
811.085	5527.82
811.414	5532.34
811.744	5449.63
812.073	5518.56
812.403	5506.13
812.732	5475.17
813.061	5443.53
813.39	5493.7
813.719	5446.47
814.049	5460.03
814.378	5482.85
814.707	5433.81
815.036	5439.91
815.365	5386.81
815.693	5396.3
816.022	5366.47
816.351	5394.04
816.68	5355.62
817.008	5398.78
817.337	5337.77
817.665	5318.56
817.994	5376.19
818.322	5327.83
818.651	5336.41
818.979	5333.25
819.307	5350.42
819.636	5363.31
819.964	5322.4
820.292	5308.62
820.62	5320.14
820.948	5308.39
821.276	5328.73
821.604	5315.85
821.932	5272.46
822.259	5367.15
822.587	5335.06
822.915	5348.84
823.243	5303.87
823.57	5293.25
823.898	5329.41
824.225	5301.61
824.553	5289.86
824.88	5336.19
825.207	5355.62
825.535	5352.46
825.862	5362.18
826.189	5363.31
826.516	5401.72
826.843	5363.98
827.17	5365.11
827.497	5432.23
827.824	5337.32
828.151	5450.99
828.478	5398.33
828.805	5443.08
829.131	5418.22
829.458	5401.72
829.785	5355.85
830.111	5386.36
830.438	5417.09
830.764	5395.62
831.09	5388.62
831.417	5397.65
831.743	5421.38
832.069	5337.09
832.395	5368.95
832.722	5397.43
833.048	5361.27
833.374	5354.27
833.7	5380.03
834.026	5384.55
834.351	5348.84
834.677	5374.38
835.003	5415.73
835.329	5391.78
835.654	5382.74
835.98	5342.06
836.306	5329.18
836.631	5378.45
836.956	5359.69
837.282	5404.21
837.607	5344.77
837.932	5327.15
838.258	5348.39
838.583	5297.32
838.908	5261.16
839.233	5282.86
839.558	5298
839.883	5318.11
840.208	5294.38
840.533	5294.38
840.858	5289.41
841.182	5332.35
841.507	5295.96
841.832	5219.35
842.156	5247.6
842.481	5237.21
842.805	5218
843.13	5247.15
843.454	5167.38
843.778	5212.12
844.103	5171.67
844.427	5201.5
844.751	5171.9
845.075	5150.43
845.399	5176.42
845.723	5145.46
846.047	5112.92
846.371	5081.73
846.695	5087.83
847.019	5047.38
847.343	5041.28
847.666	5037.44
847.99	4986.59
848.313	4987.72
848.637	4968.97
848.96	4947.5
849.284	4926.48
849.607	4900.49
849.931	4932.13
850.254	4839.48
850.577	4851.91
850.9	4840.83
851.223	4792.02
851.546	4789.99
851.869	4778.91
852.192	4812.81
852.515	4760.16
852.838	4754.73
853.161	4737.79
853.483	4734.85
853.806	4683.32
854.129	4706.15
854.451	4695.98
854.774	4660.27
855.096	4650.78
855.419	4681.97
855.741	4675.19
856.063	4615.08
856.385	4639.48
856.708	4582.53
857.03	4574.63
857.352	4569.43
857.674	4560.84
857.996	4529.88
858.318	4521.75
858.64	4517.68
858.961	4506.83
859.283	4547.06
859.605	4500.5
859.926	4491.69
860.248	4481.07
860.57	4455.76
860.891	4442.2
861.212	4431.35
861.534	4459.37
861.855	4412.82
862.176	4448.75
862.498	4384.35
862.819	4388.87
863.14	4360.39
863.461	4387.06
863.782	4368.98
864.103	4350.68
864.424	4324.24
864.745	4387.06
865.065	4316.55
865.386	4357.46
865.707	4364.69
866.027	4379.83
866.348	4337.34
866.668	4298.93
866.989	4338.02
867.309	4311.58
867.63	4287.63
867.95	4281.53
868.27	4258.25
868.59	4289.89
868.91	4267.29
869.23	4292.82
869.55	4234.75
869.87	4275.42
870.19	4209.21
870.51	4270.45
870.83	4246.95
871.15	4222.32
871.469	4269.1
871.789	4228.87
872.109	4235.43
872.428	4194.3
872.748	4202.88
873.067	4213.51
873.386	4205.6
873.706	4170.79
874.025	4177.12
874.344	4171.02
874.663	4146.61
874.982	4154.3
875.301	4137.12
875.62	4114.98
875.939	4150
876.258	4121.08
876.577	4092.38
876.896	4071.59
877.214	4116.78
877.533	4105.94
877.852	4067.52
878.17	4082.89
878.489	4088.31
878.807	4067.97
879.125	4110
879.444	4095.32
879.762	4083.56
880.08	4047.86
880.398	4033.17
880.716	4035.88
881.034	3993.62
881.352	3980.06
881.67	3997.24
881.988	4048.31
882.306	3979.39
882.624	3979.84
882.941	3996.34
883.259	3948.43
883.577	3964.02
883.894	3943
884.212	3969.22
884.529	3936.9
884.846	3920.63
885.164	3929.67
885.481	3902.55
885.798	3917.02
886.115	3865.49
886.432	3896
886.75	3852.16
887.067	3862.55
887.383	3870.24
887.7	3862.55
888.017	3845.61
888.334	3868.43
888.651	3833.63
888.967	3846.51
889.284	3768.09
889.6	3751.82
889.917	3779.17
890.233	3785.72
890.55	3739.39
890.866	3770.58
891.182	3740.75
891.498	3725.38
891.815	3737.81
892.131	3712.05
892.447	3667.08
892.763	3687.87
893.079	3648.1
893.395	3646.97
893.71	3651.49
894.026	3640.64
894.342	3639.06
894.657	3605.61
894.973	3592.28
895.289	3616.01
895.604	3620.07
895.92	3559.06
896.235	3549.12
896.55	3567.65
896.865	3557.7
897.181	3533.3
897.496	3519.06
897.811	3481.32
898.126	3513.18
898.441	3492.17
898.756	3500.08
899.071	3486.07
899.386	3436.58
899.7	3445.84
900.015	3425.5
900.33	3390.7
900.644	3367.65
900.959	3381.21
901.273	3394.32
901.588	3361.78
901.902	3352.06
902.216	3371.49
902.531	3361.1
902.845	3311.61
903.159	3291.95
903.473	3297.82
903.787	3271.16
904.101	3296.47
904.415	3285.85
904.729	3256.69
905.042	3223.02
905.356	3225.28
905.67	3242.46
905.984	3229.12
906.297	3218.73
906.611	3187.54
906.924	3209.69
907.237	3194.55
907.551	3151.39
907.864	3112.07
908.177	3106.64
908.491	3135.57
908.804	3070.71
909.117	3061.67
909.43	3032.29
909.743	3038.17
910.056	3026.19
910.368	3046.98
910.681	3053.08
910.994	3013.54
911.307	3008.79
911.619	2984.61
911.932	2987.1
912.244	2945.29
912.557	2953.65
912.869	2926.53
913.181	2929.7
913.494	2919.3
913.806	2899.19
914.118	2888.57
914.43	2883.37
914.742	2879.75
915.054	2836.59
915.366	2835.91
915.678	2844.28
915.99	2832.52
916.302	2824.84
916.613	2815.12
916.925	2799.08
917.236	2850.15
917.548	2779.87
917.859	2766.31
918.171	2770.15
918.482	2752.53
918.794	2762.02
919.105	2746.2
919.416	2699.65
919.727	2706.2
920.038	2691.51
920.349	2708.91
920.66	2639.54
920.971	2693.09
921.282	2696.48
921.593	2599.54
921.903	2628.46
922.214	2623.49
922.525	2607.45
922.835	2626.2
923.146	2606.09
923.456	2568.12
923.767	2560.22
924.077	2588.24
924.387	2541.23
924.697	2532.87
925.008	2581.91
925.318	2544.62
925.628	2523.38
925.938	2528.13
926.248	2512.76
926.558	2482.7
926.867	2460.78
927.177	2495.36
927.487	2452.42
927.796	2450.61
928.106	2452.87
928.416	2456.04
928.725	2439.09
929.034	2427.56
929.344	2429.82
929.653	2393.89
929.962	2405.42
930.271	2367.68
930.581	2394.8
930.89	2386.89
931.199	2360.67
931.508	2361.58
931.817	2347.34
932.125	2352.54
932.434	2352.31
932.743	2344.63
933.051	2305.98
933.36	2319.77
933.669	2277.28
933.977	2295.14
934.286	2270.96
934.594	2261.69
934.902	2208.13
935.21	2215.82
935.519	2249.04
935.827	2255.59
936.135	2250.62
936.443	2184.63
936.751	2220.34
937.059	2194.8
937.367	2187.34
937.674	2179.21
937.982	2197.51
938.29	2145.99
938.597	2168.59
938.905	2142.15
939.213	2134.69
939.52	2118.64
939.827	2139.44
940.135	2110.96
940.442	2096.95
940.749	2073
941.056	2131.3
941.363	2107.12
941.67	2080.91
941.977	2055.37
942.284	2022.83
942.591	2038.65
942.898	2055.82
943.205	2045.2
943.511	2020.12
943.818	2024.86
944.125	1993.45
944.431	1982.6
944.738	2007.46
945.044	2026.22
945.35	1958.88
945.657	1967.91
945.963	1971.76
946.269	1965.2
946.575	1960.91
946.881	1915.49
947.187	1958.65
947.493	1928.37
947.799	1928.37
948.105	1905.09
948.41	1930.85
948.716	1911.64
949.022	1893.34
949.327	1907.8
949.633	1854.7
949.938	1874.81
950.244	1918.42
950.549	1848.6
950.854	1838.65
951.16	1831.65
951.465	1830.06
951.77	1864.87
952.075	1830.52
952.38	1803.4
952.685	1801.14
952.99	1815.83
953.294	1792.55
953.599	1787.58
953.904	1771.76
954.209	1773.8
954.513	1750.97
954.818	1783.06
955.122	1759.11
955.426	1747.13
955.731	1721.82
956.035	1729.95
956.339	1741.71
956.643	1720.46
956.948	1727.47
957.252	1692.67
957.556	1720.46
957.86	1725.43
958.163	1687.02
958.467	1675.72
958.771	1666
959.075	1666.23
959.378	1658.54
959.682	1642.95
959.985	1653.57
960.289	1650.41
960.592	1637.53
960.896	1628.94
961.199	1616.96
961.502	1613.35
961.805	1636.62
962.108	1601.82
962.411	1593.23
962.714	1569.28
963.017	1597.08
963.32	1581.71
963.623	1572.9
963.926	1572.44
964.228	1558.66
964.531	1550.75
964.833	1558.89
965.136	1569.96
965.438	1549.85
965.741	1550.52
966.043	1546.46
966.345	1519.34
966.648	1513.91
966.95	1533.8
967.252	1526.12
967.554	1477.98
967.856	1480.02
968.158	1476.63
968.46	1489.51
968.761	1478.89
969.063	1439.11
969.365	1477.31
969.666	1454.93
969.968	1479.34
970.269	1456.06
970.571	1462.16
970.872	1460.58
971.174	1428.49
971.475	1445.67
971.776	1442.05
972.077	1411.32
972.378	1423.3
972.679	1421.26
972.98	1421.04
973.281	1425.33
973.582	1387.36
973.883	1375.61
974.183	1369.96
974.484	1383.75
974.785	1379
975.085	1354.6
975.386	1375.39
975.686	1360.25
975.986	1333.13
976.287	1331.32
976.587	1347.14
976.887	1320.47
977.187	1331.77
977.487	1332.9
977.787	1325.45
978.087	1310.76
978.387	1347.59
978.687	1318.67
978.987	1303.98
979.286	1319.57
979.586	1298.1
979.885	1276.86
980.185	1272.57
980.484	1291.32
980.784	1273.7
981.083	1275.73
981.382	1258.33
981.682	1257.65
981.981	1263.3
982.28	1232.11
982.579	1220.82
982.878	1231.21
983.177	1237.31
983.475	1215.62
983.774	1236.86
984.073	1234.83
984.372	1193.92
984.67	1196.86
984.969	1202.28
985.267	1218.33
985.566	1178.56
985.864	1181.27
986.162	1168.39
986.461	1212.45
986.759	1158.67
987.057	1170.87
987.355	1178.1
987.653	1150.53
987.951	1189.86
988.249	1167.94
988.547	1177.88
988.844	1129.74
989.142	1124.55
989.44	1174.04
989.737	1121.38
990.035	1127.71
990.332	1148.05
990.63	1125.9
990.927	1127.03
991.224	1115.96
991.521	1104.43
991.819	1096.3
992.116	1111.44
992.413	1107.82
992.71	1092.46
993.006	1117.54
993.303	1082.74
993.6	1100.14
993.897	1092.68
994.193	1067.37
994.49	1064.66
994.787	1062.18
995.083	1059.46
995.379	1046.58
995.676	1089.07
995.972	1042.29
996.268	1027.37
996.565	1026.24
996.861	1033.25
997.157	1011.78
997.453	1022.85
997.749	1021.27
998.044	1011.56
998.34	1023.08
998.636	1006.81
998.932	979.92
999.227	990.31
999.523	1007.49
999.818	982.18
1000.114	959.81
1000.409	1012.23
1000.704	966.58
1001	996.64
1001.295	990.31
1001.59	974.95
1001.885	974.27
1002.18	980.37
1002.475	956.19
1002.77	952.8
1003.065	962.07
1003.359	933.14
1003.654	939.69
1003.949	929.3
1004.243	915.29
1004.538	932.01
1004.832	946.47
1005.127	908.73
1005.421	927.26
1005.715	940.14
1006.009	916.19
1006.304	896.98
1006.598	865.12
1006.892	885
1007.186	891.33
1007.48	878.68
1007.773	899.92
1008.067	899.02
1008.361	879.13
1008.655	865.8
1008.948	869.64
1009.242	862.41
1009.535	854.72
1009.829	859.47
1010.122	844.1
1010.415	861.95
1010.708	849.75
1011.001	830.54
1011.295	834.61
1011.588	853.37
1011.881	832.13
1012.173	847.27
1012.466	808.17
1012.759	807.04
1013.052	812.92
1013.344	827.38
1013.637	832.58
1013.93	778.12
1014.222	781.73
1014.514	807.49
1014.807	790.32
1015.099	799.58
1015.391	791.22
1015.683	787.61
1015.976	785.12
1016.268	780.15
1016.56	772.01
1016.851	777.21
1017.143	770.66
1017.435	750.55
1017.727	748.06
1018.018	750.09
1018.31	728.17
1018.602	747.83
1018.893	766.36
1019.185	728.62
1019.476	729.75
1019.767	724.56
1020.058	711.45
1020.35	728.4
1020.641	721.17
1020.932	713.26
1021.223	725.24
1021.514	703.77
1021.804	703.09
1022.095	709.42
1022.386	678.23
1022.677	701.51
1022.967	671.23
1023.258	694.28
1023.548	682.75
1023.839	679.36
1024.129	681.62
1024.419	686.59
1024.709	691.56
1025	674.84
1025.29	684.11
1025.58	643.88
1025.87	661.51
1026.16	666.25
1026.449	675.52
1026.739	650.21
1027.029	655.41
1027.319	629.87
1027.608	630.32
1027.898	641.85
1028.187	647.27
1028.477	640.72
1028.766	633.71
1029.055	627.84
1029.344	614.28
1029.634	628.29
1029.923	626.03
1030.212	633.03
1030.501	623.99
1030.79	621.06
1031.078	606.82
1031.367	606.37
1031.656	605.24
1031.945	593.94
1032.233	615.63
1032.522	587.16
1032.81	572.47
1033.099	602.3
1033.387	591.45
1033.675	589.65
1033.963	579.25
1034.251	584.67
1034.54	574.96
1034.828	575.18
1035.116	572.92
1035.403	577.89
1035.691	588.06
1035.979	569.76
1036.267	567.05
1036.554	562.3
1036.842	558.69
1037.129	553.94
1037.417	574.28
1037.704	558.91
1037.992	570.21
1038.279	535.18
1038.566	549.19
1038.853	549.19
1039.14	549.19
