Data from blue_clamp_base_FLMS001491_00049.txt Node
Date: Wed Feb 08 15:16:04 GMT 2017
User: dcchb
Spectrometer: FLMS00149
Trigger mode: 0
Integration Time (sec): 2.000000E-2
Scans to average: 10
Electric dark correction enabled: true
Nonlinearity correction enabled: false
Boxcar width: 0
XAxis mode: Wavelengths
Number of Pixels in Spectrum: 2048
>>>>>Begin Spectral Data<<<<<
341.393	-2.66
341.776	-2.66
342.16	-2.66
342.543	-59.6
342.927	-78.13
343.31	-68.42
343.693	-73.39
344.077	-62.77
344.46	-60.28
344.843	-66.83
345.226	-34.29
345.61	-40.17
345.993	-11.24
346.376	-4.69
346.759	0.96
347.142	17.23
347.525	45.93
347.908	81.18
348.291	86.61
348.674	88.87
349.057	101.3
349.44	116.89
349.823	149.66
350.206	168.87
350.588	186.94
350.971	211.12
351.354	228.53
351.737	229.2
352.119	270.56
352.502	261.74
352.884	290.67
353.267	269.2
353.65	285.7
354.032	309.43
354.414	324.12
354.797	306.26
355.179	341.29
355.562	317.34
355.944	332.25
356.326	337
356.709	333.83
357.091	338.58
357.473	340.16
357.855	348.97
358.238	338.8
358.62	351.01
359.002	370.67
359.384	376.09
359.766	343.55
360.148	328.86
360.53	369.09
360.912	334.28
361.294	359.82
361.676	332.25
362.057	327.73
362.439	354.17
362.821	327.51
363.203	337
363.584	346.94
363.966	329.54
364.348	334.28
364.729	349.65
365.111	333.38
365.493	347.17
365.874	336.32
366.256	318.92
366.637	338.35
367.019	357.11
367.4	344.45
367.781	322.53
368.163	323.89
368.544	320.27
368.925	327.05
369.306	328.41
369.688	329.31
370.069	333.83
370.45	337.45
370.831	353.72
371.212	329.31
371.593	330.67
371.974	350.78
372.355	329.77
372.736	324.57
373.117	311.46
373.498	360.5
373.879	357.79
374.26	321.63
374.641	330.9
375.021	344.68
375.402	347.62
375.783	330.22
376.163	351.23
376.544	354.62
376.925	372.7
377.305	348.07
377.686	333.61
378.066	371.57
378.447	355.75
378.827	358.01
379.208	365.7
379.588	357.56
379.968	369.76
380.349	369.09
380.729	348.97
381.109	360.95
381.489	376.54
381.87	371.57
382.25	381.29
382.63	388.07
383.01	375.87
383.39	399.14
383.77	372.25
384.15	388.97
384.53	394.4
384.91	383.55
385.29	381.06
385.67	397.79
386.049	384.91
386.429	403.89
386.809	425.81
387.189	424.45
387.568	392.36
387.948	419.03
388.328	402.76
388.707	440.95
389.087	423.1
389.466	435.53
389.846	451.8
390.225	433.49
390.605	467.39
390.984	431.46
391.363	433.27
391.743	452.7
392.122	458.8
392.501	448.86
392.881	482.98
393.26	469.65
393.639	473.04
394.018	457.67
394.397	477.78
394.776	490.67
395.155	480.5
395.534	495.18
395.913	489.76
396.292	495.41
396.671	536.09
397.05	513.72
397.429	536.09
397.808	536.77
398.186	544.67
398.565	530.66
398.944	539.03
399.323	540.61
399.701	559.36
400.08	554.39
400.458	548.52
400.837	556.2
401.215	570.89
401.594	587.61
401.972	569.31
402.351	575.41
402.729	584
403.107	603.43
403.486	581.51
403.864	600.04
404.242	613.83
404.62	616.54
404.999	617.22
405.377	644.11
405.755	642.3
406.133	657.89
406.511	659.25
406.889	656.31
407.267	694.73
407.645	692.47
408.023	685.46
408.401	681.62
408.779	720.26
409.156	714.61
409.534	737.44
409.912	725.69
410.29	753.93
410.667	766.59
411.045	770.66
411.422	754.61
411.8	760.94
412.178	808.85
412.555	814.5
412.933	799.36
413.31	805.91
413.687	827.15
414.065	829.87
414.442	845.68
414.819	855.85
415.197	875.97
415.574	876.19
415.951	854.95
416.328	891.11
416.705	866.02
417.082	906.02
417.46	925
417.837	928.62
418.214	928.85
418.591	960.48
418.967	954.83
419.344	967.49
419.721	995.96
420.098	981.95
420.475	970.65
420.852	981.5
421.228	1016.98
421.605	1030.31
421.982	1006.58
422.358	1049.29
422.735	1051.78
423.111	1071.44
423.488	1068.5
423.864	1085.9
424.241	1092.01
424.617	1088.16
424.994	1118.45
425.37	1119.58
425.746	1126.35
426.123	1144.21
426.499	1156.86
426.875	1175.84
427.251	1202.74
427.627	1216.97
428.003	1205.67
428.379	1242.06
428.756	1236.18
429.132	1257.88
429.507	1283.86
429.883	1293.13
430.259	1298.78
430.635	1332.22
431.011	1353.92
431.387	1363.41
431.763	1387.36
432.138	1418.1
432.514	1419
432.89	1426.23
433.265	1463.07
433.641	1462.62
434.016	1472.33
434.392	1498.32
434.767	1542.39
435.143	1522.95
435.518	1543.74
435.894	1536.74
436.269	1580.13
436.644	1599.56
437.02	1619.67
437.395	1638.21
437.77	1670.75
438.145	1677.75
438.52	1694.7
438.895	1718.88
439.271	1725.43
439.646	1799.33
440.021	1771.76
440.395	1792.55
440.77	1793.46
441.145	1832.78
441.52	1874.58
441.895	1831.65
442.27	1857.18
442.645	1904.19
443.019	1894.02
443.394	1880.23
443.769	1934.24
444.143	1916.62
444.518	1953.23
444.892	1952.32
445.267	1982.15
445.641	1996.16
446.016	2009.27
446.39	2052.66
446.764	2050.62
447.139	2027.8
447.513	2052.21
447.887	2088.82
448.262	2072.32
448.636	2108.25
449.01	2135.14
449.384	2172.2
449.758	2173.33
450.132	2176.95
450.506	2206.1
450.88	2220.34
451.254	2235.93
451.628	2233.22
452.002	2269.6
452.376	2294.69
452.75	2331.97
453.123	2357.51
453.497	2370.16
453.871	2381.46
454.244	2437.05
454.618	2413.1
454.992	2492.42
455.365	2478.64
455.739	2540.55
456.112	2534.45
456.486	2579.2
456.859	2605.64
457.232	2628.01
457.606	2696.48
457.979	2682.92
458.352	2713.43
458.725	2734.45
459.099	2785.97
459.472	2802.92
459.845	2824.39
460.218	2874.56
460.591	2884.05
460.964	2914.1
461.337	2949.81
461.71	3020.99
462.083	3044.72
462.456	3046.3
462.829	3068.9
463.201	3112.07
463.574	3091.5
463.947	3166.98
464.32	3229.8
464.692	3259.41
465.065	3232.06
465.438	3334.21
465.81	3337.6
466.183	3418.27
466.555	3480.19
466.928	3421.89
467.3	3459.85
467.672	3513.64
468.045	3587.31
468.417	3576.46
468.789	3630.92
469.161	3625.95
469.534	3739.85
469.906	3805.61
470.278	3809.22
470.65	3818.49
471.022	3937.13
471.394	4008.99
471.766	3995.43
472.138	4025.71
472.51	4095.09
472.882	4171.47
473.253	4233.62
473.625	4252.6
473.997	4322.2
474.369	4339.83
474.74	4356.55
475.112	4458.92
475.484	4531.01
475.855	4568.07
476.227	4624.12
476.598	4714.51
476.97	4755.41
477.341	4870.66
477.713	4893.26
478.084	4966.48
478.455	5046.93
478.827	5102.3
479.198	5191.78
479.569	5199.47
479.94	5306.81
480.311	5372.12
480.682	5500.7
481.053	5598.78
481.424	5574.6
481.795	5705.44
482.166	5716.74
482.537	5793.8
482.908	5842.16
483.279	5904.76
483.65	5972.78
484.021	6093.46
484.391	6152.44
484.762	6186.11
485.133	6251.87
485.503	6278.54
485.874	6405.54
486.244	6473.11
486.615	6529.15
486.985	6585.42
487.356	6718.75
487.726	6719.65
488.097	6815.02
488.467	6836.03
488.837	6921.68
489.207	6974.34
489.578	7047.55
489.948	7089.59
490.318	7146.99
490.688	7201.68
491.058	7231.28
491.428	7371.16
491.798	7426.75
492.168	7485.96
492.538	7489.13
492.908	7535.23
493.278	7601.44
493.648	7672.62
494.017	7656.13
494.387	7687.76
494.757	7782.68
495.126	7815.44
495.496	7856.35
495.866	7831.49
496.235	7910.36
496.605	7974.76
496.974	8044.59
497.344	8022.22
497.713	8092.95
498.082	8153.29
498.452	8178.37
498.821	8163.46
499.19	8209.78
499.559	8299.5
499.928	8273.74
500.298	8284.81
500.667	8412.04
501.036	8324.36
501.405	8401.87
501.774	8361.42
502.143	8467.4
502.512	8490.68
502.88	8483.68
503.249	8512.6
503.618	8526.39
503.987	8573.84
504.356	8594.18
504.724	8639.83
505.093	8646.38
505.462	8701.52
505.83	8672.14
506.199	8727.28
506.567	8821.75
506.936	8779.03
507.304	8855.42
507.672	8902.42
508.041	8960.27
508.409	9000.05
508.777	8953.04
509.145	9051.12
509.514	9005.47
509.882	9114.39
510.25	9079.37
510.618	9115.07
510.986	9101.06
511.354	9209.76
511.722	9259.02
512.09	9253.82
512.458	9237.55
512.826	9371.56
513.193	9355.97
513.561	9381.73
513.929	9444.55
514.297	9488.62
514.664	9490.43
515.032	9562.52
515.4	9620.37
515.767	9573.82
516.135	9648.62
516.502	9594.38
516.869	9734.49
517.237	9568.62
517.604	9635.96
517.972	9781.95
518.339	9728.84
518.706	9813.81
519.073	9846.35
519.44	9866.24
519.808	9885.67
520.175	9872.34
520.542	9989.62
520.909	10058.55
521.276	10056.29
521.643	10154.37
522.009	10106.23
522.376	10230.97
522.743	10198.43
523.11	10282.72
523.477	10400.01
523.843	10359.33
524.21	10454.24
524.577	10503.96
524.943	10554.13
525.31	10652.88
525.676	10669.61
526.043	10724.29
526.409	10761.13
526.776	10784.18
527.142	10838.87
527.508	10798.87
527.874	10950.73
528.241	10984.85
528.607	10991.41
528.973	11110.95
529.339	11081.35
529.705	11178.29
530.071	11232.98
530.437	11222.13
530.803	11298.97
531.169	11376.71
531.535	11403.6
531.901	11433.88
532.267	11405.18
532.632	11460.09
532.998	11511.17
533.364	11612.18
533.73	11545.29
534.095	11648.79
534.461	11673.65
534.826	11820.08
535.192	11802.46
535.557	11858.95
535.923	11844.49
536.288	11850.59
536.653	11929.23
537.019	11819.63
537.384	12041.55
537.749	12046.52
538.114	12049.01
538.479	12107.08
538.845	12093.75
539.21	12107.76
539.575	12209.23
539.94	12208.32
540.305	12267.76
540.67	12284.93
541.034	12308.43
541.399	12395.21
541.764	12357.92
542.129	12409.45
542.494	12451.25
542.858	12506.85
543.223	12502.78
543.587	12544.81
543.952	12514.53
544.316	12616
544.681	12556.79
545.045	12631.14
545.41	12685.6
545.774	12696.9
546.138	12671.14
546.503	12810.57
546.867	12781.42
547.231	12881.07
547.595	12911.81
547.959	12922.88
548.324	12934.41
548.688	12927.4
549.052	13044.01
549.416	12974.18
549.779	13063.44
550.143	12996.55
550.507	13120.16
550.871	13169.65
551.235	13126.27
551.599	13224.57
551.962	13219.6
552.326	13280.39
552.689	13373.49
553.053	13296.43
553.417	13381.4
553.78	13522.41
554.143	13368.52
554.507	13468.85
554.87	13486.71
555.234	13614.39
555.597	13567.16
555.96	13587.95
556.323	13651.22
556.686	13732.8
557.05	13761.95
557.413	13770.54
557.776	13738
558.139	13835.62
558.502	13881.73
558.865	13888.05
559.228	13959.46
559.59	14029.52
559.953	13971.44
560.316	14193.58
560.679	14120.14
561.041	14272.22
561.404	14289.17
561.767	14314.03
562.129	14294.14
562.492	14441.03
562.854	14442.16
563.217	14416.85
563.579	14459.56
563.941	14641.48
564.304	14612.33
564.666	14738.43
565.028	14777.07
565.39	14748.14
565.753	14857.29
566.115	14939.32
566.477	14979.55
566.839	15004.86
567.201	15019.77
567.563	15055.48
567.925	15284.85
568.287	15182.93
568.648	15161.01
569.01	15242.37
569.372	15369.37
569.734	15347.9
570.095	15427.22
570.457	15528.24
570.819	15523.04
571.18	15601.68
571.542	15600.1
571.903	15716.71
572.265	15741.34
572.626	15854.1
572.987	15834.22
573.349	15885.97
573.71	15968.45
574.071	16018.62
574.432	16101.78
574.794	16197.82
575.155	16153.76
575.516	16108.56
575.877	16181.55
576.238	16317.37
576.599	16332.06
576.96	16304.71
577.32	16345.62
577.681	16464.03
578.042	16512.16
578.403	16436.91
578.763	16439.62
579.124	16545.61
579.485	16595.78
579.845	16562.56
580.206	16659.05
580.566	16653.63
580.927	16703.8
581.287	16737.24
581.648	16632.84
582.008	16716.91
582.368	16690.47
582.728	16801.65
583.089	16718.71
583.449	16711.48
583.809	16784.7
584.169	16933.4
584.529	16776.34
584.889	16899.27
585.249	16914.19
585.609	16770.69
585.969	16898.6
586.329	16910.8
586.688	16883.68
587.048	16873.29
587.408	16875.77
587.768	16889.56
588.127	16916.67
588.487	16869.67
588.846	16983.34
589.206	16928.42
589.565	16960.06
589.925	17018.37
590.284	16933.17
590.643	17077.8
591.003	17063.11
591.362	16977.01
591.721	17136.1
592.08	17167.06
592.44	17023.11
592.799	17023.56
593.158	17124.8
593.517	17051.13
593.876	17100.85
594.235	17056.56
594.593	17077.57
594.952	17180.62
595.311	17063.79
595.67	17132.71
596.029	17321.18
596.387	17303.33
596.746	17334.52
597.104	17222.2
597.463	17124.13
597.822	17321.86
598.18	17346.27
598.538	17239.15
598.897	17351.46
599.255	17125.93
599.613	17443.67
599.972	17238.02
600.33	17346.04
600.688	17263.78
601.046	17359.83
601.404	17347.4
601.762	17373.61
602.12	17490.22
602.478	17355.76
602.836	17473.27
603.194	17369.09
603.552	17396.66
603.91	17342.43
604.268	17447.28
604.625	17397.79
604.983	17532.25
605.341	17397.79
605.698	17449.54
606.056	17574.06
606.413	17513.04
606.771	17547.39
607.128	17617.9
607.485	17433.95
607.843	17551.69
608.2	17699.48
608.557	17643.43
608.914	17501.29
609.272	17773.6
609.629	17779.93
609.986	17707.84
610.343	17682.08
610.7	17767.5
611.057	17753.26
611.414	17695.18
611.771	17842.07
612.127	17945.35
612.484	17767.95
612.841	17877.55
613.198	17840.27
613.554	17871.9
613.911	17937.89
614.267	17913.26
614.624	17827.61
614.98	18001.84
615.337	18069.64
615.693	18097.89
616.05	17960.49
616.406	18077.55
616.762	17936.53
617.118	18082.74
617.475	18075.97
617.831	18125.68
618.187	18127.72
618.543	18237.09
618.899	18318.9
619.255	18119.35
619.611	18251.78
619.967	18241.38
620.323	18325
620.678	18242.97
621.034	18240.25
621.39	18198.9
621.746	18152.57
622.101	18488.38
622.457	18258.11
622.812	18331.55
623.168	18334.49
623.523	18437.54
623.879	18362.74
624.234	18285.45
624.589	18521.6
624.945	18405.67
625.3	18447.71
625.655	18472.11
626.01	18397.09
626.365	18551.21
626.72	18565.22
627.075	18580.13
627.43	18577.42
627.785	18447.26
628.14	18532
628.495	18616.74
628.85	18631.21
629.205	18475.05
629.559	18569.06
629.914	18521.6
630.269	18624.65
630.623	18539.23
630.978	18589.17
631.332	18610.19
631.687	18694.71
632.041	18618.55
632.396	18653.58
632.75	18608.38
633.104	18654.93
633.459	18643.86
633.813	18653.13
634.167	18628.27
634.521	18661.71
634.875	18665.78
635.229	18633.24
635.583	18601.15
635.937	18581.04
636.291	18536.52
636.645	18607.93
636.999	18646.8
637.352	18699.45
637.706	18666.01
638.06	18655.39
638.413	18713.69
638.767	18597.76
639.121	18719.56
639.474	18626.01
639.828	18753.91
640.181	18647.25
640.534	18637.31
640.888	18677.76
641.241	18590.98
641.594	18661.71
641.947	18768.38
642.301	18633.92
642.654	18773.35
643.007	18731.32
643.36	18789.17
643.713	18688.6
644.066	18823.06
644.419	18726.8
644.771	18609.06
645.124	18405.67
645.477	18331.1
645.83	18262.63
646.182	18244.77
646.535	18328.16
646.888	18414.49
647.24	18370.19
647.593	18499.23
647.945	18418.56
648.298	18429.85
648.65	18390.76
649.002	18323.87
649.355	18419.01
649.707	18376.75
650.059	18370.65
650.411	18659
650.763	18786
651.115	18931.31
651.467	18881.59
651.819	18976.73
652.171	18955.49
652.523	18919.79
652.875	19026.67
653.227	18930.41
653.578	19038.43
653.93	19039.56
654.282	19005.43
654.633	18942.84
654.985	19006.34
655.337	18984.19
655.688	19073.45
656.039	19119.55
656.391	18952.33
656.742	18999.56
657.094	19054.47
657.445	19013.79
657.796	19098.54
658.147	19134.47
658.498	19055.15
658.849	19139.21
659.2	19031.65
659.551	19092.44
659.902	19157.29
660.253	19145.54
660.604	19073.68
660.955	18981.03
661.306	19166.33
661.656	19009.95
662.007	19167.91
662.358	19190.74
662.708	19215.6
663.059	19187.8
663.409	18988.03
663.76	19188.93
664.11	19113.45
664.461	19332.66
664.811	19189.61
665.161	19184.64
665.511	19106.45
665.862	19124.07
666.212	19338.08
666.562	19240.23
666.912	19267.12
667.262	19154.13
667.612	19145.77
667.962	19214.01
668.312	19128.37
668.662	19201.81
669.011	19166.11
669.361	19103.28
669.711	19119.33
670.06	18987.13
670.41	19056.28
670.76	18975.83
671.109	18967.47
671.459	18986.68
671.808	18956.62
672.157	18995.49
672.507	18787.59
672.856	18830.52
673.205	18886.11
673.554	18893.57
673.904	18748.26
674.253	18945.1
674.602	18763.18
674.951	18538.78
675.3	18437.54
675.649	18676.4
675.998	18731.77
676.346	18597.99
676.695	18698.77
677.044	18471.66
677.393	18495.62
677.741	18458.33
678.09	18466.92
678.438	18449.06
678.787	18552.11
679.135	18476.86
679.484	18350.08
679.832	18329.07
680.181	18202.29
680.529	18353.92
680.877	18217.43
681.225	18096.08
681.573	18224.21
681.922	18070.32
682.27	18125
682.618	17999.36
682.966	18002.75
683.314	18089.52
683.661	17916.87
684.009	17928.62
684.357	17862.41
684.705	17842.07
685.053	17880.94
685.4	17759.14
685.748	17725.01
686.095	17776.31
686.443	17693.83
686.79	17623.55
687.138	17624.9
687.485	17630.55
687.832	17635.52
688.18	17674.39
688.527	17557.56
688.874	17627.16
689.221	17507.39
689.568	17477.79
689.915	17370.9
690.262	17412.71
690.609	17366.61
690.956	17304.23
691.303	17356.21
691.65	17198.25
691.997	17174.52
692.344	17224.69
692.69	17231.92
693.037	17161.41
693.383	17051.36
693.73	17126.61
694.077	16969.33
694.423	17104.92
694.769	16994.41
695.116	16913.06
695.462	16935.88
695.808	16867.18
696.155	16924.58
696.501	16858.14
696.847	16785.83
697.193	16685.04
697.539	16697.47
697.885	16637.59
698.231	16612.95
698.577	16638.94
698.923	16672.16
699.269	16671.48
699.614	16545.61
699.96	16469.68
700.306	16543.58
700.651	16502.67
700.997	16453.64
701.342	16459.28
701.688	16457.93
702.033	16336.58
702.379	16395.78
702.724	16298.61
703.069	16433.07
703.415	16208.67
703.76	16222.68
704.105	16242.34
704.45	16257.71
704.795	16109.92
705.14	16170.25
705.485	16156.92
705.83	15969.13
706.175	16104.27
706.52	16090.25
706.865	16151.27
707.209	16032.4
707.554	16039.41
707.899	16065.62
708.243	15972.07
708.588	15909.92
708.932	15855.68
709.277	15868.11
709.621	16007.77
709.966	15862.46
710.31	15823.6
710.654	15750.38
710.998	15756.03
711.342	15765.52
711.687	15817.04
712.031	15712.86
712.375	15698.4
712.719	15767.1
713.063	15679.19
713.407	15745.41
713.75	15673.32
714.094	15782.01
714.438	15626.76
714.782	15542.25
715.125	15665.41
715.469	15632.87
715.812	15553.32
716.156	15575.47
716.499	15558.29
716.843	15608.69
717.186	15538.4
717.53	15552.19
717.873	15614.34
718.216	15499.99
718.559	15484.62
718.902	15358.97
719.246	15429.03
719.589	15374.79
719.932	15411.4
720.275	15361.69
720.617	15357.62
720.96	15299.99
721.303	15390.61
721.646	15424.51
721.989	15311.07
722.331	15378.64
722.674	15329.37
723.016	15344.06
723.359	15314.23
723.701	15298.64
724.044	15223.16
724.386	15251.41
724.729	15293.21
725.071	15255.93
725.413	15189.04
725.755	15171.63
726.097	15075.14
726.439	15148.13
726.782	15193.33
727.124	15288.69
727.465	15070.85
727.807	15192.88
728.149	15134.57
728.491	15143.84
728.833	15193.33
729.175	15191.07
729.516	15114.01
729.858	15086.89
730.199	15182.71
730.541	15158.08
730.882	15157.85
731.224	15233.1
731.565	15149.26
731.906	15130.05
732.248	15182.03
732.589	15100.45
732.93	15067.68
733.271	15164.4
733.612	15186.1
733.953	15172.31
734.294	15229.94
734.635	15109.04
734.976	15218.64
735.317	15130.51
735.658	15153.1
735.999	15203.95
736.339	15120.56
736.68	15167.12
737.021	15227.23
737.361	15160.56
737.702	15344.06
738.042	15216.15
738.383	15276.04
738.723	15332.76
739.063	15250.95
739.404	15405.08
739.744	15306.77
740.084	15311.29
740.424	15357.39
740.764	15329.37
741.104	15411.85
741.444	15440.78
741.784	15377.28
742.124	15539.31
742.464	15435.81
742.804	15492.08
743.143	15482.36
743.483	15546.99
743.823	15529.59
744.162	15528.69
744.502	15572.75
744.841	15579.99
745.181	15782.47
745.52	15700.66
745.86	15698.85
746.199	15743.82
746.538	15718.97
746.877	15804.16
747.216	15852.52
747.556	15823.14
747.895	15917.6
748.234	15752.86
748.573	15943.37
748.911	15945.63
749.25	16059.75
749.589	16009.13
749.928	16060.65
750.267	15955.34
750.605	16015
750.944	16121.21
751.283	16033.99
751.621	16119.63
751.96	16073.76
752.298	16126.86
752.636	16205.05
752.975	16059.3
753.313	16130.71
753.651	16292.28
753.989	16190.14
754.327	16208.9
754.666	16306.75
755.004	16219.07
755.342	16403.69
755.679	16270.59
756.017	16267.2
756.355	16361.66
756.693	16288.44
757.031	16506.06
757.368	16432.84
757.706	16405.5
758.044	16436.69
758.381	16430.81
758.719	16382
759.056	16482.56
759.394	16559.62
759.731	16468.1
760.068	16458.83
760.405	16526.63
760.743	16547.19
761.08	16588.09
761.417	16542.22
761.754	16531.6
762.091	16660.41
762.428	16628.77
762.765	16538.38
763.102	16746.73
763.438	16572.95
763.775	16668.09
764.112	16699.96
764.449	16736.11
764.785	16691.37
765.122	16505.39
765.458	16583.8
765.795	16599.62
766.131	16629.22
766.467	16577.93
766.804	16625.61
767.14	16535.44
767.476	16591.94
767.812	16636.46
768.148	16670.8
768.485	16589
768.821	16563.46
769.157	16553.52
769.492	16546.97
769.828	16578.38
770.164	16544.71
770.5	16429
770.836	16448.21
771.171	16419.06
771.507	16470.36
771.842	16410.92
772.178	16483.46
772.513	16394.43
772.849	16478.72
773.184	16466.97
773.519	16501.32
773.855	16426.74
774.19	16292.28
774.525	16398.5
774.86	16338.16
775.195	16347.65
775.53	16355.11
775.865	16337.03
776.2	16291.83
776.535	16209.57
776.87	16332.28
777.205	16191.72
777.539	16212.74
777.874	16252.74
778.209	16187.65
778.543	16216.58
778.878	16090.71
779.212	16091.61
779.547	16055
779.881	16144.72
780.215	16024.95
780.55	16141.78
780.884	16050.03
781.218	16043.93
781.552	15975.46
781.886	15999.41
782.22	15930.03
782.554	15909.02
782.888	15789.02
783.222	15793.31
783.556	15779.3
783.889	15839.64
784.223	15843.03
784.557	15779.3
784.89	15822.47
785.224	15820.21
785.557	15646.2
785.891	15636.03
786.224	15612.53
786.558	15694.79
786.891	15551.06
787.224	15548.8
787.557	15603.94
787.891	15586.99
788.224	15500.89
788.557	15537.28
788.89	15469.93
789.223	15615.47
789.556	15447.33
789.888	15342.03
790.221	15367.11
790.554	15310.61
790.887	15315.81
791.219	15257.96
791.552	15298.64
791.884	15202.82
792.217	15210.05
792.549	15212.99
792.882	15147.91
793.214	15036.72
793.546	15213.44
793.879	14982.49
794.211	15041.02
794.543	15077.63
794.875	15120.11
795.207	15043.5
795.539	15128.25
795.871	14950.85
796.203	14914.47
796.535	14907.01
796.867	14845.77
797.198	14836.28
797.53	14850.06
797.862	14764.19
798.193	14807.35
798.525	14753.34
798.856	14761.93
799.188	14614.36
799.519	14643.29
799.85	14579.79
800.182	14534.14
800.513	14550.86
800.844	14414.59
801.175	14544.76
801.506	14596.96
801.837	14469.05
802.168	14472.67
802.499	14498.88
802.83	14383.41
803.161	14427.93
803.491	14370.53
803.822	14437.42
804.153	14341.6
804.483	14185.9
804.814	14246.01
805.145	14202.85
805.475	14287.14
805.805	14242.85
806.136	14246.91
806.466	14183.64
806.796	14113.81
807.126	14080.59
807.457	13980.48
807.787	14063.19
808.117	14020.25
808.447	13986.36
808.777	14036.75
809.107	13959.69
809.436	13919.01
809.766	13875.85
810.096	13809.18
810.426	13798.11
810.755	13832.91
811.085	13864.78
811.414	13730.77
811.744	13694.84
812.073	13786.59
812.403	13711.33
812.732	13632.24
813.061	13647.16
813.39	13528.51
813.719	13521.96
814.049	13565.12
814.378	13534.16
814.707	13564.22
815.036	13549.98
815.365	13477.44
815.693	13313.6
816.022	13414.62
816.351	13317.67
816.68	13256.66
817.008	13360.61
817.337	13289.65
817.665	13293.94
817.994	13309.09
818.322	13223.66
818.651	13179.37
818.979	13144.34
819.307	13188.86
819.636	13132.37
819.964	13115.42
820.292	13156.55
820.62	13198.58
820.948	13162.65
821.276	13228.41
821.604	13067.06
821.932	13119.49
822.259	13108.64
822.587	13069.32
822.915	13149.77
823.243	13082.42
823.57	13090.56
823.898	13142.76
824.225	13095.53
824.553	13163.55
824.88	13057.11
825.207	13154.06
825.535	13067.74
825.862	13186.38
826.189	13070.22
826.516	13183.89
826.843	13187.05
827.17	13171.69
827.497	13196.77
827.824	13199.03
828.151	13272.25
828.478	13155.87
828.805	13261.18
829.131	13121.75
829.458	13117.45
829.785	13144.57
830.111	13119.26
830.438	13227.73
830.764	13144.12
831.09	13222.99
831.417	13165.36
831.743	13260.95
832.069	13242.87
832.395	13150.67
832.722	13186.6
833.048	13211.46
833.374	13127.62
833.7	13132.82
834.026	13156.55
834.351	13191.35
834.677	13111.35
835.003	13198.58
835.329	13200.84
835.654	13143.89
835.98	12982.09
836.306	13126.04
836.631	13018.92
836.956	13058.7
837.282	13061.18
837.607	13020.28
837.932	13031.13
838.258	12976.21
838.583	12962.43
838.908	12972.6
839.233	12917.23
839.558	12912.03
839.883	12870.9
840.208	12831.13
840.533	12820.06
840.858	12860.28
841.182	12802.66
841.507	12833.17
841.832	12747.07
842.156	12797.46
842.481	12730.12
842.805	12758.59
843.13	12743.22
843.454	12722.66
843.778	12648.09
844.103	12659.84
844.427	12548.2
844.751	12655.54
845.075	12515.43
845.399	12566.51
845.723	12484.7
846.047	12458.26
846.371	12356.12
846.695	12376.45
847.019	12326.96
847.343	12278.83
847.666	12225.95
847.99	12183.46
848.313	12196.35
848.637	12056.24
848.96	12017.14
849.284	12020.76
849.607	11917.48
849.931	11883.36
850.254	11810.82
850.577	11771.72
850.9	11745.06
851.223	11735.12
851.546	11807.2
851.869	11568.79
852.192	11660.09
852.515	11472.98
852.838	11513.43
853.161	11499.64
853.483	11332.41
853.806	11398.4
854.129	11402.92
854.451	11313.66
854.774	11281.57
855.096	11252.42
855.419	11175.13
855.741	11192.76
856.063	11136.03
856.385	11129.03
856.708	11100.33
857.03	11082.7
857.352	11064.4
857.674	10969.03
857.996	10949.37
858.318	10922.03
858.64	10921.13
858.961	10889.71
859.283	10851.75
859.605	10801.35
859.926	10772.43
860.248	10774.46
860.57	10692.2
860.891	10770.17
861.212	10711.19
861.534	10715.03
861.855	10656.27
862.176	10636.16
862.498	10679.78
862.819	10650.4
863.14	10606.56
863.461	10605.88
863.782	10546.9
864.103	10570.17
864.424	10577.86
864.745	10606.56
865.065	10473.91
865.386	10505.09
865.707	10469.84
866.027	10473.45
866.348	10447.01
866.668	10437.3
866.989	10351.65
867.309	10290.86
867.63	10292.44
867.95	10408.82
868.27	10317.98
868.59	10263.06
868.91	10249.73
869.23	10283.18
869.55	10153.46
869.87	10246.57
870.19	10186.23
870.51	10177.64
870.83	10179.68
871.15	10190.3
871.469	10107.36
871.789	10085.67
872.109	10198.21
872.428	10085.22
872.748	10080.92
873.067	10027.36
873.386	10102.62
873.706	10040.02
874.025	10044.76
874.344	9913.69
874.663	9984.65
874.982	10030.3
875.301	9969.51
875.62	9881.38
875.939	9898.1
876.258	9902.17
876.577	9889.29
876.896	9875.05
877.214	9863.07
877.533	9891.55
877.852	9870.53
878.17	9963.18
878.489	9805.67
878.807	9829.85
879.125	9810.19
879.444	9754.38
879.762	9751.44
880.08	9771.55
880.398	9662.85
880.716	9701.27
881.034	9614.94
881.352	9643.19
881.67	9628.05
881.988	9663.53
882.306	9533.59
882.624	9549.41
882.941	9518.68
883.259	9512.12
883.577	9511.9
883.894	9510.77
884.212	9486.13
884.529	9476.87
884.846	9447.94
885.164	9379.47
885.481	9365.69
885.798	9379.7
886.115	9344.67
886.432	9252.47
886.75	9291.79
887.067	9303.99
887.383	9223.54
887.7	9255.86
888.017	9176.09
888.334	9225.8
888.651	9178.57
888.967	9202.3
889.284	9108.29
889.6	9172.7
889.917	9045.92
890.233	9038.24
890.55	9058.8
890.866	9055.41
891.182	8934.74
891.498	9009.31
891.815	8973.83
892.131	8897
892.447	8913.72
892.763	8828.75
893.079	8878.47
893.395	8823.55
893.71	8760.28
894.026	8768.19
894.342	8748.3
894.657	8678.02
894.973	8707.62
895.289	8618.13
895.604	8607.29
895.92	8550.34
896.235	8568.87
896.55	8555.31
896.865	8598.25
897.181	8456.33
897.496	8469.89
897.811	8440.96
898.126	8413.85
898.441	8372.94
898.756	8341.31
899.071	8308.31
899.386	8327.3
899.7	8238.48
900.015	8237.58
900.33	8151.93
900.644	8142.89
900.959	8129.11
901.273	8057.92
901.588	8037.36
901.902	8004.82
902.216	8053.18
902.531	8004.59
902.845	8046.85
903.159	7913.52
903.473	7881.43
903.787	7897.7
904.101	7832.62
904.415	7821.77
904.729	7839.4
905.042	7774.32
905.356	7738.38
905.67	7707.65
905.984	7671.49
906.297	7645.96
906.611	7597.37
906.924	7563.47
907.237	7598.05
907.551	7503.36
907.864	7493.64
908.177	7495.45
908.491	7461.78
908.804	7385.63
909.117	7391.73
909.43	7350.15
909.743	7296.14
910.056	7270.83
910.368	7262.01
910.681	7263.59
910.994	7203.48
911.307	7173.2
911.619	7059.76
911.932	7144.73
912.244	7127.78
912.557	7089.36
912.869	7026.99
913.181	6946.54
913.494	6894.79
913.806	6951.29
914.118	6871.29
914.43	6858.18
914.742	6849.82
915.054	6816.15
915.366	6817.5
915.678	6751.97
915.99	6719.2
916.302	6697.28
916.613	6683.72
916.925	6664.51
917.236	6659.32
917.548	6622.71
917.859	6585.19
918.171	6570.96
918.482	6515.59
918.794	6472.65
919.105	6522.14
919.416	6437.63
919.727	6461.13
920.038	6337.52
920.349	6390.62
920.66	6309.72
920.971	6328.7
921.282	6298.65
921.593	6286.22
921.903	6290.06
922.214	6210.97
922.525	6178.2
922.835	6190.85
923.146	6104.3
923.456	6093.91
923.767	6095.26
924.077	6076.73
924.387	6032.89
924.697	6012.33
925.008	6022.27
925.318	5938.88
925.628	5961.48
925.938	5910.41
926.248	5879.45
926.558	5893.91
926.867	5841.48
927.177	5787.93
927.487	5803.75
927.796	5749.28
928.106	5684.2
928.416	5682.17
928.725	5653.92
929.034	5671.77
929.344	5654.6
929.653	5653.02
929.962	5582.28
930.271	5537.76
930.581	5594.26
930.89	5506.8
931.199	5483.75
931.508	5463.19
931.817	5494.83
932.125	5433.13
932.434	5390.88
932.743	5367.37
933.051	5307.71
933.36	5371.44
933.669	5306.81
933.977	5270.65
934.286	5225
934.594	5283.99
934.902	5219.13
935.21	5169.19
935.519	5194.5
935.827	5123.31
936.135	5181.84
936.443	5095.97
936.751	5123.54
937.059	5113.37
937.367	5043.09
937.674	5022.3
937.982	4990.89
938.29	4894.84
938.597	4965.12
938.905	4945.46
939.213	4893.04
939.52	4871.79
939.827	4888.29
940.135	4836.99
940.442	4801.74
940.749	4832.02
941.056	4844.22
941.363	4745.92
941.67	4755.19
941.977	4735.07
942.284	4702.76
942.591	4706.37
942.898	4667.05
943.205	4669.31
943.511	4650.1
943.818	4637
944.125	4599.71
944.431	4547.28
944.738	4583.44
945.044	4554.06
945.35	4547.51
945.657	4484.23
945.963	4479.03
946.269	4478.36
946.575	4440.84
946.881	4432.93
947.187	4399.94
947.493	4382.09
947.799	4412.6
948.105	4349.09
948.41	4340.28
948.716	4333.73
949.022	4308.42
949.327	4318.59
949.633	4239.72
949.938	4258.48
950.244	4245.59
950.549	4193.17
950.854	4169.89
951.16	4127.18
951.465	4111.36
951.77	4098.03
952.075	4091.02
952.38	4101.87
952.685	4088.99
952.99	4088.54
953.294	4048.31
953.599	4023
953.904	4005.6
954.209	3970.57
954.513	3997.24
954.818	3958.14
955.122	3943.23
955.426	3887.64
955.731	3940.29
956.035	3879.28
956.339	3899.16
956.643	3835.21
956.948	3842.89
957.252	3801.99
957.556	3796.11
957.86	3782.1
958.163	3790.69
958.467	3738.26
958.771	3736.91
959.075	3728.77
959.378	3709.79
959.682	3675.21
959.985	3717.25
960.289	3667.3
960.592	3673.86
960.896	3617.59
961.199	3610.36
961.502	3595.44
961.805	3602.45
962.108	3523.81
962.411	3589.79
962.714	3490.36
963.017	3519.74
963.32	3498.04
963.623	3507.08
963.926	3485.61
964.228	3442
964.531	3414.88
964.833	3446.29
965.136	3389.8
965.438	3415.56
965.741	3370.36
966.043	3393.87
966.345	3375.11
966.648	3353.41
966.95	3340.99
967.252	3321.55
967.554	3319.07
967.856	3260.08
968.158	3232.29
968.46	3291.95
968.761	3214.21
969.063	3207.88
969.365	3228.9
969.666	3199.97
969.968	3210.82
970.269	3141.67
970.571	3117.04
970.872	3166.53
971.174	3134.44
971.475	3116.36
971.776	3140.09
972.077	3106.64
972.378	3086.08
972.679	3052.63
972.98	3045.63
973.281	3027.1
973.582	3029.13
973.883	3026.19
974.183	2979.41
974.484	2986.19
974.785	2974.67
975.085	2961.33
975.386	2929.47
975.686	2915.23
975.986	2898.29
976.287	2909.58
976.587	2891.05
976.887	2915.23
977.187	2880.21
977.487	2859.19
977.787	2861.9
978.087	2834.56
978.387	2835.46
978.687	2804.28
978.987	2796.37
979.286	2768.12
979.586	2836.14
979.885	2712.98
980.185	2751.62
980.484	2717.27
980.784	2716.14
981.083	2709.59
981.382	2709.59
981.682	2703.26
981.981	2689.03
982.28	2700.32
982.579	2650.61
982.878	2634.56
983.177	2617.16
983.475	2608.12
983.774	2606.09
984.073	2634.34
984.372	2602.93
984.67	2563.15
984.969	2596.37
985.267	2594.11
985.566	2547.11
985.864	2501.23
986.162	2541.68
986.461	2528.13
986.759	2518.63
987.057	2494.91
987.355	2476.38
987.653	2453.78
987.951	2431.18
988.249	2419.2
988.547	2444.06
988.844	2411.07
989.142	2435.47
989.44	2399.77
989.737	2320.9
990.035	2385.53
990.332	2341.69
990.63	2381.01
990.927	2355.47
991.224	2354.8
991.521	2338.07
991.819	2316.15
992.116	2286.32
992.413	2287.23
992.71	2259.43
993.006	2274.8
993.303	2234.8
993.6	2243.39
993.897	2249.26
994.193	2196.83
994.49	2241.35
994.787	2199.09
995.083	2190.06
995.379	2200.9
995.676	2163.62
995.972	2183.95
996.268	2140.34
996.565	2159.77
996.861	2135.82
997.157	2137.4
997.453	2094.69
997.749	2084.97
998.044	2096.72
998.34	2075.48
998.636	2068.48
998.932	2056.27
999.227	2041.36
999.523	2027.8
999.818	2029.38
1000.114	2019.21
1000.409	2011.53
1000.704	1976.5
1001	1979.89
1001.295	1957.97
1001.59	1957.52
1001.885	1938.31
1002.18	1962.26
1002.475	1939.21
1002.77	1918.2
1003.065	1922.04
1003.359	1910.74
1003.654	1903.96
1003.949	1898.76
1004.243	1884.07
1004.538	1879.33
1004.832	1879.1
1005.127	1828.48
1005.421	1847.92
1005.715	1833
1006.009	1820.12
1006.304	1779.22
1006.598	1796.62
1006.892	1780.35
1007.186	1759.11
1007.48	1766.34
1007.773	1744.87
1008.067	1771.31
1008.361	1723.85
1008.655	1720.46
1008.948	1723.18
1009.242	1701.03
1009.535	1680.01
1009.829	1693.57
1010.122	1687.92
1010.415	1647.7
1010.708	1683.63
1011.001	1635.04
1011.295	1621.48
1011.588	1603.63
1011.881	1614.25
1012.173	1607.25
1012.466	1592.11
1012.759	1595.95
1013.052	1581.26
1013.344	1589.62
1013.637	1552.33
1013.93	1559.34
1014.222	1543.74
1014.514	1522.28
1014.807	1538.1
1015.099	1500.58
1015.391	1521.6
1015.683	1500.81
1015.976	1509.85
1016.268	1512.56
1016.56	1481.6
1016.851	1457.87
1017.143	1452.22
1017.435	1450.87
1017.727	1440.47
1018.018	1443.18
1018.31	1459.45
1018.602	1409.06
1018.893	1412.67
1019.185	1401.83
1019.476	1375.16
1019.767	1387.82
1020.058	1371.55
1020.35	1349.4
1020.641	1354.82
1020.932	1342.17
1021.223	1307.59
1021.514	1329.51
1021.804	1335.84
1022.095	1303.3
1022.386	1313.69
1022.677	1311.21
1022.967	1307.37
1023.258	1302.62
1023.548	1281.6
1023.839	1245.22
1024.129	1269.4
1024.419	1273.7
1024.709	1233.02
1025	1249.97
1025.29	1217.43
1025.58	1212.45
1025.87	1200.48
1026.16	1192.34
1026.449	1200.02
1026.739	1172.91
1027.029	1154.83
1027.319	1145.79
1027.608	1148.27
1027.898	1138.11
1028.187	1138.56
1028.477	1152.34
1028.766	1121.38
1029.055	1137.88
1029.344	1120.48
1029.634	1097.65
1029.923	1103.08
1030.212	1111.67
1030.501	1111.21
1030.79	1070.54
1031.078	1053.59
1031.367	1063.08
1031.656	1058.33
1031.945	1067.83
1032.233	1047.03
1032.522	1030.31
1032.81	1015.4
1033.099	1028.73
1033.387	1015.62
1033.675	1024.66
1033.963	1027.15
1034.251	1003.42
1034.54	993.48
1034.828	960.48
1035.116	987.15
1035.403	979.24
1035.691	977.43
1035.979	946.7
1036.267	961.39
1036.554	949.41
1036.842	938.34
1037.129	942.86
1037.417	938.11
1037.704	913.7
1037.992	892.24
1038.279	895.63
1038.566	901.5
1038.853	901.5
1039.14	901.5
