Data from blue_surface_keyboard_FLMS001491_034.txt Node
Date: Tue Feb 07 11:13:00 GMT 2017
User: dcchb
Spectrometer: FLMS00149
Trigger mode: 0
Integration Time (sec): 2.000000E-2
Scans to average: 10
Electric dark correction enabled: true
Nonlinearity correction enabled: false
Boxcar width: 0
XAxis mode: Wavelengths
Number of Pixels in Spectrum: 2048
>>>>>Begin Spectral Data<<<<<
341.393	-12.75
341.776	-12.75
342.16	-12.75
342.543	-64.5
342.927	-77.38
343.31	-62.92
343.693	-60.66
344.077	-52.98
344.46	-64.05
344.843	-55.24
345.226	-47.56
345.61	-38.97
345.993	-28.12
346.376	-20.89
346.759	7.36
347.142	31.99
347.525	65.89
347.908	67.47
348.291	68.83
348.674	99.79
349.057	90.07
349.44	137.3
349.823	153.8
350.206	160.35
350.588	173.91
350.971	184.98
351.354	230.18
351.737	218.2
352.119	224.75
352.502	266.56
352.884	272.21
353.267	258.88
353.65	277.86
354.032	297.97
354.414	287.8
354.797	307.24
355.179	298.42
355.562	325.32
355.944	292.32
356.326	292.32
356.709	302.04
357.091	300.46
357.473	314.47
357.855	295.71
358.238	317.41
358.62	326.45
359.002	322.15
359.384	311.76
359.766	330.51
360.148	311.76
360.53	325.77
360.912	297.52
361.294	312.89
361.676	321.93
362.057	317.18
362.439	310.85
362.821	309.5
363.203	319.44
363.584	298.2
363.966	286
364.348	312.21
364.729	303.85
365.111	296.16
365.493	295.94
365.874	303.17
366.256	290.97
366.637	288.93
367.019	273.11
367.4	307.92
367.781	283.06
368.163	272.89
368.544	292.32
368.925	280.12
369.306	288.71
369.688	289.39
370.069	287.13
370.45	302.94
370.831	276.28
371.212	301.59
371.593	276.5
371.974	294.58
372.355	298.2
372.736	311.31
373.117	294.36
373.498	283.96
373.879	284.64
374.26	290.29
374.641	289.84
375.021	303.4
375.402	297.97
375.783	298.88
376.163	290.06
376.544	295.71
376.925	293.9
377.305	300.23
377.686	295.03
378.066	283.96
378.447	298.88
378.827	307.01
379.208	290.51
379.588	294.13
379.968	310.63
380.349	315.6
380.729	314.7
381.109	305.43
381.489	308.82
381.87	302.94
382.25	314.92
382.63	285.09
383.01	312.21
383.39	307.01
383.77	304.07
384.15	301.81
384.53	290.74
384.91	320.8
385.29	308.14
385.67	296.62
386.049	311.53
386.429	311.31
386.809	302.27
387.189	325.09
387.568	307.46
387.948	316.05
388.328	308.59
388.707	323.73
389.087	325.99
389.466	324.64
389.846	321.7
390.225	299.55
390.605	314.47
390.984	333.68
391.363	311.08
391.743	334.58
392.122	314.47
392.501	329.84
392.881	323.96
393.26	328.48
393.639	332.55
394.018	338.42
394.397	342.72
394.776	332.55
395.155	326.9
395.534	318.99
395.913	341.36
396.292	332.77
396.671	346.33
397.05	324.86
397.429	327.58
397.808	346.33
398.186	329.16
398.565	314.24
398.944	330.97
399.323	326.9
399.701	322.38
400.08	340.01
400.458	333.68
400.837	348.14
401.215	345.43
401.594	331.19
401.972	331.64
402.351	352.89
402.729	355.37
403.107	344.3
403.486	358.08
403.864	358.99
404.242	349.95
404.62	367.35
404.999	358.54
405.377	344.07
405.755	356.28
406.133	354.69
406.511	380.68
406.889	351.3
407.267	364.64
407.645	364.64
408.023	365.09
408.401	367.8
408.779	352.89
409.156	375.03
409.534	368.7
409.912	370.29
410.29	384.75
410.667	373
411.045	387.46
411.422	352.43
411.8	394.24
412.178	396.27
412.555	383.39
412.933	385.65
413.31	369.61
413.687	375.03
414.065	371.19
414.442	382.94
414.819	368.7
415.197	393.56
415.574	361.02
415.951	368.03
416.328	382.04
416.705	390.4
417.082	386.78
417.46	393.56
417.837	390.4
418.214	386.56
418.591	386.56
418.967	376.16
419.344	404.86
419.721	397.4
420.098	397.18
420.475	404.18
420.852	399.21
421.228	403.96
421.605	407.57
421.982	412.32
422.358	403.51
422.735	405.99
423.111	445.54
423.488	412.77
423.864	420.91
424.241	422.26
424.617	400.57
424.994	436.5
425.37	423.17
425.746	427.23
426.123	430.17
426.499	431.3
426.875	424.07
427.251	426.78
427.627	422.71
428.003	436.95
428.379	439.89
428.756	447.12
429.132	454.13
429.507	449.15
429.883	446.22
430.259	456.39
430.635	464.97
431.011	438.08
431.387	463.84
431.763	465.65
432.138	483.96
432.514	448.48
432.89	439.21
433.265	465.2
433.641	449.61
434.016	477.18
434.392	494.8
434.767	471.75
435.143	464.07
435.518	489.15
435.894	489.83
436.269	479.66
436.644	489.83
437.02	488.02
437.395	474.01
437.77	487.35
438.145	494.35
438.52	493.9
438.895	493
439.271	502.49
439.646	507.23
440.021	493.22
440.395	493.67
440.77	502.94
441.145	514.01
441.52	489.15
441.895	498.65
442.27	529.6
442.645	521.24
443.019	546.33
443.394	511.98
443.769	528.47
444.143	532.32
444.518	542.94
444.892	523.96
445.267	545.88
445.641	537.06
446.016	538.87
446.39	541.36
446.764	542.26
447.139	527.12
447.513	540
447.887	540.68
448.262	546.1
448.636	542.94
449.01	553.78
449.384	563.95
449.758	555.82
450.132	569.6
450.506	550.17
450.88	539.55
451.254	562.37
451.628	576.61
452.002	570.28
452.376	576.16
452.75	582.71
453.123	569.38
453.497	596.04
453.871	580.22
454.244	574.35
454.618	582.94
454.992	592.65
455.365	596.04
455.739	610.96
456.112	614.8
456.486	617.74
456.859	614.8
457.232	624.97
457.606	590.85
457.979	613.9
458.352	619.55
458.725	611.64
459.099	628.13
459.472	639.43
459.845	642.37
460.218	620.45
460.591	647.34
460.964	609.83
461.337	666.1
461.71	650.73
462.083	660.45
462.456	679.66
462.829	674.69
463.201	689.83
463.574	674.69
463.947	687.79
464.32	684.18
464.692	705.87
465.065	698.41
465.438	713.78
465.81	718.75
466.183	694.57
466.555	726.66
466.928	732.99
467.3	717.85
467.672	715.36
468.045	737.96
468.417	735.25
468.789	730.05
469.161	756.94
469.534	742.93
469.906	749.03
470.278	743.84
470.65	762.37
471.022	781.8
471.394	792.65
471.766	801.24
472.138	809.37
472.51	830.39
472.882	811.18
473.253	806.43
473.625	821.35
473.997	835.36
474.369	844.4
474.74	838.07
475.112	844.85
475.484	890.5
475.855	867.67
476.227	878.97
476.598	868.8
476.97	880.56
477.341	890.27
477.713	908.8
478.084	934.11
478.455	921.91
478.827	926.43
479.198	923.04
479.569	923.72
479.94	982.47
480.311	965.75
480.682	977.28
481.053	977.5
481.424	983.15
481.795	1020.89
482.166	1009.37
482.537	1015.92
482.908	1045.75
483.279	1021.34
483.65	1054.34
484.021	1089.82
484.391	1061.34
484.762	1094.56
485.133	1081.23
485.503	1094.56
485.874	1096.14
486.244	1116.93
486.615	1095.01
486.985	1097.73
487.356	1133.66
487.726	1161.9
488.097	1160.1
488.467	1149.48
488.837	1160.32
489.207	1136.59
489.578	1160.32
489.948	1178.4
490.318	1215.01
490.688	1189.25
491.058	1193.54
491.428	1192.41
491.798	1239.64
492.168	1244.39
492.538	1240.32
492.908	1242.81
493.278	1259.98
493.648	1249.81
494.017	1257.95
494.387	1266.31
494.757	1270.38
495.126	1284.16
495.496	1288.91
495.866	1293.43
496.235	1325.52
496.605	1320.54
496.974	1280.55
497.344	1306.99
497.713	1290.26
498.082	1316.48
498.452	1346.53
498.821	1321.9
499.19	1339.3
499.559	1318.28
499.928	1313.09
500.298	1326.65
500.667	1363.03
501.036	1339.53
501.405	1342.01
501.774	1377.94
502.143	1354.67
502.512	1346.76
502.88	1350.6
503.249	1346.76
503.618	1352.63
503.987	1362.13
504.356	1349.24
504.724	1392.41
505.093	1369.13
505.462	1380.2
505.83	1379.75
506.199	1376.36
506.567	1384.5
506.936	1383.37
507.304	1389.47
507.672	1375.46
508.041	1390.37
508.409	1377.94
508.777	1433.54
509.145	1395.34
509.514	1421.78
509.882	1439.86
510.25	1412.52
510.618	1449.58
510.986	1427.43
511.354	1465.4
511.722	1409.58
512.09	1439.19
512.458	1440.99
512.826	1443.03
513.193	1420.65
513.561	1439.64
513.929	1472.4
514.297	1442.12
514.664	1448.22
515.032	1457.94
515.4	1451.61
515.767	1493.2
516.135	1499.3
516.502	1478.51
516.869	1470.82
517.237	1508.56
517.604	1462.01
517.972	1490.94
518.339	1504.49
518.706	1475.34
519.073	1467.66
519.44	1484.16
519.808	1486.19
520.175	1479.18
520.542	1503.59
520.909	1498.62
521.276	1500.88
521.643	1525.74
522.009	1496.81
522.376	1524.61
522.743	1531.16
523.11	1512.18
523.477	1580.88
523.843	1536.81
524.21	1522.35
524.577	1560.31
524.943	1539.07
525.31	1566.19
525.676	1557.6
526.043	1544.04
526.409	1573.65
526.776	1582.01
527.142	1596.92
527.508	1571.84
527.874	1593.98
528.241	1607.32
528.607	1589.92
528.973	1591.95
529.339	1584.94
529.705	1572.74
530.071	1637.82
530.437	1607.32
530.803	1593.53
531.169	1603.47
531.535	1593.31
531.901	1634.89
532.267	1603.7
532.632	1621.78
532.998	1635.56
533.364	1622.91
533.73	1636.92
534.095	1629.24
534.461	1621.33
534.826	1633.76
535.192	1615.68
535.557	1621.55
535.923	1638.05
536.288	1670.37
536.653	1612.97
537.019	1622.68
537.384	1659.29
537.749	1655.9
538.114	1652.06
538.479	1642.12
538.845	1673.53
539.21	1626.07
539.575	1670.37
539.94	1657.03
540.305	1665.17
540.67	1653.19
541.034	1657.48
541.399	1657.94
541.764	1659.29
542.129	1632.4
542.494	1641.67
542.858	1675.34
543.223	1674.43
543.587	1690.48
543.952	1648.45
544.316	1659.52
544.681	1687.99
545.045	1669.91
545.41	1678.28
545.774	1671.27
546.138	1681.66
546.503	1671.72
546.867	1667.65
547.231	1722.12
547.595	1696.35
547.959	1658.39
548.324	1647.99
548.688	1669.46
549.052	1697.03
549.416	1675.34
549.779	1690.03
550.143	1709.91
550.507	1682.12
550.871	1698.16
551.235	1692.96
551.599	1665.85
551.962	1692.74
552.326	1694.32
552.689	1690.03
553.053	1676.47
553.417	1716.69
553.78	1695.68
554.143	1691.16
554.507	1687.77
554.87	1704.72
555.234	1721.66
555.597	1704.94
555.96	1709.91
556.323	1701.1
556.686	1727.54
557.05	1709.91
557.413	1725.73
557.776	1696.35
558.139	1718.5
558.502	1711.95
558.865	1730.93
559.228	1721.66
559.59	1737.71
559.953	1758.05
560.316	1743.13
560.679	1783.13
561.041	1729.12
561.404	1736.13
561.767	1736.13
562.129	1768.22
562.492	1770.25
562.854	1750.36
563.217	1788.55
563.579	1767.09
563.941	1771.38
564.304	1766.41
564.666	1781.55
565.028	1779.74
565.39	1777.71
565.753	1763.47
566.115	1794.66
566.477	1804.83
566.839	1785.39
567.201	1801.89
567.563	1796.01
567.925	1792.85
568.287	1811.15
568.648	1824.71
569.01	1814.09
569.372	1836.46
569.734	1822.23
570.095	1808.89
570.457	1835.56
570.819	1794.43
571.18	1825.39
571.542	1861.1
571.903	1838.72
572.265	1807.76
572.626	1833.53
572.987	1848.67
573.349	1844.82
573.71	1842.56
574.071	1821.32
574.432	1857.93
574.794	1876.69
575.155	1854.32
575.516	1839.63
575.877	1867.2
576.238	1877.59
576.599	1907.42
576.96	1866.07
577.32	1884.6
577.681	1887.54
578.042	1874.88
578.403	1871.94
578.763	1850.02
579.124	1878.5
579.485	1863.58
579.845	1895.44
580.206	1879.63
580.566	1884.15
580.927	1909.46
581.287	1865.61
581.648	1899.96
582.008	1915.56
582.368	1877.37
582.728	1881.21
583.089	1891.38
583.449	1864.03
583.809	1868.33
584.169	1922.79
584.529	1912.17
584.889	1933.18
585.249	1890.25
585.609	1881.43
585.969	1900.64
586.329	1878.72
586.688	1892.73
587.048	1912.17
587.408	1897.93
587.768	1915.56
588.127	1891.6
588.487	1889.79
588.846	1922.56
589.206	1910.36
589.565	1918.95
589.925	1902.9
590.284	1909.91
590.643	1916.01
591.003	1916.91
591.362	1948.55
591.721	1890.25
592.08	1909.23
592.44	1927.76
592.799	1945.84
593.158	1925.27
593.517	1885.05
593.876	1939.29
594.235	1928.21
594.593	1932.51
594.952	1919.17
595.311	1954.88
595.67	1920.08
596.029	1925.95
596.387	1929.34
596.746	1934.09
597.104	1913.3
597.463	1943.58
597.822	1915.56
598.18	1928.89
598.538	1920.08
598.897	1961.88
599.255	1937.7
599.613	2003.92
599.972	1942.45
600.33	1953.75
600.688	1946.97
601.046	1954.88
601.404	1943.58
601.762	1965.27
602.12	1990.58
602.478	2008.44
602.836	1979.74
603.194	1956.91
603.552	1990.58
603.91	1951.04
604.268	1953.52
604.625	1997.14
604.983	1956.91
605.341	1949
605.698	1970.47
606.056	1980.64
606.413	1991.71
606.771	2003.24
607.128	1974.76
607.485	1979.74
607.843	1985.84
608.2	1986.52
608.557	2021.54
608.914	1995.1
609.272	1996.46
609.629	1986.52
609.986	2018.38
610.343	2028.55
610.7	2015.67
611.057	2011.37
611.414	2001.88
611.771	2029
612.127	2028.55
612.484	2017.7
612.841	2026.97
613.198	2046.85
613.554	2034.65
613.911	2023.12
614.267	2054.76
614.624	2022.22
614.98	2054.99
615.337	2043.92
615.693	2053.86
616.05	2045.95
616.406	2057.47
616.762	2085.95
617.118	2080.75
617.475	2051.15
617.831	2046.18
618.187	2068.1
618.543	2050.24
618.899	2050.24
619.255	2090.69
619.611	2071.03
619.967	2099.28
620.323	2093.86
620.678	2103.57
621.034	2080.07
621.39	2078.72
621.746	2074.65
622.101	2064.25
622.457	2058.83
622.812	2120.3
623.168	2101.54
623.523	2092.05
623.879	2085.72
624.234	2128.21
624.589	2094.31
624.945	2105.16
625.3	2104.25
625.655	2114.2
626.01	2117.81
626.365	2112.39
626.72	2112.84
627.075	2120.98
627.43	2120.98
627.785	2115.78
628.14	2141.77
628.495	2130.01
628.85	2130.24
629.205	2137.47
629.559	2134.08
629.914	2149
630.269	2145.38
630.623	2151.71
630.978	2144.7
631.332	2198.04
631.687	2165.95
632.041	2149.9
632.396	2145.83
632.75	2186.51
633.104	2159.84
633.459	2161.2
633.813	2174.76
634.167	2128.21
634.521	2189.22
634.875	2183.35
635.229	2189.22
635.583	2193.97
635.937	2173.4
636.291	2205.04
636.645	2203.68
636.999	2214.31
637.352	2227.19
637.706	2210.69
638.06	2210.69
638.413	2192.84
638.767	2208.43
639.121	2231.03
639.474	2218.83
639.828	2221.09
640.181	2221.09
640.534	2260.86
640.888	2237.13
641.241	2227.64
641.594	2230.35
641.947	2245.27
642.301	2266.51
642.654	2255.66
643.007	2270.12
643.36	2320.07
643.713	2269.67
644.066	2280.52
644.419	2269.9
644.771	2272.61
645.124	2266.06
645.477	2259.05
645.83	2287.3
646.182	2275.55
646.535	2263.8
646.888	2268.77
647.24	2281.2
647.593	2331.14
647.945	2294.98
648.298	2268.77
648.65	2272.61
649.002	2289.33
649.355	2300.18
649.707	2354.64
650.059	2318.03
650.411	2382.21
650.763	2372.27
651.115	2414.07
651.467	2429.22
651.819	2446.84
652.171	2459.05
652.523	2405.04
652.875	2438.26
653.227	2427.41
653.578	2463.79
653.93	2454.07
654.282	2469.67
654.633	2476.22
654.985	2485.94
655.337	2497.01
655.688	2482.55
656.039	2516.67
656.391	2506.28
656.742	2529.78
657.094	2568.2
657.445	2594.86
657.796	2589.89
658.147	2542.43
658.498	2578.36
658.849	2586.73
659.2	2610.91
659.551	2606.84
659.902	2625.14
660.253	2626.5
660.604	2624.92
660.955	2642.54
661.306	2666.05
661.656	2673.28
662.007	2655.88
662.358	2687.51
662.708	2716.89
663.059	2726.38
663.409	2688.64
663.76	2732.94
664.11	2750.34
664.461	2775.65
664.811	2809.32
665.161	2753.73
665.511	2770
665.862	2805.7
666.212	2797.34
666.562	2823.33
666.912	2847.96
667.262	2825.59
667.612	2881.18
667.962	2870.56
668.312	2848.19
668.662	2923.44
669.011	2882.31
669.361	2920.5
669.711	2938.35
670.06	2903.1
670.41	2950.11
670.76	2912.82
671.109	2955.53
671.459	2969.99
671.808	2990.1
672.157	3008.86
672.507	2973.83
672.856	3041.4
673.205	2999.82
673.554	3037.56
673.904	3027.84
674.253	3069.2
674.602	3054.51
674.951	3047.28
675.3	3044.34
675.649	3085.02
675.998	3077.33
676.346	3125.92
676.695	3111.68
677.044	3113.49
677.393	3160.95
677.741	3166.37
678.09	3176.99
678.438	3143.1
678.787	3177.22
679.135	3221.51
679.484	3189.42
679.832	3215.18
680.181	3202.3
680.529	3223.55
680.877	3235.97
681.225	3244.56
681.573	3258.57
681.922	3251.57
682.27	3269.65
682.618	3264.45
682.966	3268.52
683.314	3273.71
683.661	3302.19
684.009	3281.4
684.357	3252.24
684.705	3282.98
685.053	3313.94
685.4	3294.28
685.748	3325.24
686.095	3307.16
686.443	3266.26
686.79	3326.59
687.138	3332.92
687.485	3374.73
687.832	3328.85
688.18	3350.55
688.527	3375.63
688.874	3362.75
689.221	3340.15
689.568	3371.34
689.915	3314.39
690.262	3345.35
690.609	3384.9
690.956	3315.52
691.303	3341.96
691.65	3397.1
691.997	3368.17
692.344	3352.36
692.69	3393.26
693.037	3369.76
693.383	3379.93
693.73	3384.67
694.077	3354.84
694.423	3346.71
694.769	3353.49
695.116	3377.44
695.462	3400.94
695.808	3399.13
696.155	3360.72
696.501	3356.65
696.847	3359.36
697.193	3336.54
697.539	3359.81
697.885	3337.89
698.231	3330.89
698.577	3357.33
698.923	3361.85
699.269	3332.24
699.614	3299.02
699.96	3305.58
700.306	3285.92
700.651	3272.36
700.997	3324.56
701.342	3265.8
701.688	3294.28
702.033	3280.94
702.379	3302.41
702.724	3282.07
703.069	3333.15
703.415	3249.99
703.76	3312.81
704.105	3302.87
704.45	3270.32
704.795	3284.11
705.14	3282.53
705.485	3266.93
705.83	3266.48
706.175	3267.39
706.52	3268.06
706.865	3299.7
707.209	3290.21
707.554	3249.76
707.899	3238.91
708.243	3235.97
708.588	3206.6
708.932	3247.95
709.277	3255.63
709.621	3265.13
709.966	3212.47
710.31	3238.23
710.654	3185.58
710.998	3200.27
711.342	3209.31
711.687	3229.19
712.031	3172.7
712.375	3190.1
712.719	3171.8
713.063	3209.99
713.407	3211.57
713.75	3230.32
714.094	3172.93
714.438	3200.04
714.782	3189.2
715.125	3200.04
715.469	3220.83
715.812	3197.11
716.156	3158.01
716.499	3175.41
716.843	3188.74
717.186	3164.34
717.53	3175.18
717.873	3230.78
718.216	3202.53
718.559	3245.01
718.902	3164.11
719.246	3167.5
719.589	3180.83
719.932	3169.76
720.275	3167.73
720.617	3169.76
720.96	3166.6
721.303	3194.62
721.646	3163.66
721.989	3158.91
722.331	3197.11
722.674	3183.09
723.016	3175.41
723.359	3173.83
723.701	3193.04
724.044	3193.72
724.386	3209.53
724.729	3181.29
725.071	3198.69
725.413	3172.25
725.755	3224.45
726.097	3178.8
726.439	3174.28
726.782	3139.48
727.124	3188.07
727.465	3188.74
727.807	3191.46
728.149	3214.05
728.491	3176.77
728.833	3187.84
729.175	3205.47
729.516	3188.52
729.858	3208.63
730.199	3189.87
730.541	3216.31
730.882	3168.41
731.224	3254.5
731.565	3185.13
731.906	3212.47
732.248	3233.71
732.589	3228.74
732.93	3212.7
733.271	3193.26
733.612	3226.03
733.953	3216.77
734.294	3228.74
734.635	3253.37
734.976	3247.73
735.317	3252.24
735.658	3208.63
735.999	3260.15
736.339	3211.57
736.68	3235.97
737.021	3241.85
737.361	3207.95
737.702	3303.09
738.042	3297.67
738.383	3261.74
738.723	3310.55
739.063	3278.91
739.404	3302.64
739.744	3296.54
740.084	3286.37
740.424	3326.59
740.764	3322.53
741.104	3328.63
741.444	3352.13
741.784	3314.39
742.124	3330.66
742.464	3313.49
742.804	3377.44
743.143	3346.71
743.483	3382.64
743.823	3371.56
744.162	3417.44
744.502	3439.58
744.841	3427.61
745.181	3417.89
745.52	3498.34
745.86	3405.46
746.199	3500.6
746.538	3443.65
746.877	3490.2
747.216	3498.57
747.556	3511.45
747.895	3534.27
748.234	3539.02
748.573	3561.16
748.911	3583.31
749.25	3560.49
749.589	3579.24
749.928	3608.17
750.267	3628.51
750.605	3645.68
750.944	3659.47
751.283	3686.13
751.621	3719.35
751.96	3711.44
752.298	3695.17
752.636	3767.49
752.975	3739.46
753.313	3789.18
753.651	3847.94
753.989	3826.69
754.327	3793.93
754.666	3845
755.004	3881.83
755.342	3896.07
755.679	3895.62
756.017	3914.37
756.355	3967.48
756.693	3925
757.031	3991.66
757.368	3974.94
757.706	4051.55
758.044	4013.81
758.381	4055.16
758.719	4049.29
759.056	4118.66
759.394	4085.67
759.731	4112.79
760.068	4096.29
760.405	4115.05
760.743	4137.19
761.08	4142.62
761.417	4135.84
761.754	4164.09
762.091	4187.14
762.428	4179.68
762.765	4196.4
763.102	4218.1
763.438	4233.01
763.775	4205.44
764.112	4227.59
764.449	4284.53
764.785	4243.63
765.122	4219.9
765.458	4222.61
765.795	4230.52
766.131	4268.72
766.467	4246.57
766.804	4272.56
767.14	4236.85
767.476	4274.82
767.812	4281.37
768.148	4292.22
768.485	4312.78
768.821	4294.48
769.157	4272.11
769.492	4268.49
769.828	4266.46
770.164	4260.81
770.5	4305.55
770.836	4230.75
771.171	4282.73
771.507	4241.6
771.842	4240.69
772.178	4272.11
772.513	4247.47
772.849	4246.57
773.184	4242.5
773.519	4192.79
773.855	4213.58
774.19	4205.44
774.525	4207.02
774.86	4204.31
775.195	4207.02
775.53	4184.88
775.865	4127.7
776.2	4154.37
776.535	4096.29
776.87	4141.71
777.205	4150.3
777.539	4106.46
777.874	4131.32
778.209	4091.09
778.543	4065.56
778.878	4084.99
779.212	4055.84
779.547	4051.55
779.881	4058.1
780.215	4023.75
780.55	4051.55
780.884	4073.01
781.218	4012.9
781.552	4029.63
781.886	4004.99
782.22	3988.72
782.554	3988.27
782.888	3943.3
783.222	3933.13
783.556	3915.5
783.889	3929.74
784.223	3945.11
784.557	3919.8
784.89	3879.35
785.224	3866.92
785.557	3842.06
785.891	3894.26
786.224	3864.88
786.558	3884.09
786.891	3839.35
787.224	3817.43
787.557	3820.37
787.891	3791.44
788.224	3797.77
788.557	3836.18
788.89	3774.04
789.223	3794.83
789.556	3744.21
789.888	3791.21
790.221	3764.1
790.554	3709.63
790.887	3741.27
791.219	3725
791.552	3684.1
791.884	3687.71
792.217	3680.48
792.549	3639.13
792.882	3664.44
793.214	3605.68
793.546	3685.45
793.879	3601.16
794.211	3599.58
794.543	3613.82
794.875	3583.08
795.207	3613.82
795.539	3563.42
795.871	3554.61
796.203	3595.96
796.535	3522.75
796.867	3577.43
797.198	3533.82
797.53	3530.2
797.862	3525.01
798.193	3537.21
798.525	3513.71
798.856	3504.67
799.188	3519.58
799.519	3449.53
799.85	3443.65
800.182	3449.08
800.513	3441.39
800.844	3442.75
801.175	3406.37
801.506	3430.09
801.837	3412.92
802.168	3441.62
802.499	3392.58
802.83	3384.9
803.161	3430.32
803.491	3379.47
803.822	3358.91
804.153	3348.74
804.483	3368.17
804.814	3327.95
805.145	3301.96
805.475	3318.46
805.805	3327.95
806.136	3296.99
806.466	3293.37
806.796	3321.85
807.126	3233.26
807.457	3248.63
807.787	3287.05
808.117	3279.36
808.447	3249.76
808.777	3242.75
809.107	3272.13
809.436	3252.24
809.766	3241.4
810.096	3198.01
810.426	3209.76
810.755	3197.11
811.085	3191
811.414	3191.46
811.744	3203.88
812.073	3182.87
812.403	3153.04
812.732	3195.75
813.061	3173.6
813.39	3172.25
813.719	3159.37
814.049	3145.81
814.378	3146.94
814.707	3139.25
815.036	3122.98
815.365	3119.37
815.693	3051.35
816.022	3091.35
816.351	3082.31
816.68	3060.39
817.008	3063.78
817.337	3052.93
817.665	3033.95
817.994	3037.56
818.322	3020.16
818.651	3031.91
818.979	3022.65
819.307	3076.43
819.636	3013.61
819.964	3023.1
820.292	3066.26
820.62	3044.57
820.948	3007.51
821.276	3004.34
821.604	3000.95
821.932	2990.78
822.259	3000.27
822.587	2959.82
822.915	2989.88
823.243	2977.45
823.57	2990.1
823.898	2976.09
824.225	2981.07
824.553	3016.77
824.88	2995.3
825.207	3000.95
825.535	2988.07
825.862	3027.84
826.189	3000.95
826.516	3019.26
826.843	2992.14
827.17	3007.73
827.497	2995.75
827.824	2965.02
828.151	3000.73
828.478	3005.02
828.805	3018.35
829.131	3002.31
829.458	2959.37
829.785	3002.31
830.111	2992.82
830.438	2956.89
830.764	2986.94
831.09	2989.43
831.417	2942.2
831.743	2963.44
832.069	3006.6
832.395	2970.67
832.722	2970.9
833.048	2977.9
833.374	3018.13
833.7	2930.9
834.026	3008.18
834.351	2967.96
834.677	2958.47
835.003	2977.9
835.329	2991.23
835.654	2979.48
835.98	2958.47
836.306	2927.06
836.631	2939.03
836.956	2958.24
837.282	2963.44
837.607	2938.35
837.932	2945.81
838.258	2912.59
838.583	2930.67
838.908	2923.21
839.233	2949.43
839.558	2899.71
839.883	2897.68
840.208	2921.63
840.533	2896.55
840.858	2897.68
841.182	2874.4
841.507	2909.2
841.832	2896.55
842.156	2898.36
842.481	2854.74
842.805	2928.86
843.13	2864.46
843.454	2845.93
843.778	2856.1
844.103	2834.85
844.427	2869.2
844.751	2872.82
845.075	2829.43
845.399	2856.1
845.723	2785.82
846.047	2817.45
846.371	2795.08
846.695	2800.51
847.019	2794.63
847.343	2756.66
847.666	2767.29
847.99	2741.98
848.313	2735.87
848.637	2720.73
848.96	2726.38
849.284	2734.74
849.607	2725.03
849.931	2673.05
850.254	2659.72
850.577	2667.18
850.9	2648.87
851.223	2626.5
851.546	2650.9
851.869	2676.89
852.192	2643
852.515	2630.79
852.838	2616.1
853.161	2577.23
853.483	2575.2
853.806	2584.01
854.129	2601.64
854.451	2567.97
854.774	2576.78
855.096	2579.04
855.419	2566.16
855.741	2544.02
856.063	2526.61
856.385	2539.27
856.708	2497.69
857.03	2514.64
857.352	2514.64
857.674	2489.78
857.996	2546.95
858.318	2504.92
858.64	2484.81
858.961	2506.95
859.283	2482.32
859.605	2448.88
859.926	2449.33
860.248	2467.86
860.57	2459.95
860.891	2426.96
861.212	2393.96
861.534	2439.16
861.855	2445.94
862.176	2440.51
862.498	2391.7
862.819	2419.05
863.14	2459.05
863.461	2430.35
863.782	2412.72
864.103	2415.43
864.424	2417.69
864.745	2388.76
865.065	2384.25
865.386	2428.99
865.707	2360.52
866.027	2424.92
866.348	2407.97
866.668	2368.43
866.989	2368.43
867.309	2374.98
867.63	2374.75
867.95	2373.85
868.27	2348.99
868.59	2346.51
868.91	2336.56
869.23	2360.07
869.55	2330.69
869.87	2391.93
870.19	2342.89
870.51	2349.44
870.83	2347.86
871.15	2315.55
871.469	2309.44
871.789	2346.96
872.109	2358.26
872.428	2343.79
872.748	2293.85
873.067	2350.57
873.386	2299.73
873.706	2309.67
874.025	2325.72
874.344	2296.34
874.663	2302.21
874.982	2289.11
875.301	2311.48
875.62	2292.95
875.939	2278.03
876.258	2270.35
876.577	2259.73
876.896	2266.28
877.214	2234.87
877.533	2272.16
877.852	2276.68
878.17	2288.88
878.489	2271.71
878.807	2245.72
879.125	2247.75
879.444	2257.92
879.762	2266.28
880.08	2251.14
880.398	2257.24
880.716	2219.96
881.034	2243.91
881.352	2209.33
881.67	2236
881.988	2216.34
882.306	2217.92
882.624	2175.44
882.941	2210.24
883.259	2214.53
883.577	2191.26
883.894	2193.74
884.212	2203.01
884.529	2205.72
884.846	2218.15
885.164	2184.02
885.481	2163.91
885.798	2153.29
886.115	2184.25
886.432	2154.65
886.75	2152.84
887.067	2177.25
887.383	2152.84
887.7	2163.23
888.017	2118.26
888.334	2149
888.651	2127.98
888.967	2124.59
889.284	2117.36
889.6	2135.89
889.917	2103.12
890.233	2109
890.55	2110.58
890.866	2103.12
891.182	2110.35
891.498	2067.64
891.815	2079.85
892.131	2069.9
892.447	2095.44
892.763	2051.15
893.079	2075.1
893.395	2033.97
893.71	2028.32
894.026	2051.15
894.342	2046.4
894.657	2051.82
894.973	2033.52
895.289	2055.21
895.604	2038.27
895.92	2005.27
896.235	2024.71
896.55	1999.62
896.865	2020.41
897.181	1984.71
897.496	1999.85
897.811	1983.13
898.126	1986.74
898.441	1952.84
898.756	1988.32
899.071	1943.13
899.386	1958.49
899.7	1935.44
900.015	1983.8
900.33	1917.14
900.644	1934.99
900.959	1922.11
901.273	1930.47
901.588	1921.21
901.902	1896.8
902.216	1890.25
902.531	1887.76
902.845	1913.3
903.159	1875.33
903.473	1889.79
903.787	1868.55
904.101	1856.8
904.415	1887.54
904.729	1837.37
905.042	1848.67
905.356	1857.03
905.67	1830.59
905.984	1881.21
906.297	1838.27
906.611	1833.07
906.924	1835.79
907.237	1840.98
907.551	1852.96
907.864	1822.9
908.177	1779.06
908.491	1803.02
908.804	1772.51
909.117	1754.43
909.43	1763.47
909.743	1770.93
910.056	1766.63
910.368	1765.05
910.681	1760.76
910.994	1749.01
911.307	1740.87
911.619	1744.04
911.932	1734.09
912.244	1757.82
912.557	1718.27
912.869	1738.16
913.181	1695.9
913.494	1709.46
913.806	1688.22
914.118	1694.32
914.43	1690.25
914.742	1703.59
915.054	1685.73
915.366	1662.91
915.678	1695
915.99	1666.07
916.302	1647.54
916.613	1679.63
916.925	1669.46
917.236	1615
917.548	1635.79
917.859	1626.98
918.171	1627.2
918.482	1628.33
918.794	1600.31
919.105	1630.82
919.416	1577.71
919.727	1565.96
920.038	1589.01
920.349	1565.74
920.66	1572.97
920.971	1587.43
921.282	1565.74
921.593	1570.93
921.903	1588.11
922.214	1543.14
922.525	1506.3
922.835	1556.24
923.146	1530.71
923.456	1544.72
923.767	1508.34
924.077	1538.39
924.387	1514.89
924.697	1533.87
925.008	1499.97
925.318	1512.86
925.628	1491.39
925.938	1496.81
926.248	1483.25
926.558	1468.34
926.867	1500.2
927.177	1492.52
927.487	1481.22
927.796	1447.77
928.106	1426.3
928.416	1426.98
928.725	1472.18
929.034	1449.35
929.344	1441.22
929.653	1421.11
929.962	1453.65
930.271	1434.89
930.581	1421.78
930.89	1427.21
931.199	1391.95
931.508	1395.8
931.817	1392.41
932.125	1401.67
932.434	1383.37
932.743	1369.81
933.051	1377.27
933.36	1373.88
933.669	1375.91
933.977	1373.2
934.286	1365.51
934.594	1362.58
934.902	1351.96
935.21	1329.13
935.519	1334.56
935.827	1353.99
936.135	1339.75
936.443	1323.26
936.751	1331.17
937.059	1333.65
937.367	1301.34
937.674	1330.26
937.982	1328.23
938.29	1311.28
938.597	1310.6
938.905	1282.35
939.213	1302.69
939.52	1322.8
939.827	1316.93
940.135	1288.91
940.442	1282.35
940.749	1278.51
941.056	1281
941.363	1275.12
941.67	1286.19
941.977	1244.39
942.284	1245.07
942.591	1260.21
942.898	1234.44
943.205	1223.82
943.511	1231.28
943.818	1220.89
944.125	1220.89
944.431	1210.72
944.738	1208
945.044	1222.02
945.35	1191.51
945.657	1215.01
945.963	1211.62
946.269	1202.13
946.575	1204.16
946.881	1162.58
947.187	1182.92
947.493	1169.59
947.799	1177.95
948.105	1191.73
948.41	1149.7
948.716	1157.84
949.022	1160.32
949.327	1174.33
949.633	1140.21
949.938	1147.89
950.244	1177.72
950.549	1161
950.854	1133.66
951.16	1137.27
951.465	1131.85
951.77	1159.42
952.075	1119.65
952.38	1128.69
952.685	1114
952.99	1116.03
953.294	1121.23
953.599	1108.8
953.904	1106.09
954.209	1089.36
954.513	1081
954.818	1085.75
955.122	1096.37
955.426	1100.66
955.731	1082.13
956.035	1086.65
956.339	1096.82
956.643	1080.32
956.948	1070.83
957.252	1061.12
957.556	1067.67
957.86	1055.47
958.163	1032.42
958.467	1043.49
958.771	1074.68
959.075	1042.13
959.378	1043.26
959.682	1027.67
959.985	1045.98
960.289	1033.77
960.592	1024.51
960.896	1032.42
961.199	1031.51
961.502	1018.18
961.805	1010.27
962.108	1003.04
962.411	995.58
962.714	1000.33
963.017	1006.65
963.32	997.39
963.623	1005.07
963.926	1002.36
964.228	1007.78
964.531	1009.59
964.833	998.07
965.136	959.2
965.438	983.15
965.741	987.67
966.043	966.88
966.345	1002.36
966.648	974.56
966.95	965.3
967.252	957.16
967.554	959.42
967.856	964.85
968.158	955.81
968.46	942.25
968.761	949.03
969.063	939.09
969.365	956.26
969.666	939.54
969.968	930.5
970.269	941.57
970.571	926.66
970.872	914.68
971.174	916.94
971.475	914.45
971.776	907.67
972.077	916.71
972.378	900.22
972.679	889.82
972.98	911.29
973.281	917.39
973.582	914
973.883	908.35
974.183	887.34
974.484	850.05
974.785	892.53
975.085	880.78
975.386	896.15
975.686	864.51
975.986	863.61
976.287	869.48
976.587	860.9
976.887	884.62
977.187	876.04
977.487	863.61
977.787	872.42
978.087	876.71
978.387	845.75
978.687	852.08
978.987	862.03
979.286	853.89
979.586	851.86
979.885	854.57
980.185	833.1
980.484	856.15
980.784	851.18
981.083	845.75
981.382	857.73
981.682	848.92
981.981	827.45
982.28	834.68
982.579	832.87
982.878	814.79
983.177	814.34
983.475	821.8
983.774	816.83
984.073	821.12
984.372	805.3
984.67	820.44
984.969	807.79
985.267	808.92
985.566	794.23
985.864	809.37
986.162	798.3
986.461	802.82
986.759	809.82
987.057	796.04
987.355	779.32
987.653	791.74
987.951	788.35
988.249	784.06
988.547	783.38
988.844	773.67
989.142	787.45
989.44	758.3
989.737	748.36
990.035	763.95
990.332	750.39
990.63	798.98
990.927	783.38
991.224	750.16
991.521	777.51
991.819	729.83
992.116	735.7
992.413	759.88
992.71	770.73
993.006	747.9
993.303	742.03
993.6	723.5
993.897	717.62
994.193	745.19
994.49	753.33
994.787	735.48
995.083	707.91
995.379	705.65
995.676	747.68
995.972	733.22
996.268	702.71
996.565	737.06
996.861	709.71
997.157	742.93
997.453	707.23
997.749	702.93
998.044	690.73
998.34	717.85
998.636	719.88
998.932	689.6
999.227	713.33
999.523	701.35
999.818	697.96
1000.114	703.39
1000.409	690.05
1000.704	688.7
1001	672.43
1001.295	676.27
1001.59	678.08
1001.885	680.34
1002.18	647.57
1002.475	676.95
1002.77	676.72
1003.065	677.62
1003.359	673.78
1003.654	686.89
1003.949	679.66
1004.243	632.65
1004.538	663.16
1004.832	669.49
1005.127	645.99
1005.421	669.04
1005.715	652.54
1006.009	657.96
1006.304	644.18
1006.598	662.03
1006.892	640.34
1007.186	642.82
1007.48	649.6
1007.773	638.75
1008.067	636.49
1008.361	635.14
1008.655	636.04
1008.948	611.18
1009.242	646.66
1009.535	615.25
1009.829	629.49
1010.122	601.24
1010.415	634.69
1010.708	616.38
1011.001	631.07
1011.295	619.32
1011.588	611.64
1011.881	606.44
1012.173	609.83
1012.466	592.2
1012.759	600.11
1013.052	615.93
1013.344	591.52
1013.637	593.78
1013.93	589.49
1014.222	576.84
1014.514	561.69
1014.807	584.29
1015.099	593.33
1015.391	585.65
1015.683	582.26
1015.976	582.48
1016.268	583.16
1016.56	575.48
1016.851	579.32
1017.143	577.06
1017.435	579.77
1017.727	578.42
1018.018	571.86
1018.31	554.69
1018.602	567.57
1018.893	549.04
1019.185	556.27
1019.476	542.94
1019.767	542.03
1020.058	558.98
1020.35	557.4
1020.641	523.96
1020.932	550.85
1021.223	547.46
1021.514	529.38
1021.804	520.11
1022.095	532.09
1022.386	547.23
1022.677	530.28
1022.967	515.59
1023.258	536.84
1023.548	513.56
1023.839	504.52
1024.129	529.15
1024.419	513.11
1024.709	513.11
1025	526.44
1025.29	527.12
1025.58	539.32
1025.87	513.11
1026.16	487.35
1026.449	519.66
1026.739	523.73
1027.029	501.58
1027.319	511.98
1027.608	489.83
1027.898	499.32
1028.187	497.52
1028.477	498.42
1028.766	499.55
1029.055	498.65
1029.344	477.4
1029.634	488.02
1029.923	486.67
1030.212	492.77
1030.501	461.81
1030.79	492.09
1031.078	485.31
1031.367	498.87
1031.656	490.74
1031.945	501.58
1032.233	486.44
1032.522	481.7
1032.81	492.77
1033.099	472.88
1033.387	485.09
1033.675	449.61
1033.963	471.3
1034.251	468.59
1034.54	474.92
1034.828	433.79
1035.116	488.25
1035.403	452.54
1035.691	470.17
1035.979	481.02
1036.267	449.83
1036.554	448.25
1036.842	449.15
1037.129	447.8
1037.417	462.94
1037.704	451.87
1037.992	471.3
1038.279	455.93
1038.566	459.78
1038.853	459.78
1039.14	459.78
