Data from blue_chair_FLMS001491_00062.txt Node
Date: Wed Feb 08 10:31:33 GMT 2017
User: dcchb
Spectrometer: FLMS00149
Trigger mode: 0
Integration Time (sec): 2.000000E-2
Scans to average: 10
Electric dark correction enabled: true
Nonlinearity correction enabled: false
Boxcar width: 0
XAxis mode: Wavelengths
Number of Pixels in Spectrum: 2048
>>>>>Begin Spectral Data<<<<<
341.393	-15.71
341.776	-15.71
342.16	-15.71
342.543	-66.78
342.927	-69.26
343.31	-62.71
343.693	-64.07
344.077	-54.57
344.46	-57.06
344.843	-62.48
345.226	-51.41
345.61	-29.49
345.993	-38.08
346.376	1.69
346.759	29.04
347.142	38.76
347.525	26.33
347.908	61.13
348.291	60.9
348.674	97.06
349.057	104.97
349.44	125.99
349.823	140.9
350.206	142.71
350.588	179.77
350.971	175.93
351.354	206.21
351.737	207.11
352.119	224.29
352.502	229.03
352.884	238.07
353.267	241.24
353.65	253.67
354.032	271.74
354.414	283.95
354.797	282.37
355.179	288.69
355.562	302.48
355.944	304.96
356.326	301.12
356.709	307.45
357.091	309.48
357.473	311.52
357.855	329.14
358.238	310.61
358.62	303.16
359.002	315.13
359.384	323.04
359.766	314.46
360.148	308.58
360.53	309.71
360.912	311.29
361.294	327.56
361.676	304.96
362.057	276.49
362.439	315.81
362.821	327.56
363.203	290.95
363.584	299.99
363.966	302.03
364.348	305.64
364.729	280.56
365.111	302.93
365.493	289.82
365.874	284.4
366.256	258.19
366.637	289.6
367.019	306.77
367.4	301.12
367.781	280.11
368.163	276.26
368.544	295.92
368.925	284.63
369.306	303.83
369.688	275.81
370.069	283.27
370.45	295.25
370.831	256.38
371.212	301.12
371.593	291.63
371.974	279.88
372.355	282.82
372.736	281.46
373.117	295.7
373.498	280.33
373.879	285.76
374.26	277.39
374.641	297.51
375.021	284.17
375.402	295.02
375.783	288.92
376.163	287.56
376.544	306.77
376.925	258.86
377.305	281.24
377.686	273.1
378.066	306.32
378.447	284.4
378.827	289.37
379.208	285.76
379.588	288.24
379.968	310.61
380.349	298.41
380.729	304.96
381.109	291.86
381.489	293.44
381.87	304.06
382.25	296.38
382.63	302.7
383.01	301.57
383.39	304.96
383.77	292.08
384.15	283.95
384.53	288.69
384.91	301.12
385.29	318.07
385.67	295.7
386.049	310.84
386.429	313.33
386.809	312.42
387.189	313.33
387.568	326.66
387.948	322.59
388.328	310.16
388.707	311.97
389.087	325.53
389.466	315.81
389.846	318.3
390.225	299.31
390.605	320.56
390.984	309.48
391.363	316.71
391.743	319.65
392.122	327.56
392.501	311.52
392.881	339.09
393.26	328.24
393.639	306.32
394.018	326.66
394.397	322.59
394.776	303.16
395.155	322.36
395.534	332.08
395.913	326.21
396.292	332.53
396.671	324.62
397.05	328.01
397.429	333.44
397.808	330.73
398.186	351.74
398.565	343.15
398.944	356.04
399.323	345.64
399.701	339.77
400.08	336.83
400.458	346.32
400.837	325.75
401.215	324.62
401.594	353.78
401.972	365.98
402.351	367.79
402.729	335.7
403.107	367.56
403.486	334.34
403.864	358.07
404.242	356.26
404.62	351.52
404.999	363.27
405.377	358.07
405.755	355.36
406.133	373.66
406.511	375.47
406.889	388.58
407.267	367.56
407.645	377.73
408.023	379.54
408.401	377.73
408.779	389.93
409.156	383.83
409.534	389.26
409.912	389.48
410.29	401.01
410.667	393.1
411.045	420.89
411.422	397.16
411.8	410.5
412.178	397.62
412.555	397.39
412.933	414.57
413.31	429.71
413.687	413.66
414.065	431.97
414.442	423.15
414.819	402.14
415.197	396.71
415.574	431.51
415.951	408.24
416.328	439.88
416.705	418.41
417.082	416.83
417.46	434.68
417.837	421.12
418.214	439.42
418.591	434.9
418.967	441.01
419.344	440.1
419.721	440.55
420.098	451.4
420.475	450.95
420.852	433.77
421.228	456.6
421.605	473.77
421.982	440.33
422.358	441.46
422.735	467.67
423.111	472.19
423.488	482.36
423.864	493.89
424.241	455.92
424.617	502.92
424.994	489.14
425.37	498.63
425.746	503.83
426.123	508.12
426.499	492.76
426.875	484.85
427.251	506.77
427.627	522.81
428.003	508.35
428.379	529.82
428.756	516.26
429.132	543.83
429.507	544.51
429.883	540.44
430.259	546.77
430.635	542.25
431.011	563.49
431.387	558.52
431.763	553.54
432.138	561.45
432.514	589.93
432.89	582.47
433.265	574.79
433.641	586.99
434.016	587.67
434.392	601.23
434.767	626.09
435.143	615.24
435.518	626.09
435.894	617.27
436.269	615.69
436.644	634.67
437.02	644.84
437.395	671.96
437.77	649.81
438.145	673.77
438.52	687.33
438.895	677.61
439.271	688.46
439.646	706.08
440.021	715.57
440.395	717.16
440.77	697.72
441.145	708.34
441.52	731.62
441.895	743.82
442.27	741.56
442.645	735.69
443.019	734.78
443.394	765.74
443.769	737.27
444.143	767.78
444.518	772.97
444.892	759.87
445.267	779.75
445.641	771.84
446.016	761
446.39	800.54
446.764	805.52
447.139	802.13
447.513	808.91
447.887	804.84
448.262	812.75
448.636	814.33
449.01	819.75
449.384	815.91
449.758	831.73
450.132	855.68
450.506	846.87
450.88	872.86
451.254	853.42
451.628	840.09
452.002	852.75
452.376	881.45
452.75	878.73
453.123	879.19
453.497	896.13
453.871	930.48
454.244	908.34
454.618	904.04
454.992	937.26
455.365	916.7
455.739	932.29
456.112	945.85
456.486	955.79
456.859	951.95
457.232	975
457.606	960.54
457.979	970.71
458.352	1007.32
458.725	999.63
459.099	974.1
459.472	1036.92
459.845	1022.01
460.218	1024.94
460.591	1030.59
460.964	1020.88
461.337	1030.37
461.71	1076.02
462.083	1063.81
462.456	1069.24
462.829	1070.14
463.201	1092.97
463.574	1094.1
463.947	1125.28
464.32	1113.3
464.692	1129.8
465.065	1110.82
465.438	1131.16
465.81	1151.95
466.183	1122.12
466.555	1177.26
466.928	1188.1
467.3	1158.73
467.672	1181.78
468.045	1221.55
468.417	1206.18
468.789	1197.82
469.161	1205.73
469.534	1239.85
469.906	1255.45
470.278	1255.67
470.65	1277.37
471.022	1278.72
471.394	1276.24
471.766	1305.39
472.138	1317.14
472.51	1324.82
472.882	1315.33
473.253	1348.78
473.625	1354.43
473.997	1361.89
474.369	1412.05
474.74	1389.45
475.112	1385.39
475.484	1443.69
475.855	1404.37
476.227	1452.28
476.598	1472.62
476.97	1467.42
477.341	1499.28
477.713	1503.58
478.084	1471.03
478.455	1533.41
478.827	1535.89
479.198	1579.96
479.569	1530.69
479.94	1576.57
480.311	1607.3
480.682	1596.23
481.053	1650.24
481.424	1651.14
481.795	1631.93
482.166	1676.91
482.537	1660.63
482.908	1714.64
483.279	1670.58
483.65	1726.17
484.021	1752.38
484.391	1768.2
484.762	1727.98
485.133	1749.9
485.503	1767.75
485.874	1790.57
486.244	1785.83
486.615	1817.69
486.985	1819.05
487.356	1872.61
487.726	1845.49
488.097	1870.8
488.467	1838.93
488.837	1888.42
489.207	1880.29
489.578	1912.38
489.948	1918.25
490.318	1945.37
490.688	1920.06
491.058	1940.4
491.428	1954.86
491.798	1930.01
492.168	1931.59
492.538	1948.08
492.908	1933.62
493.278	1937.92
493.648	1931.81
494.017	1959.61
494.387	1988.54
494.757	1959.16
495.126	1980.63
495.496	1943.56
495.866	1966.39
496.235	1986.28
496.605	1977.69
496.974	1993.28
497.344	1987.41
497.713	1975.43
498.082	2015.88
498.452	1976.56
498.821	1984.69
499.19	1980.63
499.559	1960.74
499.928	1978.82
500.298	1972.72
500.667	1989.21
501.036	1987.41
501.405	1991.93
501.774	1949.44
502.143	2011.59
502.512	2006.39
502.88	1983.56
503.249	1958.71
503.618	1966.84
503.987	1988.31
504.356	1954.64
504.724	1943.79
505.093	1959.61
505.462	1983.11
505.83	1949.89
506.199	1969.78
506.567	1980.63
506.936	1939.27
507.304	1958.03
507.672	1947.63
508.041	1964.36
508.409	1964.58
508.777	1955.77
509.145	1967.97
509.514	1959.16
509.882	1967.97
510.25	1949.21
510.618	1937.24
510.986	1926.62
511.354	1904.7
511.722	1904.47
512.09	1932.04
512.458	1901.08
512.826	1927.75
513.193	1913.51
513.561	1906.96
513.929	1927.07
514.297	1910.35
514.664	1869.67
515.032	1877.8
515.4	1890.68
515.767	1881.19
516.135	1911.25
516.502	1853.4
516.869	1873.51
517.237	1893.4
517.604	1859.5
517.972	1833.29
518.339	1831.7
518.706	1842.55
519.073	1843.45
519.44	1854.3
519.808	1868.76
520.175	1831.48
520.542	1831.03
520.909	1848.43
521.276	1817.92
521.643	1817.92
522.009	1874.19
522.376	1834.64
522.743	1843.91
523.11	1827.86
523.477	1822.21
523.843	1783.34
524.21	1831.93
524.577	1812.27
524.943	1807.52
525.31	1821.76
525.676	1795.55
526.043	1797.13
526.409	1816.79
526.776	1803.68
527.142	1781.54
527.508	1811.14
527.874	1792.16
528.241	1782.89
528.607	1783.79
528.973	1844.13
529.339	1812.95
529.705	1802.55
530.071	1817.92
530.437	1812.95
530.803	1798.71
531.169	1828.09
531.535	1823.12
531.901	1794.42
532.267	1798.94
532.632	1817.01
532.998	1797.35
533.364	1813.17
533.73	1779.5
534.095	1812.04
534.461	1785.83
534.826	1774.08
535.192	1819.05
535.557	1833.51
535.923	1765.72
536.288	1831.03
536.653	1793.29
537.019	1795.77
537.384	1777.47
537.749	1801.87
538.114	1806.17
538.479	1782.66
538.845	1788.77
539.21	1780.18
539.575	1799.61
539.94	1796.45
540.305	1792.83
540.67	1767.98
541.034	1758.03
541.399	1787.86
541.764	1781.76
542.129	1783.79
542.494	1783.79
542.858	1735.66
543.223	1787.86
543.587	1768.88
543.952	1739.05
544.316	1791.93
544.681	1751.03
545.045	1773.4
545.41	1780.18
545.774	1775.43
546.138	1719.39
546.503	1758.48
546.867	1741.99
547.231	1778.82
547.595	1766.62
547.959	1766.39
548.324	1760.07
548.688	1752.38
549.052	1730.69
549.416	1741.54
549.779	1710.58
550.143	1698.6
550.507	1727.98
550.871	1763.23
551.235	1742.44
551.599	1749.67
551.962	1736.79
552.326	1705.38
552.689	1714.64
553.053	1702.22
553.417	1733.85
553.78	1749.22
554.143	1726.85
554.507	1739.28
554.87	1683.68
555.234	1724.14
555.597	1705.83
555.96	1705.38
556.323	1721.88
556.686	1690.24
557.05	1702.67
557.413	1746.96
557.776	1723.68
558.139	1723.91
558.502	1705.83
558.865	1716.45
559.228	1717.13
559.59	1719.39
559.953	1708.77
560.316	1723.46
560.679	1720.97
561.041	1700.18
561.404	1721.2
561.767	1724.14
562.129	1722.78
562.492	1715.77
562.854	1727.53
563.217	1715.77
563.579	1697.24
563.941	1739.73
564.304	1734.3
564.666	1730.46
565.028	1755.1
565.39	1730.91
565.753	1745.6
566.115	1734.76
566.477	1761.42
566.839	1739.28
567.201	1750.58
567.563	1776.79
567.925	1755.1
568.287	1762.33
568.648	1753.06
569.01	1803.46
569.372	1802.55
569.734	1784.02
570.095	1784.92
570.457	1797.13
570.819	1780.63
571.18	1789.67
571.542	1815.66
571.903	1809.33
572.265	1796.22
572.626	1791.03
572.987	1815.66
573.349	1825.38
573.71	1831.7
574.071	1832.83
574.432	1809.1
574.794	1849.56
575.155	1871.7
575.516	1814.75
575.877	1834.64
576.238	1859.05
576.599	1846.62
576.96	1869.89
577.32	1840.52
577.681	1851.59
578.042	1889.33
578.403	1881.65
578.763	1885.94
579.124	1894.07
579.485	1887.52
579.845	1905.37
580.206	1873.74
580.566	1914.41
580.927	1920.06
581.287	1908.99
581.648	1904.7
582.008	1912.38
582.368	1939.5
582.728	1877.35
583.089	1948.99
583.449	1939.27
583.809	1925.94
584.169	1931.36
584.529	1917.12
584.889	1906.05
585.249	1953.06
585.609	1937.24
585.969	1942.66
586.329	1932.72
586.688	1938.14
587.048	1946.05
587.408	1941.76
587.768	1931.81
588.127	1928.65
588.487	1937.92
588.846	1965.49
589.206	1915.99
589.565	1983.11
589.925	1967.97
590.284	1946.5
590.643	1974.52
591.003	1943.11
591.362	1946.05
591.721	1927.07
592.08	1927.75
592.44	1941.3
592.799	1928.65
593.158	1958.93
593.517	1926.62
593.876	1944.02
594.235	1944.47
594.593	1946.73
594.952	1956.45
595.311	1937.69
595.67	1959.38
596.029	1966.84
596.387	1982.66
596.746	1951.93
597.104	1917.8
597.463	1964.81
597.822	1959.61
598.18	1934.75
598.538	1944.47
598.897	1992.38
599.255	1958.93
599.613	1952.15
599.972	1940.4
600.33	1955.54
600.688	1929.78
601.046	1930.91
601.404	1938.82
601.762	1940.4
602.12	1981.08
602.478	1949.21
602.836	1985.82
603.194	1949.89
603.552	1951.25
603.91	1952.15
604.268	1928.42
604.625	1949.21
604.983	1977.69
605.341	1946.95
605.698	1951.25
606.056	1980.4
606.413	1950.8
606.771	1950.57
607.128	1961.42
607.485	1948.54
607.843	1956.22
608.2	1959.61
608.557	1951.93
608.914	1968.87
609.272	1966.16
609.629	1974.07
609.986	1972.04
610.343	1989.21
610.7	1965.03
611.057	1987.41
611.414	1983.56
611.771	1991.7
612.127	1994.86
612.484	2004.35
612.841	1965.03
613.198	1990.57
613.554	1994.86
613.911	1967.97
614.267	1984.92
614.624	1974.98
614.98	2026.73
615.337	2005.03
615.693	1980.85
616.05	1995.09
616.406	1998.03
616.762	2005.03
617.118	2003.9
617.475	1970.68
617.831	2032.15
618.187	2012.72
618.543	1996.44
618.899	2024.47
619.255	1980.4
619.611	1985.6
619.967	2017.91
620.323	2034.41
620.678	2024.47
621.034	2024.24
621.39	2016.33
621.746	2005.71
622.101	2009.33
622.457	2013.17
622.812	2013.62
623.168	2005.71
623.523	2008.65
623.879	2022.66
624.234	2031.02
624.589	2024.24
624.945	2004.81
625.3	2012.94
625.655	2017.24
626.01	2042.77
626.365	2029.89
626.72	2014.07
627.075	2007.07
627.43	2030.34
627.785	2028.76
628.14	2017.46
628.495	2021.3
628.85	2016.78
629.205	2024.47
629.559	2011.59
629.914	2015.88
630.269	2039.83
630.623	2039.61
630.978	2008.65
631.332	2043.45
631.687	2073.28
632.041	2057.01
632.396	2049.55
632.75	2037.35
633.104	1993.28
633.459	2017.46
633.813	2036.67
634.167	2006.16
634.521	2029.89
634.875	1999.61
635.229	1995.54
635.583	2015.2
635.937	2024.01
636.291	2017.69
636.645	2033.73
636.999	2014.3
637.352	2020.62
637.706	2028.08
638.06	2041.64
638.413	2047.97
638.767	2060.62
639.121	1987.41
639.474	1991.7
639.828	2027.18
640.181	2029.66
640.534	2012.94
640.888	2042.09
641.241	2049.32
641.594	2077.57
641.947	2011.59
642.301	2012.49
642.654	2043.9
643.007	2059.04
643.36	2029.66
643.713	2059.72
644.066	2039.38
644.419	2037.57
644.771	2036.44
645.124	1998.48
645.477	2035.99
645.83	2009.33
646.182	1990.34
646.535	1973.39
646.888	2023.56
647.24	1990.8
647.593	1998.25
647.945	2005.26
648.298	1987.41
648.65	2027.63
649.002	2031.47
649.355	1996.9
649.707	2039.61
650.059	2005.26
650.411	2051.81
650.763	2063.34
651.115	2064.69
651.467	2045.71
651.819	2057.23
652.171	2063.11
652.523	2075.76
652.875	2051.81
653.227	2047.74
653.578	2123
653.93	2064.24
654.282	2074.86
654.633	2067.18
654.985	2092.71
655.337	2086.39
655.688	2100.62
656.039	2108.76
656.391	2054.3
656.742	2077.8
657.094	2116.22
657.445	2132.71
657.796	2090.91
658.147	2092.49
658.498	2110.11
658.849	2133.62
659.2	2120.96
659.551	2115.99
659.902	2112.37
660.253	2122.32
660.604	2176.33
660.955	2109.89
661.306	2163.45
661.656	2124.58
662.007	2137.46
662.358	2118.7
662.708	2105.37
663.059	2153.95
663.409	2115.76
663.76	2167.97
664.11	2122.54
664.461	2157.12
664.811	2152.6
665.161	2115.99
665.511	2134.75
665.862	2134.97
666.212	2141.07
666.562	2103.79
666.912	2127.97
667.262	2149.66
667.612	2164.12
667.962	2119.83
668.312	2143.11
668.662	2168.42
669.011	2134.29
669.361	2108.76
669.711	2115.31
670.06	2137.91
670.41	2132.26
670.76	2126.38
671.109	2155.76
671.459	2120.96
671.808	2105.14
672.157	2153.05
672.507	2090
672.856	2111.47
673.205	2132.26
673.554	2131.13
673.904	2112.37
674.253	2124.58
674.602	2091.58
674.951	2081.87
675.3	2069.44
675.649	2090
675.998	2072.15
676.346	2101.98
676.695	2104.92
677.044	2054.3
677.393	2064.01
677.741	2080.51
678.09	2065.6
678.438	2067.18
678.787	2068.99
679.135	2092.26
679.484	2066.95
679.832	2056.56
680.181	2047.74
680.529	2055.2
680.877	2052.94
681.225	2028.99
681.573	2054.75
681.922	2038.03
682.27	2034.64
682.618	2015.2
682.966	2008.65
683.314	2017.46
683.661	2034.18
684.009	2005.48
684.357	2004.58
684.705	1981.76
685.053	2016.33
685.4	2000.51
685.748	1964.81
686.095	1969.78
686.443	1981.76
686.79	1973.39
687.138	1988.08
687.485	1992.6
687.832	1984.02
688.18	1948.54
688.527	1948.54
688.874	1963.23
689.221	1961.64
689.568	1929.1
689.915	1941.08
690.262	1952.38
690.609	1925.49
690.956	1954.86
691.303	1878.93
691.65	1903.34
691.997	1915.32
692.344	1901.53
692.69	1895.2
693.037	1898.82
693.383	1893.62
693.73	1884.81
694.077	1905.83
694.423	1881.19
694.769	1842.1
695.116	1876.22
695.462	1871.02
695.808	1858.37
696.155	1858.37
696.501	1818.82
696.847	1840.52
697.193	1821.53
697.539	1824.7
697.885	1808.2
698.231	1813.4
698.577	1830.35
698.923	1813.62
699.269	1801.65
699.614	1783.34
699.96	1771.37
700.306	1778.15
700.651	1793.74
700.997	1770.69
701.342	1775.89
701.688	1803.68
702.033	1803.68
702.379	1766.62
702.724	1783.79
703.069	1761.65
703.415	1753.29
703.76	1720.52
704.105	1753.97
704.45	1763
704.795	1770.69
705.14	1757.35
705.485	1736.79
705.83	1749.67
706.175	1721.42
706.52	1737.02
706.865	1728.43
707.209	1734.3
707.554	1720.97
707.899	1742.89
708.243	1741.99
708.588	1715.55
708.932	1729.33
709.277	1722.1
709.621	1727.98
709.966	1720.07
710.31	1710.8
710.654	1719.84
710.998	1718.26
711.342	1716.23
711.687	1732.5
712.031	1712.84
712.375	1716.23
712.719	1720.97
713.063	1699.96
713.407	1734.08
713.75	1706.51
714.094	1730.46
714.438	1761.42
714.782	1754.87
715.125	1728.2
715.469	1742.89
715.812	1733.85
716.156	1770.46
716.499	1748.77
716.843	1763.68
717.186	1746.73
717.53	1776.56
717.873	1779.05
718.216	1785.83
718.559	1754.64
718.902	1771.82
719.246	1743.8
719.589	1768.2
719.932	1767.75
720.275	1744.47
720.617	1779.28
720.96	1808.2
721.303	1804.81
721.646	1791.93
721.989	1780.63
722.331	1823.79
722.674	1809.78
723.016	1824.25
723.359	1812.72
723.701	1814.98
724.044	1823.34
724.386	1837.8
724.729	1819.95
725.071	1824.92
725.413	1823.34
725.755	1833.51
726.097	1853.85
726.439	1844.58
726.782	1855.88
727.124	1852.72
727.465	1875.32
727.807	1887.3
728.149	1874.64
728.491	1866.05
728.833	1920.74
729.175	1924.58
729.516	1919.16
729.858	1923.68
730.199	1911.7
730.541	1924.36
730.882	1948.31
731.224	1984.92
731.565	1948.99
731.906	1977.24
732.248	1939.05
732.589	1989.44
732.93	1987.41
733.271	2026.27
733.612	2007.29
733.953	2019.04
734.294	2037.8
734.635	2046.84
734.976	2059.27
735.317	2069.44
735.658	2073.05
735.999	2061.75
736.339	2091.36
736.68	2106.05
737.021	2143.11
737.361	2095.2
737.702	2134.97
738.042	2162.09
738.383	2149.89
738.723	2171.81
739.063	2191.92
739.404	2241.41
739.744	2237.57
740.084	2235.76
740.424	2278.25
740.764	2300.62
741.104	2301.3
741.444	2323.22
741.784	2351.01
742.124	2340.16
742.464	2359.82
742.804	2391.46
743.143	2423.1
743.483	2440.05
743.823	2482.08
744.162	2485.02
744.502	2476.43
744.841	2558.01
745.181	2546.03
745.52	2612.93
745.86	2617.9
746.199	2636.65
746.538	2659.48
746.877	2722.53
747.216	2724.79
747.556	2806.37
747.895	2820.6
748.234	2821.51
748.573	2835.74
748.911	2910.54
749.25	2964.78
749.589	3006.14
749.928	3073.93
750.267	3076.87
750.605	3104.89
750.944	3144.21
751.283	3187.6
751.621	3239.35
751.96	3273.47
752.298	3327.48
752.636	3371.32
752.975	3448.16
753.313	3466.01
753.651	3556.86
753.989	3623.07
754.327	3654.48
754.666	3675.5
755.004	3754.59
755.342	3789.39
755.679	3844.53
756.017	3902.84
756.355	3946.22
756.693	4000.91
757.031	4105.32
757.368	4062.61
757.706	4177.18
758.044	4221.24
758.381	4262.37
758.719	4331.3
759.056	4349.15
759.394	4501.69
759.731	4497.4
760.068	4567.68
760.405	4569.26
760.743	4661.01
761.08	4751.85
761.417	4748.46
761.754	4850.15
762.091	4937.16
762.428	4931.51
762.765	4971.06
763.102	5048.12
763.438	5055.8
763.775	5120.43
764.112	5223.03
764.449	5199.52
764.785	5275.68
765.122	5305.74
765.458	5365.62
765.795	5409.24
766.131	5455.34
766.467	5477.48
766.804	5551.83
767.14	5610.59
767.476	5582.57
767.812	5611.49
768.148	5747.31
768.485	5772.84
768.821	5777.36
769.157	5833.41
769.492	5854.87
769.828	5896
770.164	5888.09
770.5	5980.29
770.836	5963.35
771.171	5978.49
771.507	6002.22
771.842	6037.02
772.178	6069.33
772.513	6090.8
772.849	6121.76
773.184	6132.16
773.519	6165.83
773.855	6167.86
774.19	6228.88
774.525	6241.08
774.86	6245.15
775.195	6287.86
775.53	6322.43
775.865	6311.36
776.2	6321.3
776.535	6311.59
776.87	6388.42
777.205	6352.26
777.539	6364.24
777.874	6402.88
778.209	6367.4
778.543	6434.29
778.878	6403.79
779.212	6393.17
779.547	6398.59
779.881	6446.05
780.215	6436.78
780.55	6507.96
780.884	6428.87
781.218	6447.85
781.552	6528.75
781.886	6517.68
782.22	6453.73
782.554	6490.56
782.888	6430.68
783.222	6469.32
783.556	6474.07
783.889	6521.07
784.223	6412.83
784.557	6407.4
784.89	6523.11
785.224	6501.64
785.557	6429.1
785.891	6451.47
786.224	6512.03
786.558	6494.86
786.891	6475.87
787.224	6487.4
787.557	6420.06
787.891	6480.39
788.224	6474.07
788.557	6487.85
788.89	6502.99
789.223	6507.29
789.556	6483.11
789.888	6537.57
790.221	6447.18
790.554	6489.21
790.887	6468.42
791.219	6499.38
791.552	6510.22
791.884	6490.56
792.217	6476.55
792.549	6470.68
792.882	6417.12
793.214	6467.06
793.546	6448.76
793.879	6386.16
794.211	6372.83
794.543	6406.5
794.875	6410.11
795.207	6459.15
795.539	6415.54
795.871	6451.02
796.203	6404.01
796.535	6357.23
796.867	6340.06
797.198	6339.16
797.53	6349.78
797.862	6314.75
798.193	6367.86
798.525	6291.7
798.856	6328.31
799.188	6270.68
799.519	6309.33
799.85	6243.34
800.182	6321.08
800.513	6279.27
800.844	6260.97
801.175	6299.38
801.506	6285.37
801.837	6259.16
802.168	6190.23
802.499	6204.7
802.83	6246.28
803.161	6177.8
803.491	6180.74
803.822	6230.91
804.153	6203.57
804.483	6190.01
804.814	6142.1
805.145	6181.19
805.475	6195.88
805.805	6164.24
806.136	6114.3
806.466	6109.33
806.796	6092.61
807.126	6122.44
807.457	6098.26
807.787	6054.87
808.117	6061.42
808.447	6107.97
808.777	6098.71
809.107	6044.25
809.436	5975.78
809.766	6024.14
810.096	6024.14
810.426	6037.24
810.755	5999.05
811.085	5967.41
811.414	6065.49
811.744	5959.05
812.073	5981.2
812.403	6060.74
812.732	5983.68
813.061	5945.27
813.39	5940.75
813.719	5980.75
814.049	5918.83
814.378	5947.98
814.707	5911.14
815.036	5898.49
815.365	5928.09
815.693	5863.69
816.022	5891.48
816.351	5836.8
816.68	5828.89
817.008	5850.35
817.337	5848.32
817.665	5807.87
817.994	5805.84
818.322	5818.94
818.651	5795.89
818.979	5747.08
819.307	5799.06
819.636	5815.33
819.964	5768.77
820.292	5780.07
820.62	5782.33
820.948	5810.36
821.276	5860.98
821.604	5784.82
821.932	5804.25
822.259	5803.35
822.587	5768.55
822.915	5789.79
823.243	5851.03
823.57	5851.71
823.898	5784.37
824.225	5775.33
824.553	5811.26
824.88	5783.24
825.207	5846.06
825.535	5804.71
825.862	5823.91
826.189	5787.53
826.516	5837.7
826.843	5833.63
827.17	5877.47
827.497	5808.32
827.824	5867.53
828.151	5848.09
828.478	5821.43
828.805	5854.65
829.131	5841.54
829.458	5838.83
829.785	5813.29
830.111	5863.46
830.438	5880.86
830.764	5825.95
831.09	5793.41
831.417	5886.29
831.743	5845.61
832.069	5817.59
832.395	5844.25
832.722	5875.44
833.048	5805.61
833.374	5832.95
833.7	5841.77
834.026	5842.45
834.351	5832.73
834.677	5833.63
835.003	5863.01
835.329	5834.99
835.654	5792.5
835.98	5812.62
836.306	5812.62
836.631	5825.27
836.956	5822.56
837.282	5771.94
837.607	5769
837.932	5789.34
838.258	5827.3
838.583	5795.21
838.908	5725.84
839.233	5711.83
839.558	5723.35
839.883	5750.47
840.208	5628.21
840.533	5710.7
840.858	5724.48
841.182	5714.54
841.507	5707.76
841.832	5700.75
842.156	5689.23
842.481	5640.19
842.805	5651.49
843.13	5680.19
843.454	5620.53
843.778	5645.39
844.103	5629.34
844.427	5619.85
844.751	5606.97
845.075	5592.96
845.399	5558.61
845.723	5550.25
846.047	5583.92
846.371	5498.95
846.695	5474.32
847.019	5440.2
847.343	5427.77
847.666	5432.74
847.99	5386.86
848.313	5391.61
848.637	5387.32
848.96	5311.39
849.284	5341.44
849.607	5258.96
849.931	5279.07
850.254	5297.15
850.577	5234.55
850.9	5230.48
851.223	5193.42
851.546	5191.16
851.869	5137.15
852.192	5196.13
852.515	5201.56
852.838	5164.05
853.161	5146.64
853.483	5145.29
853.806	5082.01
854.129	5060.77
854.451	5040.21
854.774	5039.08
855.096	5036.82
855.419	5001.11
855.741	5010.38
856.063	4975.8
856.385	4981.68
856.708	4944.16
857.03	4949.36
857.352	4934.22
857.674	4856.48
857.996	4911.4
858.318	4900.55
858.64	4917.5
858.961	4870.72
859.283	4908.01
859.605	4855.13
859.926	4809.7
860.248	4827.33
860.57	4811.51
860.891	4806.99
861.212	4781.91
861.534	4748.24
861.855	4748.46
862.176	4798.18
862.498	4726.09
862.819	4783.94
863.14	4719.08
863.461	4695.58
863.782	4690.39
864.103	4736.94
864.424	4712.76
864.745	4689.26
865.065	4676.6
865.386	4667.79
865.707	4687.45
866.027	4692.42
866.348	4683.15
866.668	4631.86
866.989	4616.94
867.309	4617.62
867.63	4662.36
867.95	4704.62
868.27	4631.63
868.59	4601.57
868.91	4608.13
869.23	4579.88
869.55	4563.61
869.87	4580.56
870.19	4582.59
870.51	4566.09
870.83	4557.73
871.15	4554.34
871.469	4575.81
871.789	4541.69
872.109	4573.78
872.428	4513.21
872.748	4510.73
873.067	4571.74
873.386	4563.16
873.706	4474.12
874.025	4514.34
874.344	4462.37
874.663	4462.14
874.982	4474.57
875.301	4464.18
875.62	4474.8
875.939	4487.45
876.258	4470.73
876.577	4479.54
876.896	4456.49
877.214	4402.26
877.533	4410.62
877.852	4408.36
878.17	4387.57
878.489	4399.77
878.807	4407
879.125	4345.76
879.444	4371.3
879.762	4322.49
880.08	4388.92
880.398	4342.82
880.716	4337.17
881.034	4324.07
881.352	4308.25
881.67	4296.27
881.988	4301.92
882.306	4276.16
882.624	4288.36
882.941	4272.32
883.259	4250.62
883.577	4227.57
883.894	4269.61
884.212	4233
884.529	4239.78
884.846	4244.3
885.164	4192.32
885.481	4173.56
885.798	4169.49
886.115	4186.44
886.432	4137.41
886.75	4150.06
887.067	4144.41
887.383	4152.32
887.7	4156.16
888.017	4130.4
888.334	4164.3
888.651	4095.15
888.967	4088.14
889.284	4092.21
889.6	4093.79
889.917	4063.51
890.233	4066.22
890.55	4057.63
890.866	4003.62
891.182	4015.83
891.498	3980.12
891.815	3976.05
892.131	3990.52
892.447	3949.16
892.763	3983.96
893.079	3957.52
893.395	3904.64
893.71	3920.91
894.026	3896.51
894.342	3901.03
894.657	3866.9
894.973	3884.3
895.289	3860.12
895.604	3860.8
895.92	3844.76
896.235	3803.18
896.55	3818.32
896.865	3798.21
897.181	3813.12
897.496	3830.52
897.811	3769.28
898.126	3774.7
898.441	3747.13
898.756	3772.67
899.071	3727.92
899.386	3718.21
899.7	3686.57
900.015	3670.98
900.33	3659.9
900.644	3663.52
900.959	3650.64
901.273	3600.47
901.588	3615.61
901.902	3597.31
902.216	3626.91
902.531	3536.52
902.845	3587.14
903.159	3543.52
903.473	3520.02
903.787	3500.59
904.101	3487.03
904.415	3552.11
904.729	3480.7
905.042	3459.46
905.356	3447.93
905.67	3463.75
905.984	3483.19
906.297	3429.18
906.611	3389.63
906.924	3420.14
907.237	3394.83
907.551	3375.39
907.864	3369.52
908.177	3336.75
908.491	3359.12
908.804	3334.26
909.117	3319.12
909.43	3275.51
909.743	3250.42
910.056	3295.62
910.368	3254.04
910.681	3287.48
910.994	3225.79
911.307	3208.16
911.619	3203.19
911.932	3171.56
912.244	3195.74
912.557	3150.99
912.869	3184.44
913.181	3169.52
913.494	3133.59
913.806	3114.83
914.118	3088.39
914.43	3078.68
914.742	3117.77
915.054	3095.4
915.366	3036.42
915.678	3056.3
915.99	3056.76
916.302	3002.97
916.613	3022.18
916.925	3001.16
917.236	3012.69
917.548	3017.43
917.859	2958.45
918.171	2942.63
918.482	2954.39
918.794	2936.53
919.105	2933.14
919.416	2871.68
919.727	2891.11
920.038	2927.95
920.349	2912.35
920.66	2838
920.971	2872.13
921.282	2866.25
921.593	2861.28
921.903	2809.76
922.214	2786.25
922.525	2825.8
922.835	2771.79
923.146	2766.59
923.456	2793.49
923.767	2752.58
924.077	2776.76
924.387	2733.37
924.697	2736.99
925.008	2739.93
925.318	2743.32
925.628	2736.09
925.938	2706.03
926.248	2660.38
926.558	2652.47
926.867	2635.3
927.177	2657.22
927.487	2638.01
927.796	2601.4
928.106	2611.57
928.416	2622.64
928.725	2631
929.034	2571.8
929.344	2566.15
929.653	2555.98
929.962	2535.41
930.271	2555.75
930.581	2541.29
930.89	2525.02
931.199	2502.65
931.508	2505.58
931.817	2509.65
932.125	2481.4
932.434	2505.36
932.743	2488.18
933.051	2489.31
933.36	2477.79
933.669	2429.65
933.977	2428.07
934.286	2407.28
934.594	2433.04
934.902	2398.24
935.21	2410.9
935.519	2392.59
935.827	2389.65
936.135	2373.38
936.443	2323.67
936.751	2344.68
937.059	2320.96
937.367	2320.73
937.674	2325.93
937.982	2330.22
938.29	2313.72
938.597	2301.07
938.905	2268.08
939.213	2294.06
939.52	2269.66
939.827	2271.92
940.135	2267.17
940.442	2242.99
940.749	2236.21
941.056	2240.96
941.363	2186.04
941.67	2209.77
941.977	2188.08
942.284	2216.78
942.591	2162.77
942.898	2191.69
943.205	2200.96
943.511	2143.56
943.818	2135.2
944.125	2144.92
944.431	2126.38
944.738	2130.45
945.044	2117.35
945.35	2121.64
945.657	2114.18
945.963	2110.57
946.269	2063.11
946.575	2068.08
946.881	2061.75
947.187	2075.99
947.493	2094.97
947.799	2034.86
948.105	2038.03
948.41	2050.45
948.716	2043
949.022	2007.29
949.327	2005.03
949.633	1986.5
949.938	1981.98
950.244	1993.05
950.549	1952.15
950.854	1968.42
951.16	1972.49
951.465	1969.55
951.77	1934.98
952.075	1915.77
952.38	1925.94
952.685	1954.41
952.99	1914.86
953.294	1886.62
953.599	1894.3
953.904	1880.97
954.209	1922.1
954.513	1903.57
954.818	1848.65
955.122	1894.53
955.426	1876.22
955.731	1854.08
956.035	1827.64
956.339	1813.85
956.643	1855.88
956.948	1835.32
957.252	1813.85
957.556	1833.74
957.86	1792.38
958.163	1810.01
958.467	1840.52
958.771	1793.29
959.075	1770.24
959.378	1771.37
959.682	1752.38
959.985	1745.15
960.289	1733.85
960.592	1734.76
960.896	1729.11
961.199	1741.31
961.502	1721.42
961.805	1735.66
962.108	1697.02
962.411	1693.63
962.714	1662.44
963.017	1680.07
963.32	1689.11
963.623	1681.88
963.926	1657.47
964.228	1684.59
964.531	1647.53
964.833	1663.57
965.136	1653.85
965.438	1647.08
965.741	1640.75
966.043	1635.32
966.345	1602.56
966.648	1613.86
966.95	1628.54
967.252	1607.3
967.554	1612.5
967.856	1601.2
968.158	1568.21
968.46	1579.05
968.761	1563.01
969.063	1588.55
969.365	1545.38
969.666	1571.37
969.968	1530.47
970.269	1537.7
970.571	1539.51
970.872	1533.18
971.174	1549.45
971.475	1526.63
971.776	1532.73
972.077	1498.38
972.378	1491.37
972.679	1507.42
972.98	1510.81
973.281	1494.99
973.582	1505.61
973.883	1483.24
974.183	1453.63
974.484	1472.39
974.785	1461.54
975.085	1467.65
975.386	1452.5
975.686	1473.07
975.986	1420.87
976.287	1442.11
976.587	1405.5
976.887	1410.25
977.187	1407.76
977.487	1433.75
977.787	1394.43
978.087	1405.95
978.387	1400.3
978.687	1371.83
978.987	1388.55
979.286	1356.01
979.586	1347.65
979.885	1365.95
980.185	1360.53
980.484	1359.63
980.784	1335.9
981.083	1319.17
981.382	1320.3
981.682	1316.24
981.981	1338.83
982.28	1343.58
982.579	1320.08
982.878	1304.49
983.177	1314.65
983.475	1325.95
983.774	1308.55
984.073	1311.49
984.372	1295.45
984.67	1299.97
984.969	1289.57
985.267	1287.31
985.566	1274.43
985.864	1241.66
986.162	1260.42
986.461	1244.37
986.759	1229.46
987.057	1240.08
987.355	1239.18
987.653	1231.49
987.951	1213.64
988.249	1177.71
988.547	1214.77
988.844	1188.1
989.142	1224.71
989.44	1223.58
989.737	1173.42
990.035	1172.51
990.332	1207.76
990.63	1186.07
990.927	1203.92
991.224	1173.87
991.521	1168.67
991.819	1163.47
992.116	1184.04
992.413	1159.4
992.71	1156.01
993.006	1155.56
993.303	1165.73
993.6	1162.57
993.897	1109.01
994.193	1129.35
994.49	1156.01
994.787	1142.68
995.083	1097.94
995.379	1081.89
995.676	1092.51
995.972	1113.08
996.268	1090.48
996.565	1102.23
996.861	1087.54
997.157	1106.98
997.453	1076.47
997.749	1057.71
998.044	1052.51
998.34	1056.13
998.636	1081.89
998.932	1051.61
999.227	1061.1
999.523	1037.37
999.818	1038.73
1000.114	1044.83
1000.409	1049.12
1000.704	1028.56
1001	1001.44
1001.295	1001.89
1001.59	1024.04
1001.885	1022.46
1002.18	1021.1
1002.475	993.76
1002.77	971.84
1003.065	987.88
1003.359	976.13
1003.654	1001.89
1003.949	1010.71
1004.243	974.55
1004.538	966.19
1004.832	975.45
1005.127	968.9
1005.421	954.21
1005.715	942.91
1006.009	950.37
1006.304	952.18
1006.598	949.24
1006.892	932.52
1007.186	944.04
1007.48	946.53
1007.773	943.59
1008.067	942.91
1008.361	936.36
1008.655	921.9
1008.948	914.89
1009.242	913.08
1009.535	903.37
1009.829	892.74
1010.122	910.6
1010.415	891.61
1010.708	883.93
1011.001	884.16
1011.295	899.07
1011.588	858.62
1011.881	852.29
1012.173	863.37
1012.466	859.75
1012.759	831.5
1013.052	836.7
1013.344	855.01
1013.637	847.55
1013.93	855.23
1014.222	853.2
1014.514	820.2
1014.807	828.34
1015.099	823.59
1015.391	824.95
1015.683	808.45
1015.976	806.42
1016.268	817.72
1016.56	787.21
1016.851	821.33
1017.143	790.83
1017.435	799.87
1017.727	793.99
1018.018	777.49
1018.31	769.58
1018.602	784.27
1018.893	789.47
1019.185	762.58
1019.476	759.42
1019.767	736.59
1020.058	757.83
1020.35	765.29
1020.641	729.59
1020.932	752.86
1021.223	752.86
1021.514	756.03
1021.804	729.81
1022.095	735.01
1022.386	714.22
1022.677	720.09
1022.967	718.74
1023.258	712.86
1023.548	729.36
1023.839	714.22
1024.129	712.18
1024.419	701.79
1024.709	716.93
1025	700.89
1025.29	698.17
1025.58	688.68
1025.87	692.52
1026.16	682.13
1026.449	677.84
1026.739	704.28
1027.029	684.16
1027.319	699.3
1027.608	664.28
1027.898	679.19
1028.187	671.73
1028.477	657.04
1028.766	656.59
1029.055	657.95
1029.344	661.34
1029.634	673.99
1029.923	637.61
1030.212	650.49
1030.501	647.55
1030.79	645.07
1031.078	622.02
1031.367	640.55
1031.656	617.5
1031.945	630.83
1032.233	642.58
1032.522	603.71
1032.81	626.54
1033.099	610.72
1033.387	591.06
1033.675	595.58
1033.963	591.96
1034.251	612.53
1034.54	607.55
1034.828	601.23
1035.116	575.47
1035.403	605.97
1035.691	598.74
1035.979	600.55
1036.267	613.88
1036.554	583.15
1036.842	605.07
1037.129	586.99
1037.417	589.02
1037.704	571.62
1037.992	557.39
1038.279	554
1038.566	559.42
1038.853	559.42
1039.14	559.42
