Data from blue_clamp_base_FLMS001491_00047.txt Node
Date: Wed Feb 08 15:16:04 GMT 2017
User: dcchb
Spectrometer: FLMS00149
Trigger mode: 0
Integration Time (sec): 2.000000E-2
Scans to average: 10
Electric dark correction enabled: true
Nonlinearity correction enabled: false
Boxcar width: 0
XAxis mode: Wavelengths
Number of Pixels in Spectrum: 2048
>>>>>Begin Spectral Data<<<<<
341.393	-20.41
341.776	-20.41
342.16	-20.41
342.543	-55.66
342.927	-69.9
343.31	-56.11
343.693	-66.74
344.077	-59.96
344.46	-50.46
344.843	-63.57
345.226	-51.37
345.61	-47.98
345.993	-23.35
346.376	-7.08
346.759	34.73
347.142	22.75
347.525	38.12
347.908	50.78
348.291	84.22
348.674	80.15
349.057	115.86
349.44	124.45
349.823	143.65
350.206	150.89
350.588	184.78
350.971	224.1
351.354	219.36
351.737	221.62
352.119	259.58
352.502	256.65
352.884	277.66
353.267	290.54
353.65	296.87
354.032	317.89
354.414	298.23
354.797	313.14
355.179	328.06
355.562	346.59
355.944	342.07
356.326	333.25
356.709	342.97
357.091	337.1
357.473	328.51
357.855	342.52
358.238	335.06
358.62	340.94
359.002	352.24
359.384	372.35
359.766	355.4
360.148	345.01
360.53	355.4
360.912	354.95
361.294	351.56
361.676	345.46
362.057	366.02
362.439	354.72
362.821	349.75
363.203	340.71
363.584	346.36
363.966	333.93
364.348	326.25
364.729	358.56
365.111	336.19
365.493	338.9
365.874	325.12
366.256	336.64
366.637	323.76
367.019	334.61
367.4	338.68
367.781	317.44
368.163	331.22
368.544	339.36
368.925	318.79
369.306	323.99
369.688	317.44
370.069	315.4
370.45	332.35
370.831	333.93
371.212	348.17
371.593	332.12
371.974	337.77
372.355	329.41
372.736	351.56
373.117	346.59
373.498	339.81
373.879	329.86
374.26	337.1
374.641	333.03
375.021	334.16
375.402	345.68
375.783	349.98
376.163	358.79
376.544	340.49
376.925	340.49
377.305	348.39
377.686	373.7
378.066	376.64
378.447	372.12
378.827	364.89
379.208	363.08
379.588	345.91
379.968	371.67
380.349	378.45
380.729	374.38
381.109	355.63
381.489	401.05
381.87	385.91
382.25	384.1
382.63	376.42
383.01	375.51
383.39	408.28
383.77	379.13
384.15	398.79
384.53	380.71
384.91	372.12
385.29	395.85
385.67	413.93
386.049	405.57
386.429	399.01
386.809	420.03
387.189	416.87
387.568	402.18
387.948	403.08
388.328	426.58
388.707	407.6
389.087	438.34
389.466	422.74
389.846	458.22
390.225	433.14
390.605	444.21
390.984	457.54
391.363	444.21
391.743	438.56
392.122	465
392.501	466.58
392.881	469.97
393.26	470.2
393.639	470.2
394.018	456.64
394.397	466.36
394.776	486.7
395.155	505.45
395.534	493.02
395.913	492.12
396.292	510.88
396.671	506.81
397.05	491.67
397.429	537.77
397.808	500.48
398.186	511.1
398.565	553.81
398.944	553.81
399.323	540.25
399.701	547.49
400.08	561.5
400.458	571.44
400.837	580.03
401.215	578.22
401.594	567.37
401.972	568.95
402.351	594.04
402.729	600.82
403.107	629.74
403.486	581.61
403.864	596.98
404.242	610.99
404.62	635.84
404.999	636.07
405.377	628.61
405.755	660.93
406.133	646.24
406.511	664.32
406.889	667.71
407.267	694.15
407.645	672.23
408.023	703.64
408.401	674.71
408.779	697.31
409.156	723.53
409.534	684.66
409.912	739.8
410.29	750.42
410.667	741.15
411.045	740.7
411.422	764.88
411.8	765.33
412.178	776.18
412.555	801.04
412.933	808.5
413.31	826.35
413.687	822.51
414.065	843.07
414.442	856.63
414.819	874.48
415.197	884.43
415.574	885.33
415.951	884.65
416.328	872
416.705	895.27
417.082	910.87
417.46	922.39
417.837	931.88
418.214	931.88
418.591	935.72
418.967	966.23
419.344	961.26
419.721	977.98
420.098	966.91
420.475	1004.87
420.852	986.57
421.228	1017.53
421.605	999.68
421.982	1021.6
422.358	1035.16
422.735	1046.23
423.111	1043.97
423.488	1073.12
423.864	1065.44
424.241	1097.98
424.617	1112.89
424.994	1109.05
425.37	1119
425.746	1142.72
426.123	1131.65
426.499	1127.81
426.875	1179.33
427.251	1193.57
427.627	1227.47
428.003	1220.46
428.379	1254.36
428.756	1222.27
429.132	1243.74
429.507	1293
429.883	1269.27
430.259	1318.09
430.635	1321.48
431.011	1320.12
431.387	1390.85
431.763	1376.62
432.138	1404.86
432.514	1374.13
432.89	1416.84
433.265	1465.43
433.641	1490.29
434.016	1471.08
434.392	1536.61
434.767	1558.08
435.143	1533.45
435.518	1547.01
435.894	1571.19
436.269	1576.39
436.644	1623.62
437.02	1650.28
437.395	1629.49
437.77	1682.37
438.145	1674.91
438.52	1717.62
438.895	1713.33
439.271	1715.82
439.646	1750.84
440.021	1780.67
440.395	1778.64
440.77	1776.61
441.145	1836.72
441.52	1827.23
441.895	1856.15
442.27	1862.93
442.645	1858.19
443.019	1876.94
443.394	1895.47
443.769	1925.75
444.143	1909.03
444.518	1957.84
444.892	1962.14
445.267	1983.15
445.641	2000.1
446.016	1998.52
446.39	2005.53
446.764	2041.01
447.139	2034.45
447.513	2073.32
447.887	2075.13
448.262	2095.69
448.636	2139.99
449.01	2127.78
449.384	2155.8
449.758	2166.88
450.132	2196.93
450.506	2200.1
450.88	2194
451.254	2200.1
451.628	2219.08
452.002	2256.82
452.376	2300.89
452.75	2305.86
453.123	2305.63
453.497	2359.19
453.871	2391.05
454.244	2453.88
454.618	2445.74
454.992	2478.73
455.365	2484.61
455.739	2523.25
456.112	2607.09
456.486	2568.22
456.859	2620.65
457.232	2661.33
457.606	2647.54
457.979	2696.58
458.352	2729.35
458.725	2768.22
459.099	2819.74
459.472	2798.95
459.845	2853.64
460.218	2888.89
460.591	2903.36
460.964	2926.41
461.337	2949.91
461.71	3004.14
462.083	3054.09
462.456	3045.73
462.829	3029.68
463.201	3107.64
463.574	3123.46
463.947	3177.02
464.32	3223.8
464.692	3222.44
465.065	3299.96
465.438	3334.53
465.81	3370.01
466.183	3392.38
466.555	3458.14
466.928	3474.19
467.3	3448.2
467.672	3506.73
468.045	3583.56
468.417	3570.91
468.789	3610.68
469.161	3635.09
469.534	3692.04
469.906	3787.85
470.278	3820.17
470.65	3803.67
471.022	3911.92
471.394	3954.85
471.766	3973.16
472.138	4035.08
472.51	4117.34
472.882	4183.77
473.253	4205.92
473.625	4283.21
473.997	4334.05
474.369	4346.71
474.74	4418.12
475.112	4455.63
475.484	4521.62
475.855	4584.44
476.227	4596.42
476.598	4741.73
476.97	4767.71
477.341	4888.84
477.713	4927.71
478.084	4903.76
478.455	5060.81
478.827	5092.68
479.198	5144.43
479.569	5190.3
479.94	5347.59
480.311	5306.23
480.682	5463.51
481.053	5522.95
481.424	5591.65
481.795	5651.76
482.166	5750.96
482.537	5798.42
482.908	5845.88
483.279	5951.41
483.65	6016.04
484.021	6110.96
484.391	6146.43
484.762	6136.27
485.133	6233.66
485.503	6239.77
485.874	6385.07
486.244	6418.29
486.615	6542.36
486.985	6560.21
487.356	6683.37
487.726	6720.43
488.097	6807.89
488.467	6805.63
488.837	6975.79
489.207	6994.1
489.578	7024.15
489.948	7022.34
490.318	7171.94
490.688	7177.37
491.058	7295.78
491.428	7310.25
491.798	7337.36
492.168	7521.77
492.538	7515.44
492.908	7506.17
493.278	7628.43
493.648	7600.41
494.017	7705.26
494.387	7770.8
494.757	7766.73
495.126	7837.69
495.496	7845.82
495.866	7847.86
496.235	7983.45
496.605	7939.83
496.974	7998.36
497.344	8026.84
497.713	8062.32
498.082	8076.1
498.452	8135.99
498.821	8148.42
499.19	8147.51
499.559	8266.38
499.928	8245.59
500.298	8273.16
500.667	8354.96
501.036	8301.86
501.405	8460.72
501.774	8383.44
502.143	8449.65
502.512	8476.09
502.88	8475.19
503.249	8507.28
503.618	8561.96
503.987	8569.42
504.356	8586.14
504.724	8569.65
505.093	8626.6
505.462	8677.22
505.83	8715.63
506.199	8724.67
506.567	8772.35
506.936	8784.11
507.304	8841.28
507.672	8903.88
508.041	8888.74
508.409	8961.05
508.777	8982.29
509.145	9084.21
509.514	8995.4
509.882	9112.46
510.25	9103.87
510.618	9089.86
510.986	9118.33
511.354	9256.86
511.722	9215.05
512.09	9298.89
512.458	9262.74
512.826	9271.55
513.193	9309.74
513.561	9310.19
513.929	9396.29
514.297	9487.59
514.664	9483.3
515.032	9505.44
515.4	9568.49
515.767	9537.31
516.135	9655.04
516.502	9465.44
516.869	9688.04
517.237	9701.6
517.604	9638.55
517.972	9797.64
518.339	9822.72
518.706	9793.57
519.073	9798.09
519.44	9828.6
519.808	9987.46
520.175	9916.28
520.542	9989.27
520.909	10012.32
521.276	10005.99
521.643	10090.51
522.009	10180.45
522.376	10196.05
522.743	10223.84
523.11	10294.12
523.477	10340.45
523.843	10349.26
524.21	10446.21
524.577	10540.67
524.943	10559.43
525.31	10612.98
525.676	10564.62
526.043	10689.14
526.409	10687.56
526.776	10777.95
527.142	10825.86
527.508	10893.65
527.874	10986.76
528.241	10976.14
528.607	11024.95
528.973	11050.49
529.339	11058.85
529.705	11198.28
530.071	11293.64
530.437	11225.62
530.803	11287.77
531.169	11326.86
531.535	11308.33
531.901	11448.44
532.267	11398.73
532.632	11534.99
532.998	11445.05
533.364	11558.95
533.73	11615.44
534.095	11647.08
534.461	11675.55
534.826	11759.17
535.192	11762.11
535.557	11824.7
535.923	11794.42
536.288	11867.87
536.653	11942.89
537.019	11903.35
537.384	11934.98
537.749	11954.19
538.114	12020.86
538.479	12106.73
538.845	12157.8
539.21	12106.05
539.575	12272.6
539.94	12204.58
540.305	12322.32
540.67	12176.11
541.034	12298.14
541.399	12317.57
541.764	12425.82
542.129	12378.36
542.494	12513.5
542.858	12508.53
543.223	12474.86
543.587	12575.42
543.952	12555.53
544.316	12640.05
544.681	12568.86
545.045	12640.5
545.41	12674.62
545.774	12711.01
546.138	12739.03
546.503	12819.03
546.867	12771.34
547.231	12838.69
547.595	12859.25
547.959	12954.84
548.324	12946.71
548.688	12941.74
549.052	13012.47
549.416	13016.31
549.779	12962.98
550.143	13115.74
550.507	13159.13
550.871	13139.02
551.235	13130.66
551.599	13198.23
551.962	13322.97
552.326	13281.16
552.689	13348.5
553.053	13313.93
553.417	13319.13
553.78	13412.23
554.143	13418.33
554.507	13533.36
554.87	13542.4
555.234	13579.91
555.597	13483.87
555.96	13554.38
556.323	13605
556.686	13673.02
557.05	13762.96
557.413	13797.98
557.776	13814.71
558.139	13909.85
558.502	13840.02
558.865	13852.45
559.228	13930.41
559.59	14035.04
559.953	14014.48
560.316	14131.08
560.679	14118.65
561.041	14117.52
561.404	14237.75
561.767	14314.13
562.129	14262.61
562.492	14414.01
562.854	14325.43
563.217	14352.77
563.579	14481.13
563.941	14490.17
564.304	14635.7
564.666	14677.28
565.028	14793.44
565.39	14723.16
565.753	14933.55
566.115	14914.79
566.477	14920.22
566.839	15036.6
567.201	15078.18
567.563	15028.91
567.925	15092.64
568.287	15248.79
568.648	15241.11
569.01	15283.6
569.372	15439.98
569.734	15431.16
570.095	15444.04
570.457	15539.86
570.819	15542.57
571.18	15569.01
571.542	15693.75
571.903	15669.35
572.265	15767.2
572.626	15836.8
572.987	15818.27
573.349	15907.08
573.71	16016.68
574.071	15985.72
574.432	16037.47
574.794	16215.1
575.155	16042.67
575.516	16132.16
575.877	16205.6
576.238	16262.78
576.599	16310.69
576.96	16321.53
577.32	16318.6
577.681	16372.15
578.042	16427.52
578.403	16390.91
578.763	16409.67
579.124	16448.54
579.485	16544.35
579.845	16647.85
580.206	16652.82
580.566	16596.33
580.927	16641.98
581.287	16734.18
581.648	16589.32
582.008	16689.89
582.368	16678.13
582.728	16769.21
583.089	16770.56
583.449	16797.91
583.809	16832.93
584.169	16853.27
584.529	16800.39
584.889	16957
585.249	16774.86
585.609	16786.83
585.969	16885.59
586.329	16773.27
586.688	16878.58
587.048	16871.12
587.408	16873.84
587.768	16903.44
588.127	16905.25
588.487	16828.87
588.846	16964.91
589.206	16982.08
589.565	16853.05
589.925	17029.09
590.284	16980.73
590.643	16990.67
591.003	17013.04
591.362	17070.67
591.721	17084.68
592.08	17095.98
592.44	17062.31
592.799	17015.3
593.158	17079.48
593.517	17105.47
593.876	17178.23
594.235	17128.74
594.593	17109.99
594.952	17213.04
595.311	17120.16
595.67	17275.86
596.029	17277.44
596.387	17218.69
596.746	17324.22
597.104	17176.43
597.463	17211.91
597.822	17316.08
598.18	17216.2
598.538	17221.4
598.897	17334.84
599.255	17248.74
599.613	17463.88
599.972	17265.24
600.33	17352.47
600.688	17328.06
601.046	17328.97
601.404	17336.2
601.762	17335.74
602.12	17499.13
602.478	17357.67
602.836	17418.68
603.194	17399.25
603.552	17405.57
603.91	17298.23
604.268	17418.23
604.625	17448.96
604.983	17464.55
605.341	17446.7
605.698	17450.32
606.056	17559.69
606.413	17528.96
606.771	17582.07
607.128	17597.66
607.485	17507.94
607.843	17571.9
608.2	17634.49
608.557	17639.01
608.914	17627.04
609.272	17731.89
609.629	17636.53
609.986	17793.59
610.343	17714.49
610.7	17755.62
611.057	17727.82
611.414	17702.97
611.771	17761.04
612.127	17815.51
612.484	17870.65
612.841	17935.28
613.198	17898.67
613.554	17931.66
613.911	17976.18
614.267	17959.68
614.624	17879.91
614.98	17942.96
615.337	18070.19
615.693	17999.23
616.05	17972.56
616.406	18100.24
616.762	18025.22
617.118	18000.13
617.475	18058.44
617.831	18127.14
618.187	18106.8
618.543	18144.31
618.899	18198.55
619.255	18225.21
619.611	18254.36
619.967	18234.93
620.323	18285.1
620.678	18168.27
621.034	18208.26
621.39	18242.16
621.746	18217.98
622.101	18485.32
622.457	18306.11
622.812	18294.82
623.168	18357.64
623.523	18446.45
623.879	18443.06
624.234	18328.71
624.589	18406.9
624.945	18466.34
625.3	18435.83
625.655	18387.47
626.01	18491.65
626.365	18601.93
626.72	18463.17
627.075	18462.27
627.43	18457.07
627.785	18365.77
628.14	18571.42
628.495	18667.69
628.85	18459.11
629.205	18519.67
629.559	18592.89
629.914	18549.5
630.269	18581.36
630.623	18547.24
630.978	18588.14
631.332	18528.03
631.687	18770.51
632.041	18625.88
632.396	18581.36
632.75	18574.13
633.104	18579.78
633.459	18543.17
633.813	18627.24
634.167	18681.7
634.521	18602.6
634.875	18728.48
635.229	18693.9
635.583	18641.47
635.937	18617.97
636.291	18634.92
636.645	18682.6
636.999	18663.62
637.352	18684.86
637.706	18663.39
638.06	18738.19
638.413	18716.73
638.767	18578.2
639.121	18618.2
639.474	18629.5
639.828	18616.62
640.181	18687.8
640.534	18616.62
640.888	18596.05
641.241	18627.01
641.594	18615.26
641.947	18751.75
642.301	18622.49
642.654	18646.67
643.007	18723.96
643.36	18753.33
643.713	18696.16
644.066	18831.75
644.419	18685.09
644.771	18580.23
645.124	18338.66
645.477	18352.22
645.83	18220.92
646.182	18224.76
646.535	18277.64
646.888	18462.95
647.24	18326.23
647.593	18502.95
647.945	18375.94
648.298	18434.02
648.65	18316.96
649.002	18328.71
649.355	18372.33
649.707	18379.33
650.059	18526.45
650.411	18695.26
650.763	18756.27
651.115	19008.47
651.467	18911.75
651.819	18974.57
652.171	18973.89
652.523	18996.72
652.875	19024.51
653.227	18810.51
653.578	19024.97
653.93	19037.62
654.282	18999.2
654.633	18964.18
654.985	19041.91
655.337	18992.2
655.688	19076.26
656.039	19141.8
656.391	18989.94
656.742	19039.2
657.094	18893.22
657.445	19142.02
657.796	19041.01
658.147	18992.2
658.498	18942.71
658.849	19138.18
659.2	19085.53
659.551	19024.51
659.902	19178.86
660.253	19109.48
660.604	19088.47
660.955	19115.13
661.306	19200.1
661.656	19040.78
662.007	19143.61
662.358	19164.4
662.708	19155.81
663.059	19146.32
663.409	19047.11
663.76	19183.15
664.11	19083.72
664.461	19178.63
664.811	19199.42
665.161	19132.31
665.511	19127.11
665.862	19057.51
666.212	19271.74
666.562	19312.87
666.912	19168.46
667.262	19104.06
667.612	19063.83
667.962	19067.9
668.312	19000.79
668.662	19222.93
669.011	19165.75
669.361	19096.15
669.711	19119.88
670.06	18915.14
670.41	18998.07
670.76	19023.16
671.109	19011.63
671.459	18936.61
671.808	18908.13
672.157	18923.73
672.507	18878.53
672.856	18793.33
673.205	18858.19
673.554	18831.07
673.904	18822.26
674.253	18821.13
674.602	18798.31
674.951	18490.74
675.3	18393.57
675.649	18620.68
675.998	18662.72
676.346	18628.59
676.695	18681.25
677.044	18478.54
677.393	18527.35
677.741	18498.65
678.09	18488.48
678.438	18388.6
678.787	18425.89
679.135	18314.93
679.484	18255.95
679.832	18344.98
680.181	18187.25
680.529	18289.17
680.877	18183.41
681.225	18116.06
681.573	18177.08
681.922	17999.91
682.27	18016.86
682.618	17954.94
682.966	18041.04
683.314	17977.76
683.661	17916.97
684.009	17886.92
684.357	17924.43
684.705	17677.43
685.053	17885.56
685.4	17757.2
685.748	17695.74
686.095	17734.15
686.443	17662.29
686.79	17638.79
687.138	17643.08
687.485	17684.44
687.832	17521.5
688.18	17552.69
688.527	17570.31
688.874	17548.17
689.221	17520.82
689.568	17415.06
689.915	17395.4
690.262	17413.48
690.609	17288.97
690.956	17286.03
691.303	17353.15
691.65	17301.62
691.997	17196.31
692.344	17177.78
692.69	17255.97
693.037	17195.41
693.383	16995.41
693.73	17125.35
694.077	16987.51
694.423	17092.81
694.769	16932.59
695.116	16919.26
695.462	16952.48
695.808	16858.24
696.155	16881.52
696.501	16712.71
696.847	16805.14
697.193	16687.17
697.539	16790
697.885	16610.34
698.231	16695.08
698.577	16643.56
698.923	16676.33
699.269	16675.65
699.614	16558.82
699.96	16442.43
700.306	16545.48
700.651	16394.53
700.997	16412.38
701.342	16451.02
701.688	16421.64
702.033	16392.94
702.379	16431.36
702.724	16348.88
703.069	16345.94
703.415	16324.25
703.76	16231.14
704.105	16237.02
704.45	16234.76
704.795	16115.66
705.14	16115.21
705.485	16077.7
705.83	16015.1
706.175	16085.38
706.52	16021.2
706.865	15923.13
707.209	16130.35
707.554	15950.92
707.899	16032.95
708.243	15988.44
708.588	15944.59
708.932	15819.17
709.277	15779.85
709.621	15920.41
709.966	15770.14
710.31	15812.39
710.654	15751.38
710.998	15906.86
711.342	15853.3
711.687	15748.67
712.031	15664.6
712.375	15648.56
712.719	15686.52
713.063	15721.32
713.407	15860.98
713.75	15743.24
714.094	15619.41
714.438	15726.75
714.782	15708.67
715.125	15511.16
715.469	15595.9
715.812	15549.35
716.156	15516.36
716.499	15510.48
716.843	15535.57
717.186	15451.05
717.53	15569.92
717.873	15622.12
718.216	15566.07
718.559	15435.68
718.902	15372.41
719.246	15473.42
719.589	15453.08
719.932	15364.95
720.275	15304.16
720.617	15321.79
720.96	15330.6
721.303	15436.13
721.646	15372.86
721.989	15315.23
722.331	15407.66
722.674	15261.22
723.016	15279.3
723.359	15340.32
723.701	15367.43
724.044	15214.44
724.386	15234.56
724.729	15295.12
725.071	15267.1
725.413	15261.22
725.755	15251.28
726.097	15170.15
726.439	15165.41
726.782	15202.24
727.124	15208.34
727.465	15151.85
727.807	15139.19
728.149	15171.73
728.491	15147.55
728.833	15178.74
729.175	15147.55
729.516	15192.3
729.858	15100.1
730.199	15167.44
730.541	15129.25
730.882	15137.61
731.224	15177.84
731.565	15103.94
731.906	15191.39
732.248	15185.52
732.589	15103.04
732.93	15207.67
733.271	15069.36
733.612	15094
733.953	15186.87
734.294	15195.69
734.635	15127.89
734.976	15215.35
735.317	15136.48
735.658	15101.45
735.999	15192.07
736.339	15214.22
736.68	15312.3
737.021	15233.88
737.361	15190.04
737.702	15326.98
738.042	15228.23
738.383	15313.88
738.723	15284.95
739.063	15282.24
739.404	15345.51
739.744	15303.48
740.084	15295.8
740.424	15365.85
740.764	15287.66
741.104	15451.73
741.444	15364.95
741.784	15300.09
742.124	15417.38
742.464	15462.57
742.804	15485.62
743.143	15433.42
743.483	15531.5
743.823	15416.47
744.162	15549.58
744.502	15527.43
744.841	15520.65
745.181	15688.78
745.52	15630.48
745.86	15714.77
746.199	15664.15
746.538	15686.97
746.877	15776.69
747.216	15865.73
747.556	15768.1
747.895	15877.03
748.234	15844.03
748.573	15867.53
748.911	15882.9
749.25	16033.18
749.589	15933.07
749.928	15975.1
750.267	16086.51
750.605	16035.44
750.944	15982.56
751.283	16009.9
751.621	16150.01
751.96	16068.21
752.298	16120.86
752.636	16176.68
752.975	16069.11
753.313	16081.09
753.651	16202.22
753.989	16171.26
754.327	16199.28
754.666	16220.97
755.004	16294.42
755.342	16311.82
755.679	16370.12
756.017	16296
756.355	16407.18
756.693	16361.31
757.031	16429.78
757.368	16363.34
757.706	16318.6
758.044	16390.68
758.381	16472.49
758.719	16494.18
759.056	16561.08
759.394	16480.17
759.731	16436.33
760.068	16511.13
760.405	16510.68
760.743	16587.06
761.08	16639.27
761.417	16583.45
761.754	16597.69
762.091	16604.46
762.428	16599.49
762.765	16546.39
763.102	16686.5
763.438	16622.09
763.775	16499.38
764.112	16660.06
764.449	16715.87
764.785	16618.7
765.122	16606.72
765.458	16618.48
765.795	16593.62
766.131	16667.29
766.467	16568.53
766.804	16533.28
767.14	16629.1
767.476	16573.73
767.812	16625.25
768.148	16651.92
768.485	16524.01
768.821	16517.46
769.157	16623
769.492	16585.26
769.828	16576.89
770.164	16413.74
770.5	16430.01
770.836	16569.89
771.171	16487.63
771.507	16539.38
771.842	16391.59
772.178	16506.61
772.513	16490.8
772.849	16503.22
773.184	16330.12
773.519	16426.62
773.855	16418.71
774.19	16406.96
774.525	16321.08
774.86	16415.99
775.195	16392.04
775.53	16323.79
775.865	16314.98
776.2	16261.42
776.535	16258.03
776.87	16291.25
777.205	16183.68
777.539	16192.05
777.874	16272.72
778.209	16138.04
778.543	16212.16
778.878	16113.4
779.212	16115.44
779.547	16040.64
779.881	16105.04
780.215	16150.92
780.55	16169.22
780.884	16067.76
781.218	15965.61
781.552	16018.04
781.886	16001.99
782.22	15971.49
782.554	15928.1
782.888	15782.11
783.222	15778.72
783.556	15826.41
783.889	15789.57
784.223	15707.31
784.557	15821.43
784.89	15842.68
785.224	15668.67
785.557	15708.44
785.891	15573.53
786.224	15642.68
786.558	15683.58
786.891	15509.35
787.224	15502.57
787.557	15521.56
787.891	15489.01
788.224	15527.88
788.557	15662.34
788.89	15479.97
789.223	15459.18
789.556	15402.01
789.888	15425.51
790.221	15318.17
790.554	15337.61
790.887	15304.84
791.219	15189.36
791.552	15285.4
791.884	15240.21
792.217	15151.85
792.549	15146.88
792.882	15055.8
793.214	15092.64
793.546	15134.22
793.879	15071.17
794.211	15034.11
794.543	15103.26
794.875	15027.1
795.207	15100.55
795.539	14959.08
795.871	14990.04
796.203	14932.42
796.535	14884.51
796.867	14834.34
797.198	14802.93
797.53	14868.69
797.862	14769.03
798.193	14822.14
798.525	14765.64
798.856	14812.42
799.188	14625.99
799.519	14578.08
799.85	14598.64
800.182	14607.45
800.513	14610.17
800.844	14474.58
801.175	14541.92
801.506	14534.46
801.837	14523.62
802.168	14524.97
802.499	14416.73
802.83	14445.65
803.161	14457.4
803.491	14383.28
803.822	14375.14
804.153	14333.34
804.483	14236.62
804.814	14287.01
805.145	14194.13
805.475	14302.6
805.805	14159.56
806.136	14195.71
806.466	14068.26
806.796	14099.45
807.126	14082.72
807.457	14066
807.787	14089.05
808.117	13989.39
808.447	13919.11
808.777	14025.55
809.107	13948.26
809.436	13936.06
809.766	13937.42
810.096	13840.7
810.426	13827.14
810.755	13807.48
811.085	13779.45
811.414	13748.95
811.744	13690.64
812.073	13656.52
812.403	13718.44
812.732	13677.31
813.061	13653.36
813.39	13592.57
813.719	13538.78
814.049	13579.69
814.378	13523.19
814.707	13492.91
815.036	13524.55
815.365	13499.01
815.693	13431.89
816.022	13400.03
816.351	13350.09
816.68	13242.75
817.008	13380.82
817.337	13240.26
817.665	13237.55
817.994	13332.69
818.322	13230.54
818.651	13153.93
818.979	13130.21
819.307	13199.58
819.636	13157.78
819.964	13088.62
820.292	13172.01
820.62	13180.83
820.948	13146.93
821.276	13122.75
821.604	13108.51
821.932	13116.19
822.259	13158.45
822.587	13062.41
822.915	13097.44
823.243	13190.77
823.57	13040.26
823.898	13095.86
824.225	13094.5
824.553	13155.74
824.88	13109.87
825.207	13093.6
825.535	13097.21
825.862	13176.98
826.189	13094.73
826.516	13125.23
826.843	13213.82
827.17	13213.59
827.497	13151.22
827.824	13153.48
828.151	13273.7
828.478	13236.19
828.805	13246.13
829.131	13152.58
829.458	13153.48
829.785	13065.35
830.111	13226.93
830.438	13178.11
830.764	13164.33
831.09	13254.04
831.417	13151.67
831.743	13243.65
832.069	13205.91
832.395	13126.82
832.722	13237.77
833.048	13193.48
833.374	13151.45
833.7	13160.26
834.026	13092.69
834.351	13210.43
834.677	13165.91
835.003	13155.52
835.329	13145.35
835.654	13125.91
835.98	12972.7
836.306	13081.62
836.631	13015.18
836.956	13143.09
837.282	13042.52
837.607	12944.45
837.932	13002.53
838.258	12969.98
838.583	12968.85
838.908	12922.75
839.233	12969.76
839.558	13007.95
839.883	12858.35
840.208	12814.28
840.533	12815.19
840.858	12903.77
841.182	12924.79
841.507	12876.2
841.832	12769.54
842.156	12829.42
842.481	12768.41
842.805	12734.28
843.13	12683.21
843.454	12679.82
843.778	12639.15
844.103	12674.4
844.427	12631.24
844.751	12574.74
845.075	12553.72
845.399	12459.94
845.723	12504.46
846.047	12521.86
846.371	12298.59
846.695	12437.34
847.019	12339.72
847.343	12326.38
847.666	12298.59
847.99	12166.62
848.313	12147.63
848.637	12029.44
848.96	12040.74
849.284	12051.14
849.607	11894.98
849.931	11930.46
850.254	11906.73
850.577	11762.33
850.9	11667.19
851.223	11671.71
851.546	11653.18
851.869	11555.11
852.192	11687.31
852.515	11542.68
852.838	11519.4
853.161	11449.35
853.483	11460.42
853.806	11340.87
854.129	11320.76
854.451	11360.31
854.774	11192.4
855.096	11280.54
855.419	11199.86
855.741	11272.18
856.063	11152.4
856.385	11127.09
856.708	11074.21
857.03	11007.1
857.352	11072.41
857.674	10942.69
857.996	10989.24
858.318	10884.61
858.64	10903.82
858.961	10933.43
859.283	10845.07
859.605	10775.92
859.926	10860.21
860.248	10764.17
860.57	10733.21
860.891	10784.73
861.212	10736.14
861.534	10673.77
861.855	10667.9
862.176	10652.3
862.498	10685.75
862.819	10649.37
863.14	10587
863.461	10567.34
863.782	10555.13
864.103	10590.16
864.424	10546.09
864.745	10566.43
865.065	10489.37
865.386	10469.03
865.707	10491.86
866.027	10446.89
866.348	10408.02
866.668	10385.19
866.989	10347.68
867.309	10302.94
867.63	10311.75
867.95	10306.1
868.27	10238.76
868.59	10300.45
868.91	10271.07
869.23	10248.02
869.55	10144.07
869.87	10228.36
870.19	10149.94
870.51	10208.47
870.83	10268.36
871.15	10139.78
871.469	10223.39
871.789	10145.65
872.109	10131.19
872.428	10089.83
872.748	10163.73
873.067	10037.18
873.386	10055.26
873.706	10031.3
874.025	9967.8
874.344	9988.14
874.663	9984.53
874.982	9939.1
875.301	9982.04
875.62	9885.32
875.939	9864.3
876.258	9938.43
876.577	9897.52
876.896	9921.25
877.214	9842.83
877.533	9852.1
877.852	9800.58
878.17	9894.58
878.489	9883.51
878.807	9777.98
879.125	9745.21
879.444	9791.08
879.762	9737.53
880.08	9807.58
880.398	9701.14
880.716	9779.56
881.034	9674.93
881.352	9666.79
881.67	9677.19
881.988	9631.99
882.306	9651.43
882.624	9561.03
882.941	9415.05
883.259	9543.86
883.577	9520.58
883.894	9518.78
884.212	9439
884.529	9425.44
884.846	9402.62
885.164	9443.97
885.481	9414.15
885.798	9422.51
886.115	9288.05
886.432	9274.49
886.75	9336.86
887.067	9278.78
887.383	9258.44
887.7	9240.82
888.017	9182.29
888.334	9135.96
888.651	9215.73
888.967	9118.79
889.284	9118.33
889.6	9126.47
889.917	9036.98
890.233	9052.35
890.55	8987.04
890.866	9054.38
891.182	8944.33
891.498	9002.4
891.815	8831.79
892.131	8956.08
892.447	8853.93
892.763	8865.68
893.079	8865.68
893.395	8793.37
893.71	8786.82
894.026	8718.12
894.342	8781.85
894.657	8665.24
894.973	8594.73
895.289	8678.57
895.604	8629.08
895.92	8551.34
896.235	8486.94
896.55	8577.56
896.865	8512.7
897.181	8465.7
897.496	8447.39
897.811	8417.56
898.126	8420.95
898.441	8378.47
898.756	8366.49
899.071	8364.46
899.386	8349.77
899.7	8250.56
900.015	8244.68
900.33	8197.68
900.644	8127.4
900.959	8149.55
901.273	8091.24
901.588	8104.58
901.902	8032.71
902.216	8039.27
902.531	8091.92
902.845	7913.39
903.159	7896.22
903.473	7906.16
903.787	7849.44
904.101	7855.99
904.415	7776.45
904.729	7772.61
905.042	7740.74
905.356	7734.64
905.67	7720.86
905.984	7649.9
906.297	7686.28
906.611	7576
906.924	7601.99
907.237	7495.1
907.551	7536.23
907.864	7514.99
908.177	7463.46
908.491	7448.55
908.804	7336.91
909.117	7377.81
909.43	7332.17
909.743	7336.69
910.056	7260.08
910.368	7234.99
910.681	7194.09
910.994	7216.01
911.307	7199.74
911.619	7136.46
911.932	7141.89
912.244	7072.06
912.557	7067.09
912.869	7064.6
913.181	7019.41
913.494	6989.35
913.806	6962.91
914.118	6901.44
914.43	6893.31
914.742	6909.35
915.054	6826.42
915.366	6798.39
915.678	6830.48
915.99	6756.14
916.302	6690.15
916.613	6668.91
916.925	6649.47
917.236	6642.01
917.548	6626.42
917.859	6602.02
918.171	6565.63
918.482	6479.98
918.794	6496.93
919.105	6475.92
919.416	6383.26
919.727	6471.17
920.038	6425.75
920.349	6359.54
920.66	6335.13
920.971	6386.65
921.282	6272.98
921.593	6300.1
921.903	6248.8
922.214	6222.59
922.525	6211.97
922.835	6171.74
923.146	6158.64
923.456	6080
923.767	6093.33
924.077	6071.86
924.387	6032.31
924.697	6036.83
925.008	5995.25
925.318	6012.88
925.628	5932.2
925.938	5898.31
926.248	5845.2
926.558	5838.87
926.867	5861.92
927.177	5802.94
927.487	5783.73
927.796	5732.89
928.106	5750.96
928.416	5682.27
928.725	5702.38
929.034	5660.57
929.344	5694.24
929.653	5668.25
929.962	5629.39
930.271	5560.46
930.581	5556.17
930.89	5517.98
931.199	5456.74
931.508	5462.84
931.817	5426.91
932.125	5387.81
932.434	5406.57
932.743	5298.1
933.051	5333.12
933.36	5273.69
933.669	5323.41
933.977	5269.17
934.286	5296.97
934.594	5271.88
934.902	5256.29
935.21	5183.3
935.519	5172
935.827	5157.31
936.135	5127.25
936.443	5079.8
936.751	5084.99
937.059	5055.16
937.367	5065.56
937.674	5035.5
937.982	5039.57
938.29	4966.35
938.597	4937.88
938.905	4954.15
939.213	4878.67
939.52	4880.25
939.827	4904.66
940.135	4861.72
940.442	4845.45
940.749	4842.97
941.056	4841.61
941.363	4741.95
941.67	4764.78
941.977	4733.14
942.284	4714.38
942.591	4680.03
942.898	4666.02
943.205	4666.47
943.511	4609.53
943.818	4626.47
944.125	4580.83
944.431	4570.88
944.738	4550.54
945.044	4511.68
945.35	4526.36
945.657	4524.1
945.963	4470.32
946.269	4452.47
946.575	4445.69
946.881	4391.9
947.187	4402.98
947.493	4430.32
947.799	4392.81
948.105	4344.67
948.41	4353.26
948.716	4305.35
949.022	4287.27
949.327	4240.5
949.633	4215.19
949.938	4227.16
950.244	4238.91
950.549	4161.85
950.854	4212.47
951.16	4146.49
951.465	4118.24
951.77	4127.28
952.075	4137
952.38	4097.67
952.685	4045.7
952.99	4023.55
953.294	4041.63
953.599	3990.11
953.904	4014.06
954.209	3957.34
954.513	3988.98
954.818	3966.38
955.122	3915.53
955.426	3904.23
955.731	3842.09
956.035	3860.39
956.339	3881.64
956.643	3879.15
956.948	3864.46
957.252	3805.48
957.556	3821.52
957.86	3780.85
958.163	3764.58
958.467	3812.03
958.771	3763.45
959.075	3715.76
959.378	3702.2
959.682	3705.14
959.985	3657.23
960.289	3659.49
960.592	3631.47
960.896	3638.48
961.199	3609.1
961.502	3610.46
961.805	3590.12
962.108	3562.1
962.411	3555.54
962.714	3535.66
963.017	3496.79
963.32	3526.16
963.623	3495.43
963.926	3484.81
964.228	3426.05
964.531	3445.71
964.833	3436.9
965.136	3438.48
965.438	3365.94
965.741	3399.16
966.043	3339.05
966.345	3348.99
966.648	3330.69
966.95	3310.35
967.252	3298.83
967.554	3307.19
967.856	3289.56
968.158	3257.02
968.46	3249.56
968.761	3245.95
969.063	3206.85
969.365	3186.06
969.666	3201.43
969.968	3147.42
970.269	3142.9
970.571	3140.41
970.872	3116.46
971.174	3095.44
971.475	3143.8
971.776	3106.06
972.077	3093.41
972.378	3052.73
972.679	3066.52
972.98	3039.62
973.281	3045.05
973.582	3030.58
973.883	2982.9
974.183	2973.41
974.484	2996.46
974.785	2938.38
975.085	2978.61
975.386	2931.6
975.686	2921.43
975.986	2904.94
976.287	2890.93
976.587	2914.88
976.887	2875.56
977.187	2888.44
977.487	2819.97
977.787	2855.45
978.087	2867.88
978.387	2827.43
978.687	2799.18
978.987	2771.61
979.286	2753.98
979.586	2779.97
979.885	2755.11
980.185	2720.54
980.484	2694.77
980.784	2697.49
981.083	2701.1
981.382	2731.83
981.682	2663.14
981.981	2669.01
982.28	2679.41
982.579	2644.38
982.878	2633.53
983.177	2625.17
983.475	2642.57
983.774	2593.53
984.073	2610.93
984.372	2567.32
984.67	2567.32
984.969	2597.15
985.267	2557.38
985.566	2521.9
985.864	2527.09
986.162	2508.56
986.461	2491.39
986.759	2491.62
987.057	2479.64
987.355	2501.78
987.653	2451.84
987.951	2428.34
988.249	2413.43
988.547	2420.66
988.844	2417.94
989.142	2409.13
989.44	2395.57
989.737	2358.74
990.035	2384.95
990.332	2341.79
990.63	2326.42
990.927	2336.82
991.224	2302.24
991.521	2323.26
991.819	2326.2
992.116	2320.09
992.413	2290.49
992.71	2289.59
993.006	2278.51
993.303	2258.63
993.6	2249.36
993.897	2230.38
994.193	2244.39
994.49	2204.84
994.787	2211.17
995.083	2164.84
995.379	2196.93
995.676	2183.6
995.972	2146.99
996.268	2134.56
996.565	2118.52
996.861	2129.14
997.157	2139.76
997.453	2083.26
997.749	2098.18
998.044	2087.56
998.34	2078.74
998.636	2078.74
998.932	2067.9
999.227	2012.53
999.523	2022.93
999.818	2005.53
1000.114	1999.42
1000.409	1961.23
1000.704	1994.68
1001	1993.32
1001.295	1976.6
1001.59	1979.09
1001.885	2014.11
1002.18	1918.52
1002.475	1907.45
1002.77	1909.94
1003.065	1902.7
1003.359	1880.78
1003.654	1876.72
1003.949	1858.86
1004.243	1863.61
1004.538	1872.65
1004.832	1840.78
1005.127	1854.34
1005.421	1840.11
1005.715	1853.21
1006.009	1790.39
1006.304	1787.45
1006.598	1798.3
1006.892	1771.86
1007.186	1750.39
1007.48	1764.63
1007.773	1745.42
1008.067	1723.5
1008.361	1723.73
1008.655	1721.24
1008.948	1692.77
1009.242	1709.49
1009.535	1655.93
1009.829	1674.91
1010.122	1676.04
1010.415	1699.32
1010.708	1633.78
1011.001	1631.98
1011.295	1654.12
1011.588	1614.12
1011.881	1612.54
1012.173	1642.15
1012.466	1591.98
1012.759	1568.02
1013.052	1610.96
1013.344	1584.07
1013.637	1570.06
1013.93	1559.44
1014.222	1545.43
1014.514	1557.63
1014.807	1548.59
1015.099	1529.61
1015.391	1518.53
1015.683	1511.53
1015.976	1506.1
1016.268	1470.85
1016.56	1471.53
1016.851	1506.78
1017.143	1467.46
1017.435	1442.38
1017.727	1444.86
1018.018	1422.49
1018.31	1404.19
1018.602	1412.55
1018.893	1396.95
1019.185	1401.25
1019.476	1381.14
1019.767	1384.07
1020.058	1379.55
1020.35	1357.63
1020.641	1337.07
1020.932	1319.89
1021.223	1343.17
1021.514	1338.65
1021.804	1305.43
1022.095	1292.55
1022.386	1293.45
1022.677	1296.84
1022.967	1261.59
1023.258	1286
1023.548	1271.08
1023.839	1253.46
1024.129	1269.5
1024.419	1229.95
1024.709	1206.9
1025	1235.83
1025.29	1237.18
1025.58	1208.26
1025.87	1213.68
1026.16	1185.66
1026.449	1207.13
1026.739	1181.37
1027.029	1186.34
1027.319	1184.08
1027.608	1149.28
1027.898	1152.67
1028.187	1141.59
1028.477	1143.85
1028.766	1122.16
1029.055	1134.36
1029.344	1105.66
1029.634	1096.17
1029.923	1133.91
1030.212	1099.11
1030.501	1082.16
1030.79	1069.73
1031.078	1066.57
1031.367	1053.24
1031.656	1059.79
1031.945	1022.28
1032.233	1046.23
1032.522	1052.56
1032.81	1022.5
1033.099	1021.15
1033.387	1034.25
1033.675	1007.36
1033.963	989.28
1034.251	1003.52
1034.54	1001.03
1034.828	977.98
1035.116	965.1
1035.403	983.86
1035.691	975.95
1035.979	960.13
1036.267	959.9
1036.554	927.59
1036.842	941.37
1037.129	914.26
1037.417	926.01
1037.704	910.19
1037.992	931.88
1038.279	912.45
1038.566	901.83
1038.853	901.83
1039.14	901.83
