Data from blue_shiny_book_FLMS001491_00070.txt Node
Date: Wed Feb 08 15:27:23 GMT 2017
User: dcchb
Spectrometer: FLMS00149
Trigger mode: 0
Integration Time (sec): 2.000000E-2
Scans to average: 10
Electric dark correction enabled: true
Nonlinearity correction enabled: false
Boxcar width: 0
XAxis mode: Wavelengths
Number of Pixels in Spectrum: 2048
>>>>>Begin Spectral Data<<<<<
341.393	-10.59
341.776	-10.59
342.16	-10.59
342.543	-57.6
342.927	-49.46
343.31	-63.47
343.693	-44.04
344.077	-49.46
344.46	-73.87
344.843	-44.26
345.226	-37.71
345.61	-42.23
345.993	-28.9
346.376	-16.47
346.759	-4.49
347.142	26.47
347.525	47.03
347.908	48.16
348.291	89.29
348.674	90.87
349.057	103.08
349.44	125.45
349.823	143.53
350.206	158.22
350.588	188.05
350.971	212.23
351.354	240.93
351.737	247.03
352.119	244.77
352.502	278.21
352.884	274.6
353.267	283.86
353.65	275.05
354.032	296.74
354.414	286.35
354.797	313.47
355.179	311.43
355.562	337.65
355.944	329.96
356.326	338.1
356.709	357.31
357.091	360.02
357.473	371.54
357.855	362.28
358.238	359.79
358.62	355.95
359.002	348.04
359.384	349.62
359.766	343.3
360.148	351.21
360.53	344.65
360.912	358.89
361.294	346.91
361.676	334.93
362.057	363.18
362.439	339.68
362.821	334.48
363.203	355.5
363.584	345.33
363.966	320.92
364.348	326.8
364.729	337.87
365.111	347.14
365.493	351.66
365.874	335.16
366.256	319.79
366.637	312.79
367.019	343.97
367.4	346.23
367.781	348.04
368.163	340.58
368.544	344.65
368.925	344.65
369.306	364.31
369.688	340.81
370.069	342.62
370.45	350.3
370.831	340.58
371.212	332.9
371.593	329.74
371.974	329.51
372.355	321.6
372.736	356.63
373.117	347.14
373.498	350.08
373.879	346.91
374.26	330.19
374.641	336.74
375.021	364.09
375.402	329.96
375.783	353.92
376.163	340.58
376.544	359.79
376.925	360.24
377.305	369.74
377.686	372.9
378.066	376.06
378.447	383.3
378.827	379
379.208	355.73
379.588	364.76
379.968	390.53
380.349	363.86
380.729	374.48
381.109	393.24
381.489	380.81
381.87	390.3
382.25	400.47
382.63	393.24
383.01	387.36
383.39	403.86
383.77	406.8
384.15	430.98
384.53	412.9
384.91	421.94
385.29	426.91
385.67	445.67
386.049	435.5
386.429	413.35
386.809	432.79
387.189	446.57
387.568	432.79
387.948	450.41
388.328	453.8
388.707	461.71
389.087	454.71
389.466	465.33
389.846	456.51
390.225	489.28
390.605	482.95
390.984	489.05
391.363	475.5
391.743	502.16
392.122	506.91
392.501	507.59
392.881	486.12
393.26	520.24
393.639	508.72
394.018	510.75
394.397	547.13
394.776	520.92
395.155	535.61
395.534	520.69
395.913	566.57
396.292	538.55
396.671	534.03
397.05	570.63
397.429	559.11
397.808	572.22
398.186	574.93
398.565	593.91
398.944	573.8
399.323	619
399.701	591.2
400.08	583.97
400.458	623.74
400.837	605.89
401.215	622.84
401.594	626
401.972	639.11
402.351	640.46
402.729	646.34
403.107	639.79
403.486	660.58
403.864	663.06
404.242	666.45
404.62	703.74
404.999	682.95
405.377	699.9
405.755	708.71
406.133	740.35
406.511	746.22
406.889	727.47
407.267	753
407.645	764.75
408.023	769.05
408.401	785.09
408.779	779.22
409.156	817.63
409.534	808.37
409.912	821.93
410.29	817.18
410.667	873.45
411.045	849.5
411.422	860.57
411.8	894.92
412.178	916.39
412.555	898.31
412.933	903.51
413.31	936.27
413.687	967.46
414.065	949.38
414.442	956.16
414.819	1011.98
415.197	1009.72
415.574	1017.63
415.951	1063.28
416.328	1059.21
416.705	1061.02
417.082	1043.39
417.46	1071.64
417.837	1079.77
418.214	1083.84
418.591	1089.94
418.967	1099.43
419.344	1132.88
419.721	1156.38
420.098	1158.42
420.475	1166.78
420.852	1170.17
421.228	1198.87
421.605	1218.3
421.982	1249.49
422.358	1245.65
422.735	1267.57
423.111	1274.12
423.488	1294.46
423.864	1282.03
424.241	1341.46
424.617	1318.41
424.994	1337.62
425.37	1352.54
425.746	1388.01
426.123	1417.84
426.499	1410.16
426.875	1446.77
427.251	1468.01
427.627	1494.68
428.003	1494
428.379	1508.24
428.756	1535.58
429.132	1568.8
429.507	1587.33
429.883	1623.71
430.259	1628.91
430.635	1663.71
431.011	1710.49
431.387	1737.38
431.763	1770.15
432.138	1776.93
432.514	1781.9
432.89	1785.52
433.265	1855.57
433.641	1878.4
434.016	1892.63
434.392	1929.02
434.767	1944.84
435.143	1968.56
435.518	2004.27
435.894	2005.63
436.269	2080.88
436.644	2087.43
437.02	2103.02
437.395	2112.52
437.77	2150.71
438.145	2196.35
438.52	2212.63
438.895	2242.46
439.271	2250.14
439.646	2320.65
440.021	2331.27
440.395	2360.87
440.77	2361.55
441.145	2388.44
441.52	2440.87
441.895	2435.22
442.27	2463.01
442.645	2448.33
443.019	2492.84
443.394	2509.57
443.769	2507.08
444.143	2490.36
444.518	2596.12
444.892	2546.18
445.267	2630.92
445.641	2710.24
446.016	2682.22
446.39	2699.62
446.764	2752.95
447.139	2749.56
447.513	2765.83
447.887	2725.15
448.262	2779.62
448.636	2782.55
449.01	2856.45
449.384	2890.35
449.758	2884.7
450.132	2953.4
450.506	2997.69
450.88	2997.46
451.254	3013.28
451.628	3051.93
452.002	3090.34
452.376	3125.82
452.75	3097.8
453.123	3185.48
453.497	3196.1
453.871	3250.56
454.244	3284.69
454.618	3322.65
454.992	3385.25
455.365	3432.03
455.739	3544.79
456.112	3533.95
456.486	3574.62
456.859	3632.7
457.232	3696.65
457.606	3666.6
457.979	3739.82
458.352	3811.91
458.725	3903.2
459.099	3880.15
459.472	3996.31
459.845	3992.47
460.218	4045.57
460.591	4119.47
460.964	4127.83
461.337	4264.32
461.71	4321.72
462.083	4410.53
462.456	4410.76
462.829	4422.74
463.201	4523.07
463.574	4543.41
463.947	4556.74
464.32	4663.63
464.692	4700.47
465.065	4738.89
465.438	4888.71
465.81	4868.15
466.183	4958.77
466.555	5128.25
466.928	5184.52
467.3	5155.15
467.672	5246.22
468.045	5416.83
468.417	5381.81
468.789	5488.7
469.161	5538.87
469.534	5613.21
469.906	5690.73
470.278	5763.49
470.65	5890.72
471.022	5946.99
471.394	6058.4
471.766	6127.78
472.138	6213.2
472.51	6388.79
472.882	6458.62
473.253	6514.43
473.625	6666.29
473.997	6793.75
474.369	6814.76
474.74	6930.24
475.112	7083.46
475.484	7209.78
475.855	7268.31
476.227	7346.05
476.598	7522.54
476.97	7663.56
477.341	7723.44
477.713	7842.31
478.084	8005.47
478.455	8251.79
478.827	8351.22
479.198	8587.6
479.569	8591.89
479.94	8881.6
480.311	8863.3
480.682	9067.59
481.053	9285.89
481.424	9461.93
481.795	9428.25
482.166	9622.37
482.537	9750.28
482.908	10095.81
483.279	10178.52
483.65	10346.2
484.021	10568.56
484.391	10623.7
484.762	10784.15
485.133	10922.68
485.503	11082.9
485.874	11376.9
486.244	11453.74
486.615	11703.45
486.985	11779.83
487.356	11924.46
487.726	12112.25
488.097	12427.72
488.467	12456.42
488.837	12786.58
489.207	12849.86
489.578	13142.28
489.948	13191.77
490.318	13400.81
490.688	13491.42
491.058	13724.64
491.428	14004.63
491.798	14120.79
492.168	14455.47
492.538	14531.85
492.908	14547.22
493.278	14858.39
493.648	14870.82
494.017	15018.39
494.387	15153.75
494.757	15357.14
495.126	15493.41
495.496	15605.49
495.866	15790.35
496.235	15976.56
496.605	16112.82
496.974	16243.89
497.344	16425.59
497.713	16530.67
498.082	16668.52
498.452	16897.89
498.821	16969.98
499.19	16957.1
499.559	17198.45
499.928	17350.53
500.298	17373.36
500.667	17620.36
501.036	17558.44
501.405	17935.83
501.774	17902.16
502.143	18214.24
502.512	18291.07
502.88	18394.35
503.249	18374.46
503.618	18503.04
503.987	18659.88
504.356	18859.42
504.724	18834.79
505.093	19110.49
505.462	19101.45
505.83	19348.22
506.199	19492.85
506.567	19775.55
506.936	19752.96
507.304	19944.36
507.672	20081.08
508.041	20194.53
508.409	20345.48
508.777	20623.21
509.145	20612.14
509.514	20793.15
509.882	20905.24
510.25	20994.96
510.618	21232.69
510.986	21236.76
511.354	21386.13
511.722	21589.74
512.09	21843.07
512.458	21785.9
512.826	21976.17
513.193	22164.19
513.561	22186.11
513.929	22551.98
514.297	22631.07
514.664	22877.17
515.032	22854.57
515.4	23175.24
515.767	23224.95
516.135	23392.18
516.502	23333.65
516.869	23855.22
517.237	23768.22
517.604	23752.62
517.972	24191.26
518.339	24268.99
518.706	24369.56
519.073	24418.37
519.44	24714.41
519.808	24957.79
520.175	24961.63
520.542	25372.47
520.909	25478
521.276	25546.48
521.643	25880.48
522.009	26037.99
522.376	26296.06
522.743	26390.07
523.11	26754.13
523.477	26895.82
523.843	27116.15
524.21	27305.07
524.577	27463.26
524.943	27493.09
525.31	27623.03
525.676	27871.16
526.043	28039.07
526.409	28281.09
526.776	28577.13
527.142	28614.42
527.508	28924.92
527.874	29216.89
528.241	29402.42
528.607	29474.28
528.973	29738.23
529.339	29765.8
529.705	30146.81
530.071	30462.28
530.437	30518.55
530.803	30803.74
531.169	30886.45
531.535	30817.97
531.901	30902.27
532.267	31067.01
532.632	31131.87
532.998	31374.34
533.364	31569.37
533.73	31581.12
534.095	31862.02
534.461	31939.3
534.826	32149.47
535.192	32416.13
535.557	32691.6
535.923	32744.48
536.288	32967.75
536.653	33154.41
537.019	33087.52
537.384	33366.16
537.749	33446.61
538.114	33466.49
538.479	33426.95
538.845	33684.11
539.21	33517.79
539.575	33684.57
539.94	33765.69
540.305	33845.01
540.67	33869.42
541.034	34104.44
541.399	34017.21
541.764	34210.43
542.129	34281.39
542.494	34474.15
542.858	34526.13
543.223	34928.6
543.587	35088.37
543.952	35090.63
544.316	35240.23
544.681	35363.39
545.045	35537.4
545.41	35823.27
545.774	35613.1
546.138	35567
546.503	35644.74
546.867	35741.01
547.231	35911.85
547.595	35929.25
547.959	35975.58
548.324	35999.76
548.688	36153.88
549.052	36202.47
549.416	36169.25
549.779	36232.3
550.143	36320.43
550.507	36603.13
550.871	36779.63
551.235	36683.58
551.599	37101.65
551.962	37314.08
552.326	37379.38
552.689	37615.76
553.053	37521.75
553.417	37606.05
553.78	37959.71
554.143	37779.37
554.507	37909.77
554.87	37972.14
555.234	38265.46
555.597	38077.67
555.96	38086.48
556.323	38198.8
556.686	38321.96
557.05	38429.53
557.413	38444.89
557.776	38600.6
558.139	38881.94
558.502	38989.96
558.865	39147.7
559.228	39475.6
559.59	39521.02
559.953	39658.19
560.316	40000.78
560.679	39900.45
561.041	40387.21
561.404	40638.96
561.767	40877.37
562.129	40725.51
562.492	40982.23
562.854	40823.81
563.217	40863.59
563.579	40865.39
563.941	41096.57
564.304	41200.75
564.666	41249.57
565.028	41169.34
565.39	41299.73
565.753	41651.81
566.115	41650.23
566.477	41768.65
566.839	41980.85
567.201	42250.22
567.563	42320.95
567.925	42753.25
568.287	43000.25
568.648	42999.12
569.01	43468.94
569.372	43643.4
569.734	43466
570.095	43660.8
570.457	43777.86
570.819	43894.47
571.18	43729.95
571.542	44013.79
571.903	43851.98
572.265	44029.38
572.626	44050.62
572.987	44087.23
573.349	44220.56
573.71	44323.61
574.071	44272.54
574.432	44501.91
574.794	44655.35
575.155	44694.9
575.516	44592.53
575.877	44936.02
576.238	44980.09
576.599	45112.51
576.96	45411.72
577.32	45414.65
577.681	45609
578.042	45885.38
578.403	45934.64
578.763	46079.49
579.124	46053.73
579.485	46107.97
579.845	46361.07
580.206	46056.22
580.566	45952.27
580.927	45960.85
581.287	46186.61
581.648	45895.54
582.008	45970.12
582.368	45913.4
582.728	45863
583.089	45976.67
583.449	45978.48
583.809	45973.28
584.169	46201.98
584.529	46119.04
584.889	46513.16
585.249	46344.12
585.609	46254.18
585.969	46496.21
586.329	46591.8
586.688	46750.66
587.048	46679.03
587.408	46734.62
587.768	46735.75
588.127	46814.16
588.487	46730.55
588.846	47093.48
589.206	46648.29
589.565	46800.15
589.925	46766.26
590.284	46490.11
590.643	46532.36
591.003	46494.62
591.362	46689.65
591.721	46450.11
592.08	46486.49
592.44	46527.39
592.799	46578.69
593.158	46540.73
593.517	46599.25
593.876	46569.65
594.235	46598.8
594.593	46734.62
594.952	46958.34
595.311	46902.52
595.67	46983.88
596.029	47306.58
596.387	47316.07
596.746	47502.06
597.104	47381.61
597.463	47382.06
597.822	47507.71
598.18	47409.18
598.538	47437.43
598.897	47613.01
599.255	47102.52
599.613	47627.48
599.972	47356.3
600.33	47211.22
600.688	47130.54
601.046	47128.51
601.404	47120.37
601.762	47154.27
602.12	47353.36
602.478	47247.15
602.836	47308.84
603.194	47281.72
603.552	47484.43
603.91	47341.61
604.268	47444.43
604.625	47458.22
604.983	47763.97
605.341	47533.02
605.698	47687.81
606.056	47823.63
606.413	47958.09
606.771	48188.37
607.128	48237.4
607.485	47957.64
607.843	48173.45
608.2	48489.6
608.557	48409.6
608.914	48287.8
609.272	48317.18
609.629	48245.54
609.986	48337.74
610.343	48031.31
610.7	48226.33
611.057	48091.87
611.414	48045.09
611.771	48221.59
612.127	48248.48
612.484	48181.13
612.841	48272.66
613.198	48178.87
613.554	48336.16
613.911	48491.63
614.267	48457.06
614.624	48617.51
614.98	48844.39
615.337	49043.48
615.693	48883.04
616.05	49014.56
616.406	49220.2
616.762	49145.63
617.118	49179.75
617.475	49307.88
617.831	49366.41
618.187	49291.39
618.543	49359.63
618.899	49562.79
619.255	49442.8
619.611	49263.82
619.967	49395.34
620.323	49399.63
620.678	49196.7
621.034	49064.73
621.39	49084.16
621.746	48862.47
622.101	49249.35
622.457	48978.63
622.812	49129.58
623.168	49059.98
623.523	49130.94
623.879	49138.17
624.234	48870.83
624.589	49241.45
624.945	49326.64
625.3	49465.17
625.655	49338.84
626.01	49297.04
626.365	49523.7
626.72	49516.01
627.075	49600.76
627.43	49703.81
627.785	49668.33
628.14	49617.25
628.495	49655.67
628.85	49748.32
629.205	49593.07
629.559	49736.57
629.914	49387.2
630.269	49382.23
630.623	49264.04
630.978	49209.36
631.332	49210.26
631.687	49289.81
632.041	49079.87
632.396	49084.84
632.75	48850.04
633.104	48775.02
633.459	48636.04
633.813	48703.38
634.167	48674
634.521	48620.44
634.875	48655.25
635.229	48585.87
635.583	48449.6
635.937	48612.99
636.291	48550.62
636.645	48559.43
636.999	48654.12
637.352	48781.34
637.706	48647.56
638.06	48797.84
638.413	48890.95
638.767	48668.58
639.121	48552.88
639.474	48427.91
639.828	48518.98
640.181	48476.95
640.534	48379.55
640.888	48206.22
641.241	48025.66
641.594	48058.88
641.947	48145.65
642.301	47960.35
642.654	47959.45
643.007	47881.48
643.36	47674.93
643.713	47732.11
644.066	47699.79
644.419	47609.85
644.771	47473.36
645.124	47294.6
645.477	47366.24
645.83	47137.09
646.182	46639.71
646.535	46385.7
646.888	46224.58
647.24	45927.86
647.593	46201.98
647.945	45994.07
648.298	45825.94
648.65	45858.48
649.002	45778.26
649.355	46208.08
649.707	46413.95
650.059	46646.49
650.411	47297.54
650.763	47307.71
651.115	47547.7
651.467	47409.63
651.819	47268.16
652.171	47356.75
652.523	47207.83
652.875	47129.18
653.227	46875.41
653.578	47095.51
653.93	47006.93
654.282	46755.41
654.633	46535.53
654.985	46541.86
655.337	46565.13
655.688	46401.29
656.039	46542.99
656.391	46166.72
656.742	46355.42
657.094	46320.62
657.445	46374.18
657.796	46401.75
658.147	46323.33
658.498	46394.29
658.849	46469.09
659.2	46361.97
659.551	46330.56
659.902	46636.09
660.253	46550.67
660.604	46635.19
660.955	46519.71
661.306	46680.38
661.656	46559.71
662.007	46644.68
662.358	46686.48
662.708	46772.81
663.059	46664.34
663.409	46373.27
663.76	46694.85
664.11	46374.4
664.461	46370.79
664.811	46527.84
665.161	46166.72
665.511	46198.59
665.862	46293.27
666.212	46312.03
666.562	46123.79
666.912	46177.35
667.262	46086.73
667.612	46046.73
667.962	45897.13
668.312	45754.53
668.662	46000.17
669.011	45917.24
669.361	45697.13
669.711	45860.07
670.06	45827.52
670.41	45700.97
670.76	45528.77
671.109	45912.27
671.459	45700.07
671.808	45633.18
672.157	45785.04
672.507	45593.41
672.856	45631.82
673.205	45649.22
673.554	45910.01
673.904	45804.47
674.253	46066.16
674.602	45928.76
674.951	45279.29
675.3	45276.58
675.649	45879.73
675.998	45745.04
676.346	45645.61
676.695	45746.62
677.044	45346.41
677.393	45576.91
677.741	45392.73
678.09	45315.9
678.438	45021.9
678.787	45027.54
679.135	44855.12
679.484	44697.38
679.832	44741.9
680.181	44370.61
680.529	44509.82
680.877	44341.01
681.225	44276.38
681.573	44459.2
681.922	44125.87
682.27	44186.89
682.618	44159.09
682.966	44042.94
683.314	43972.21
683.661	43984.86
684.009	43793.68
684.357	43905.77
684.705	43830.51
685.053	43778.09
685.4	43829.61
685.748	43660.35
686.095	43786.22
686.443	43670.07
686.79	43626.45
687.138	43775.37
687.485	43847.69
687.832	43670.52
688.18	43726.11
688.527	43420.58
688.874	43265.78
689.221	43217.65
689.568	43225.33
689.915	43040.48
690.262	43056.3
690.609	42870.31
690.956	42699.24
691.303	42517.33
691.65	42204.57
691.997	42227.39
692.344	41772.94
692.69	41817.69
693.037	41707.41
693.383	41447.98
693.73	41233.07
694.077	41100.64
694.423	41124.14
694.769	41031.49
695.116	40626.53
695.462	40618.17
695.808	40550.15
696.155	40560.54
696.501	40424.73
696.847	40428.57
697.193	40087.34
697.539	40366.42
697.885	40043.5
698.231	40028.35
698.577	40187.22
698.923	40145.41
699.269	39827.91
699.614	39716.72
699.96	39925.08
700.306	39884.86
700.651	39743.62
700.997	39678.31
701.342	39469.27
701.688	39444.41
702.033	39445.77
702.379	39316.73
702.724	39281.48
703.069	39302.05
703.415	38801.04
703.76	38811.89
704.105	38705.68
704.45	38485.12
704.795	38172.36
705.14	37990.67
705.485	37861.41
705.83	37741.41
706.175	37647.4
706.52	37541.64
706.865	37273.17
707.209	37201.54
707.554	37116.79
707.899	36976.46
708.243	36687.43
708.588	36722
708.932	36562.23
709.277	36507.32
709.621	36573.53
709.966	36348.9
710.31	36450.14
710.654	36237.04
710.998	36364.04
711.342	36259.19
711.687	36349.35
712.031	36113.2
712.375	36115.01
712.719	36257.83
713.063	36352.29
713.407	36318.17
713.75	36272.97
714.094	36233.2
714.438	36171.05
714.782	36317.72
715.125	36067.1
715.469	36264.39
715.812	35999.99
716.156	35867.56
716.499	35838.18
716.843	35750.95
717.186	35402.49
717.53	35565.42
717.873	35481.13
718.216	35289.95
718.559	35053.12
718.902	34880.47
719.246	35102.83
719.589	34995.94
719.932	34709.85
720.275	34517.09
720.617	34638.89
720.96	34560.02
721.303	34377.43
721.646	34457.88
721.989	33936.31
722.331	34120.49
722.674	33950.32
723.016	33954.84
723.359	33949.64
723.701	33911.45
724.044	33800.04
724.386	33773.83
724.729	33980.38
725.071	33804.34
725.413	33782.42
725.755	33858.8
726.097	33772.25
726.439	33714.17
726.782	33747.62
727.124	34053.37
727.465	33690.44
727.807	33852.02
728.149	33800.5
728.491	33752.36
728.833	33873.71
729.175	33927.72
729.516	33721.4
729.858	33847.73
730.199	33898.12
730.541	33956.42
730.882	33687.5
731.224	33920.72
731.565	33639.37
731.906	33713.27
732.248	33727.5
732.589	33375.42
732.93	33260.4
733.271	33218.82
733.612	33255.88
733.953	33360.73
734.294	33150.57
734.635	33125.71
734.976	33052.27
735.317	32845.49
735.658	32779.73
735.999	32793.97
736.339	32732.05
736.68	32611.15
737.021	32762.1
737.361	32547.42
737.702	32715.55
738.042	32530.47
738.383	32556.91
738.723	32513.75
739.063	32540.64
739.404	32506.97
739.744	32606.18
740.084	32471.72
740.424	32686.85
740.764	32509.46
741.104	32765.72
741.444	32728.89
741.784	32720.3
742.124	32881.65
742.464	32879.16
742.804	32949.9
743.143	32993.06
743.483	33117.35
743.823	33013.62
744.162	33143.79
744.502	33098.82
744.841	32994.87
745.181	33034.87
745.52	33031.48
745.86	33192.15
746.199	32962.33
746.538	33142.66
746.877	33132.72
747.216	33214.97
747.556	33048.2
747.895	32924.13
748.234	32652.5
748.573	32662.22
748.911	32665.61
749.25	32700.19
749.589	32650.92
749.928	32660.41
750.267	32652.5
750.605	32567.76
750.944	32528.21
751.283	32480.3
751.621	32643.69
751.96	32277.82
752.298	32475.56
752.636	32479.4
752.975	32325.28
753.313	32214.77
753.651	32451.6
753.989	32340.19
754.327	32203.48
754.666	32032.86
755.004	32232.63
755.342	32389.69
755.679	32429.01
756.017	32398.95
756.355	32445.5
756.693	32504.94
757.031	32619.51
757.368	32460.64
757.706	32449.8
758.044	32375.9
758.381	32515.33
758.719	32514.65
759.056	32662.9
759.394	32712.61
759.731	32527.08
760.068	32498.16
760.405	32588.32
760.743	32563.47
761.08	32588.1
761.417	32544.03
761.754	32447.31
762.091	32567.76
762.428	32467.2
762.765	32293.64
763.102	32444.37
763.438	32295
763.775	32001.9
764.112	32192.4
764.449	32185.17
764.785	32048.45
765.122	31939.3
765.458	31758.97
765.795	31863.37
766.131	31674.22
766.467	31490.5
766.804	31395.81
767.14	31169.38
767.476	31249.83
767.812	31068.36
768.148	31231.75
768.485	30960.8
768.821	30906.56
769.157	30818.88
769.492	30740.24
769.828	30732.1
770.164	30493.46
770.5	30529.17
770.836	30422.96
771.171	30201.72
771.507	30310.64
771.842	30063.19
772.178	30140.93
772.513	30233.13
772.849	30018
773.184	29995.62
773.519	30026.36
773.855	29900.94
774.19	29721.28
774.525	29813.71
774.86	29851.45
775.195	29703.2
775.53	29677.67
775.865	29653.94
776.2	29506.37
776.535	29267.51
776.87	29368.07
777.205	29260.5
777.539	28964.92
777.874	29118.13
778.209	28832.49
778.543	28867.52
778.878	28845.37
779.212	28733.96
779.547	28652.38
779.881	28690.8
780.215	28532.84
780.55	28470.24
780.884	28265.05
781.218	28205.61
781.552	28099.85
781.886	27980.31
782.22	27751.61
782.554	27538.51
782.888	27281.8
783.222	27155.25
783.556	27110.28
783.889	27053.78
784.223	26873.9
784.557	26928.81
784.89	26905.99
785.224	26629.61
785.557	26546.9
785.891	26463.06
786.224	26318.43
786.558	26335.38
786.891	25967.03
787.224	25769.07
787.557	25907.82
787.891	25841.38
788.224	25869.4
788.557	25866.69
788.89	25696.08
789.223	25734.72
789.556	25524.78
789.888	25561.16
790.221	25515.74
790.554	25296.09
790.887	25270.32
791.219	25301.06
791.552	25235.97
791.884	25115.3
792.217	25077.56
792.549	25019.94
792.882	24818.13
793.214	24833.05
793.546	24967.06
793.879	24748.53
794.211	24632.6
794.543	24662.88
794.875	24471.02
795.207	24675.76
795.539	24395.09
795.871	24434.41
796.203	24247.98
796.535	24117.59
796.867	24134.53
797.198	23940.19
797.53	23995.78
797.862	23739.29
798.193	23794.66
798.525	23675.11
798.856	23520.54
799.188	23274.22
799.519	23161
799.85	23076.71
800.182	23195.35
800.513	23000.78
800.844	22894.12
801.175	23063.6
801.506	22921.01
801.837	22832.2
802.168	22809.6
802.499	22695.93
802.83	22558.08
803.161	22560.11
803.491	22432.43
803.822	22328.25
804.153	22318.54
804.483	22241.03
804.814	22021.6
805.145	21998.55
805.475	22099.11
805.805	21934.37
806.136	21830.64
806.466	21855.27
806.796	21803.75
807.126	21721.72
807.457	21693.02
807.787	21723.75
808.117	21612.79
808.447	21485.11
808.777	21624.77
809.107	21396.3
809.436	21319.47
809.766	21366.92
810.096	21273.14
810.426	21309.52
810.755	21262.52
811.085	21258.68
811.414	21134.39
811.744	21025.46
812.073	20977.56
812.403	21060.04
812.732	20965.58
813.061	20884.22
813.39	20849.2
813.719	20676.55
814.049	20923.55
814.378	20774.85
814.707	20715.19
815.036	20719.26
815.365	20535.76
815.693	20364.01
816.022	20444.46
816.351	20483.78
816.68	20177.12
817.008	20204.24
817.337	20019.39
817.665	19989.79
817.994	20011.03
818.322	20044.47
818.651	19837.7
818.979	19781.66
819.307	19837.92
819.636	19849
819.964	19618.5
820.292	19718.38
820.62	19646.07
820.948	19656.46
821.276	19652.17
821.604	19563.36
821.932	19589.12
822.259	19538.72
822.587	19559.06
822.915	19484.94
823.243	19564.03
823.57	19554.99
823.898	19501.89
824.225	19426.41
824.553	19376.69
824.88	19377.15
825.207	19520.42
825.535	19518.16
825.862	19494.66
826.189	19376.24
826.516	19524.26
826.843	19525.16
827.17	19503.02
827.497	19519.52
827.824	19519.74
828.151	19524.26
828.478	19582.79
828.805	19532.4
829.131	19459.63
829.458	19601.55
829.785	19397.03
830.111	19530.81
830.438	19599.74
830.764	19620.08
831.09	19561.55
831.417	19475.67
831.743	19641.09
832.069	19525.16
832.395	19529.68
832.722	19636.8
833.048	19484.94
833.374	19511.15
833.7	19458.95
834.026	19437.26
834.351	19428.22
834.677	19500.98
835.003	19540.53
835.329	19465.96
835.654	19384.6
835.98	19327.66
836.306	19375.11
836.631	19201.33
836.956	19254.66
837.282	19179.64
837.607	19152.29
837.932	19012.86
838.258	19000.43
838.583	18949.13
838.908	18858.29
839.233	18899.87
839.558	18907.1
839.883	18649.48
840.208	18737.84
840.533	18681.8
840.858	18690.61
841.182	18687.45
841.507	18614.23
841.832	18459.43
842.156	18410.39
842.481	18357.06
842.805	18334.46
843.13	18237.51
843.454	18153.9
843.778	18125.65
844.103	18057.86
844.427	17948.93
844.751	18015.83
845.075	18027.35
845.399	17934.92
845.723	17882.04
846.047	17950.97
846.371	17745.55
846.695	17699.22
847.019	17675.72
847.343	17672.78
847.666	17616.74
847.99	17534.71
848.313	17502.84
848.637	17404.32
848.96	17404.77
849.284	17327.71
849.607	17194.38
849.931	17219.01
850.254	17026.47
850.577	17022.41
850.9	16854.95
851.223	16813.15
851.546	16720.04
851.869	16737.89
852.192	16732.24
852.515	16628.97
852.838	16555.75
853.161	16517.33
853.483	16468.97
853.806	16481.85
854.129	16413.38
854.451	16365.47
854.774	16350.33
855.096	16286.83
855.419	16250.22
855.741	16111.02
856.063	16009.55
856.385	15932.72
856.708	15996.9
857.03	15839.84
857.352	15819.27
857.674	15704.93
857.996	15713.06
858.318	15663.57
858.64	15738.6
858.961	15546.51
859.283	15561.88
859.605	15402.11
859.926	15528.89
860.248	15405.27
860.57	15277.14
860.891	15347.42
861.212	15207.09
861.534	15202.57
861.855	15095.9
862.176	15054.32
862.498	14965.28
862.819	14994.89
863.14	14965.96
863.461	14870.6
863.782	14773.43
864.103	14876.47
864.424	14805.29
864.745	14832.86
865.065	14724.61
865.386	14644.61
865.707	14651.39
866.027	14746.76
866.348	14636.25
866.668	14602.13
866.989	14639.87
867.309	14542.92
867.63	14596.25
867.95	14559.65
868.27	14516.71
868.59	14498.4
868.91	14485.07
869.23	14543.15
869.55	14431.06
869.87	14413.66
870.19	14463.83
870.51	14573.2
870.83	14578.85
871.15	14374.57
871.469	14407.33
871.789	14419.99
872.109	14340.67
872.428	14335.02
872.748	14409.59
873.067	14436.94
873.386	14376.15
873.706	14449.14
874.025	14322.82
874.344	14286.21
874.663	14344.74
874.982	14253.66
875.301	14217.28
875.62	14217.06
875.939	14095.25
876.258	14145.65
876.577	14156.27
876.896	14083.95
877.214	13983.39
877.533	14015.03
877.852	13919.66
878.17	14051.18
878.489	13930.28
878.807	13957.18
879.125	13879.66
879.444	13824.52
879.762	13884.18
880.08	13834.01
880.398	13723.74
880.716	13652.1
881.034	13634.02
881.352	13619.78
881.67	13527.13
881.988	13557.86
882.306	13527.81
882.624	13540.01
882.941	13392.22
883.259	13318.55
883.577	13338.43
883.894	13260.47
884.212	13274.93
884.529	13216.4
884.846	13159
885.164	13148.38
885.481	13123.75
885.798	13224.77
886.115	12978.67
886.432	12979.8
886.75	12889.18
887.067	12983.42
887.383	12940.48
887.7	12903.64
888.017	12900.93
888.334	12760.6
888.651	12810.99
888.967	12784.78
889.284	12695.29
889.6	12782.52
889.917	12684.89
890.233	12733.03
890.55	12751.11
890.866	12666.81
891.182	12659.13
891.498	12644.44
891.815	12586.36
892.131	12571.22
892.447	12512.92
892.763	12511.79
893.079	12485.58
893.395	12426.82
893.71	12386.14
894.026	12406.48
894.342	12350.66
894.657	12248.52
894.973	12274.06
895.289	12248.07
895.604	12192.48
895.92	12119.71
896.235	12100.95
896.55	12142.76
896.865	12050.11
897.181	12006.94
897.496	12025.47
897.811	11923.56
898.126	11843.33
898.441	11877
898.756	11878.81
899.071	11801.75
899.386	11793.39
899.7	11665.48
900.015	11644.02
900.33	11603.34
900.644	11588.2
900.959	11517.69
901.273	11453.29
901.588	11456.9
901.902	11263.69
902.216	11279.05
902.531	11298.94
902.845	11269.79
903.159	11126.52
903.473	11085.61
903.787	11041.77
904.101	10932.4
904.415	10886.97
904.729	10893.53
905.042	10761.55
905.356	10688.56
905.67	10699.63
905.984	10673.87
906.297	10641.78
906.611	10632.29
906.924	10567.21
907.237	10440.43
907.551	10491.73
907.864	10451.73
908.177	10390.49
908.491	10347.33
908.804	10220.1
909.117	10222.58
909.43	10175.58
909.743	10151.17
910.056	10128.12
910.368	10080.44
910.681	9984.4
910.994	10000.22
911.307	9981.23
911.619	9921.8
911.932	9965.19
912.244	9865.31
912.557	9871.18
912.869	9818.3
913.181	9767.91
913.494	9808.36
913.806	9764.52
914.118	9755.25
914.43	9586.89
914.742	9656.72
915.054	9602.49
915.366	9617.4
915.678	9536.05
915.99	9492.66
916.302	9438.65
916.613	9402.72
916.925	9430.97
917.236	9410.4
917.548	9399.78
917.859	9383.06
918.171	9319.56
918.482	9355.71
918.794	9275.72
919.105	9228.71
919.416	9138.09
919.727	9173.35
920.038	9090.86
920.349	9090.18
920.66	9022.84
920.971	9049.06
921.282	9015.16
921.593	8962.5
921.903	8875.95
922.214	8851.32
922.525	8836.18
922.835	8822.17
923.146	8725.67
923.456	8677.99
923.767	8655.62
924.077	8609.07
924.387	8600.48
924.697	8547.37
925.008	8496.3
925.318	8431.44
925.628	8430.99
925.938	8349.87
926.248	8260.6
926.558	8158.91
926.867	8124.79
927.177	8193.94
927.487	8102.19
927.796	8013.38
928.106	8043.88
928.416	7948.29
928.725	7947.16
929.034	7851.57
929.344	7860.16
929.653	7807.05
929.962	7739.71
930.271	7665.59
930.581	7650.45
930.89	7633.95
931.199	7572.71
931.508	7583.11
931.817	7497.68
932.125	7520.06
932.434	7466.05
932.743	7386.73
933.051	7395.31
933.36	7347.86
933.669	7249.78
933.977	7277.58
934.286	7311.93
934.594	7237.8
934.902	7209.56
935.21	7155.09
935.519	7122.55
935.827	7170.46
936.135	7116.45
936.443	7080.75
936.751	7121.65
937.059	7107.64
937.367	7026.74
937.674	7041.43
937.982	7021.31
938.29	6995.78
938.597	6924.59
938.905	6866.29
939.213	6923.91
939.52	6860.41
939.827	6916.68
940.135	6805.27
940.442	6818.15
940.749	6804.82
941.056	6849.11
941.363	6723.47
941.67	6719.85
941.977	6672.17
942.284	6652.73
942.591	6678.72
942.898	6643.47
943.205	6616.8
943.511	6572.74
943.818	6508.78
944.125	6446.86
944.431	6484.83
944.738	6433.53
945.044	6430.59
945.35	6412.52
945.657	6401.44
945.963	6400.09
946.269	6331.84
946.575	6306.76
946.881	6335.68
947.187	6231.73
947.493	6213.2
947.799	6189.47
948.105	6182.92
948.41	6120.77
948.716	6111.05
949.022	6091.17
949.327	6018.63
949.633	5945.63
949.938	5959.19
950.244	5951.51
950.549	5865.41
950.854	5835.13
951.16	5877.39
951.465	5801.01
951.77	5777.73
952.075	5772.76
952.38	5692.31
952.685	5719.65
952.99	5657.73
953.294	5635.13
953.599	5607.56
953.904	5599.43
954.209	5481.24
954.513	5476.49
954.818	5486.21
955.122	5435.82
955.426	5363.96
955.731	5388.59
956.035	5327.12
956.339	5393.11
956.643	5349.27
956.948	5268.59
957.252	5304.3
957.556	5252.32
957.86	5206.9
958.163	5217.52
958.467	5227.69
958.771	5194.47
959.075	5166.9
959.378	5118.54
959.682	5123.06
959.985	5112.66
960.289	5107.46
960.592	5049.61
960.896	5020.91
961.199	5009.84
961.502	5013.23
961.805	4963.51
962.108	4947.47
962.411	4973.23
962.714	4965.32
963.017	4911.99
963.32	4916.74
963.623	4909.73
963.926	4911.99
964.228	4820.69
964.531	4872.22
964.833	4840.35
965.136	4778.21
965.438	4761.03
965.741	4756.29
966.043	4779.56
966.345	4688.04
966.648	4700.7
966.95	4687.81
967.252	4658.44
967.554	4621.6
967.856	4678.55
968.158	4614.6
968.46	4620.25
968.761	4561.04
969.063	4560.36
969.365	4530.3
969.666	4581.15
969.968	4488.72
970.269	4460.7
970.571	4502.28
970.872	4449.63
971.174	4402.4
971.475	4392.68
971.776	4410.99
972.077	4395.17
972.378	4348.61
972.679	4348.16
972.98	4380.93
973.281	4320.14
973.582	4262.29
973.883	4257.09
974.183	4200.82
974.484	4175.74
974.785	4158.34
975.085	4125.34
975.386	4147.04
975.686	4083.76
975.986	4065.23
976.287	4085.8
976.587	4043.31
976.887	4003.76
977.187	4008.51
977.487	3978.68
977.787	3955.86
978.087	3955.63
978.387	3942.07
978.687	3913.37
978.987	3876.54
979.286	3839.7
979.586	3895.52
979.885	3752.92
980.185	3816.65
980.484	3787.27
980.784	3747.5
981.083	3725.58
981.382	3705.69
981.682	3672.93
981.981	3698.01
982.28	3705.92
982.579	3685.58
982.878	3625.24
983.177	3630.22
983.475	3598.35
983.774	3588.41
984.073	3556.77
984.372	3563.1
984.67	3534.62
984.969	3527.39
985.267	3514.74
985.566	3503.89
985.864	3503.66
986.162	3504.12
986.461	3449.88
986.759	3477.68
987.057	3447.17
987.355	3403.1
987.653	3445.81
987.951	3390.22
988.249	3403.55
988.547	3358.36
988.844	3346.83
989.142	3371.47
989.44	3305.48
989.737	3324.23
990.035	3312.26
990.332	3306.16
990.63	3264.58
990.927	3285.14
991.224	3245.82
991.521	3227.29
991.819	3237.68
992.116	3246.27
992.413	3206.27
992.71	3162.88
993.006	3190
993.303	3246.5
993.6	3153.17
993.897	3158.82
994.193	3101.87
994.49	3144.58
994.787	3100.29
995.083	3070.68
995.379	3103.9
995.676	3047.41
995.972	3050.57
996.268	3031.59
996.565	3016.67
996.861	3000.63
997.157	2970.57
997.453	2989.55
997.749	2962.66
998.044	2948.65
998.34	2894.64
998.636	2921.76
998.932	2892.61
999.227	2879.05
999.523	2870.46
999.818	2839.95
1000.114	2819.84
1000.409	2840.41
1000.704	2764.48
1001	2763.57
1001.295	2743.91
1001.59	2733.29
1001.885	2726.96
1002.18	2676.79
1002.475	2671.14
1002.77	2655.55
1003.065	2640.18
1003.359	2641.77
1003.654	2613.07
1003.949	2595.44
1004.243	2562.45
1004.538	2603.35
1004.832	2580.98
1005.127	2547.31
1005.421	2534.42
1005.715	2499.4
1006.009	2493.97
1006.304	2477.25
1006.598	2457.59
1006.892	2446.07
1007.186	2424.6
1007.48	2433.41
1007.773	2375.11
1008.067	2335.11
1008.361	2336.01
1008.655	2351.6
1008.948	2336.24
1009.242	2296.69
1009.535	2269.12
1009.829	2264.15
1010.122	2244.71
1010.415	2245.17
1010.708	2239.07
1011.001	2212.4
1011.295	2222.57
1011.588	2188.45
1011.881	2237.71
1012.173	2196.58
1012.466	2179.63
1012.759	2159.07
1013.052	2147.32
1013.344	2152.06
1013.637	2165.85
1013.93	2113.42
1014.222	2128.11
1014.514	2103.25
1014.807	2101.22
1015.099	2086.08
1015.391	2095.79
1015.683	2070.26
1015.976	2031.61
1016.268	2046.08
1016.56	2028.22
1016.851	1997.49
1017.143	2010.82
1017.435	1992.74
1017.727	2003.37
1018.018	1974.89
1018.31	1962.69
1018.602	1947.55
1018.893	1946.19
1019.185	1938.28
1019.476	1914.33
1019.767	1937.83
1020.058	1953.65
1020.35	1890.37
1020.641	1899.87
1020.932	1869.36
1021.223	1829.36
1021.514	1865.97
1021.804	1836.82
1022.095	1820.09
1022.386	1806.08
1022.677	1834.33
1022.967	1796.37
1023.258	1790.72
1023.548	1765.63
1023.839	1739.19
1024.129	1732.64
1024.419	1726.99
1024.709	1722.02
1025	1716.59
1025.29	1666.43
1025.58	1671.17
1025.87	1676.37
1026.16	1650.61
1026.449	1663.94
1026.739	1654.45
1027.029	1618.74
1027.319	1618.06
1027.608	1596.14
1027.898	1616.48
1028.187	1568.57
1028.477	1597.27
1028.766	1565.64
1029.055	1540.78
1029.344	1535.36
1029.634	1512.53
1029.923	1501.68
1030.212	1488.8
1030.501	1463.04
1030.79	1469.37
1031.078	1464.62
1031.367	1460.33
1031.656	1414
1031.945	1432.76
1032.233	1448.35
1032.522	1426.21
1032.81	1392.76
1033.099	1385.3
1033.387	1381.23
1033.675	1388.92
1033.963	1342.14
1034.251	1347.11
1034.54	1321.58
1034.828	1317.51
1035.116	1333.33
1035.403	1331.97
1035.691	1309.6
1035.979	1312.54
1036.267	1296.72
1036.554	1283.84
1036.842	1275.02
1037.129	1268.24
1037.417	1243.84
1037.704	1232.76
1037.992	1242.48
1038.279	1214.01
1038.566	1209.49
1038.853	1209.49
1039.14	1209.49
