Data from blue_clamp_base_FLMS001491_00076.txt Node
Date: Wed Feb 08 15:16:30 GMT 2017
User: dcchb
Spectrometer: FLMS00149
Trigger mode: 0
Integration Time (sec): 2.000000E-2
Scans to average: 10
Electric dark correction enabled: true
Nonlinearity correction enabled: false
Boxcar width: 0
XAxis mode: Wavelengths
Number of Pixels in Spectrum: 2048
>>>>>Begin Spectral Data<<<<<
341.393	-24.15
341.776	-24.15
342.16	-24.15
342.543	-39.97
342.927	-74.09
343.31	-54.66
343.693	-79.07
344.077	-62.57
344.46	-71.83
344.843	-48.56
345.226	-42
345.61	-35
345.993	-26.64
346.376	-25.73
346.759	26.02
347.142	33.93
347.525	52.23
347.908	67.15
348.291	73.47
348.674	85.22
349.057	108.05
349.44	110.99
349.823	146.92
350.206	184.88
350.588	194.6
350.971	201.83
351.354	227.82
351.737	248.16
352.119	264.43
352.502	271.21
352.884	285.44
353.267	294.71
353.65	301.04
354.032	296.07
354.414	306.46
354.797	335.16
355.179	342.84
355.562	324.77
355.944	317.76
356.326	325.22
356.709	314.6
357.091	346.01
357.473	344.88
357.855	329.29
358.238	358.44
358.62	338.78
359.002	339.23
359.384	332.67
359.766	352.79
360.148	337.65
360.53	341.71
360.912	340.13
361.294	332.22
361.676	344.2
362.057	327.93
362.439	333.58
362.821	354.6
363.203	324.99
363.584	350.75
363.966	324.99
364.348	328.61
364.729	327.03
365.111	333.58
365.493	323.64
365.874	320.92
366.256	301.49
366.637	331.32
367.019	348.49
367.4	327.93
367.781	316.18
368.163	329.74
368.544	302.85
368.925	344.2
369.306	331.54
369.688	324.77
370.069	328.16
370.45	317.99
370.831	324.31
371.212	323.41
371.593	334.48
371.974	332
372.355	339
372.736	336.97
373.117	310.08
373.498	303.98
373.879	344.65
374.26	335.39
374.641	306.69
375.021	339.23
375.402	323.86
375.783	336.74
376.163	334.48
376.544	359.79
376.925	336.29
377.305	336.52
377.686	338.78
378.066	348.95
378.447	329.51
378.827	369.06
379.208	355.5
379.588	366.57
379.968	356.63
380.349	347.82
380.729	356.63
381.109	357.98
381.489	381.04
381.87	361.6
382.25	352.79
382.63	363.18
383.01	374.03
383.39	369.96
383.77	363.41
384.15	381.49
384.53	373.8
384.91	390.07
385.29	383.07
385.67	405.44
386.049	383.3
386.429	383.07
386.809	370.19
387.189	379.91
387.568	388.72
387.948	386.23
388.328	392.79
388.707	400.7
389.087	422.39
389.466	414.25
389.846	418.1
390.225	395.72
390.605	437.08
390.984	423.07
391.363	416.74
391.743	414.25
392.122	433.92
392.501	436.63
392.881	437.98
393.26	434.59
393.639	430.3
394.018	444.54
394.397	451.77
394.776	463.07
395.155	481.15
395.534	470.07
395.913	475.5
396.292	471.88
396.671	476.4
397.05	480.02
397.429	478.43
397.808	499.45
398.186	490.86
398.565	489.28
398.944	502.61
399.323	510.52
399.701	508.04
400.08	516.62
400.458	520.47
400.837	538.09
401.215	527.47
401.594	513.46
401.972	522.73
402.351	583.97
402.729	562.05
403.107	546
403.486	551.2
403.864	550.07
404.242	580.35
404.62	588.49
404.999	576.96
405.377	586.45
405.755	588.04
406.133	601.82
406.511	599.11
406.889	603.18
407.267	649.28
407.645	626
408.023	635.04
408.401	646.56
408.779	650.18
409.156	660.8
409.534	662.84
409.912	678.88
410.29	687.69
410.667	687.24
411.045	692.44
411.422	696.96
411.8	706.45
412.178	720.01
412.555	741.48
412.933	745.32
413.31	730.86
413.687	750.74
414.065	746.9
414.442	769.5
414.819	772.66
415.197	780.57
415.574	804.3
415.951	816.73
416.328	818.54
416.705	819.67
417.082	823.51
417.46	829.16
417.837	834.13
418.214	845.2
418.591	845.2
418.967	856.28
419.344	866.67
419.721	868.71
420.098	866.45
420.475	898.76
420.852	907.12
421.228	921.81
421.605	909.61
421.982	918.42
422.358	920.23
422.735	942.38
423.111	950.51
423.488	965.43
423.864	959.33
424.241	985.77
424.617	1000.91
424.994	1004.07
425.37	997.29
425.746	1012.43
426.123	1028.93
426.499	1047.91
426.875	1058.53
427.251	1075.48
427.627	1081.13
428.003	1079.1
428.379	1107.8
428.756	1127.91
429.132	1124.29
429.507	1148.92
429.883	1150.96
430.259	1211.07
430.635	1203.61
431.011	1211.75
431.387	1225.98
431.763	1277.96
432.138	1270.05
432.514	1253.55
432.89	1298.07
433.265	1308.69
433.641	1308.92
434.016	1312.08
434.392	1357.96
434.767	1406.32
435.143	1382.36
435.518	1355.25
435.894	1450.84
436.269	1422.36
436.644	1458.52
437.02	1462.14
437.395	1446.54
437.77	1475.92
438.145	1509.82
438.52	1533.32
438.895	1553.21
439.271	1546.65
439.646	1564.96
440.021	1582.36
440.395	1587.11
440.77	1593.88
441.145	1612.19
441.52	1649.7
441.895	1659.19
442.27	1644.5
442.645	1670.72
443.019	1702.58
443.394	1685.41
443.769	1741.23
444.143	1712.53
444.518	1795.69
444.892	1773.09
445.267	1737.61
445.641	1771.73
446.016	1807.44
446.39	1802.01
446.764	1817.16
447.139	1820.32
447.513	1857.15
447.887	1833.88
448.262	1869.36
448.636	1863.03
449.01	1909.81
449.384	1905.74
449.758	1953.88
450.132	1933.99
450.506	1952.07
450.88	1958.39
451.254	1994.33
451.628	2022.12
452.002	2043.14
452.376	2067.09
452.75	2054.89
453.123	2102.57
453.497	2081.78
453.871	2111.84
454.244	2171.5
454.618	2179.41
454.992	2202.46
455.365	2220.53
455.739	2256.47
456.112	2261.44
456.486	2305.5
456.859	2301.66
457.232	2322.91
457.606	2354.32
457.979	2407.42
458.352	2453.3
458.725	2447.42
459.099	2482.9
459.472	2538.27
459.845	2534.42
460.218	2576.68
460.591	2606.74
460.964	2564.93
461.337	2624.14
461.71	2695.55
462.083	2736.91
462.456	2690.13
462.829	2698.49
463.201	2744.81
463.574	2802.67
463.947	2809.9
464.32	2843.34
464.692	2872.95
465.065	2884.7
465.438	2910.91
465.81	2983.68
466.183	3033.39
466.555	3054.86
466.928	3073.62
467.3	3063.22
467.672	3121.53
468.045	3186.84
468.417	3181.87
468.789	3176.89
469.161	3248.3
469.534	3295.53
469.906	3338.25
470.278	3361.75
470.65	3389.09
471.022	3415.08
471.394	3501.86
471.766	3553.61
472.138	3524.46
472.51	3643.55
472.882	3627.5
473.253	3673.6
473.625	3764.45
473.997	3828.85
474.369	3843.77
474.74	3894.16
475.112	3941.85
475.484	3981.62
475.855	4067.72
476.227	4078.57
476.598	4169.86
476.97	4227.71
477.341	4266.81
477.713	4306.81
478.084	4356.75
478.455	4411.44
478.827	4502.73
479.198	4611.66
479.569	4583.18
479.94	4704.76
480.311	4686.68
480.682	4818.88
481.053	4865.89
481.424	4901.37
481.795	4984.76
482.166	5074.7
482.537	5090.06
482.908	5172.55
483.279	5249.83
483.65	5287.35
484.021	5396.27
484.391	5371.19
484.762	5420.45
485.133	5436.5
485.503	5506.78
485.874	5639.43
486.244	5642.37
486.615	5724.85
486.985	5763.04
487.356	5846.43
487.726	5932.75
488.097	5972.53
488.467	6015.92
488.837	6075.8
489.207	6167.55
489.578	6227.89
489.948	6248.23
490.318	6318.73
490.688	6285.96
491.058	6344.27
491.428	6390.82
491.798	6473.98
492.168	6562.79
492.538	6590.59
492.908	6617.71
493.278	6661.77
493.648	6656.35
494.017	6732.96
494.387	6759.62
494.757	6782.67
495.126	6838.72
495.496	6861.32
495.866	6880.07
496.235	6963.91
496.605	6935.21
496.974	7021.76
497.344	7004.14
497.713	7031.03
498.082	7053.85
498.452	7140.18
498.821	7109.45
499.19	7151.03
499.559	7179.05
499.928	7266.5
500.298	7279.84
500.667	7281.87
501.036	7294.53
501.405	7326.16
501.774	7264.92
502.143	7346.5
502.512	7367.52
502.88	7415.88
503.249	7398.48
503.618	7407.97
503.987	7398.7
504.356	7470.34
504.724	7490.45
505.093	7480.06
505.462	7520.06
505.83	7548.08
506.199	7625.36
506.567	7734.74
506.936	7707.85
507.304	7742.42
507.672	7765.93
508.041	7731.8
508.409	7773.61
508.777	7815.42
509.145	7894.74
509.514	7841.18
509.882	8007.05
510.25	7928.63
510.618	7922.53
510.986	7976.99
511.354	7984.23
511.722	8094.28
512.09	8060.16
512.458	8107.16
512.826	8152.58
513.193	8171.34
513.561	8188.06
513.929	8189.19
514.297	8260.6
514.664	8271.68
515.032	8293.6
515.4	8333.59
515.767	8363.42
516.135	8371.11
516.502	8310.09
516.869	8478.45
517.237	8398.45
517.604	8472.12
517.972	8460.14
518.339	8532.91
518.706	8516.19
519.073	8522.29
519.44	8592.12
519.808	8670.76
520.175	8591.67
520.542	8761.15
520.909	8764.77
521.276	8719.57
521.643	8743.53
522.009	8809.51
522.376	8877.53
522.743	8879.12
523.11	8955.5
523.477	9062.84
523.843	9022.39
524.21	9084.08
524.577	9152.56
524.943	9208.37
525.31	9227.36
525.676	9319.11
526.043	9331.76
526.409	9423.96
526.776	9394.13
527.142	9454.24
527.508	9457.18
527.874	9540.34
528.241	9603.39
528.607	9527.69
528.973	9683.16
529.339	9665.99
529.705	9649.72
530.071	9775.82
530.437	9825.31
530.803	9850.84
531.169	9891.52
531.535	9892.88
531.901	9964.74
532.267	9920.22
532.632	9941.91
532.998	10006.09
533.364	10047.9
533.73	10111.85
534.095	10098.52
534.461	10154.56
534.826	10202.47
535.192	10239.98
535.557	10317.05
535.923	10301.23
536.288	10308.23
536.653	10308.23
537.019	10331.73
537.384	10354.56
537.749	10419.87
538.114	10462.8
538.479	10487.44
538.845	10516.14
539.21	10521.56
539.575	10536.25
539.94	10621.44
540.305	10663.25
540.67	10680.43
541.034	10738.28
541.399	10802.46
541.764	10799.97
542.129	10778.5
542.494	10742.57
542.858	10796.13
543.223	10856.01
543.587	10877.93
543.952	10843.13
544.316	10971.72
544.681	10923.58
545.045	10981.43
545.41	11010.36
545.774	11044.03
546.138	11055.33
546.503	11119.06
546.867	11105.5
547.231	11174.2
547.595	11215.78
547.959	11150.24
548.324	11164.93
548.688	11174.2
549.052	11291.03
549.416	11297.58
549.779	11343.46
550.143	11311.6
550.507	11397.69
550.871	11402.21
551.235	11490.35
551.599	11493.06
551.962	11542.1
552.326	11536.22
552.689	11606.73
553.053	11529.44
553.417	11602.89
553.78	11801.3
554.143	11663.45
554.507	11693.28
554.87	11677.24
555.234	11862.09
555.597	11754.07
555.96	11815.99
556.323	11822.99
556.686	11834.97
557.05	11920.62
557.413	11954.97
557.776	11946.38
558.139	12055.3
558.502	12065.7
558.865	12131.01
559.228	12129.43
559.59	12186.15
559.953	12159.71
560.316	12368.06
560.679	12243.77
561.041	12347.95
561.404	12420.04
561.767	12486.48
562.129	12434.96
562.492	12602.86
562.854	12502.3
563.217	12561.05
563.579	12627.04
563.941	12632.69
564.304	12754.5
564.666	12828.39
565.028	12811.89
565.39	12868.16
565.753	12987.26
566.115	12939.58
566.477	13025
566.839	13068.61
567.201	13197.65
567.563	13126.91
567.925	13290.07
568.287	13285.33
568.648	13277.42
569.01	13372.78
569.372	13396.51
569.734	13305.22
570.095	13464.98
570.457	13534.14
570.819	13615.72
571.18	13538.43
571.542	13652.1
571.903	13714.92
572.265	13731.42
572.626	13823.39
572.987	13762.38
573.349	13937.29
573.71	13841.02
574.071	13930.96
574.432	14026.55
574.794	14100.67
575.155	14030.17
575.516	14004.18
575.877	14045.99
576.238	14137.28
576.599	14274.68
576.96	14222.25
577.32	14303.15
577.681	14347.22
578.042	14275.59
578.403	14384.28
578.763	14382.25
579.124	14386.99
579.485	14429.25
579.845	14488.69
580.206	14459.54
580.566	14428.8
580.927	14541.34
581.287	14540.66
581.648	14578.85
582.008	14676.93
582.368	14581.34
582.728	14657.27
583.089	14639.64
583.449	14666.31
583.809	14671.51
584.169	14718.51
584.529	14628.8
584.889	14804.84
585.249	14632.64
585.609	14717.83
585.969	14800.32
586.329	14752.18
586.688	14764.84
587.048	14683.03
587.408	14753.09
587.768	14755.8
588.127	14778.4
588.487	14810.71
588.846	14820.88
589.206	14751.28
589.565	14749.24
589.925	14892.97
590.284	14857.26
590.643	14958.28
591.003	14951.05
591.362	15008.67
591.721	14870.6
592.08	15053.64
592.44	14954.89
592.799	14986.07
593.158	14944.04
593.517	14921.44
593.876	14942.23
594.235	14955.12
594.593	14993.31
594.952	15050.03
595.311	14968
595.67	15088.22
596.029	15037.15
596.387	15050.48
596.746	15160.99
597.104	15075.56
597.463	15087.32
597.822	15156.69
598.18	15078.05
598.538	15110.59
598.897	15197.82
599.255	15028.56
599.613	15232.85
599.972	15156.01
600.33	15206.18
600.688	15141.78
601.046	15174.32
601.404	15209.35
601.762	15302.45
602.12	15325.73
602.478	15291.6
602.836	15249.8
603.194	15165.73
603.552	15280.3
603.91	15263.81
604.268	15383.58
604.625	15254.09
604.983	15310.59
605.341	15311.26
605.698	15370.02
606.056	15400.75
606.413	15384.93
606.771	15412.28
607.128	15483.01
607.485	15413.41
607.843	15374.99
608.2	15516.23
608.557	15514.2
608.914	15490.24
609.272	15524.82
609.629	15523.24
609.986	15632.39
610.343	15488.66
610.7	15690.92
611.057	15673.97
611.414	15645.94
611.771	15676.23
612.127	15759.84
612.484	15737.69
612.841	15822.44
613.198	15684.81
613.554	15695.43
613.911	15772.72
614.267	15868.76
614.624	15708.09
614.98	15857.92
615.337	15889.1
615.693	15863.11
616.05	15918.71
616.406	16015.65
616.762	15938.82
617.118	15822.66
617.475	15948.31
617.831	16010.91
618.187	15907.63
618.543	15968.2
618.899	16082.54
619.255	16097.91
619.611	16112.6
619.967	16084.35
620.323	16128.19
620.678	16034.41
621.034	16127.29
621.39	16129.77
621.746	16076.67
622.101	16329.77
622.457	16212.71
622.812	16185.82
623.168	16299.94
623.523	16225.36
623.879	16254.06
624.234	16187.4
624.589	16293.39
624.945	16302.42
625.3	16319.37
625.655	16349.43
626.01	16252.03
626.365	16348.75
626.72	16305.59
627.075	16280.96
627.43	16298.81
627.785	16308.53
628.14	16335.19
628.495	16309.88
628.85	16469.43
629.205	16314.18
629.559	16579.93
629.914	16418.35
630.269	16438.47
630.623	16432.59
630.978	16391.24
631.332	16443.66
631.687	16539.03
632.041	16391.24
632.396	16510.78
632.75	16482.53
633.104	16468.52
633.459	16452.25
633.813	16398.69
634.167	16429.65
634.521	16521.85
634.875	16546.71
635.229	16537.45
635.583	16426.71
635.937	16435.98
636.291	16534.73
636.645	16511.91
636.999	16415.87
637.352	16526.6
637.706	16459.48
638.06	16566.15
638.413	16576.09
638.767	16559.37
639.121	16573.15
639.474	16501.29
639.828	16564.34
640.181	16598.91
640.534	16642.98
640.888	16539.48
641.241	16528.86
641.594	16584.9
641.947	16633.94
642.301	16637.1
642.654	16657.22
643.007	16597.11
643.36	16677.1
643.713	16682.75
644.066	16718.01
644.419	16673.49
644.771	16587.16
645.124	16436.43
645.477	16321.18
645.83	16225.59
646.182	16263.1
646.535	16299.03
646.888	16337.68
647.24	16330.45
647.593	16536.32
647.945	16475.3
648.298	16291.58
648.65	16341.97
649.002	16311.69
649.355	16363.44
649.707	16369.54
650.059	16448.86
650.411	16682.3
650.763	16709.65
651.115	16926.59
651.467	16931.56
651.819	16908.96
652.171	16899.24
652.523	16785.58
652.875	16906.02
653.227	16861.51
653.578	16950.77
653.93	16954.61
654.282	16919.58
654.633	16877.55
654.985	16996.87
655.337	16959.36
655.688	16954.16
656.039	17052.46
656.391	16988.73
656.742	16948.06
657.094	17040.71
657.445	17033.93
657.796	17014.72
658.147	17053.14
658.498	17072.57
658.849	17071.9
659.2	17108.73
659.551	17119.8
659.902	17168.84
660.253	17112.12
660.604	17090.2
660.955	17040.03
661.306	17163.42
661.656	17116.87
662.007	17039.13
662.358	17194.83
662.708	17139.92
663.059	17028.06
663.409	17091.56
663.76	17207.03
664.11	17063.76
664.461	17131.78
664.811	17188.95
665.161	17126.58
665.511	17131.33
665.862	17044.55
666.212	17136.3
666.562	17123.19
666.912	17114.83
667.262	17092.46
667.612	17051.78
667.962	17048.62
668.312	17049.52
668.662	17117.09
669.011	17021.95
669.361	16993.71
669.711	17035.74
670.06	17044.55
670.41	16914.16
670.76	16937.89
671.109	16988.06
671.459	16963.65
671.808	16928.17
672.157	16949.87
672.507	16796.65
672.856	16815.63
673.205	16862.64
673.554	16853.37
673.904	16718.68
674.253	16797.55
674.602	16695.63
674.951	16462.19
675.3	16334.74
675.649	16675.75
675.998	16594.62
676.346	16606.15
676.695	16641.62
677.044	16432.14
677.393	16600.04
677.741	16567.95
678.09	16512.36
678.438	16463.32
678.787	16501.97
679.135	16442.08
679.484	16367.51
679.832	16417.68
680.181	16284.35
680.529	16300.39
680.877	16308.98
681.225	16278.47
681.573	16265.36
681.922	16156.67
682.27	16131.81
682.618	16155.99
682.966	16043.22
683.314	16144.46
683.661	16068.53
684.009	15966.16
684.357	16008.65
684.705	15879.38
685.053	15974.3
685.4	15872.38
685.748	15821.53
686.095	15876.22
686.443	15709.67
686.79	15732.04
687.138	15755.77
687.485	15798.03
687.832	15757.58
688.18	15723.91
688.527	15579.73
688.874	15649.56
689.221	15526.4
689.568	15535.66
689.915	15637.58
690.262	15621.09
690.609	15517.59
690.956	15435.78
691.303	15466.29
691.65	15443.69
691.997	15387.65
692.344	15258.38
692.69	15316.91
693.037	15266.07
693.383	15204.83
693.73	15163.7
694.077	15109.46
694.423	15168.22
694.769	15181.1
695.116	15229.91
695.462	15075.79
695.808	15067.2
696.155	15186.3
696.501	14987.43
696.847	15025.85
697.193	14947.43
697.539	14990.82
697.885	14918.51
698.231	14843.25
698.577	14871.95
698.923	14811.84
699.269	14899.98
699.614	14788.79
699.96	14736.14
700.306	14786.08
700.651	14692.75
700.997	14722.8
701.342	14715.35
701.688	14662.69
702.033	14638.06
702.379	14673.54
702.724	14626.99
703.069	14713.31
703.415	14510.61
703.76	14558.29
704.105	14565.52
704.45	14519.87
704.795	14443.49
705.14	14413.66
705.485	14449.82
705.83	14360.33
706.175	14450.5
706.52	14360.55
706.865	14422.25
707.209	14286.43
707.554	14222.48
707.899	14395.81
708.243	14268.58
708.588	14205.3
708.932	14267.22
709.277	14189.94
709.621	14240.11
709.966	14152.88
710.31	14243.95
710.654	14064.74
710.998	14122.59
711.342	14077.62
711.687	14154.91
712.031	14059.32
712.375	14081.24
712.719	14074.01
713.063	14116.04
713.407	14097.51
713.75	14065.65
714.094	14005.54
714.438	14048.7
714.782	14049.6
715.125	13948.59
715.469	14031.3
715.812	14001.92
716.156	13815.48
716.499	13936.38
716.843	13933.9
717.186	13886.89
717.53	13980.45
717.873	13990.62
718.216	13914.01
718.559	13884.63
718.902	13830.85
719.246	13866.78
719.589	13851.64
719.932	13833.11
720.275	13763.96
720.617	13816.16
720.96	13843.96
721.303	13750.18
721.646	13859.55
721.989	13688.03
722.331	13795.37
722.674	13730.97
723.016	13760.57
723.359	13750.18
723.701	13803.51
724.044	13625.21
724.386	13669.73
724.729	13719.67
725.071	13722.15
725.413	13851.42
725.755	13704.3
726.097	13629.27
726.439	13655.71
726.782	13605.55
727.124	13730.51
727.465	13640.57
727.807	13610.52
728.149	13658.88
728.491	13637.86
728.833	13656.62
729.175	13616.17
729.516	13543.4
729.858	13632.44
730.199	13617.3
730.541	13659.33
730.882	13571.42
731.224	13657.52
731.565	13491.65
731.906	13623.4
732.248	13668.37
732.589	13596.51
732.93	13554.7
733.271	13543.85
733.612	13582.95
733.953	13664.08
734.294	13596.96
734.635	13553.34
734.976	13681.48
735.317	13537.98
735.658	13623.62
735.999	13603.06
736.339	13674.92
736.68	13681.48
737.021	13734.13
737.361	13694.58
737.702	13750.63
738.042	13756.05
738.383	13708.82
738.723	13831.3
739.063	13721.48
739.404	13767.12
739.744	13745.43
740.084	13693
740.424	13823.17
740.764	13803.06
741.104	13887.35
741.444	13871.53
741.784	13785.88
742.124	13955.82
742.464	13948.14
742.804	13984.29
743.143	13936.84
743.483	13937.29
743.823	13960.11
744.162	13955.14
744.502	14040.56
744.841	14078.75
745.181	14099.32
745.52	14069.71
745.86	14204.85
746.199	14156.49
746.538	14177.28
746.877	14207.79
747.216	14186.1
747.556	14212.76
747.895	14288.69
748.234	14298.41
748.573	14265.19
748.911	14284.17
749.25	14322.59
749.589	14303.38
749.928	14368.46
750.267	14474.45
750.605	14484.39
750.944	14354.68
751.283	14422.7
751.621	14504.51
751.96	14445.3
752.298	14495.47
752.636	14444.62
752.975	14451.63
753.313	14490.27
753.651	14518.97
753.989	14572.53
754.327	14645.07
754.666	14496.82
755.004	14673.99
755.342	14628.57
755.679	14698.85
756.017	14687.33
756.355	14681.45
756.693	14707.89
757.031	14741.79
757.368	14729.58
757.706	14798.06
758.044	14817.72
758.381	14797.38
758.719	14779.3
759.056	14891.39
759.394	14815.01
759.731	14818.85
760.068	14905.85
760.405	14816.14
760.743	14876.02
761.08	14962.35
761.417	14867.89
761.754	14879.64
762.091	14957.15
762.428	14919.86
762.765	14859.3
763.102	15034.89
763.438	14904.04
763.775	14881.22
764.112	14935.45
764.449	15022.91
764.785	14989.46
765.122	14864.72
765.458	14909.24
765.795	14967.54
766.131	14998.5
766.467	14956.25
766.804	14963.93
767.14	14871.95
767.476	14956.25
767.812	14876.47
768.148	14917.6
768.485	14960.31
768.821	14816.81
769.157	14916.47
769.492	14946.08
769.828	14916.02
770.164	14822.46
770.5	14860.43
770.836	14829.24
771.171	14856.59
771.507	14878.96
771.842	14769.13
772.178	14930.71
772.513	14816.36
772.849	14802.8
773.184	14707.89
773.519	14764.61
773.855	14801.22
774.19	14746.99
774.525	14681.45
774.86	14737.95
775.195	14784.72
775.53	14852.29
775.865	14742.47
776.2	14633.09
776.535	14617.95
776.87	14618.85
777.205	14625.63
777.539	14638.97
777.874	14665.86
778.209	14569.81
778.543	14535.24
778.878	14537.27
779.212	14571.62
779.547	14474.45
779.881	14523.94
780.215	14479.2
780.55	14549.02
780.884	14415.02
781.218	14466.99
781.552	14482.81
781.886	14475.35
782.22	14380.44
782.554	14372.98
782.888	14234.91
783.222	14294.12
783.556	14237.39
783.889	14265.42
784.223	14057.96
784.557	14203.04
784.89	14243.27
785.224	14246.21
785.557	14152.88
785.891	14182.25
786.224	14114.91
786.558	14227.68
786.891	14026.78
787.224	14098.19
787.557	14047.12
787.891	13979.55
788.224	14007.12
788.557	13993.56
788.89	14017.29
789.223	14058.42
789.556	13933.67
789.888	13817.74
790.221	13862.94
790.554	13838.53
790.887	13830.85
791.219	13783.17
791.552	13785.43
791.884	13776.62
792.217	13774.81
792.549	13710.4
792.882	13688.93
793.214	13613.46
793.546	13756.5
793.879	13685.54
794.211	13566.45
794.543	13639.67
794.875	13549.05
795.207	13639.9
795.539	13629.5
795.871	13550.41
796.203	13413.01
796.535	13474.93
796.867	13517.41
797.198	13426.57
797.53	13375.95
797.862	13399.9
798.193	13439
798.525	13357.42
798.856	13337.08
799.188	13292.11
799.519	13263.41
799.85	13201.26
800.182	13188.61
800.513	13246.91
800.844	13123.07
801.175	13203.3
801.506	13158.78
801.837	13172.11
802.168	13122.62
802.499	13127.37
802.83	13063.19
803.161	13050.31
803.491	13001.95
803.822	12975.73
804.153	13034.04
804.483	12883.98
804.814	12840.59
805.145	12878.11
805.475	12904.55
805.805	12809.41
806.136	12895.73
806.466	12891.67
806.796	12842.85
807.126	12773.48
807.457	12748.39
807.787	12716.08
808.117	12637.21
808.447	12636.53
808.777	12617.78
809.107	12676.31
809.436	12651
809.766	12647.83
810.096	12516.08
810.426	12507.5
810.755	12574.61
811.085	12482.41
811.414	12467.72
811.744	12397.67
812.073	12429.31
812.403	12477.21
812.732	12455.75
813.061	12481.73
813.39	12298.69
813.719	12314.28
814.049	12393.6
814.378	12385.24
814.707	12316.77
815.036	12267.28
815.365	12252.81
815.693	12156.54
816.022	12212.59
816.351	12097.34
816.68	12090.78
817.008	12096.89
817.337	12028.64
817.665	12023.21
817.994	12068.64
818.322	11999.71
818.651	12015.31
818.979	11930.56
819.307	12015.53
819.636	11965.14
819.964	11917.46
820.292	11999.49
820.62	11840.85
820.948	11903.22
821.276	12017.57
821.604	11838.36
821.932	11950
822.259	11935.53
822.587	11988.64
822.915	11873.61
823.243	11936.21
823.57	11915.42
823.898	11959.04
824.225	11918.58
824.553	11994.06
824.88	11892.14
825.207	12006.49
825.535	11932.6
825.862	12013.27
826.189	11932.37
826.516	11873.84
826.843	12006.72
827.17	11999.94
827.497	12055.3
827.824	11999.49
828.151	12092.37
828.478	11954.74
828.805	12022.76
829.131	11958.58
829.458	12029.99
829.785	11985.25
830.111	11981.41
830.438	11994.29
830.764	12035.64
831.09	12022.54
831.417	12001.75
831.743	11976.89
832.069	12021.18
832.395	12008.3
832.722	11938.92
833.048	11895.99
833.374	11933.05
833.7	11958.81
834.026	11971.24
834.351	11976.21
834.677	11941.41
835.003	12045.14
835.329	11985.25
835.654	11910.68
835.98	11917
836.306	11925.36
836.631	11893.5
836.956	11878.36
837.282	11891.69
837.607	11817.34
837.932	11900.73
838.258	11891.92
838.583	11840.17
838.908	11692.6
839.233	11792.49
839.558	11757.91
839.883	11670
840.208	11660.96
840.533	11762.88
840.858	11667.29
841.182	11705.48
841.507	11687.86
841.832	11591.59
842.156	11656.67
842.481	11698.93
842.805	11613.96
843.13	11528.31
843.454	11544.58
843.778	11498.26
844.103	11520.18
844.427	11436.11
844.751	11503.91
845.075	11448.77
845.399	11376.45
845.723	11399.05
846.047	11353.4
846.371	11344.59
846.695	11237.02
847.019	11171.03
847.343	11127.65
847.666	11187.3
847.99	11024.6
848.313	11048.33
848.637	11013.75
848.96	10982.79
849.284	10936.01
849.607	10884.71
849.931	10872.96
850.254	10812.17
850.577	10757.26
850.9	10690.59
851.223	10696.47
851.546	10721.78
851.869	10521.33
852.192	10621.44
852.515	10496.25
852.838	10461
853.161	10510.26
853.483	10512.75
853.806	10420.09
854.129	10381.68
854.451	10321.79
854.774	10317.72
855.096	10286.54
855.419	10327.89
855.741	10204.28
856.063	10117.28
856.385	10141.23
856.708	10100.55
857.03	10094
857.352	10108.01
857.674	10033.44
857.996	10050.39
858.318	9943.04
858.64	9955.92
858.961	9894.01
859.283	9878.41
859.605	9781.69
859.926	9911.18
860.248	9874.34
860.57	9755.7
860.891	9931.07
861.212	9734.01
861.534	9787.34
861.855	9733.11
862.176	9679.32
862.498	9687.46
862.819	9700.79
863.14	9757.51
863.461	9680.45
863.782	9635.48
864.103	9652.2
864.424	9583.51
864.745	9623.73
865.065	9539.21
865.386	9528.59
865.707	9550.06
866.027	9553
866.348	9525.43
866.668	9502.6
866.989	9482.94
867.309	9425.09
867.63	9461.02
867.95	9438.65
868.27	9330.86
868.59	9384.41
868.91	9345.09
869.23	9372.66
869.55	9342.83
869.87	9399.1
870.19	9375.83
870.51	9361.14
870.83	9335.38
871.15	9282.72
871.469	9325.43
871.789	9277.75
872.109	9250.18
872.428	9214.7
872.748	9240.69
873.067	9223.74
873.386	9241.59
873.706	9191.42
874.025	9137.64
874.344	9202.72
874.663	9157.98
874.982	9174.7
875.301	9181.26
875.62	9127.47
875.939	9131.77
876.258	9121.14
876.577	9058.55
876.896	9068.72
877.214	9015.16
877.533	9046.57
877.852	8989.4
878.17	9010.19
878.489	9019.23
878.807	9003.63
879.125	9007.02
879.444	9012.45
879.762	8922.96
880.08	8868.95
880.398	8924.09
880.716	8953.69
881.034	8869.85
881.352	8877.31
881.67	8843.86
881.988	8824.43
882.306	8850.87
882.624	8812.45
882.941	8696.07
883.259	8735.39
883.577	8730.65
883.894	8707.14
884.212	8710.76
884.529	8628.05
884.846	8675.51
885.164	8672.57
885.481	8624.89
885.798	8567.49
886.115	8577.66
886.432	8504.89
886.75	8514.61
887.067	8486.58
887.383	8481.16
887.7	8502.18
888.017	8367.94
888.334	8468.96
888.651	8364.78
888.967	8417.89
889.284	8327.94
889.6	8316.65
889.917	8272.58
890.233	8285.91
890.55	8256.31
890.866	8233.94
891.182	8239.36
891.498	8247.27
891.815	8174.5
892.131	8200.49
892.447	8096.76
892.763	8075.97
893.079	8098.57
893.395	8046.37
893.71	8076.88
894.026	8016.54
894.342	7975.86
894.657	7986.26
894.973	7974.06
895.289	7956.2
895.604	7921.85
895.92	7861.06
896.235	7837.34
896.55	7826.72
896.865	7809.54
897.181	7747.4
897.496	7752.59
897.811	7691.13
898.126	7695.87
898.441	7682.76
898.756	7701.52
899.071	7586.5
899.386	7577.46
899.7	7567.51
900.015	7476.44
900.33	7477.35
900.644	7500.62
900.959	7466.5
901.273	7427.86
901.588	7410.45
901.902	7372.72
902.216	7334.07
902.531	7270.35
902.845	7281.87
903.159	7263.79
903.473	7245.04
903.787	7210.01
904.101	7154.87
904.415	7253.4
904.729	7118.26
905.042	7053.63
905.356	7077.81
905.67	7066.28
905.984	7090.69
906.297	7002.56
906.611	6970.69
906.924	6967.08
907.237	6931.37
907.551	6901.77
907.864	6871.94
908.177	6858.15
908.491	6846.4
908.804	6823.8
909.117	6755.1
909.43	6764.37
909.743	6686.18
910.056	6697.25
910.368	6677.59
910.681	6587.2
910.994	6580.87
911.307	6534.09
911.619	6510.82
911.932	6507.65
912.244	6554.88
912.557	6503.59
912.869	6452.97
913.181	6470.37
913.494	6450.93
913.806	6323.03
914.118	6397.15
914.43	6302.24
914.742	6251.62
915.054	6274.89
915.366	6204.16
915.678	6251.16
915.99	6212.97
916.302	6156.7
916.613	6147.21
916.925	6165.52
917.236	6105.86
917.548	6084.16
917.859	6097.5
918.171	6065.86
918.482	6045.29
918.794	5983.83
919.105	6000.1
919.416	5954.9
919.727	5921.91
920.038	5896.6
920.349	5862.92
920.66	5814.11
920.971	5798.52
921.282	5846.88
921.593	5739.31
921.903	5742.7
922.214	5758.75
922.525	5703.61
922.835	5685.98
923.146	5621.35
923.456	5638.52
923.767	5606.43
924.077	5593.1
924.387	5561.01
924.697	5513.1
925.008	5509.49
925.318	5489.83
925.628	5452.99
925.938	5513.1
926.248	5382.71
926.558	5421.58
926.867	5356.95
927.177	5385.65
927.487	5366.67
927.796	5253.45
928.106	5313.79
928.416	5264.07
928.725	5231.53
929.034	5210.06
929.344	5219.55
929.653	5172.77
929.962	5152.21
930.271	5146.79
930.581	5060.91
930.89	5078.76
931.199	5037.18
931.508	5049.84
931.817	5029.73
932.125	5046.68
932.434	5018.88
932.743	4955.6
933.051	4909.05
933.36	4905.21
933.669	4891.65
933.977	4873.57
934.286	4836.51
934.594	4837.64
934.902	4825.89
935.21	4774.82
935.519	4765.55
935.827	4801.26
936.135	4732.56
936.443	4700.7
936.751	4689.85
937.059	4695.72
937.367	4672.45
937.674	4649.4
937.982	4636.29
938.29	4631.32
938.597	4563.52
938.905	4576.41
939.213	4515.16
939.52	4498.67
939.827	4555.39
940.135	4462.74
940.442	4433.36
940.749	4439.23
941.056	4428.61
941.363	4395.39
941.67	4380.48
941.977	4357.43
942.284	4366.02
942.591	4331.67
942.898	4327.15
943.205	4340.71
943.511	4305.45
943.818	4284.21
944.125	4265.23
944.431	4251.67
944.738	4214.61
945.044	4206.25
945.35	4208.05
945.657	4128.73
945.963	4124.89
946.269	4126.47
946.575	4148.62
946.881	4095.06
947.187	4048.28
947.493	4062.07
947.799	4057.32
948.105	4013.26
948.41	3946.37
948.716	4006.7
949.022	4016.42
949.327	3990.21
949.633	3888.97
949.938	3918.8
950.244	3890.77
950.549	3910.21
950.854	3840.15
951.16	3853.26
951.465	3841.96
951.77	3810.1
952.075	3805.13
952.38	3768.29
952.685	3789.08
952.99	3756.31
953.294	3774.17
953.599	3722.19
953.904	3715.41
954.209	3686.26
954.513	3650.1
954.818	3686.26
955.122	3639.93
955.426	3611.01
955.731	3594.28
956.035	3598.35
956.339	3610.78
956.643	3543.21
956.948	3557.67
957.252	3582.98
957.556	3581.63
957.86	3540.5
958.163	3471.8
958.467	3506.38
958.771	3455.76
959.075	3463.67
959.378	3434.97
959.682	3439.71
959.985	3422.54
960.289	3376.89
960.592	3368.98
960.896	3356.32
961.199	3312.94
961.502	3354.52
961.805	3298.02
962.108	3287.17
962.411	3265.48
962.714	3255.76
963.017	3284.01
963.32	3253.5
963.623	3224.12
963.926	3252.37
964.228	3222.77
964.531	3212.83
964.833	3194.29
965.136	3136.22
965.438	3155.2
965.741	3142.77
966.043	3104.35
966.345	3108.2
966.648	3100.29
966.95	3078.37
967.252	3053.51
967.554	3085.14
967.856	3044.92
968.158	3025.26
968.46	3013.06
968.761	3017.58
969.063	3003.11
969.365	2997.92
969.666	2992.27
969.968	2915.21
970.269	2966.5
970.571	2972.83
970.872	2914.53
971.174	2879.27
971.475	2902.55
971.776	2882.21
972.077	2832.95
972.378	2850.35
972.679	2846.96
972.98	2819.16
973.281	2808.77
973.582	2812.61
973.883	2834.98
974.183	2831.14
974.484	2800.18
974.785	2750.69
975.085	2785.04
975.386	2738.04
975.686	2717.92
975.986	2720.86
976.287	2729.22
976.587	2694.65
976.887	2690.58
977.187	2693.97
977.487	2683.35
977.787	2644.25
978.087	2632.28
978.387	2602.9
978.687	2629.11
978.987	2587.53
979.286	2610.81
979.586	2579.4
979.885	2549.34
980.185	2553.41
980.484	2552.96
980.784	2550.92
981.083	2498.95
981.382	2542.33
981.682	2513.18
981.981	2501.66
982.28	2505.73
982.579	2452.17
982.878	2487.19
983.177	2434.31
983.475	2444.48
983.774	2430.47
984.073	2433.18
984.372	2412.62
984.67	2376.91
984.969	2387.54
985.267	2379.63
985.566	2345.05
985.864	2366.52
986.162	2368.1
986.461	2371.94
986.759	2357.25
987.057	2296.92
987.355	2289.69
987.653	2310.48
987.951	2282
988.249	2296.92
988.547	2260.53
988.844	2246.97
989.142	2268.67
989.44	2218.95
989.737	2242
990.035	2201.33
990.332	2192.96
990.63	2195.22
990.927	2186.64
991.224	2183.93
991.521	2159.29
991.819	2175.11
992.116	2140.08
992.413	2145.06
992.71	2099.41
993.006	2117.94
993.303	2112.06
993.6	2094.44
993.897	2080.2
994.193	2052.86
994.49	2055.34
994.787	2082.91
995.083	2027.55
995.379	2045.17
995.676	2021.22
995.972	2008.79
996.268	2025.51
996.565	1990.71
996.861	1986.42
997.157	1995.91
997.453	1986.42
997.749	1946.87
998.044	1934.89
998.34	1942.58
998.636	1914.33
998.932	1932.63
999.227	1927.66
999.523	1930.15
999.818	1913.42
1000.114	1879.53
1000.409	1896.93
1000.704	1883.14
1001	1843.6
1001.295	1820.77
1001.59	1829.81
1001.885	1805.18
1002.18	1775.8
1002.475	1798.85
1002.77	1780.77
1003.065	1756.37
1003.359	1783.94
1003.654	1784.39
1003.949	1744.16
1004.243	1736.93
1004.538	1740.32
1004.832	1754.78
1005.127	1724.95
1005.421	1716.82
1005.715	1714.56
1006.009	1685.63
1006.304	1684.96
1006.598	1663.71
1006.892	1699.42
1007.186	1649.48
1007.48	1652.87
1007.773	1646.99
1008.067	1600.21
1008.361	1631.4
1008.655	1604.51
1008.948	1601.34
1009.242	1607.44
1009.535	1587.56
1009.829	1588.01
1010.122	1552.3
1010.415	1580.33
1010.708	1559.99
1011.001	1542.59
1011.295	1516.82
1011.588	1501.01
1011.881	1491.74
1012.173	1517.05
1012.466	1517.5
1012.759	1487.9
1013.052	1474.34
1013.344	1443.61
1013.637	1471.63
1013.93	1431.18
1014.222	1426.66
1014.514	1446.54
1014.807	1420.56
1015.099	1447.45
1015.391	1458.07
1015.683	1417.62
1015.976	1402.03
1016.268	1383.04
1016.56	1368.81
1016.851	1352.99
1017.143	1392.76
1017.435	1363.16
1017.727	1366.77
1018.018	1311.63
1018.31	1342.37
1018.602	1315.7
1018.893	1357.73
1019.185	1338.75
1019.476	1303.95
1019.767	1315.25
1020.058	1295.14
1020.35	1294.46
1020.641	1287.23
1020.932	1287.23
1021.223	1259.66
1021.514	1255.36
1021.804	1200.9
1022.095	1241.58
1022.386	1203.16
1022.677	1213.33
1022.967	1206.1
1023.258	1206.32
1023.548	1175.59
1023.839	1191.41
1024.129	1181.01
1024.419	1151.64
1024.709	1178.08
1025	1156.83
1025.29	1139.21
1025.58	1179.43
1025.87	1125.65
1026.16	1142.37
1026.449	1148.02
1026.739	1095.37
1027.029	1124.29
1027.319	1075.71
1027.608	1092.65
1027.898	1121.81
1028.187	1061.92
1028.477	1103.5
1028.766	1062.6
1029.055	1070.73
1029.344	1035.03
1029.634	1051.53
1029.923	1061.24
1030.212	1046.78
1030.501	1035.71
1030.79	1046.55
1031.078	998.42
1031.367	1020.57
1031.656	1021.02
1031.945	989.61
1032.233	960.23
1032.522	992.77
1032.81	964.97
1033.099	952.55
1033.387	962.94
1033.675	951.64
1033.963	974.24
1034.251	931.53
1034.54	934.69
1034.828	932.21
1035.116	920.91
1035.403	916.16
1035.691	927.46
1035.979	920.68
1036.267	911.42
1036.554	891.08
1036.842	891.98
1037.129	920.23
1037.417	892.43
1037.704	875.94
1037.992	863.28
1038.279	858.31
1038.566	864.64
1038.853	864.64
1039.14	864.64
