Data from blue_shiny_book_FLMS001491_00072.txt Node
Date: Wed Feb 08 15:27:30 GMT 2017
User: dcchb
Spectrometer: FLMS00149
Trigger mode: 0
Integration Time (sec): 2.000000E-2
Scans to average: 10
Electric dark correction enabled: true
Nonlinearity correction enabled: false
Boxcar width: 0
XAxis mode: Wavelengths
Number of Pixels in Spectrum: 2048
>>>>>Begin Spectral Data<<<<<
341.393	-7.29
341.776	-7.29
342.16	-7.29
342.543	-48.64
342.927	-58.13
343.31	-66.04
343.693	-85.25
344.077	-68.08
344.46	-71.24
344.843	-64.69
345.226	-38.25
345.61	-26.27
345.993	-12.03
346.376	-12.94
346.759	26.16
347.142	34.74
347.525	54.41
347.908	47.85
348.291	88.53
348.674	99.15
349.057	93.95
349.44	119.49
349.823	143.22
350.206	166.49
350.588	175.76
350.971	206.49
351.354	227.73
351.737	241.29
352.119	267.28
352.502	265.47
352.884	274.74
353.267	298.69
353.65	287.17
354.032	308.18
354.414	324.45
354.797	309.77
355.179	302.99
355.562	330.78
355.944	318.81
356.326	342.76
356.709	333.72
357.091	339.14
357.473	323.78
357.855	337.56
358.238	342.08
358.62	365.13
359.002	357.45
359.384	326.04
359.766	350.67
360.148	343.66
360.53	337.56
360.912	316.77
361.294	323.78
361.676	340.27
362.057	341.4
362.439	343.66
362.821	342.31
363.203	329.2
363.584	328.97
363.966	318.81
364.348	334.17
364.729	313.38
365.111	337.56
365.493	320.61
365.874	332.82
366.256	300.05
366.637	326.26
367.019	311.35
367.4	304.34
367.781	324
368.163	323.78
368.544	325.81
368.925	308.18
369.306	318.35
369.688	324.68
370.069	326.94
370.45	312.25
370.831	333.27
371.212	317.68
371.593	322.87
371.974	321.74
372.355	321.52
372.736	330.1
373.117	328.52
373.498	331.23
373.879	329.2
374.26	331.46
374.641	333.27
375.021	307.73
375.402	336.66
375.783	339.82
376.163	353.61
376.544	330.33
376.925	347.96
377.305	331.01
377.686	356.77
378.066	363.32
378.447	344.34
378.827	362.42
379.208	373.49
379.588	349.31
379.968	369.2
380.349	356.09
380.729	375.98
381.109	383.89
381.489	351.35
381.87	364.68
382.25	368.07
382.63	389.99
383.01	355.64
383.39	359.26
383.77	386.37
384.15	397.67
384.53	376.43
384.91	397
385.29	392.48
385.67	379.37
386.049	399.03
386.429	409.2
386.809	408.97
387.189	408.07
387.568	417.56
387.948	413.27
388.328	423.21
388.707	408.07
389.087	426.37
389.466	446.03
389.846	421.63
390.225	420.05
390.605	443.55
390.984	429.76
391.363	441.29
391.743	449.65
392.122	459.37
392.501	482.87
392.881	451.68
393.26	476.77
393.639	441.06
394.018	457.78
394.397	472.25
394.776	474.73
395.155	478.12
395.534	483.32
395.913	502.98
396.292	495.75
396.671	486.71
397.05	495.07
397.429	503.21
397.808	493.04
398.186	501.4
398.565	518.57
398.944	511.57
399.323	540.27
399.701	519.03
400.08	540.95
400.458	571.23
400.837	512.25
401.215	540.95
401.594	544.11
401.972	560.83
402.351	549.99
402.729	560.61
403.107	586.14
403.486	579.14
403.864	574.39
404.242	587.05
404.62	575.52
404.999	609.64
405.377	640.38
405.755	609.19
406.133	630.66
406.511	628.85
406.889	649.64
407.267	651.9
407.645	674.5
408.023	662.75
408.401	673.15
408.779	688.29
409.156	693.03
409.534	697.55
409.912	670.43
410.29	699.13
410.667	709.3
411.045	721.73
411.422	781.17
411.8	741.17
412.178	767.83
412.555	784.78
412.933	792.47
413.31	828.62
413.687	793.82
414.065	827.04
414.442	827.94
414.819	799.02
415.197	827.94
415.574	824.1
415.951	852.12
416.328	879.24
416.705	895.51
417.082	885.8
417.46	901.39
417.837	927.6
418.214	922.86
418.591	914.27
418.967	915.85
419.344	940.94
419.721	943.2
420.098	956.3
420.475	994.95
420.852	968.28
421.228	1000.6
421.605	1033.59
421.982	1007.6
422.358	1015.51
422.735	1032.68
423.111	1039.92
423.488	1065.9
423.864	1070.65
424.241	1097.32
424.617	1105
424.994	1091.21
425.37	1112.23
425.746	1113.81
426.123	1132.34
426.499	1146.35
426.875	1196.3
427.251	1182.51
427.627	1209.18
428.003	1228.16
428.379	1218.89
428.756	1255.05
429.132	1280.81
429.507	1274.71
429.883	1294.37
430.259	1316.75
430.635	1329.85
431.011	1356.97
431.387	1388.83
431.763	1428.15
432.138	1435.16
432.514	1461.83
432.89	1484.65
433.265	1498.21
433.641	1500.7
434.016	1541.6
434.392	1554.93
434.767	1579.56
435.143	1579.56
435.518	1597.87
435.894	1660.69
436.269	1647.36
436.644	1690.29
437.02	1682.61
437.395	1700.69
437.77	1733.23
438.145	1747.02
438.52	1760.8
438.895	1770.07
439.271	1786.11
439.646	1838.09
440.021	1829.5
440.395	1851.42
440.77	1856.62
441.145	1869.95
441.52	1938.42
441.895	1952.21
442.27	1945.43
442.645	1989.5
443.019	1947.01
443.394	1966.22
443.769	1990.63
444.143	1973.22
444.518	2020.46
444.892	2044.18
445.267	2035.6
445.641	2094.58
446.016	2102.26
446.39	2134.58
446.764	2159.21
447.139	2160.79
447.513	2168.47
447.887	2191.3
448.262	2222.71
448.636	2219.09
449.01	2271.3
449.384	2255.7
449.758	2275.59
450.132	2323.05
450.506	2321.92
450.88	2361.24
451.254	2346.1
451.628	2429.03
452.002	2424.29
452.376	2434.91
452.75	2444.4
453.123	2482.14
453.497	2523.94
453.871	2564.17
454.244	2604.62
454.618	2621.12
454.992	2682.13
455.365	2651.17
455.739	2757.61
456.112	2775.69
456.486	2808.68
456.859	2846.65
457.232	2902.69
457.606	2881.9
457.979	2949.7
458.352	2997.83
458.725	3058.39
459.099	3012.75
459.472	3108.79
459.845	3149.47
460.218	3159.18
460.591	3196.7
460.964	3213.19
461.337	3279.63
461.71	3326.64
462.083	3416.12
462.456	3437.82
462.829	3414.77
463.201	3505.61
463.574	3541.77
463.947	3608.21
464.32	3644.37
464.692	3747.19
465.065	3686.85
465.438	3783.12
465.81	3798.49
466.183	3845.04
466.555	3956.9
466.928	3942.89
467.3	3977.24
467.672	4087.07
468.045	4203.67
468.417	4185.82
468.789	4242.54
469.161	4273.5
469.534	4376.33
469.906	4447.74
470.278	4477.79
470.65	4522.08
471.022	4646.83
471.394	4691.12
471.766	4696.09
472.138	4812.7
472.51	4878.69
472.882	4966.59
473.253	5001.17
473.625	5117.78
473.997	5256.75
474.369	5301.27
474.74	5354.83
475.112	5443.87
475.484	5489.52
475.855	5611.32
476.227	5660.13
476.598	5835.27
476.97	5845.89
477.341	5967.24
477.713	6078.88
478.084	6144.64
478.455	6266.22
478.827	6327.01
479.198	6517.74
479.569	6615.14
479.94	6736.72
480.311	6781.91
480.682	7008.35
481.053	7124.73
481.424	7240.21
481.795	7249.24
482.166	7407.43
482.537	7460.31
482.908	7661.21
483.279	7729.68
483.65	7908.44
484.021	8070.69
484.391	8136.23
484.762	8282.44
485.133	8349.33
485.503	8530.79
485.874	8609.21
486.244	8704.12
486.615	8892.37
486.985	9068.41
487.356	9222.3
487.726	9204.45
488.097	9470.43
488.467	9554.49
488.837	9717.88
489.207	9864.99
489.578	9975.5
489.948	10177.98
490.318	10209.84
490.688	10286
491.058	10459.78
491.428	10620
491.798	10712.43
492.168	10916.94
492.538	10965.98
492.908	11185.19
493.278	11299.99
493.648	11279.42
494.017	11409.59
494.387	11538.85
494.757	11627.43
495.126	11770.26
495.496	11849.12
495.866	12038.95
496.235	12079.63
496.605	12239.85
496.974	12316.68
497.344	12422.44
497.713	12546.51
498.082	12702.66
498.452	12878.93
498.821	12880.73
499.19	12889.55
499.559	13095.64
499.928	13075.31
500.298	13247.5
500.667	13363.21
501.036	13365.24
501.405	13556.65
501.774	13616.76
502.143	13762.29
502.512	13833.25
502.88	13937.43
503.249	14070.31
503.618	14127.48
503.987	14271.66
504.356	14325.44
504.724	14367.93
505.093	14424.87
505.462	14575.83
505.83	14601.59
506.199	14738.31
506.567	14898.76
506.936	14955.48
507.304	15134.01
507.672	15205.87
508.041	15253.78
508.409	15345.3
508.777	15573.09
509.145	15697.16
509.514	15681.57
509.882	15887.21
510.25	15903.71
510.618	16037.26
510.986	16154.1
511.354	16238.16
511.722	16453.97
512.09	16602.9
512.458	16519.28
512.826	16752.27
513.193	16755.44
513.561	16886.96
513.929	16936.67
514.297	17133.05
514.664	17214.41
515.032	17231.35
515.4	17408.3
515.767	17526.26
516.135	17676.54
516.502	17666.37
516.869	18051.45
517.237	18062.97
517.604	18159.24
517.972	18323.76
518.339	18433.13
518.706	18567.82
519.073	18709.06
519.44	18773.01
519.808	18915.38
520.175	18933.91
520.542	19160.34
520.909	19294.58
521.276	19152.89
521.643	19417.74
522.009	19592.87
522.376	19798.74
522.743	19848.01
523.11	20078.29
523.477	20330.93
523.843	20491.83
524.21	20659.06
524.577	20944.25
524.943	21042.33
525.31	21181.53
525.676	21449.77
526.043	21547.85
526.409	21687.73
526.776	21740.16
527.142	21865.13
527.508	21861.29
527.874	22057.89
528.241	22174.28
528.607	22275.29
528.973	22496.3
529.339	22439.58
529.705	22636.18
530.071	22882.28
530.437	23068.49
530.803	23294.47
531.169	23474.81
531.535	23382.38
531.901	23632.32
532.267	23834.57
532.632	23951.18
532.998	23976.49
533.364	24186.65
533.73	24192.3
534.095	24319.76
534.461	24420.32
534.826	24611.73
535.192	24535.57
535.557	24729.91
535.923	24650.37
536.288	24627.77
536.653	24838.39
537.019	24828.9
537.384	25023.69
537.749	25246.74
538.114	25272.27
538.479	25496.22
538.845	25582.1
539.21	25596.33
539.575	25732.15
539.94	25919.71
540.305	26053.27
540.67	26025.47
541.034	26176.43
541.399	26245.81
541.764	26300.27
542.129	26314.28
542.494	26336.2
542.858	26313.6
543.223	26378.01
543.587	26544.56
543.952	26390.66
544.316	26560.83
544.681	26513.82
545.045	26744.78
545.41	26819.35
545.774	26969.63
546.138	27006.92
546.503	27300.47
546.867	27191.77
547.231	27591.31
547.595	27627.47
547.959	27702.04
548.324	27716.05
548.688	27842.15
549.052	27860.23
549.416	27874.69
549.779	27804.64
550.143	27826.78
550.507	27931.19
550.871	27827.01
551.235	27856.61
551.599	28088.02
551.962	28109.94
552.326	28085.53
552.689	28272.87
553.053	28135.25
553.417	28282.36
553.78	28705.63
554.143	28582.02
554.507	28836.25
554.87	28858.85
555.234	29337.25
555.597	29275.11
555.96	29430.81
556.323	29447.08
556.686	29554.19
557.05	29652.27
557.413	29664.47
557.776	29736.34
558.139	29728.65
558.502	29679.39
558.865	29743.79
559.228	29772.95
559.59	29875.09
559.953	29814.53
560.316	30064.69
560.679	30217.23
561.041	30310.33
561.404	30488.18
561.767	30712.36
562.129	30661.28
562.492	31095.17
562.854	31054.27
563.217	31212.91
563.579	31396.41
563.941	31604.99
564.304	31779.22
564.666	32093.11
565.028	32032.77
565.39	32093.34
565.753	32084.3
566.115	32285.87
566.477	32312.09
566.839	32263.95
567.201	32369.04
567.563	32313.9
567.925	32561.35
568.287	32299.21
568.648	32473.44
569.01	32682.25
569.372	32805.18
569.734	32736.71
570.095	32867.33
570.457	33187.09
570.819	33130.37
571.18	33326.52
571.542	33679.96
571.903	33706.63
572.265	33898.49
572.626	33999.95
572.987	34164.47
573.349	34287.18
573.71	34338.93
574.071	34414.63
574.432	34428.64
574.794	34742.53
575.155	34598.58
575.516	34454.4
575.877	34552.03
576.238	34573.95
576.599	34608.98
576.96	34588.41
577.32	34540.05
577.681	34714.96
578.042	34735.75
578.403	34808.75
578.763	34625.25
579.124	34896.88
579.485	34951.34
579.845	35129.19
580.206	35268.62
580.566	35307.72
580.927	35572.57
581.287	35662.06
581.648	35601.95
582.008	35696.18
582.368	35633.13
582.728	35947.25
583.089	35871.32
583.449	35828.38
583.809	35832.22
584.169	35791.09
584.529	35658.44
584.889	35838.55
585.249	35639.46
585.609	35388.39
585.969	35610.53
586.329	35366.7
586.688	35432.23
587.048	35495.51
587.408	35433.59
587.768	35388.17
588.127	35515.39
588.487	35439.01
588.846	35781.38
589.206	35593.58
589.565	35674.71
589.925	35886.91
590.284	35836.52
590.643	36004.19
591.003	36336.62
591.362	36310.63
591.721	36201.03
592.08	36292.32
592.44	36496.39
592.799	36425.43
593.158	36301.36
593.517	36198.31
593.876	36323.51
594.235	36085.32
594.593	36112.21
594.952	36193.34
595.311	35978.88
595.67	36008.94
596.029	36151.99
596.387	36048.49
596.746	35973.01
597.104	35878.1
597.463	36028.83
597.822	36096.62
598.18	36149.05
598.538	36160.12
598.897	36320.12
599.255	36024.98
599.613	36568.93
599.972	36489.61
600.33	36522.15
600.688	36582.94
601.046	36766.66
601.404	37043.94
601.762	36854.57
602.12	36984.51
602.478	36939.99
602.836	36989.93
603.194	36787.68
603.552	36701.35
603.91	36526.44
604.268	36741.35
604.625	36546.33
604.983	36549.72
605.341	36299.55
605.698	36550.85
606.056	36629.94
606.413	36534.12
606.771	36652.54
607.128	36634.46
607.485	36484.41
607.843	36655.93
608.2	36870.61
608.557	36949.71
608.914	36951.06
609.272	37240.55
609.629	37199.19
609.986	37473.53
610.343	37405.74
610.7	37577.26
611.057	37482.8
611.414	37583.36
611.771	37660.42
612.127	37720.08
612.484	37752.4
612.841	37976.35
613.198	37745.39
613.554	37802.57
613.911	38085.72
614.267	37840.98
614.624	37742.45
614.98	37881.66
615.337	37983.35
615.693	37766.18
616.05	37606.19
616.406	37777.48
616.762	37706.3
617.118	37574.1
617.475	37746.07
617.831	37784.94
618.187	37840.3
618.543	37981.32
618.899	38215.89
619.255	38093.18
619.611	38187.19
619.967	38270.35
620.323	38376.11
620.678	38341.31
621.034	38322.78
621.39	38601.64
621.746	38561.87
622.101	39025.81
622.457	38688.87
622.812	38638.48
623.168	39006.15
623.523	38851.35
623.879	38993.72
624.234	38684.58
624.589	38797.12
624.945	38621.53
625.3	38721.19
625.655	38664.92
626.01	38475.99
626.365	38485.71
626.72	38416.11
627.075	38346.05
627.43	38311.25
627.785	38165.72
628.14	38253.17
628.495	38151.93
628.85	38261.76
629.205	38132.05
629.559	38372.95
629.914	38306.28
630.269	38332.72
630.623	38283.68
630.978	38289.11
631.332	38433.28
631.687	38534.3
632.041	38346.51
632.396	38524.35
632.75	38373.62
633.104	38468.31
633.459	38417.01
633.813	38426.73
634.167	38223.8
634.521	38289.56
634.875	38175.21
635.229	38136.57
635.583	38051.15
635.937	37899.96
636.291	37899.96
636.645	37861.09
636.999	37625.85
637.352	37752.85
637.706	37560.09
638.06	37596.92
638.413	37370.26
638.767	37288.23
639.121	37248.68
639.474	37052.53
639.828	37026.09
640.181	36975.69
640.534	37004.62
640.888	36931.4
641.241	36794.91
641.594	37128.91
641.947	37218.17
642.301	37196.03
642.654	37272.18
643.007	37315.8
643.36	37215.69
643.713	37153.54
644.066	37372.07
644.419	37189.02
644.771	37189.02
645.124	37049.82
645.477	37234.44
645.83	36819.09
646.182	36688.7
646.535	36221.82
646.888	36012.56
647.24	35657.99
647.593	35780.47
647.945	35643.98
648.298	35481.72
648.65	35573.7
649.002	35326.7
649.355	35532.34
649.707	35537.54
650.059	35733.24
650.411	36271.76
650.763	36320.12
651.115	36485.31
651.467	36347.46
651.819	36209.16
652.171	36113.57
652.523	36155.83
652.875	36217.07
653.227	36185.21
653.578	36382.72
653.93	36410.06
654.282	36134.59
654.633	36077.64
654.985	36375.48
655.337	36173.91
655.688	36486.67
656.039	36627.46
656.391	36365.09
656.742	36296.16
657.094	36406.44
657.445	36562.37
657.796	36484.41
658.147	36417.29
658.498	36300.46
658.849	36486.44
659.2	36341.59
659.551	36204.64
659.902	36088.03
660.253	36263.62
660.604	36235.37
660.955	36015.27
661.306	36120.35
661.656	35949.51
662.007	35823.86
662.358	35760.59
662.708	35822.73
663.059	35786.35
663.409	35602.85
663.76	35729.63
664.11	35667.48
664.461	35617.54
664.811	35636.75
665.161	35503.64
665.511	35525.79
665.862	35655.73
666.212	35734.6
666.562	35809.62
666.912	35679.91
667.262	35846.01
667.612	35912.67
667.962	36064.53
668.312	35974.82
668.662	36264.07
669.011	36028.6
669.361	35965.1
669.711	36056.4
670.06	35913.8
670.41	35887.81
670.76	35916.97
671.109	35840.58
671.459	35790.87
671.808	35480.82
672.157	35696.63
672.507	35455.28
672.856	35492.34
673.205	35551.33
673.554	35584.77
673.904	35307.26
674.253	35461.84
674.602	35041.28
674.951	34723.1
675.3	34327.85
675.649	35087.61
675.998	34985.92
676.346	34953.15
676.695	34969.87
677.044	34629.99
677.393	34750.67
677.741	34896.43
678.09	34721.52
678.438	34860.95
678.787	34820.04
679.135	34744.34
679.484	34795.19
679.832	34781.85
680.181	34700.05
680.529	34983.88
680.877	34912.92
681.225	34963.09
681.573	35106.82
681.922	34899.14
682.27	34806.71
682.618	34797.22
682.966	34733.27
683.314	34765.58
683.661	34650.78
684.009	34382.32
684.357	34331.7
684.705	34328.98
685.053	34288.99
685.4	34121.53
685.748	33974.64
686.095	33906.62
686.443	33600.19
686.79	33602.68
687.138	33455.34
687.485	33430.02
687.832	33283.36
688.18	33255.11
688.527	33136.93
688.874	32828.23
689.221	32844.5
689.568	32665.75
689.915	32758.63
690.262	32708.46
690.609	32606.77
690.956	32504.63
691.303	32476.15
691.65	32447.9
691.997	32180.57
692.344	32195.93
692.69	32123.84
693.037	32264.18
693.383	32035.03
693.73	32281.35
694.077	32055.15
694.423	31979.44
694.769	31896.05
695.116	31887.47
695.462	31895.6
695.808	31780.58
696.155	31933.57
696.501	31705.1
696.847	31583.75
697.193	31303.53
697.539	31425.78
697.885	31142.85
698.231	31045.45
698.577	30932.24
698.923	30826.48
699.269	30679.81
699.614	30572.47
699.96	30336.1
700.306	30398.01
700.651	30065.37
700.997	29912.6
701.342	29897.01
701.688	29777.69
702.033	29597.58
702.379	29481.65
702.724	29412.28
703.069	29580.18
703.415	29220.87
703.76	29156.01
704.105	29169.8
704.45	29148.1
704.795	28999.63
705.14	28936.81
705.485	28896.36
705.83	28859.52
706.175	28911.05
706.52	28876.7
706.865	28864.04
707.209	28898.39
707.554	28875.79
707.899	28799.64
708.243	28558.06
708.588	28750.6
708.932	28507.67
709.277	28505.41
709.621	28653.88
709.966	28513.32
710.31	28596.25
710.654	28175.02
710.998	28166.66
711.342	28119.66
711.687	28065.87
712.031	27958.3
712.375	27833.56
712.719	27972.54
713.063	27714.24
713.407	27724.64
713.75	27612.55
714.094	27417.53
714.438	27278.1
714.782	27239.23
715.125	26964.88
715.469	27065.9
715.812	26906.13
716.156	26633.59
716.499	26790.43
716.843	26759.47
717.186	26592.92
717.53	26684.89
717.873	26627.27
718.216	26654.61
718.559	26711.33
718.902	26547.49
719.246	26640.6
719.589	26558.57
719.932	26667.04
720.275	26588.17
720.617	26556.31
720.96	26581.17
721.303	26489.19
721.646	26466.14
721.989	26564.44
722.331	26617.32
722.674	26655.06
723.016	26632.01
723.359	26594.72
723.701	26525.57
724.044	26435.41
724.386	26324.68
724.729	26546.82
725.071	26403.32
725.413	26308.4
725.755	26309.31
726.097	26194.06
726.439	26030.9
726.782	26102.08
727.124	26127.39
727.465	25951.8
727.807	25856.21
728.149	25764.46
728.491	25698.48
728.833	25684.01
729.175	25629.1
729.516	25599.04
729.858	25560.85
730.199	25567.86
730.541	25376.45
730.882	25450.35
731.224	25437.92
731.565	25251.48
731.906	25327.64
732.248	25407.86
732.589	25164.25
732.93	25184.14
733.271	25259.84
733.612	25383.91
733.953	25229.34
734.294	25242.67
734.635	25326.28
734.976	25417.35
735.317	25264.59
735.658	25407.41
735.999	25501.65
736.339	25399.73
736.68	25587.97
737.021	25522.21
737.361	25393.17
737.702	25555.43
738.042	25550.46
738.383	25405.38
738.723	25659.83
739.063	25589.78
739.404	25752.49
739.744	25729.44
740.084	25526.28
740.424	25576.22
740.764	25525.15
741.104	25592.26
741.444	25443.57
741.784	25268.66
742.124	25327.19
742.464	25309.33
742.804	25254.87
743.143	25268.43
743.483	25310.92
743.823	25135.33
744.162	25078.61
744.502	25107.98
744.841	24971.94
745.181	25089.23
745.52	24941.66
745.86	25143.92
746.199	25206.29
746.538	25104.59
746.877	25091.49
747.216	25096.46
747.556	25004.03
747.895	25157.47
748.234	25094.2
748.573	25066.63
748.911	25110.24
749.25	25223.24
749.589	25063.69
749.928	25262.33
750.267	25339.39
750.605	25300.3
750.944	25403.57
751.283	25399.05
751.621	25596.33
751.96	25439.5
752.298	25504.81
752.636	25606.5
752.975	25444.92
753.313	25509.33
753.651	25706.61
753.989	25685.14
754.327	25618.93
754.666	25655.09
755.004	25890.79
755.342	25784.35
755.679	25872.48
756.017	25739.38
756.355	25714.97
756.693	25620.51
757.031	25806.72
757.368	25667.07
757.706	25721.53
758.044	25602.43
758.381	25671.13
758.719	25567.86
759.056	25577.8
759.394	25677.91
759.731	25302.1
760.068	25543.68
760.405	25288.54
760.743	25435.43
761.08	25378.26
761.417	25262.1
761.754	25323.12
762.091	25271.82
762.428	25235.21
762.765	25102.33
763.102	25241.54
763.438	25098.72
763.775	24981.89
764.112	25167.19
764.449	25201.77
764.785	25053.97
765.122	24973.3
765.458	24964.03
765.795	25045.39
766.131	25082.45
766.467	25003.58
766.804	25062.56
767.14	25003.35
767.476	25104.37
767.812	24965.16
768.148	24989.79
768.485	24843.81
768.821	24759.52
769.157	24775.79
769.492	24746.86
769.828	24884.26
770.164	24552.07
770.5	24599.3
770.836	24628.22
771.171	24426.42
771.507	24456.7
771.842	24289.25
772.178	24321.56
772.513	24306.42
772.849	24301.9
773.184	24127.44
773.519	24205.41
773.855	24006.09
774.19	23839.54
774.525	23840.45
774.86	23939.88
775.195	23781.01
775.53	23547.57
775.865	23496.73
776.2	23284.08
776.535	23172.67
776.87	23103.97
777.205	23004.31
777.539	22975.38
777.874	23038.89
778.209	22822.39
778.543	22750.31
778.878	22574.72
779.212	22652.23
779.547	22481.84
779.881	22543.53
780.215	22478.67
780.55	22409.3
780.884	22224.44
781.218	22270.09
781.552	22166.37
781.886	22047.73
782.22	22029.65
782.554	21912.14
782.888	21760.95
783.222	21706.49
783.556	21614.29
783.889	21705.59
784.223	21586.49
784.557	21553.95
784.89	21465.14
785.224	21516.89
785.557	21297.91
785.891	21263.79
786.224	21338.37
786.558	21284.36
786.891	21056.34
787.224	21023.8
787.557	20962.33
787.891	20902.44
788.224	20939.28
788.557	20887.98
788.89	20830.58
789.223	20874.65
789.556	20744.93
789.888	20664.71
790.221	20539.52
790.554	20427.65
790.887	20412.29
791.219	20327.09
791.552	20170.71
791.884	20055.91
792.217	19942.24
792.549	19841.46
792.882	19839.87
793.214	19766.66
793.546	19814.79
793.879	19788.12
794.211	19553.1
794.543	19593.78
794.875	19495.93
795.207	19474.23
795.539	19347.01
795.871	19340
796.203	19142.72
796.535	19087.58
796.867	19047.58
797.198	18972.78
797.53	19112.21
797.862	18870.63
798.193	18888.94
798.525	18748.15
798.856	18802.16
799.188	18634.03
799.519	18596.06
799.85	18537.76
800.182	18500.93
800.513	18564.43
800.844	18401.49
801.175	18397.2
801.506	18411.66
801.837	18356.75
802.168	18207.37
802.499	18262.06
802.83	18148.39
803.161	18184.1
803.491	18151.78
803.822	18167.83
804.153	18068.85
804.483	17939.58
804.814	17857.55
805.145	17866.14
805.475	17920.83
805.805	17864.33
806.136	17824.11
806.466	17874.05
806.796	17814.62
807.126	17624.11
807.457	17612.59
807.787	17601.97
808.117	17544.79
808.447	17569.2
808.777	17551.35
809.107	17397.23
809.436	17384.12
809.766	17331.69
810.096	17305.03
810.426	17186.84
810.755	17195.65
811.085	17143.67
811.414	17018.48
811.744	16886.28
812.073	16920.18
812.403	16808.99
812.732	16752.5
813.061	16773.06
813.39	16608.09
813.719	16576.68
814.049	16671.37
814.378	16628.66
814.707	16526.06
815.036	16498.49
815.365	16439.29
815.693	16281.78
816.022	16329.68
816.351	16259.85
816.68	16187.09
817.008	16202.23
817.337	15999.3
817.665	16056.02
817.994	16063.02
818.322	15967.66
818.651	15891.96
818.979	15823.26
819.307	15836.82
819.636	15811.96
819.964	15747.55
820.292	15840.88
820.62	15858.51
820.948	15724.05
821.276	15834.78
821.604	15766.31
821.932	15858.74
822.259	15752.3
822.587	15877.27
822.915	15826.42
823.243	15824.16
823.57	15755.69
823.898	15897.38
824.225	15763.82
824.553	15767.66
824.88	15942.8
825.207	16015.57
825.535	15921.11
825.862	15928.79
826.189	15949.35
826.516	15998.17
826.843	16039.07
827.17	15950.71
827.497	15959.07
827.824	15945.96
828.151	15985.74
828.478	15934.89
828.805	15957.26
829.131	15804.5
829.458	15818.28
829.785	15804.73
830.111	15817.83
830.438	15823.93
830.764	15837.04
831.09	15759.76
831.417	15707.1
831.743	15734.22
832.069	15811.96
832.395	15659.87
832.722	15624.39
833.048	15663.94
833.374	15564.73
833.7	15525.86
834.026	15419.43
834.351	15506.65
834.677	15515.92
835.003	15398.63
835.329	15445.41
835.654	15500.55
835.98	15446.54
836.306	15386.88
836.631	15251.29
836.956	15352.76
837.282	15302.59
837.607	15232.99
837.932	15238.86
838.258	15251.97
838.583	15169.71
838.908	15142.6
839.233	15199.09
839.558	15082.48
839.883	15078.64
840.208	15061.24
840.533	14951.87
840.858	15118.42
841.182	15131.07
841.507	15127.68
841.832	15065.08
842.156	15032.54
842.481	15101.02
842.805	15018.98
843.13	14981.92
843.454	14956.39
843.778	14852.43
844.103	14815.37
844.427	14786.45
844.751	14756.62
845.075	14731.99
845.399	14747.35
845.723	14651.54
846.047	14688.14
846.371	14656.06
846.695	14670.97
847.019	14505.32
847.343	14376.29
847.666	14314.82
847.99	14239.8
848.313	14286.12
848.637	14197.31
848.96	14193.24
849.284	14176.07
849.607	14004.77
849.931	13976.75
850.254	13865.57
850.577	13873.25
850.9	13705.35
851.223	13649.3
851.546	13605.24
851.869	13525.69
852.192	13580.6
852.515	13352.81
852.838	13242.53
853.161	13280.27
853.483	13229.65
853.806	13110.79
854.129	13140.39
854.451	13057.91
854.774	13115.76
855.096	12942.43
855.419	12970.45
855.741	12889.77
856.063	12826.5
856.385	12779.72
856.708	12742.43
857.03	12686.39
857.352	12723
857.674	12642.55
857.996	12670.34
858.318	12532.5
858.64	12555.32
858.961	12439.84
859.283	12443.68
859.605	12407.75
859.926	12416.34
860.248	12449.79
860.57	12374.76
860.891	12395.55
861.212	12348.09
861.534	12298.15
861.855	12334.31
862.176	12279.62
862.498	12282.11
862.819	12299.51
863.14	12207.53
863.461	12205.95
863.782	12259.73
864.103	12258.83
864.424	12266.29
864.745	12259.28
865.065	12205.27
865.386	12127.99
865.707	12137.7
866.027	12130.92
866.348	12132.96
866.668	12081.43
866.989	12071.26
867.309	11954.88
867.63	12007.09
867.95	12062.68
868.27	11966.86
868.59	11990.59
868.91	11964.37
869.23	11949.01
869.55	11821.55
869.87	11929.35
870.19	11876.69
870.51	11844.6
870.83	11857.48
871.15	11766.87
871.469	11832.85
871.789	11692.97
872.109	11647.55
872.428	11657.26
872.748	11657.72
873.067	11591.05
873.386	11653.2
873.706	11545.85
874.025	11481.45
874.344	11459.3
874.663	11507.89
874.982	11414.56
875.301	11337.5
875.62	11253.43
875.939	11223.15
876.258	11241.68
876.577	11225.64
876.896	11259.76
877.214	11125.3
877.533	11139.31
877.852	11215.24
878.17	11160.55
878.489	11147.9
878.807	11097.28
879.125	11132.98
879.444	11082.59
879.762	11021.35
880.08	11008.69
880.398	11040.78
880.716	10965.53
881.034	10978.19
881.352	10990.16
881.67	10873.1
881.988	10917.85
882.306	10872.88
882.624	10948.58
882.941	10857.06
883.259	10772.32
883.577	10833.56
883.894	10860.45
884.212	10890.96
884.529	10794.91
884.846	10792.88
885.164	10789.04
885.481	10697.29
885.798	10803.5
886.115	10761.47
886.432	10691.64
886.75	10634.92
887.067	10631.75
887.383	10622.49
887.7	10642.83
888.017	10648.25
888.334	10628.14
888.651	10604.41
888.967	10556.95
889.284	10569.16
889.6	10559.89
889.917	10482.38
890.233	10541.59
890.55	10458.43
890.866	10454.36
891.182	10404.64
891.498	10388.37
891.815	10324.19
892.131	10287.58
892.447	10256.17
892.763	10230.63
893.079	10150.41
893.395	10085.1
893.71	10023.86
894.026	10044.2
894.342	9975.95
894.657	9966.69
894.973	9895.73
895.289	9793.13
895.604	9806.92
895.92	9750.42
896.235	9698.22
896.55	9717.65
896.865	9596.75
897.181	9570.09
897.496	9555.4
897.811	9525.79
898.126	9473.37
898.441	9460.26
898.756	9346.36
899.071	9367.15
899.386	9394.05
899.7	9284.9
900.015	9243.54
900.33	9196.99
900.644	9228.63
900.959	9211.23
901.273	9148.18
901.588	9123.77
901.902	9106.14
902.216	9033.83
902.531	9067.73
902.845	8930.33
903.159	8952.7
903.473	8944.34
903.787	8891.24
904.101	8922.65
904.415	8842.42
904.729	8872.25
905.042	8823.44
905.356	8792.48
905.67	8798.58
905.984	8753.39
906.297	8740.05
906.611	8657.12
906.924	8709.32
907.237	8629.1
907.551	8571.92
907.864	8606.27
908.177	8566.27
908.491	8587.97
908.804	8585.93
909.117	8501.19
909.43	8459.16
909.743	8450.12
910.056	8413.73
910.368	8452.83
910.681	8365.37
910.994	8351.36
911.307	8302.1
911.619	8244.92
911.932	8288.99
912.244	8203.57
912.557	8201.54
912.869	8113.4
913.181	8134.64
913.494	8103.46
913.806	8123.12
914.118	8008.32
914.43	7957.25
914.742	7961.54
915.054	7870.7
915.366	7872.28
915.678	7801.09
915.99	7776.24
916.302	7743.24
916.613	7722.68
916.925	7667.99
917.236	7594.09
917.548	7535.56
917.859	7529.46
918.171	7471.84
918.482	7524.72
918.794	7430.48
919.105	7420.99
919.416	7333.31
919.727	7348.45
920.038	7305.97
920.349	7212.64
920.66	7141.9
920.971	7209.25
921.282	7150.94
921.593	7082.7
921.903	7030.27
922.214	7022.36
922.525	7025.07
922.835	6978.97
923.146	6903.26
923.456	6908.69
923.767	6863.94
924.077	6867.79
924.387	6867.79
924.697	6811.52
925.008	6799.31
925.318	6757.96
925.628	6781.46
925.938	6683.61
926.248	6668.69
926.558	6632.54
926.867	6583.73
927.177	6635.48
927.487	6591.63
927.796	6502.6
928.106	6472.99
928.416	6508.47
928.725	6467.34
929.034	6430.96
929.344	6450.4
929.653	6421.02
929.962	6364.07
930.271	6336.95
930.581	6331.98
930.89	6289.04
931.199	6283.17
931.508	6253.56
931.817	6247.91
932.125	6208.82
932.434	6191.42
932.743	6220.57
933.051	6114.13
933.36	6150.74
933.669	6142.83
933.977	6129.95
934.286	6112.33
934.594	6076.17
934.902	6003.4
935.21	6051.08
935.519	5997.3
935.827	5989.62
936.135	5939.67
936.443	5892.22
936.751	5888.83
937.059	5899.22
937.367	5850.86
937.674	5806.12
937.982	5833.24
938.29	5762.5
938.597	5762.28
938.905	5687.48
939.213	5716.86
939.52	5660.36
939.827	5640.93
940.135	5583.3
940.442	5546.69
940.749	5547.59
941.056	5549.4
941.363	5462.85
941.67	5485.22
941.977	5464.21
942.284	5390.08
942.591	5347.15
942.898	5338.11
943.205	5306.47
943.511	5261.5
943.818	5330.42
944.125	5251.33
944.431	5208.17
944.738	5196.87
945.044	5124.78
945.35	5137.21
945.657	5039.81
945.963	5033.71
946.269	5012.24
946.575	5002.52
946.881	4995.52
947.187	4916.88
947.493	4901.06
947.799	4894.96
948.105	4865.8
948.41	4931.11
948.716	4877.56
949.022	4856.09
949.327	4845.92
949.633	4787.84
949.938	4778.8
950.244	4784.45
950.549	4718.69
950.854	4731.34
951.16	4725.02
951.465	4693.61
951.77	4701.97
952.075	4646.38
952.38	4612.7
952.685	4585.13
952.99	4586.04
953.294	4595.98
953.599	4577.9
953.904	4577.68
954.209	4520.05
954.513	4534.06
954.818	4478.24
955.122	4459.94
955.426	4479.37
955.731	4536.32
956.035	4505.59
956.339	4403.44
956.643	4426.27
956.948	4450.67
957.252	4440.73
957.556	4417.68
957.86	4366.38
958.163	4394.86
958.467	4342.65
958.771	4346.27
959.075	4348.53
959.378	4299.04
959.682	4296.33
959.985	4238.25
960.289	4259.49
960.592	4220.85
960.896	4235.54
961.199	4183.11
961.502	4173.17
961.805	4130.68
962.108	4161.42
962.411	4128.2
962.714	4067.41
963.017	4070.57
963.32	4083.9
963.623	4053.62
963.926	4030.12
964.228	3995.54
964.531	4017.92
964.833	4008.43
965.136	3911.93
965.438	3939.73
965.741	3892.27
966.043	3899.5
966.345	3840.75
966.648	3864.47
966.95	3814.08
967.252	3794.42
967.554	3767.75
967.856	3789.9
968.158	3737.25
968.46	3761.43
968.761	3681.43
969.063	3726.85
969.365	3630.36
969.666	3650.24
969.968	3615.44
970.269	3665.38
970.571	3565.05
970.872	3592.17
971.174	3575.67
971.475	3547.65
971.776	3558.95
972.077	3524.6
972.378	3528.21
972.679	3445.73
972.98	3460.42
973.281	3460.64
973.582	3486.63
973.883	3445.28
974.183	3385.39
974.484	3399.63
974.785	3394.2
975.085	3352.4
975.386	3328.44
975.686	3305.85
975.986	3294.09
976.287	3285.05
976.587	3270.37
976.887	3263.59
977.187	3242.34
977.487	3248.22
977.787	3250.48
978.087	3213.42
978.387	3223.36
978.687	3230.37
978.987	3211.38
979.286	3209.35
979.586	3153.98
979.885	3170.03
980.185	3153.76
980.484	3143.82
980.784	3147.43
981.083	3138.84
981.382	3132.74
981.682	3097.94
981.981	3147.43
982.28	3111.73
982.579	3039.64
982.878	3097.94
983.177	3044.84
983.475	3048.9
983.774	2999.64
984.073	3025.17
984.372	3020.2
984.67	2993.09
984.969	3003.48
985.267	2972.07
985.566	2992.86
985.864	2970.49
986.162	2963.26
986.461	2887.55
986.759	2934.33
987.057	2918.74
987.355	2856.59
987.653	2863.37
987.951	2860.43
988.249	2888
988.547	2812.3
988.844	2821.11
989.142	2803.26
989.44	2809.81
989.737	2796.93
990.035	2795.35
990.332	2747.89
990.63	2761
990.927	2759.64
991.224	2719.87
991.521	2685.75
991.819	2661.12
992.116	2656.14
992.413	2636.48
992.71	2652.08
993.006	2662.25
993.303	2635.13
993.6	2613.21
993.897	2563.04
994.193	2551.97
994.49	2558.75
994.787	2525.98
995.083	2516.71
995.379	2532.53
995.676	2494.34
995.972	2475.81
996.268	2475.36
996.565	2447.79
996.861	2447.11
997.157	2447.79
997.453	2439.43
997.749	2385.19
998.044	2377.73
998.34	2368.02
998.636	2339.09
998.932	2335.93
999.227	2325.53
999.523	2332.99
999.818	2295.25
1000.114	2316.04
1000.409	2274.23
1000.704	2269.04
1001	2283.27
1001.295	2229.26
1001.59	2235.14
1001.885	2242.37
1002.18	2199.43
1002.475	2194.69
1002.77	2186.55
1003.065	2162.82
1003.359	2157.63
1003.654	2175.03
1003.949	2167.12
1004.243	2148.81
1004.538	2104.52
1004.832	2117.63
1005.127	2115.82
1005.421	2085.31
1005.715	2060.23
1006.009	2070.4
1006.304	2074.69
1006.598	2035.37
1006.892	2024.98
1007.186	2046.67
1007.48	2060.91
1007.773	2003.51
1008.067	2003.28
1008.361	1995.82
1008.655	1975.71
1008.948	1975.48
1009.242	1970.51
1009.535	1973.45
1009.829	1951.76
1010.122	1944.75
1010.415	1936.62
1010.708	1927.12
1011.001	1934.13
1011.295	1873.79
1011.588	1930.97
1011.881	1877.41
1012.173	1880.35
1012.466	1887.35
1012.759	1861.59
1013.052	1836.96
1013.344	1857.52
1013.637	1851.42
1013.93	1821.82
1014.222	1795.6
1014.514	1790.86
1014.807	1786.34
1015.099	1769.84
1015.391	1812.78
1015.683	1790.86
1015.976	1722.16
1016.268	1731.88
1016.56	1695.04
1016.851	1695.72
1017.143	1716.06
1017.435	1690.75
1017.727	1705.89
1018.018	1654.59
1018.31	1651.43
1018.602	1664.08
1018.893	1630.18
1019.185	1643.06
1019.476	1602.84
1019.767	1634.93
1020.058	1592.67
1020.35	1590.86
1020.641	1561.26
1020.932	1571.2
1021.223	1546.12
1021.514	1540.02
1021.804	1531.2
1022.095	1510.19
1022.386	1519.9
1022.677	1483.97
1022.967	1479
1023.258	1469.74
1023.548	1479
1023.839	1481.49
1024.129	1459.79
1024.419	1440.58
1024.709	1425.22
1025	1451.2
1025.29	1403.07
1025.58	1402.39
1025.87	1383.86
1026.16	1366.69
1026.449	1373.01
1026.739	1337.31
1027.029	1349.29
1027.319	1342.73
1027.608	1352
1027.898	1295.95
1028.187	1307.03
1028.477	1312
1028.766	1294.37
1029.055	1281.27
1029.344	1284.66
1029.634	1322.17
1029.923	1270.64
1030.212	1255.05
1030.501	1222.28
1030.79	1209.18
1031.078	1212.57
1031.367	1246.69
1031.656	1212.34
1031.945	1213.02
1032.233	1198.33
1032.522	1194.49
1032.81	1175.73
1033.099	1192.45
1033.387	1173.25
1033.675	1167.14
1033.963	1167.82
1034.251	1155.39
1034.54	1117.43
1034.828	1169.18
1035.116	1154.26
1035.403	1116.07
1035.691	1111.33
1035.979	1122.63
1036.267	1114.94
1036.554	1086.02
1036.842	1108.84
1037.129	1107.94
1037.417	1096.64
1037.704	1071.33
1037.992	1081.27
1038.279	1060.93
1038.566	1078.56
1038.853	1078.56
1039.14	1078.56
