Data from blue_shiny_book_FLMS001491_00086.txt Node
Date: Wed Feb 08 15:27:40 GMT 2017
User: dcchb
Spectrometer: FLMS00149
Trigger mode: 0
Integration Time (sec): 2.000000E-2
Scans to average: 10
Electric dark correction enabled: true
Nonlinearity correction enabled: false
Boxcar width: 0
XAxis mode: Wavelengths
Number of Pixels in Spectrum: 2048
>>>>>Begin Spectral Data<<<<<
341.393	-12.03
341.776	-12.03
342.16	-12.03
342.543	-80.05
342.927	-54.29
343.31	-68.3
343.693	-72.14
344.077	-67.4
344.46	-51.81
344.843	-42.99
345.226	-41.64
345.61	-42.54
345.993	-15.65
346.376	-4.58
346.759	8.76
347.142	26.84
347.525	44.01
347.908	61.86
348.291	77.68
348.674	83.11
349.057	104.8
349.44	121.07
349.823	138.47
350.206	174.85
350.588	195.87
350.971	224.12
351.354	236.1
351.737	243.1
352.119	257.11
352.502	262.31
352.884	273.38
353.267	296.43
353.65	302.99
354.032	305.47
354.414	305.92
354.797	315.64
355.179	338.01
355.562	328.3
355.944	341.18
356.326	331.23
356.709	350.22
357.091	347.5
357.473	339.6
357.855	357.67
358.238	350.22
358.62	374.85
359.002	351.12
359.384	352.02
359.766	343.44
360.148	362.87
360.53	356.32
360.912	373.04
361.294	351.8
361.676	349.54
362.057	355.87
362.439	339.14
362.821	347.73
363.203	341.86
363.584	347.28
363.966	325.36
364.348	352.02
364.729	341.4
365.111	340.73
365.493	323.32
365.874	338.47
366.256	342.08
366.637	320.61
367.019	342.76
367.4	328.52
367.781	345.02
368.163	338.47
368.544	344.12
368.925	329.88
369.306	341.18
369.688	337.11
370.069	336.88
370.45	339.14
370.831	336.43
371.212	342.31
371.593	335.08
371.974	335.98
372.355	335.3
372.736	338.47
373.117	373.49
373.498	362.65
373.879	334.85
374.26	369.65
374.641	360.84
375.021	342.31
375.402	351.12
375.783	347.28
376.163	367.17
376.544	399.93
376.925	384.57
377.305	361.52
377.686	372.59
378.066	366.04
378.447	359.26
378.827	375.53
379.208	395.41
379.588	378.92
379.968	392.48
380.349	370.33
380.729	377.79
381.109	391.35
381.489	387.5
381.87	403.55
382.25	396.09
382.63	418.46
383.01	408.29
383.39	435.64
383.77	411.91
384.15	423.21
384.53	413.27
384.91	418.24
385.29	395.87
385.67	446.03
386.049	422.53
386.429	431.34
386.809	432.25
387.189	447.39
387.568	427.73
387.948	444.23
388.328	442.87
388.707	446.03
389.087	451.01
389.466	466.82
389.846	462.98
390.225	492.36
390.605	472.25
390.984	482.19
391.363	481.29
391.743	475.41
392.122	492.59
392.501	506.37
392.881	498.46
393.26	500.04
393.639	502.98
394.018	519.25
394.397	503.43
394.776	543.21
395.155	533.26
395.534	513.6
395.913	555.64
396.292	543.21
396.671	561.96
397.05	548.18
397.429	532.13
397.808	565.58
398.186	566.26
398.565	581.62
398.944	567.84
399.323	589.76
399.701	600.61
400.08	597.67
400.458	622.07
400.837	618.23
401.215	615.75
401.594	623.66
401.972	614.62
402.351	649.64
402.729	653.03
403.107	658.23
403.486	663.2
403.864	656.2
404.242	674.73
404.62	669.53
404.999	701.62
405.377	707.27
405.755	704.56
406.133	687.16
406.511	729.64
406.889	736.65
407.267	727.83
407.645	759.92
408.023	754.05
408.401	781.62
408.779	770.54
409.156	806.48
409.534	800.6
409.912	808.51
410.29	840.37
410.667	840.37
411.045	853.03
411.422	857.32
411.8	871.11
412.178	900.03
412.555	876.3
412.933	876.98
413.31	950.43
413.687	916.3
414.065	977.54
414.442	964.21
414.819	955.4
415.197	958.34
415.574	965.57
415.951	989.97
416.328	1012.35
416.705	1007.15
417.082	1052.12
417.46	1021.61
417.837	1063.64
418.214	1053.25
418.591	1097.99
418.967	1116.98
419.344	1105
419.721	1133.02
420.098	1105.23
420.475	1135.96
420.852	1157.65
421.228	1184.32
421.605	1171.44
421.982	1220.25
422.358	1237.88
422.735	1246.01
423.111	1234.71
423.488	1270.87
423.864	1260.7
424.241	1297.99
424.617	1293.02
424.994	1306.35
425.37	1314.71
425.746	1325.11
426.123	1356.97
426.499	1359.91
426.875	1384.99
427.251	1422.96
427.627	1450.75
428.003	1458.44
428.379	1486.68
428.756	1503.63
429.132	1500.02
429.507	1513.35
429.883	1548.83
430.259	1576.85
430.635	1610.75
431.011	1613.69
431.387	1648.94
431.763	1685.55
432.138	1731.88
432.514	1734.36
432.89	1750.63
433.265	1778.65
433.641	1802.16
434.016	1815.71
434.392	1852.78
434.767	1870.4
435.143	1912.21
435.518	1901.14
435.894	1968.93
436.269	1959.21
436.644	2001.92
437.02	2041.25
437.395	2053.45
437.77	2090.06
438.145	2099.55
438.52	2120.34
438.895	2150.85
439.271	2154.92
439.646	2211.41
440.021	2240.34
440.395	2225.87
440.77	2273.56
441.145	2275.82
441.52	2301.35
441.895	2350.84
442.27	2362.14
442.645	2361.69
443.019	2384.29
443.394	2378.19
443.769	2448.47
444.143	2443.5
444.518	2472.42
444.892	2423.61
445.267	2495.47
445.641	2517.39
446.016	2516.26
446.39	2572.76
446.764	2587.67
447.139	2606.88
447.513	2671.51
447.887	2648.91
448.262	2652.76
448.636	2680.78
449.01	2741.11
449.384	2746.99
449.758	2782.47
450.132	2784.73
450.506	2806.42
450.88	2845.97
451.254	2847.55
451.628	2879.42
452.002	2937.49
452.376	2991.28
452.75	2999.64
453.123	3030.6
453.497	3092.52
453.871	3099.97
454.244	3191.95
454.618	3179.75
454.992	3231.5
455.365	3234.21
455.739	3334.55
456.112	3353.53
456.486	3421.32
456.859	3448.89
457.232	3538.61
457.606	3535.22
457.979	3587.42
458.352	3661.32
458.725	3684.37
459.099	3751.71
459.472	3807.53
459.845	3824.93
460.218	3805.49
460.591	3878.03
460.964	3925.04
461.337	4064.24
461.71	4069.67
462.083	4147.86
462.456	4216.56
462.829	4194.41
463.201	4298.81
463.574	4295.42
463.947	4413.84
464.32	4480.96
464.692	4499.49
465.065	4553.27
465.438	4593.27
465.81	4632.82
466.183	4714.85
466.555	4857.22
466.928	4880.49
467.3	4869.87
467.672	5001.85
468.045	5112.35
468.417	5165.68
468.789	5190.54
469.161	5274.83
469.534	5343.53
469.906	5441.83
470.278	5501.49
470.65	5555.28
471.022	5657.87
471.394	5732
471.766	5821.71
472.138	5854.7
472.51	6033.46
472.882	6055.83
473.253	6235.26
473.625	6218.99
473.997	6438.42
474.369	6434.58
474.74	6621.01
475.112	6634.57
475.484	6764.29
475.855	6977.61
476.227	6936.03
476.598	7216.02
476.97	7237.27
477.341	7338.06
477.713	7510.25
478.084	7488.33
478.455	7765.16
478.827	7810.36
479.198	8107.53
479.569	8156.34
479.94	8369.44
480.311	8429.55
480.682	8655.76
481.053	8864.57
481.424	8987.05
481.795	9072.25
482.166	9233.6
482.537	9356.31
482.908	9517.43
483.279	9624.32
483.65	9842.85
484.021	10009.4
484.391	10197.87
484.762	10235.15
485.133	10341.82
485.503	10650.96
485.874	10783.61
486.244	10857.06
486.615	11139.31
486.985	11247.33
487.356	11442.58
487.726	11470.38
488.097	11759.86
488.467	11706.75
488.837	12010.7
489.207	12148.32
489.578	12417.7
489.948	12577.69
490.318	12741.76
490.688	12845.93
491.058	13021.75
491.428	13235.3
491.798	13411.57
492.168	13695.85
492.538	13763.42
492.908	13826.7
493.278	14075.51
493.648	14092.23
494.017	14275.73
494.387	14400.24
494.757	14579
495.126	14751.42
495.496	14749.39
495.866	14933.79
496.235	15159.09
496.605	15303.95
496.974	15398.86
497.344	15554.79
497.713	15663.49
498.082	15741.45
498.452	16040.88
498.821	16163.59
499.19	16079.07
499.559	16368.55
499.928	16426.18
500.298	16439.74
500.667	16624.59
501.036	16699.62
501.405	16863
501.774	16932.83
502.143	17072.49
502.512	17207.63
502.88	17477.68
503.249	17421.86
503.618	17630.21
503.987	17681.51
504.356	17967.15
504.724	18026.81
505.093	17983.43
505.462	18171.67
505.83	18264.32
506.199	18403.3
506.567	18658.89
506.936	18606.46
507.304	18819.11
507.672	18888.26
508.041	18903.63
508.409	19137.75
508.777	19390.17
509.145	19469.04
509.514	19570.95
509.882	19756.94
510.25	19919.19
510.618	20021.56
510.986	20092.07
511.354	20355.79
511.722	20507.2
512.09	20703.81
512.458	20530.93
512.826	20836.91
513.193	20899.96
513.561	20894.76
513.929	21196.22
514.297	21312.15
514.664	21355.54
515.032	21459.04
515.4	21565.25
515.767	21868.75
516.135	22056.31
516.502	21967.5
516.869	22465.79
517.237	22573.59
517.604	22658.78
517.972	22878.89
518.339	22989.4
518.706	23127.7
519.073	23204.31
519.44	23364.07
519.808	23663.95
520.175	23595.26
520.542	23828.02
520.909	23919.77
521.276	23959.77
521.643	24092.19
522.009	24362.92
522.376	24561.78
522.743	24655.57
523.11	24968.78
523.477	25308.43
523.843	25375.55
524.21	25724.46
524.577	25981.86
524.943	26199.71
525.31	26275.41
525.676	26557.44
526.043	26797.21
526.409	26715.4
526.776	27059.12
527.142	27017.31
527.508	27283.52
527.874	27377.3
528.241	27499.11
528.607	27622.27
528.973	27715.6
529.339	27780.46
529.705	28092.76
530.071	28333.66
530.437	28648
530.803	28871.95
531.169	28983.14
531.535	29179.97
531.901	29166.86
532.267	29476
532.632	29576.34
532.998	29890.68
533.364	29976.33
533.73	30139.72
534.095	30274.63
534.461	30285.7
534.826	30263.33
535.192	30473.49
535.557	30621.29
535.923	30590.1
536.288	30596.43
536.653	30759.81
537.019	30782.86
537.384	30943.31
537.749	30985.57
538.114	31267.82
538.479	31355.05
538.845	31683.4
539.21	31595.27
539.575	31974.02
539.94	32052.89
540.305	32312.77
540.67	32185.54
541.034	32421.24
541.399	32470.28
541.764	32528.81
542.129	32621.46
542.494	32703.26
542.858	32785.97
543.223	32640.67
543.587	32757.5
543.952	32776.26
544.316	32915.91
544.681	32962.24
545.045	33104.61
545.41	33279.07
545.774	33266.87
546.138	33400.87
546.503	33555.9
546.867	33613.75
547.231	33926.74
547.595	34043.79
547.959	34203.34
548.324	34274.3
548.688	34498.25
549.052	34495.53
549.416	34534.63
549.779	34494.86
550.143	34502.77
550.507	34780.05
550.871	34767.62
551.235	34545.02
551.599	34860.27
551.962	34800.38
552.326	34907.27
552.689	35197.44
553.053	34926.93
553.417	34984.79
553.78	35549.07
554.143	35384.32
554.507	35505.9
554.87	35781.15
555.234	36114.25
555.597	36064.08
555.96	36283.74
556.323	36552.43
556.686	36615.03
557.05	36988.35
557.413	36989.03
557.776	36869.93
558.139	37221.34
558.502	37057.27
558.865	37123.04
559.228	37343.59
559.59	37043.94
559.953	37255.46
560.316	37582.23
560.679	37506.98
561.041	37588.79
561.404	37884.15
561.767	38162.78
562.129	37988.32
562.492	38460.63
562.854	38474.41
563.217	38666.27
563.579	38750.34
563.941	39054.96
564.304	39316.88
564.666	39689.52
565.028	39551.67
565.39	39836.86
565.753	40035.28
566.115	40016.97
566.477	40241.37
566.839	40120.24
567.201	40384.87
567.563	40388.49
567.925	40437.07
568.287	40545.54
568.648	40463.96
569.01	40581.02
569.372	40875.03
569.734	40722.71
570.095	40919.32
570.457	41127.45
570.819	41278.86
571.18	41407.44
571.542	41580.55
571.903	41752.52
572.265	41919.75
572.626	42179.85
572.987	42384.14
573.349	42451.26
573.71	42634.98
574.071	42961.98
574.432	42909.78
574.794	43110
575.155	43102.31
575.516	42846.27
575.877	43024.57
576.238	42900.06
576.599	43195.42
576.96	42923.56
577.32	42963.56
577.681	43055.53
578.042	43254.4
578.403	43110.67
578.763	43164.46
579.124	43289.88
579.485	43516.09
579.845	43721.05
580.206	43699.13
580.566	43680.38
580.927	43865.46
581.287	44157.2
581.648	43970.54
582.008	44271.32
582.368	44173.7
582.728	44432
583.089	44431.32
583.449	44485.1
583.809	44574.36
584.169	44680.35
584.529	44493.24
584.889	44597.64
585.249	44294.37
585.609	44102.74
585.969	44398.1
586.329	44115.85
586.688	44113.81
587.048	44197.65
587.408	44051.44
587.768	44203.98
588.127	44112.68
588.487	44077.88
588.846	44529.85
589.206	44124.88
589.565	44194.71
589.925	44509.73
590.284	44364.43
590.643	44447.81
591.003	44735.26
591.362	44832.89
591.721	44838.76
592.08	44897.52
592.44	44989.72
592.799	45132.77
593.158	45016.39
593.517	44892.1
593.876	44984.52
594.235	44738.43
594.593	44918.54
594.952	44947.91
595.311	44657.3
595.67	44836.73
596.029	44855.04
596.387	44824.98
596.746	44817.07
597.104	44628.6
597.463	44635.15
597.822	44837.63
598.18	44568.04
598.538	44690.52
598.897	45037.63
599.255	44575.49
599.613	45216.16
599.972	45035.82
600.33	45236.04
600.688	45158.53
601.046	45305.19
601.404	45467
601.762	45480.56
602.12	45781.56
602.478	45753.32
602.836	45805.97
603.194	45449.14
603.552	45643.72
603.91	45465.41
604.268	45594
604.625	45463.15
604.983	45344.97
605.341	45260
605.698	45484.4
606.056	45381.58
606.413	45515.13
606.771	45552.19
607.128	45601.91
607.485	45325.53
607.843	45425.42
608.2	45728.91
608.557	45695.47
608.914	45517.16
609.272	45899.98
609.629	45936.81
609.986	46150.82
610.343	45833.31
610.7	46219.52
611.057	46311.49
611.414	46274.88
611.771	46293.42
612.127	46493.18
612.484	46481.89
612.841	46618.83
613.198	46735.21
613.554	46616.8
613.911	46795.78
614.267	46666.29
614.624	46677.81
614.98	46702.44
615.337	46856.56
615.693	46728.21
616.05	46536.35
616.406	46710.13
616.762	46766.4
617.118	46663.58
617.475	46652.5
617.831	46606.85
618.187	46761.2
618.543	46707.87
618.899	46812.27
619.255	46822.89
619.611	46813.63
619.967	46972.04
620.323	47047.97
620.678	47002.78
621.034	47083.45
621.39	47027.86
621.746	47090.68
622.101	47488.86
622.457	47253.16
622.812	47392.6
623.168	47505.81
623.523	47584.23
623.879	47589.65
624.234	47443.89
624.589	47442.76
624.945	47598.69
625.3	47534.96
625.655	47569.09
626.01	47426.72
626.365	47336.1
626.72	47138.14
627.075	47217.23
627.43	47106.28
627.785	47075.32
628.14	47074.64
628.495	47071.7
628.85	46885.94
629.205	46779.28
629.559	47024.24
629.914	46741.54
630.269	46791.48
630.623	46674.2
630.978	46696.57
631.332	47041.87
631.687	47037.12
632.041	46841.42
632.396	46986.5
632.75	46819.73
633.104	46956.45
633.459	46902.21
633.813	46847.07
634.167	46894.3
634.521	46749
634.875	46691.15
635.229	46720.07
635.583	46610.02
635.937	46660.86
636.291	46565.95
636.645	46571.6
636.999	46491.38
637.352	46538.61
637.706	46194.89
638.06	46315.79
638.413	46358.5
638.767	46148.33
639.121	45876.93
639.474	45771.62
639.828	45634.45
640.181	45684.62
640.534	45653.66
640.888	45518.29
641.241	45425.19
641.594	45555.81
641.947	45718.06
642.301	45589.93
642.654	45574.11
643.007	45696.37
643.36	45587.9
643.713	45744.5
644.066	45625.18
644.419	45655.01
644.771	45557.84
645.124	45634.9
645.477	45684.62
645.83	45355.14
646.182	44926.22
646.535	44638.09
646.888	44532.33
647.24	44147.48
647.593	44265.67
647.945	44002.85
648.298	43768.51
648.65	43656.87
649.002	43619.36
649.355	43902.97
649.707	43990.88
650.059	44151.1
650.411	44581.82
650.763	44676.06
651.115	45003.96
651.467	44863.62
651.819	44616.17
652.171	44477.42
652.523	44448.27
652.875	44478.77
653.227	44247.82
653.578	44670.86
653.93	44508.38
654.282	44343.64
654.633	44268.16
654.985	44425.67
655.337	44405.33
655.688	44424.99
656.039	44483.75
656.391	44272.9
656.742	44561.48
657.094	44642.39
657.445	44763.74
657.796	44714.25
658.147	44676.51
658.498	44666.57
658.849	44855.49
659.2	44687.58
659.551	44624.76
659.902	44685.1
660.253	44599.67
660.604	44671.54
660.955	44248.5
661.306	44349.96
661.656	44251.44
662.007	44037.88
662.358	44101.16
662.708	44052.34
663.059	44090.08
663.409	43753.14
663.76	43894.38
664.11	43824.55
664.461	43622.53
664.811	43585.46
665.161	43670.43
665.511	43515.86
665.862	43799.47
666.212	43816.87
666.562	43941.84
666.912	44057.09
667.262	43902.97
667.612	44037.43
667.962	44040.82
668.312	44095.51
668.662	44159.46
669.011	44341.83
669.361	44307.93
669.711	44366.91
670.06	44282.62
670.41	44152.45
670.76	44223.87
671.109	44220.93
671.459	44096.86
671.808	44043.98
672.157	43970.09
672.507	43839.24
672.856	43674.05
673.205	43792.92
673.554	43766.48
673.904	43620.72
674.253	43732.13
674.602	43577.78
674.951	42888.76
675.3	42647.86
675.649	43184.57
675.998	42991.58
676.346	42840.62
676.695	43156.1
677.044	42801.3
677.393	42886.73
677.741	42866.39
678.09	42739.84
678.438	42701.19
678.787	42889.66
679.135	42878.59
679.484	42529.67
679.832	42819.38
680.181	42682.44
680.529	42938.48
680.877	42774.64
681.225	42823.45
681.573	43039.94
681.922	42762.21
682.27	42806.05
682.618	42767.63
682.966	42625.49
683.314	42729.89
683.661	42544.81
684.009	42383.01
684.357	42392.73
684.705	42351.15
685.053	42272.5
685.4	42180.3
685.748	41939.41
686.095	41909.35
686.443	41688.34
686.79	41611.73
687.138	41627.32
687.485	41553.2
687.832	41217.16
688.18	41192.08
688.527	40884.07
688.874	40886.33
689.221	40741.47
689.568	40444.98
689.915	40404.76
690.262	40367.7
690.609	40318.43
690.956	40057.65
691.303	40091.77
691.65	39965.45
691.997	40080.92
692.344	39529.3
692.69	39681.61
693.037	39757.77
693.383	39522.29
693.73	39685.23
694.077	39470.54
694.423	39548.51
694.769	39398.91
695.116	39391.68
695.462	39277.78
695.808	39425.12
696.155	39340.38
696.501	39167.95
696.847	39075.3
697.193	38894.74
697.539	38969.31
697.885	38679.83
698.231	38644.13
698.577	38612.94
698.923	38521.87
699.269	38284.36
699.614	37939.74
699.96	37905.39
700.306	37890.25
700.651	37616.36
700.997	37450.71
701.342	37328.91
701.688	37095.92
702.033	37030.61
702.379	37101.79
702.724	36726.66
703.069	36921.23
703.415	36465.2
703.76	36467.23
704.105	36278.09
704.45	36246.45
704.795	36011.43
705.14	35984.53
705.485	35924.2
705.83	35727.82
706.175	35961.03
706.52	35890.98
706.865	35667.03
707.209	35765.78
707.554	35723.07
707.899	35726.69
708.243	35490.54
708.588	35571.21
708.932	35426.58
709.277	35487.37
709.621	35461.61
709.966	35331.44
710.31	35471.33
710.654	35184.33
710.998	35211.22
711.342	35253.48
711.687	35093.48
712.031	34893.26
712.375	34833.83
712.719	34780.05
713.063	34710.67
713.407	34655.3
713.75	34421.86
714.094	34261.64
714.438	34264.81
714.782	34194.52
715.125	34052.38
715.469	34000.18
715.812	33735.78
716.156	33608.78
716.499	33548.21
716.843	33456.92
717.186	33223.93
717.53	33265.06
717.873	33281.78
718.216	33172.86
718.559	33086.76
718.902	32921.34
719.246	33065.51
719.589	32957.72
719.932	32932.41
720.275	32990.71
720.617	32788.46
720.96	32799.31
721.303	32840.21
721.646	32852.41
721.989	32896.03
722.331	32982.35
722.674	33015.35
723.016	33100.09
723.359	32850.83
723.701	33098.28
724.044	32889.7
724.386	32685.86
724.729	32898.97
725.071	32817.16
725.413	32903.03
725.755	32863.94
726.097	32666.66
726.439	32499.88
726.782	32505.3
727.124	32649.48
727.465	32385.53
727.807	32354.35
728.149	32267.12
728.491	32156.84
728.833	32229.38
729.175	31919.1
729.516	31860.57
729.858	31881.14
730.199	31975.15
730.541	31900.12
730.882	31875.04
731.224	31868.94
731.565	31555.27
731.906	31702.84
732.248	31555.5
732.589	31482.96
732.93	31434.15
733.271	31372.68
733.612	31395.95
733.953	31456.07
734.294	31285.45
734.635	31298.78
734.976	31478.21
735.317	31399.12
735.658	31361.6
735.999	31428.5
736.339	31453.13
736.68	31613.35
737.021	31487.03
737.361	31501.94
737.702	31613.8
738.042	31595.5
738.383	31503.75
738.723	31622.39
739.063	31629.17
739.404	31718.66
739.744	31677.75
740.084	31630.07
740.424	31759.56
740.764	31626.68
741.104	31726.57
741.444	31553.01
741.784	31341.27
742.124	31534.26
742.464	31428.95
742.804	31499.68
743.143	31470.98
743.483	31437.99
743.823	31274.15
744.162	31284.77
744.502	31266.01
744.841	31143.76
745.181	31259.91
745.52	31019.01
745.86	31133.36
746.199	31097.2
746.538	31042.29
746.877	31042.29
747.216	31092.91
747.556	31030.31
747.895	30987.15
748.234	30955.29
748.573	30866.93
748.911	30943.08
749.25	30936.53
749.589	30840.71
749.928	31027.38
750.267	31062.63
750.605	31021.73
750.944	31299.69
751.283	31141.05
751.621	31344.88
751.96	31247.03
752.298	31273.25
752.636	31419.91
752.975	31218.56
753.313	31329.06
753.651	31607.93
753.989	31332.45
754.327	31374.94
754.666	31360.93
755.004	31440.92
755.342	31601.6
755.679	31600.47
756.017	31490.19
756.355	31562.05
756.693	31490.64
757.031	31562.73
757.368	31433.24
757.706	31507.14
758.044	31363.64
758.381	31313.47
758.719	31178.33
759.056	31254.49
759.394	31209.52
759.731	30983.99
760.068	31003.65
760.405	30950.77
760.743	30962.29
761.08	31083.19
761.417	30826.48
761.754	30888.62
762.091	30776.99
762.428	30642.08
762.765	30588.07
763.102	30544
763.438	30319.82
763.775	30301.07
764.112	30474.4
764.449	30346.26
764.785	30342.87
765.122	30052.94
765.458	30038.93
765.795	30110.56
766.131	30096.33
766.467	30218.81
766.804	30029.66
767.14	30009.78
767.476	30035.09
767.812	29985.14
768.148	30104.69
768.485	29879.16
768.821	29860.63
769.157	29802.78
769.492	29820.18
769.828	29763.45
770.164	29527.53
770.5	29552.61
770.836	29557.36
771.171	29373.86
771.507	29411.83
771.842	29247.99
772.178	29250.7
772.513	29147.2
772.849	29225.62
773.184	28913.31
773.519	28977.49
773.855	28775.91
774.19	28778.62
774.525	28611.62
774.86	28658.17
775.195	28537.05
775.53	28428.35
775.865	28510.15
776.2	28248.69
776.535	28093.89
776.87	28043.95
777.205	27907.68
777.539	27700.68
777.874	27797.86
778.209	27502.27
778.543	27474.25
778.878	27287.36
779.212	27338.43
779.547	27039.23
779.881	27080.36
780.215	26834.94
780.55	26858.45
780.884	26702.07
781.218	26766.92
781.552	26542.75
781.886	26349.08
782.22	26337.78
782.554	26375.75
782.888	25969.88
783.222	26052.59
783.556	25883.78
783.889	25887.85
784.223	25687.4
784.557	25689.21
784.89	25765.82
785.224	25644.47
785.557	25577.35
785.891	25581.42
786.224	25438.82
786.558	25476.34
786.891	25277.02
787.224	25108.21
787.557	25186.4
787.891	25097.81
788.224	25201.31
788.557	24980.53
788.89	24929.46
789.223	24883.58
789.556	24841.78
789.888	24783.47
790.221	24668.45
790.554	24544.61
790.887	24512.29
791.219	24438.17
791.552	24319.08
791.884	24195.47
792.217	24116.6
792.549	24041.57
792.882	23922.93
793.214	23895.59
793.546	23861.24
793.879	23693.78
794.211	23710.96
794.543	23677.06
794.875	23486.78
795.207	23523.84
795.539	23223.97
795.871	23192.55
796.203	22908.27
796.535	22833.92
796.867	22876.4
797.198	22809.97
797.53	22727.71
797.862	22639.35
798.193	22593.02
798.525	22425.57
798.856	22477.32
799.188	22260.38
799.519	22094.73
799.85	22021.29
800.182	22004.56
800.513	22054.28
800.844	21777.22
801.175	21953.94
801.506	21866.04
801.837	21804.12
802.168	21771.8
802.499	21817
802.83	21689.32
803.161	21686.83
803.491	21623.56
803.822	21663.33
804.153	21524.35
804.483	21408.65
804.814	21285.94
805.145	21314.19
805.475	21431.47
805.805	21299.72
806.136	21239.16
806.466	21246.16
806.796	21164.81
807.126	21032.84
807.457	21090.24
807.787	21004.59
808.117	20865.16
808.447	20860.19
808.777	20878.04
809.107	20723.47
809.436	20686.18
809.766	20701.77
810.096	20566.86
810.426	20522.12
810.755	20612.06
811.085	20432.4
811.414	20463.13
811.744	20238.06
812.073	20227.43
812.403	20099.53
812.732	20022.02
813.061	19997.61
813.39	19836.03
813.719	19812.08
814.049	19929.81
814.378	19723.27
814.707	19763.27
815.036	19635.13
815.365	19501.58
815.693	19375.48
816.022	19426.1
816.351	19261.36
816.68	19211.42
817.008	19297.29
817.337	18975.26
817.665	18976.85
817.994	19132.1
818.322	19002.38
818.651	18904.31
818.979	18808.04
819.307	19021.36
819.636	18940.46
819.964	18813.23
820.292	18834.25
820.62	18811.43
820.948	18889.84
821.276	18909.95
821.604	18821.6
821.932	18869.28
822.259	18948.37
822.587	18901.59
822.915	18879.22
823.243	18911.99
823.57	18860.01
823.898	18956.06
824.225	18904.53
824.553	18903.18
824.88	18949.73
825.207	18994.25
825.535	18914.47
825.862	19007.81
826.189	18887.36
826.516	19076.28
826.843	19012.1
827.17	19081.02
827.497	19098.88
827.824	19022.27
828.151	19101.81
828.478	19009.16
828.805	19037.64
829.131	18886.23
829.458	18949.28
829.785	18810.97
830.111	18907.69
830.438	18920.12
830.764	18952.44
831.09	18896.85
831.417	18877.64
831.743	18926
832.069	18828.6
832.395	18860.46
832.722	18827.7
833.048	18652.11
833.374	18787.7
833.7	18547.93
834.026	18543.64
834.351	18533.24
834.677	18503.64
835.003	18466.8
835.329	18475.16
835.654	18377.77
835.98	18345.9
836.306	18321.5
836.631	18242.18
836.956	18269.29
837.282	18289.63
837.607	18196.08
837.932	18164.66
838.258	18283.98
838.583	18271.33
838.908	17994.05
839.233	18034.95
839.558	18036.31
839.883	17960.6
840.208	17957.44
840.533	17935.97
840.858	18049.41
841.182	18001.5
841.507	17917.44
841.832	17836.08
842.156	17852.36
842.481	17874.28
842.805	17839.47
843.13	17704.34
843.454	17802.19
843.778	17681.96
844.103	17621.63
844.427	17551.57
844.751	17671.57
845.075	17651.46
845.399	17551.12
845.723	17516.77
846.047	17501.4
846.371	17339.83
846.695	17340.73
847.019	17174.41
847.343	17184.12
847.666	17114.3
847.99	17049.89
848.313	17008.76
848.637	16889.22
848.96	16866.17
849.284	16821.42
849.607	16742.1
849.931	16597.93
850.254	16506.63
850.577	16347.54
850.9	16280.65
851.223	16269.12
851.546	16122.01
851.869	16091.05
852.192	16096.92
852.515	15962.69
852.838	15863.03
853.161	15915.23
853.483	15805.63
853.806	15713.43
854.129	15636.59
854.451	15602.7
854.774	15475.92
855.096	15354.57
855.419	15387.79
855.741	15350.73
856.063	15182.37
856.385	15101.02
856.708	15009.27
857.03	15080.22
857.352	15040
857.674	15008.59
857.996	14905.09
858.318	14804.07
858.64	14902.38
858.961	14902.6
859.283	14750.97
859.605	14747.13
859.926	14821.7
860.248	14731.53
860.57	14701.03
860.891	14671.87
861.212	14578.54
861.534	14550.75
861.855	14593.46
862.176	14644.76
862.498	14596.62
862.819	14564.76
863.14	14570.63
863.461	14499
863.782	14460.58
864.103	14502.84
864.424	14562.05
864.745	14542.84
865.065	14461.03
865.386	14471.65
865.707	14483.86
866.027	14477.3
866.348	14405.89
866.668	14478.21
866.989	14439.56
867.309	14303.97
867.63	14341.49
867.95	14295.61
868.27	14240.02
868.59	14300.13
868.91	14304.65
869.23	14279.79
869.55	14166.8
869.87	14193.47
870.19	14105.56
870.51	14059.46
870.83	14095.84
871.15	13903.53
871.469	13953.02
871.789	13982.17
872.109	13882.06
872.428	13893.59
872.748	13840.03
873.067	13850.2
873.386	13811.56
873.706	13777.66
874.025	13728.4
874.344	13675.52
874.663	13635.29
874.982	13639.36
875.301	13617.21
875.62	13530.44
875.939	13455.63
876.258	13551.45
876.577	13472.36
876.896	13356.2
877.214	13242.08
877.533	13335.64
877.852	13278.46
878.17	13263.1
878.489	13254.28
878.807	13284.57
879.125	13133.61
879.444	13204.57
879.762	13172.93
880.08	13198.69
880.398	13043.67
880.716	13116.66
881.034	13085.7
881.352	13080.96
881.67	13042.09
881.988	13059.71
882.306	13005.48
882.624	13033.05
882.941	12991.24
883.259	12975.87
883.577	12940.62
883.894	12869.89
884.212	12874.63
884.529	12828.08
884.846	12853.16
885.164	12801.41
885.481	12856.78
885.798	12810.45
886.115	12739.04
886.432	12753.28
886.75	12746.5
887.067	12876.22
887.383	12716.22
887.7	12754.41
888.017	12740.63
888.334	12701.53
888.651	12727.97
888.967	12558.26
889.284	12594.19
889.6	12574.3
889.917	12519.84
890.233	12584.92
890.55	12455.21
890.866	12475.55
891.182	12413.4
891.498	12364.14
891.815	12334.31
892.131	12287.3
892.447	12264.93
892.763	12174.09
893.079	12152.62
893.395	12082.11
893.71	12061.55
894.026	12041.66
894.342	12061.77
894.657	11876.24
894.973	11899.97
895.289	11800.76
895.604	11770.93
895.92	11707.66
896.235	11632.63
896.55	11651.84
896.865	11529.81
897.181	11577.49
897.496	11458.63
897.811	11402.36
898.126	11375.46
898.441	11254.34
898.756	11284.62
899.071	11192.19
899.386	11186.99
899.7	11088.01
900.015	11069.71
900.33	10994.46
900.644	10864.06
900.959	10964.63
901.273	10869.94
901.588	10827.46
901.902	10716.5
902.216	10749.49
902.531	10762.82
902.845	10756.72
903.159	10734.8
903.473	10696.61
903.787	10710.17
904.101	10628.14
904.415	10538.42
904.729	10538.2
905.042	10443.74
905.356	10421.59
905.67	10444.41
905.984	10410.52
906.297	10421.59
906.611	10320.35
906.924	10311.76
907.237	10248.04
907.551	10255.04
907.864	10262.27
908.177	10207.13
908.491	10182.5
908.804	10124.2
909.117	10057.98
909.43	10000.36
909.743	9977.76
910.056	9959
910.368	9919.68
910.681	9920.36
910.994	9855.73
911.307	9844.88
911.619	9812.11
911.932	9848.5
912.244	9761.95
912.557	9766.92
912.869	9723.08
913.181	9667.71
913.494	9668.84
913.806	9530.09
914.118	9537.09
914.43	9462.29
914.742	9495.29
915.054	9443.31
915.366	9378.68
915.678	9337.55
915.99	9227.5
916.302	9250.1
916.613	9127.61
916.925	9164.22
917.236	9022.08
917.548	9029.08
917.859	9038.35
918.171	8915.42
918.482	8916.32
918.794	8895.3
919.105	8868.86
919.416	8784.12
919.727	8726.04
920.038	8703.44
920.349	8640.85
920.66	8617.34
920.971	8566.72
921.282	8472.72
921.593	8367.41
921.903	8361.76
922.214	8335.77
922.525	8377.35
922.835	8346.39
923.146	8279.95
923.456	8270.91
923.767	8141.88
924.077	8203.57
924.387	8136
924.697	8084.7
925.008	8064.59
925.318	8036.34
925.628	7988.89
925.938	8004.03
926.248	7915.22
926.558	7814.43
926.867	7872.5
927.177	7813.75
927.487	7786.41
927.796	7762.9
928.106	7733.3
928.416	7691.27
928.725	7727.65
929.034	7724.71
929.344	7659.63
929.653	7618.95
929.962	7634.09
930.271	7583.92
930.581	7535.56
930.89	7513.64
931.199	7505.73
931.508	7477.26
931.817	7462.8
932.125	7418.96
932.434	7373.99
932.743	7374.44
933.051	7289.92
933.36	7301.67
933.669	7258.28
933.977	7187.55
934.286	7184.16
934.594	7150.94
934.902	7159.76
935.21	7138.74
935.519	7098.74
935.827	7111.39
936.135	7112.75
936.443	7028.91
936.751	6971.06
937.059	7041.57
937.367	7007.22
937.674	6979.2
937.982	6940.1
938.29	6865.98
938.597	6842.25
938.905	6788.69
939.213	6756.38
939.52	6728.81
939.827	6742.82
940.135	6652.2
940.442	6588.92
940.749	6576.95
941.056	6554.57
941.363	6506.89
941.67	6508.25
941.977	6422.37
942.284	6421.47
942.591	6268.48
942.898	6307.57
943.205	6265.99
943.511	6267.8
943.818	6248.82
944.125	6150.97
944.431	6162.27
944.738	6143.06
945.044	6123.17
945.35	6069.61
945.657	6077.3
945.963	6007.47
946.269	5965.21
946.575	5989.39
946.881	5967.7
947.187	5951.43
947.493	5925.44
947.799	5881.6
948.105	5872.33
948.41	5789.4
948.716	5819
949.022	5807.93
949.327	5720.02
949.633	5677.31
949.938	5679.57
950.244	5704.65
950.549	5594.15
950.854	5568.61
951.16	5606.58
951.465	5570.64
951.77	5560.48
952.075	5512.79
952.38	5532.45
952.685	5520.48
952.99	5450.87
953.294	5501.72
953.599	5388.05
953.904	5448.39
954.209	5382.85
954.513	5425.34
954.818	5376.75
955.122	5347.37
955.426	5372.01
955.731	5349.86
956.035	5336.3
956.339	5280.26
956.643	5231.22
956.948	5256.53
957.252	5215.85
957.556	5249.07
957.86	5181.5
958.163	5150.32
958.467	5167.04
958.771	5131.56
959.075	5078.68
959.378	5091.79
959.682	5107.38
959.985	5122.29
960.289	5093.82
960.592	5032.13
960.896	5035.97
961.199	4986.03
961.502	4970.66
961.805	4958.46
962.108	4902.19
962.411	4888.85
962.714	4856.31
963.017	4828.97
963.32	4769.08
963.623	4778.57
963.926	4784
964.228	4743.77
964.531	4701.06
964.833	4656.32
965.136	4703.1
965.438	4644.79
965.741	4644.79
966.043	4581.07
966.345	4609.54
966.648	4564.8
966.95	4504.23
967.252	4517.34
967.554	4458.81
967.856	4473.5
968.158	4427.62
968.46	4439.6
968.761	4388.98
969.063	4361.64
969.365	4339.04
969.666	4320.96
969.968	4296.55
970.269	4284.35
970.571	4231.24
970.872	4253.17
971.174	4207.29
971.475	4200.51
971.776	4186.27
972.077	4132.26
972.378	4136.78
972.679	4117.58
972.98	4077.35
973.281	4057.92
973.582	4061.53
973.883	4028.54
974.183	4012.49
974.484	3991.03
974.785	3962.33
975.085	3987.64
975.386	3974.3
975.686	3939.5
975.986	3917.13
976.287	3899.95
976.587	3890.69
976.887	3812.5
977.187	3842.55
977.487	3847.3
977.787	3819.5
978.087	3804.82
978.387	3818.37
978.687	3791.71
978.987	3762.78
979.286	3774.99
979.586	3734.53
979.885	3736.79
980.185	3699.51
980.484	3718.94
980.784	3682.11
981.083	3652.5
981.382	3675.33
981.682	3614.99
981.981	3620.87
982.28	3605.72
982.579	3599.62
982.878	3591.26
983.177	3540.87
983.475	3559.62
983.774	3525.05
984.073	3543.58
984.372	3520.75
984.67	3533.41
984.969	3483.92
985.267	3495.44
985.566	3445.5
985.864	3450.47
986.162	3430.81
986.461	3433.53
986.759	3438.72
987.057	3400.98
987.355	3351.04
987.653	3398.05
987.951	3349.46
988.249	3343.58
988.547	3332.96
988.844	3281.89
989.142	3284.15
989.44	3254.55
989.737	3222.91
990.035	3196.7
990.332	3225.62
990.63	3199.18
990.927	3171.61
991.224	3190.37
991.521	3186.53
991.819	3145.85
992.116	3130.71
992.413	3092.52
992.71	3100.2
993.006	3118.51
993.303	3050.03
993.6	3041.45
993.897	3027.66
994.193	3008
994.49	2946.98
994.787	2964.84
995.083	2934.33
995.379	2925.06
995.676	2926.42
995.972	2923.71
996.268	2905.63
996.565	2855.91
996.861	2841.22
997.157	2862.69
997.453	2819.3
997.749	2800.1
998.044	2786.08
998.34	2744.96
998.636	2766.2
998.932	2735.92
999.227	2728.23
999.523	2746.76
999.818	2700.66
1000.114	2648.24
1000.409	2675.81
1000.704	2678.97
1001	2635.58
1001.295	2606.65
1001.59	2633.77
1001.885	2620.89
1002.18	2585.41
1002.475	2549.93
1002.77	2542.93
1003.065	2496.38
1003.359	2561.23
1003.654	2516.71
1003.949	2486.43
1004.243	2494.57
1004.538	2503.83
1004.832	2441.01
1005.127	2475.58
1005.421	2424.96
1005.715	2413.67
1006.009	2432.2
1006.304	2413.21
1006.598	2381.58
1006.892	2347.23
1007.186	2340.45
1007.48	2343.61
1007.773	2325.98
1008.067	2315.59
1008.361	2290.96
1008.655	2293.89
1008.948	2274.23
1009.242	2254.35
1009.535	2264.97
1009.829	2250.05
1010.122	2217.51
1010.415	2246.89
1010.708	2244.86
1011.001	2223.61
1011.295	2215.03
1011.588	2189.94
1011.881	2149.94
1012.173	2168.93
1012.466	2149.27
1012.759	2162.37
1013.052	2175.03
1013.344	2149.27
1013.637	2103.62
1013.93	2085.99
1014.222	2102.71
1014.514	2084.63
1014.807	2046.9
1015.099	2081.47
1015.391	2041.02
1015.683	2031.3
1015.976	2040.79
1016.268	2021.13
1016.56	1986.78
1016.851	1964.86
1017.143	1928.93
1017.435	1968.71
1017.727	1954.69
1018.018	1910.4
1018.31	1916.05
1018.602	1910.63
1018.893	1900.23
1019.185	1868.37
1019.476	1871.08
1019.767	1839.67
1020.058	1849.61
1020.35	1832.44
1020.641	1813
1020.932	1784.08
1021.223	1783.85
1021.514	1754.7
1021.804	1762.16
1022.095	1772.1
1022.386	1717.64
1022.677	1751.99
1022.967	1726
1023.258	1704.08
1023.548	1700.92
1023.839	1659.79
1024.129	1651.43
1024.419	1653.01
1024.709	1628.38
1025	1622.95
1025.29	1648.26
1025.58	1637.41
1025.87	1603.07
1026.16	1585.66
1026.449	1583.18
1026.739	1553.35
1027.029	1540.02
1027.319	1548.6
1027.608	1513.58
1027.898	1508.38
1028.187	1502.73
1028.477	1511.09
1028.766	1497.08
1029.055	1466.57
1029.344	1453.24
1029.634	1470.87
1029.923	1451.43
1030.212	1452.56
1030.501	1436.74
1030.79	1407.59
1031.078	1418.66
1031.367	1393.13
1031.656	1408.27
1031.945	1412.11
1032.233	1361.94
1032.522	1392.9
1032.81	1362.39
1033.099	1323.52
1033.387	1329.4
1033.675	1308.38
1033.963	1312.23
1034.251	1285.11
1034.54	1313.36
1034.828	1297.08
1035.116	1281.49
1035.403	1253.47
1035.691	1260.7
1035.979	1259.8
1036.267	1251.89
1036.554	1235.62
1036.842	1257.76
1037.129	1268.84
1037.417	1223.19
1037.704	1242.4
1037.992	1208.05
1038.279	1192.68
1038.566	1180.25
1038.853	1180.25
1039.14	1180.25
