Data from blue_chair_FLMS001491_00078.txt Node
Date: Wed Feb 08 10:31:45 GMT 2017
User: dcchb
Spectrometer: FLMS00149
Trigger mode: 0
Integration Time (sec): 2.000000E-2
Scans to average: 10
Electric dark correction enabled: true
Nonlinearity correction enabled: false
Boxcar width: 0
XAxis mode: Wavelengths
Number of Pixels in Spectrum: 2048
>>>>>Begin Spectral Data<<<<<
341.393	-9.31
341.776	-9.31
342.16	-9.31
342.543	-89.76
342.927	-91.11
343.31	-76.65
343.693	-78.68
344.077	-68.06
344.46	-59.93
344.843	-42.75
345.226	-51.34
345.61	-29.19
345.993	-17.67
346.376	13.74
346.759	9
347.142	24.14
347.525	45.61
347.908	49.67
348.291	81.31
348.674	94.87
349.057	105.94
349.44	121.08
349.823	136
350.206	161.99
350.588	168.09
350.971	195.43
351.354	209.9
351.737	225.94
352.119	206.51
352.502	240.18
352.884	245.15
353.267	246.73
353.65	272.27
354.032	276.79
354.414	262.55
354.797	299.38
355.179	279.72
355.562	280.18
355.944	281.53
356.326	304.81
356.709	308.65
357.091	303.45
357.473	318.14
357.855	299.84
358.238	297.58
358.62	307.52
359.002	310.23
359.384	308.2
359.766	321.53
360.148	310.68
360.53	301.42
360.912	271.81
361.294	292.38
361.676	285.37
362.057	301.64
362.439	293.96
362.821	306.62
363.203	286.73
363.584	314.98
363.966	299.38
364.348	298.71
364.729	293.74
365.111	288.54
365.493	268.43
365.874	286.96
366.256	266.17
366.637	276.33
367.019	282.89
367.4	297.12
367.781	259.84
368.163	272.27
368.544	284.47
368.925	282.66
369.306	296.67
369.688	277.46
370.069	263.91
370.45	288.99
370.831	305.49
371.212	284.92
371.593	273.17
371.974	257.58
372.355	277.69
372.736	278.37
373.117	293.06
373.498	291.25
373.879	269.1
374.26	273.62
374.641	286.96
375.021	272.49
375.402	287.18
375.783	268.43
376.163	274.3
376.544	272.04
376.925	301.19
377.305	265.71
377.686	293.51
378.066	295.09
378.447	266.17
378.827	281.31
379.208	292.15
379.588	273.85
379.968	285.37
380.349	305.71
380.729	288.54
381.109	308.65
381.489	314.98
381.87	302.1
382.25	301.42
382.63	308.42
383.01	287.86
383.39	315.43
383.77	284.92
384.15	284.92
384.53	303
384.91	300.06
385.29	288.76
385.67	284.02
386.049	311.36
386.429	307.75
386.809	288.09
387.189	307.07
387.568	301.87
387.948	290.8
388.328	314.3
388.707	307.07
389.087	295.09
389.466	286.5
389.846	299.16
390.225	304.81
390.605	302.1
390.984	295.09
391.363	305.94
391.743	291.25
392.122	326.95
392.501	322.21
392.881	308.65
393.26	290.12
393.639	315.88
394.018	315.2
394.397	310.68
394.776	305.26
395.155	327.86
395.534	313.62
395.913	306.16
396.292	292.15
396.671	338.25
397.05	301.87
397.429	314.07
397.808	328.08
398.186	326.28
398.565	314.07
398.944	328.08
399.323	328.31
399.701	325.82
400.08	314.3
400.458	320.4
400.837	331.47
401.215	305.49
401.594	328.08
401.972	332.38
402.351	338.03
402.729	322.66
403.107	316.79
403.486	316.56
403.864	332.15
404.242	338.71
404.62	342.32
404.999	334.86
405.377	330.8
405.755	344.36
406.133	343.45
406.511	329.21
406.889	346.84
407.267	343.68
407.645	358.82
408.023	333.28
408.401	361.53
408.779	371.02
409.156	353.39
409.534	334.86
409.912	354.98
410.29	369.89
410.667	354.07
411.045	386.16
411.422	378.25
411.8	367.41
412.178	381.64
412.555	367.86
412.933	349.55
413.31	387.52
413.687	385.03
414.065	372.83
414.442	364.02
414.819	389.1
415.197	378.7
415.574	388.65
415.951	361.98
416.328	371.25
416.705	373.28
417.082	387.52
417.46	410.34
417.837	379.83
418.214	388.65
418.591	385.94
418.967	385.48
419.344	407.4
419.721	385.48
420.098	398.59
420.475	406.95
420.852	392.49
421.228	386.39
421.605	407.86
421.982	421.87
422.358	383.68
422.735	421.87
423.111	420.06
423.488	433.62
423.864	414.86
424.241	438.59
424.617	412.15
424.994	410.12
425.37	439.72
425.746	428.42
426.123	432.49
426.499	427.07
426.875	414.64
427.251	438.82
427.627	422.55
428.003	449.44
428.379	450.79
428.756	444.47
429.132	444.69
429.507	477.01
429.883	449.89
430.259	454.86
430.635	463
431.011	469.78
431.387	467.97
431.763	461.41
432.138	474.07
432.514	465.71
432.89	485.82
433.265	484.92
433.641	472.71
434.016	516.33
434.392	517.01
434.767	499.61
435.143	500.74
435.518	510
435.894	517.68
436.269	514.52
436.644	505.26
437.02	506.16
437.395	516.1
437.77	544.8
438.145	533.5
438.52	536.89
438.895	548.42
439.271	550.68
439.646	565.59
440.021	567.17
440.395	559.49
440.77	561.98
441.145	580.06
441.52	601.3
441.895	586.16
442.27	600.17
442.645	592.26
443.019	612.82
443.394	589.32
443.769	621.86
444.143	596.78
444.518	612.37
444.892	597.91
445.267	619.15
445.641	631.81
446.016	600.17
446.39	596.55
446.764	613.5
447.139	628.42
447.513	625.7
447.887	649.88
448.262	633.61
448.636	624.12
449.01	627.51
449.384	666.61
449.758	657.57
450.132	670.67
450.506	653.5
450.88	654.63
451.254	666.83
451.628	669.09
452.002	686.49
452.376	681.52
452.75	688.08
453.123	683.1
453.497	662.09
453.871	690.79
454.244	683.56
454.618	658.25
454.992	701.86
455.365	683.33
455.739	726.27
456.112	733.05
456.486	713.61
456.859	718.58
457.232	726.27
457.606	724.23
457.979	759.94
458.352	761.52
458.725	761.75
459.099	733.05
459.472	766.94
459.845	742.09
460.218	782.31
460.591	790.9
460.964	778.92
461.337	788.19
461.71	797
462.083	783.44
462.456	797.45
462.829	797.68
463.201	788.64
463.574	785.47
463.947	778.69
464.32	805.59
464.692	829.99
465.065	831.8
465.438	850.78
465.81	827.96
466.183	860.5
466.555	858.47
466.928	865.7
467.3	859.6
467.672	852.59
468.045	871.8
468.417	875.64
468.789	880.16
469.161	886.71
469.534	892.36
469.906	911.57
470.278	908.18
470.65	913.38
471.022	923.78
471.394	949.99
471.766	940.5
472.138	916.77
472.51	934.62
472.882	954.96
473.253	950.89
473.625	945.7
473.997	959.93
474.369	955.86
474.74	1001.29
475.112	1001.06
475.484	999.48
475.855	1016.2
476.227	1003.77
476.598	1039.93
476.97	1013.04
477.341	1016.65
477.713	1062.75
478.084	1037.22
478.455	1076.09
478.827	1092.81
479.198	1120.15
479.569	1086.48
479.94	1113.83
480.311	1118.57
480.682	1153.15
481.053	1138.23
481.424	1159.7
481.795	1151.11
482.166	1152.24
482.537	1172.58
482.908	1163.54
483.279	1197.44
483.65	1209.87
484.021	1215.97
484.391	1227.72
484.762	1222.07
485.133	1236.31
485.503	1240.6
485.874	1222.07
486.244	1279.92
486.615	1249.19
486.985	1225.24
487.356	1284.44
487.726	1270.66
488.097	1273.6
488.467	1251
488.837	1320.6
489.207	1312.24
489.578	1287.38
489.948	1324.67
490.318	1311.34
490.688	1313.82
491.058	1335.06
491.428	1318.12
491.798	1334.61
492.168	1320.83
492.538	1323.09
492.908	1342.07
493.278	1352.01
493.648	1343.2
494.017	1367.38
494.387	1372.12
494.757	1338.45
495.126	1360.6
495.496	1371.45
495.866	1363.99
496.235	1371.45
496.605	1375.97
496.974	1345.91
497.344	1377.1
497.713	1368.96
498.082	1368.74
498.452	1399.47
498.821	1378
499.19	1380.94
499.559	1353.82
499.928	1364.67
500.298	1371.67
500.667	1383.2
501.036	1348.62
501.405	1369.64
501.774	1373.48
502.143	1355.63
502.512	1358.57
502.88	1359.47
503.249	1352.92
503.618	1358.57
503.987	1348.17
504.356	1364.22
504.724	1347.04
505.093	1375.06
505.462	1333.26
505.83	1354.05
506.199	1368.51
506.567	1371.22
506.936	1335.74
507.304	1375.97
507.672	1332.58
508.041	1329.19
508.409	1338.68
508.777	1335.29
509.145	1355.85
509.514	1300.71
509.882	1362.63
510.25	1310.66
510.618	1348.62
510.986	1346.59
511.354	1337.1
511.722	1350.66
512.09	1358.79
512.458	1311.79
512.826	1326.48
513.193	1312.01
513.561	1336.87
513.929	1288.51
514.297	1334.16
514.664	1337.1
515.032	1304.78
515.4	1308.4
515.767	1307.49
516.135	1299.81
516.502	1291.22
516.869	1292.8
517.237	1294.16
517.604	1323.99
517.972	1288.06
518.339	1271.11
518.706	1281.96
519.073	1272.69
519.44	1306.59
519.808	1307.49
520.175	1265.69
520.542	1284.67
520.909	1297.1
521.276	1271.79
521.643	1286.25
522.009	1277.44
522.376	1275.18
522.743	1280.38
523.11	1277.44
523.477	1293.26
523.843	1276.76
524.21	1261.17
524.577	1253.48
524.943	1267.27
525.31	1286.25
525.676	1268.62
526.043	1242.86
526.409	1299.58
526.776	1282.41
527.142	1246.7
527.508	1254.16
527.874	1268.17
528.241	1266.37
528.607	1251.9
528.973	1285.12
529.339	1227.95
529.705	1279.47
530.071	1253.26
530.437	1258.23
530.803	1258
531.169	1244.44
531.535	1259.81
531.901	1231.79
532.267	1251.22
532.632	1265.24
532.998	1264.33
533.364	1243.77
533.73	1261.39
534.095	1237.21
534.461	1238.8
534.826	1260.49
535.192	1289.87
535.557	1254.61
535.923	1216.2
536.288	1248.29
536.653	1272.47
537.019	1227.95
537.384	1241.73
537.749	1227.27
538.114	1246.03
538.479	1271.11
538.845	1237.44
539.21	1236.99
539.575	1221.17
539.94	1215.07
540.305	1239.02
540.67	1224.56
541.034	1229.53
541.399	1245.12
541.764	1223.43
542.129	1222.3
542.494	1212.81
542.858	1214.16
543.223	1208.51
543.587	1225.01
543.952	1240.38
544.316	1217.33
544.681	1213.49
545.045	1213.26
545.41	1214.39
545.774	1210.1
546.138	1178.91
546.503	1227.72
546.867	1190.89
547.231	1215.52
547.595	1209.87
547.959	1207.16
548.324	1194.95
548.688	1192.69
549.052	1209.19
549.416	1190.89
549.779	1201.28
550.143	1214.16
550.507	1189.98
550.871	1190.89
551.235	1189.08
551.599	1180.72
551.962	1174.39
552.326	1177.33
552.689	1143.43
553.053	1182.07
553.417	1157.89
553.78	1190.89
554.143	1192.02
554.507	1172.36
554.87	1169.64
555.234	1187.95
555.597	1163.32
555.96	1164.9
556.323	1153.83
556.686	1169.42
557.05	1172.81
557.413	1173.49
557.776	1167.61
558.139	1169.87
558.502	1148.63
558.865	1161.73
559.228	1175.97
559.59	1179.59
559.953	1180.49
560.316	1177.1
560.679	1167.84
561.041	1157.22
561.404	1190.21
561.767	1168.51
562.129	1173.94
562.492	1185.24
562.854	1176.2
563.217	1178.01
563.579	1180.27
563.941	1172.36
564.304	1181.4
564.666	1182.3
565.028	1174.16
565.39	1203.54
565.753	1184.79
566.115	1202.19
566.477	1199.25
566.839	1182.53
567.201	1205.35
567.563	1166.93
567.925	1207.61
568.287	1213.94
568.648	1192.02
569.01	1190.43
569.372	1205.58
569.734	1228.4
570.095	1225.46
570.457	1227.72
570.819	1215.07
571.18	1229.98
571.542	1227.27
571.903	1201.28
572.265	1205.35
572.626	1210.32
572.987	1214.16
573.349	1246.7
573.71	1224.78
574.071	1257.1
574.432	1245.12
574.794	1269.3
575.155	1250.77
575.516	1252.35
575.877	1254.61
576.238	1248.51
576.599	1251.45
576.96	1279.7
577.32	1253.71
577.681	1274.95
578.042	1276.31
578.403	1268.4
578.763	1290.32
579.124	1298.68
579.485	1285.57
579.845	1321.5
580.206	1274.05
580.566	1302.07
580.927	1291.68
581.287	1292.58
581.648	1294.16
582.008	1297.32
582.368	1302.97
582.728	1289.87
583.089	1309.98
583.449	1303.65
583.809	1285.8
584.169	1310.88
584.529	1315.4
584.889	1272.24
585.249	1285.8
585.609	1295.97
585.969	1302.07
586.329	1315.18
586.688	1329.41
587.048	1326.02
587.408	1284.22
587.768	1333.93
588.127	1304.33
588.487	1321.05
588.846	1341.62
589.206	1281.96
589.565	1303.88
589.925	1321.96
590.284	1322.18
590.643	1306.59
591.003	1325.8
591.362	1307.95
591.721	1315.86
592.08	1314.95
592.44	1330.32
592.799	1307.27
593.158	1300.26
593.517	1326.25
593.876	1320.37
594.235	1306.36
594.593	1336.19
594.952	1319.92
595.311	1331.9
595.67	1296.87
596.029	1333.03
596.387	1323.76
596.746	1314.05
597.104	1318.79
597.463	1310.43
597.822	1307.04
598.18	1325.8
598.538	1324.44
598.897	1335.52
599.255	1331.9
599.613	1340.04
599.972	1334.84
600.33	1329.64
600.688	1305.01
601.046	1312.47
601.404	1297.32
601.762	1317.66
602.12	1303.43
602.478	1304.1
602.836	1299.13
603.194	1334.61
603.552	1284.67
603.91	1280.15
604.268	1290.09
604.625	1293.71
604.983	1340.94
605.341	1278.12
605.698	1296.19
606.056	1307.95
606.413	1287.83
606.771	1296.42
607.128	1331
607.485	1333.26
607.843	1332.8
608.2	1305.01
608.557	1318.79
608.914	1340.04
609.272	1322.86
609.629	1342.52
609.986	1330.77
610.343	1342.07
610.7	1347.04
611.057	1310.88
611.414	1343.88
611.771	1344.78
612.127	1356.31
612.484	1317.21
612.841	1344.1
613.198	1328.74
613.554	1318.79
613.911	1350.2
614.267	1307.49
614.624	1321.96
614.98	1324.44
615.337	1325.57
615.693	1345.01
616.05	1344.1
616.406	1330.77
616.762	1348.4
617.118	1356.76
617.475	1360.83
617.831	1314.27
618.187	1354.5
618.543	1367.38
618.899	1333.03
619.255	1323.99
619.611	1341.17
619.967	1341.84
620.323	1333.03
620.678	1331.45
621.034	1370.54
621.39	1345.46
621.746	1335.06
622.101	1332.58
622.457	1350.2
622.812	1342.97
623.168	1348.4
623.523	1337.1
623.879	1332.8
624.234	1335.97
624.589	1347.72
624.945	1357.89
625.3	1342.3
625.655	1374.38
626.01	1345.68
626.365	1345.01
626.72	1368.06
627.075	1342.75
627.43	1342.52
627.785	1345.01
628.14	1355.63
628.495	1369.41
628.85	1346.81
629.205	1358.57
629.559	1364.22
629.914	1354.72
630.269	1340.49
630.623	1335.97
630.978	1352.92
631.332	1329.87
631.687	1351.33
632.041	1324.22
632.396	1370.32
632.75	1363.54
633.104	1322.18
633.459	1347.49
633.813	1361.5
634.167	1356.08
634.521	1351.11
634.875	1334.61
635.229	1348.17
635.583	1380.49
635.937	1351.79
636.291	1348.62
636.645	1351.56
636.999	1348.17
637.352	1323.76
637.706	1333.26
638.06	1367.38
638.413	1329.19
638.767	1345.23
639.121	1359.02
639.474	1331.67
639.828	1354.5
640.181	1350.43
640.534	1372.8
640.888	1342.3
641.241	1329.19
641.594	1387.04
641.947	1346.59
642.301	1358.79
642.654	1326.02
643.007	1343.65
643.36	1373.71
643.713	1375.97
644.066	1329.87
644.419	1354.27
644.771	1351.11
645.124	1334.39
645.477	1345.01
645.83	1339.13
646.182	1351.11
646.535	1321.05
646.888	1362.18
647.24	1332.8
647.593	1349.53
647.945	1341.17
648.298	1300.49
648.65	1349.75
649.002	1338.45
649.355	1323.76
649.707	1368.06
650.059	1345.91
650.411	1368.74
650.763	1365.35
651.115	1383.2
651.467	1375.29
651.819	1368.06
652.171	1385.91
652.523	1369.64
652.875	1374.16
653.227	1368.06
653.578	1402.86
653.93	1405.8
654.282	1373.71
654.633	1365.57
654.985	1402.41
655.337	1366.02
655.688	1376.64
656.039	1378.9
656.391	1378
656.742	1372.35
657.094	1383.88
657.445	1372.12
657.796	1401.5
658.147	1422.29
658.498	1393.59
658.849	1386.59
659.2	1418.23
659.551	1379.58
659.902	1409.86
660.253	1425
660.604	1410.99
660.955	1414.16
661.306	1405.12
661.656	1415.29
662.007	1414.16
662.358	1424.55
662.708	1429.07
663.059	1394.95
663.409	1414.61
663.76	1412.12
664.11	1432.69
664.461	1422.75
664.811	1404.44
665.161	1402.63
665.511	1392.01
665.862	1406.7
666.212	1415.06
666.562	1413.03
666.912	1420.71
667.262	1379.58
667.612	1401.95
667.962	1419.36
668.312	1420.94
668.662	1418.23
669.011	1412.12
669.361	1398.79
669.711	1393.59
670.06	1432.46
670.41	1409.19
670.76	1404.67
671.109	1398.11
671.459	1411.45
671.808	1371.67
672.157	1402.63
672.507	1387.27
672.856	1398.79
673.205	1387.27
673.554	1375.06
673.904	1389.75
674.253	1378.45
674.602	1375.51
674.951	1368.96
675.3	1396.08
675.649	1362.41
675.998	1363.99
676.346	1385.91
676.695	1401.73
677.044	1344.33
677.393	1378
677.741	1364.67
678.09	1370.54
678.438	1359.92
678.787	1358.79
679.135	1379.58
679.484	1352.92
679.832	1363.31
680.181	1358.57
680.529	1355.18
680.877	1371.45
681.225	1328.06
681.573	1371.9
681.922	1383.42
682.27	1359.24
682.618	1351.56
682.966	1343.88
683.314	1349.3
683.661	1313.14
684.009	1287.61
684.357	1330.32
684.705	1345.46
685.053	1341.84
685.4	1315.86
685.748	1331.67
686.095	1305.91
686.443	1321.73
686.79	1299.58
687.138	1301.62
687.485	1313.14
687.832	1300.26
688.18	1305.01
688.527	1293.26
688.874	1298
689.221	1297.32
689.568	1285.35
689.915	1282.86
690.262	1289.19
690.609	1283.09
690.956	1287.83
691.303	1281.51
691.65	1271.34
691.997	1270.66
692.344	1274.95
692.69	1261.62
693.037	1265.69
693.383	1250.55
693.73	1237.44
694.077	1267.04
694.423	1266.14
694.769	1270.88
695.116	1265.24
695.462	1244.22
695.808	1265.01
696.155	1219.13
696.501	1212.36
696.847	1211.9
697.193	1228.4
697.539	1215.29
697.885	1216.87
698.231	1217.78
698.577	1233.6
698.923	1267.04
699.269	1222.3
699.614	1192.47
699.96	1176.88
700.306	1215.29
700.651	1215.97
700.997	1207.84
701.342	1207.61
701.688	1202.86
702.033	1180.04
702.379	1243.09
702.724	1174.84
703.069	1220.72
703.415	1188.85
703.76	1183.43
704.105	1195.86
704.45	1182.75
704.795	1199.02
705.14	1205.8
705.485	1212.81
705.83	1190.89
706.175	1161.06
706.52	1163.09
706.865	1154.96
707.209	1173.94
707.554	1200.83
707.899	1203.09
708.243	1177.55
708.588	1181.85
708.932	1183.43
709.277	1177.55
709.621	1174.62
709.966	1175.07
710.31	1186.14
710.654	1205.58
710.998	1173.03
711.342	1154.96
711.687	1168.06
712.031	1175.07
712.375	1183.2
712.719	1174.39
713.063	1196.76
713.407	1203.77
713.75	1179.81
714.094	1198.8
714.438	1182.75
714.782	1199.93
715.125	1216.65
715.469	1217.55
715.812	1196.08
716.156	1194.28
716.499	1216.65
716.843	1222.3
717.186	1210.55
717.53	1175.52
717.873	1217.33
718.216	1210.32
718.559	1222.98
718.902	1194.28
719.246	1225.46
719.589	1193.15
719.932	1193.15
720.275	1255.74
720.617	1251.68
720.96	1213.03
721.303	1227.72
721.646	1238.34
721.989	1239.25
722.331	1254.61
722.674	1229.76
723.016	1245.8
723.359	1233.82
723.701	1236.54
724.044	1262.52
724.386	1260.72
724.729	1270.66
725.071	1276.99
725.413	1277.44
725.755	1257.33
726.097	1273.82
726.439	1286.93
726.782	1298.45
727.124	1309.53
727.465	1283.09
727.807	1271.11
728.149	1323.31
728.491	1310.43
728.833	1299.58
729.175	1310.66
729.516	1300.49
729.858	1312.92
730.199	1341.62
730.541	1348.17
730.882	1307.27
731.224	1345.23
731.565	1332.13
731.906	1363.54
732.248	1354.5
732.589	1366.02
732.93	1375.51
733.271	1384.78
733.612	1345.23
733.953	1382.29
734.294	1407.15
734.635	1408.51
734.976	1387.49
735.317	1391.56
735.658	1447.6
735.999	1415.06
736.339	1441.5
736.68	1436.98
737.021	1496.64
737.361	1495.51
737.702	1492.35
738.042	1481.05
738.383	1505.91
738.723	1512.91
739.063	1519.01
739.404	1534.38
739.744	1560.14
740.084	1544.1
740.424	1570.54
740.764	1594.72
741.104	1587.94
741.444	1596.07
741.784	1618.45
742.124	1636.75
742.464	1635.17
742.804	1664.09
743.143	1675.39
743.483	1683.3
743.823	1700.25
744.162	1722.85
744.502	1755.39
744.841	1757.2
745.181	1771.66
745.52	1812.34
745.86	1822.51
746.199	1838.1
746.538	1870.87
746.877	1887.59
747.216	1901.38
747.556	1909.51
747.895	1913.35
748.234	1981.37
748.573	1962.17
748.911	2005.33
749.25	2002.16
749.589	2072.45
749.928	2090.3
750.267	2156.51
750.605	2170.3
750.944	2149.51
751.283	2202.16
751.621	2270.86
751.96	2276.96
752.298	2318.77
752.636	2387.47
752.975	2391.53
753.313	2413.91
753.651	2463.4
753.989	2516.05
754.327	2539.78
754.666	2591.3
755.004	2632.2
755.342	2677.18
755.679	2720.56
756.017	2728.47
756.355	2794.46
756.693	2853.89
757.031	2871.97
757.368	2914.91
757.706	2956.26
758.044	2983.83
758.381	3024.28
758.719	3088.01
759.056	3122.14
759.394	3179.76
759.731	3193.32
760.068	3265.63
760.405	3297.05
760.743	3326.88
761.08	3384.95
761.417	3399.64
761.754	3469.7
762.091	3539.53
762.428	3580.65
762.765	3596.02
763.102	3623.14
763.438	3710.37
763.775	3726.87
764.112	3763.25
764.449	3812.74
764.785	3857.03
765.122	3888.67
765.458	3887.77
765.795	3925.5
766.131	4009.8
766.467	4000.08
766.804	4056.57
767.14	4079.62
767.476	4089.79
767.812	4118.72
768.148	4198.27
768.485	4208.43
768.821	4214.31
769.157	4208.89
769.492	4261.31
769.828	4295.89
770.164	4320.3
770.5	4328.21
770.836	4398.71
771.171	4378.15
771.507	4429.9
771.842	4456.34
772.178	4419.05
772.513	4492.95
772.849	4480.97
773.184	4505.15
773.519	4511.7
773.855	4533.62
774.19	4600.74
774.525	4611.36
774.86	4608.2
775.195	4639.84
775.53	4608.65
775.865	4654.3
776.2	4642.55
776.535	4643.45
776.87	4666.73
777.205	4670.57
777.539	4667.86
777.874	4684.81
778.209	4687.29
778.543	4668.99
778.878	4713.28
779.212	4783.11
779.547	4750.57
779.881	4746.95
780.215	4690
780.55	4768.19
780.884	4726.16
781.218	4741.08
781.552	4796.67
781.886	4692.72
782.22	4724.13
782.554	4741.53
782.888	4731.81
783.222	4707.86
783.556	4705.14
783.889	4770.68
784.223	4723
784.557	4680.29
784.89	4794.18
785.224	4748.99
785.557	4725.94
785.891	4721.19
786.224	4741.75
786.558	4761.64
786.891	4720.74
787.224	4716.67
787.557	4732.26
787.891	4720.96
788.224	4726.84
788.557	4736.33
788.89	4717.35
789.223	4716.44
789.556	4685.48
789.888	4692.49
790.221	4663.34
790.554	4673.06
790.887	4708.08
791.219	4661.3
791.552	4701.3
791.884	4664.92
792.217	4628.31
792.549	4615.88
792.882	4625.15
793.214	4638.03
793.546	4642.32
793.879	4628.76
794.211	4640.06
794.543	4627.18
794.875	4604.36
795.207	4657.01
795.539	4616.79
795.871	4570.01
796.203	4603.45
796.535	4565.94
796.867	4588.76
797.198	4568.65
797.53	4587.86
797.862	4581.98
798.193	4583.34
798.525	4565.26
798.856	4544.47
799.188	4516
799.519	4569.55
799.85	4500.4
800.182	4517.13
800.513	4542.66
800.844	4498.37
801.175	4442.1
801.506	4531.82
801.837	4483.46
802.168	4476
802.499	4452.27
802.83	4417.24
803.161	4424.47
803.491	4445.04
803.822	4394.87
804.153	4416.11
804.483	4396.9
804.814	4357.81
805.145	4405.94
805.475	4438.26
805.805	4363.01
806.136	4357.13
806.466	4370.24
806.796	4383.12
807.126	4341.99
807.457	4352.84
807.787	4342.44
808.117	4285.95
808.447	4361.2
808.777	4306.96
809.107	4298.38
809.436	4297.47
809.766	4339.05
810.096	4300.41
810.426	4240.98
810.755	4286.17
811.085	4247.53
811.414	4304.03
811.744	4238.94
812.073	4278.49
812.403	4263.8
812.732	4205.04
813.061	4221.77
813.39	4220.64
813.719	4217.25
814.049	4256.12
814.378	4219.06
814.707	4172.05
815.036	4204.37
815.365	4189
815.693	4177.47
816.022	4160.75
816.351	4132.28
816.68	4150.13
817.008	4168.21
817.337	4136.35
817.665	4094.99
817.994	4130.7
818.322	4113.97
818.651	4144.48
818.979	4090.25
819.307	4098.83
819.636	4073.75
819.964	4075.56
820.292	4105.61
820.62	4090.7
820.948	4077.82
821.276	4075.1
821.604	4098.38
821.932	4138.38
822.259	4076.23
822.587	4086.18
822.915	4066.97
823.243	4107.42
823.57	4104.26
823.898	4089.34
824.225	4080.3
824.553	4073.3
824.88	4060.64
825.207	4075.1
825.535	4123.24
825.862	4124.59
826.189	4096.12
826.516	4101.54
826.843	4146.29
827.17	4109.23
827.497	4088.21
827.824	4089.34
828.151	4077.36
828.478	4089.79
828.805	4098.15
829.131	4114.43
829.458	4132.73
829.785	4092.73
830.111	4048.89
830.438	4142
830.764	4121.66
831.09	4116.91
831.417	4057.93
831.743	4134.54
832.069	4092.51
832.395	4101.09
832.722	4083.47
833.048	4061.77
833.374	4073.07
833.7	4085.5
834.026	4083.69
834.351	4080.08
834.677	4092.05
835.003	4119.85
835.329	4092.96
835.654	4069
835.98	4061.32
836.306	4083.69
836.631	4040.3
836.956	4072.84
837.282	4051.6
837.607	4022.45
837.932	4057.93
838.258	4063.13
838.583	4040.3
838.908	4016.58
839.233	4038.5
839.558	4030.59
839.883	4017.25
840.208	4014.54
840.533	4017.25
840.858	4026.07
841.182	3966.41
841.507	3976.8
841.832	3931.61
842.156	3962.57
842.481	3961.89
842.805	3935.45
843.13	3943.36
843.454	3926.63
843.778	3922.57
844.103	3890.02
844.427	3859.52
844.751	3926.63
845.075	3882.12
845.399	3887.77
845.723	3890.48
846.047	3858.39
846.371	3833.53
846.695	3819.97
847.019	3825.85
847.343	3782.68
847.666	3813.19
847.99	3783.81
848.313	3762.57
848.637	3753.08
848.96	3731.61
849.284	3726.87
849.607	3709.46
849.931	3675.79
850.254	3670.82
850.577	3625.4
850.9	3650.03
851.223	3643.03
851.546	3602.57
851.869	3652.06
852.192	3585.85
852.515	3557.38
852.838	3600.54
853.161	3572.75
853.483	3512.41
853.806	3545.4
854.129	3553.54
854.451	3530.26
854.774	3525.06
855.096	3455.01
855.419	3522.12
855.741	3489.81
856.063	3474.67
856.385	3452.75
856.708	3454.33
857.03	3454.78
857.352	3482.58
857.674	3398.06
857.996	3403.94
858.318	3396.93
858.64	3377.5
858.961	3373.88
859.283	3380.21
859.605	3355.58
859.926	3334.79
860.248	3355.12
860.57	3343.6
860.891	3348.8
861.212	3355.8
861.534	3325.07
861.855	3304.5
862.176	3347.89
862.498	3299.98
862.819	3309.02
863.14	3310.61
863.461	3297.05
863.782	3295.24
864.103	3301.79
864.424	3239.87
864.745	3317.38
865.065	3259.08
865.386	3268.57
865.707	3250.95
866.027	3219.31
866.348	3260.21
866.668	3212.98
866.989	3205.75
867.309	3217.05
867.63	3234.22
867.95	3237.16
868.27	3209.36
868.59	3250.72
868.91	3173.43
869.23	3220.21
869.55	3193.09
869.87	3187.44
870.19	3175.92
870.51	3175.92
870.83	3181.79
871.15	3160.55
871.469	3164.62
871.789	3201.91
872.109	3184.05
872.428	3165.52
872.748	3106.99
873.067	3143.6
873.386	3155.58
873.706	3132.76
874.025	3114.68
874.344	3120.78
874.663	3120.1
874.982	3132.53
875.301	3144.96
875.62	3151.51
875.939	3088.01
876.258	3088.92
876.577	3075.13
876.896	3051.4
877.214	3039.2
877.533	3067.22
877.852	3033.1
878.17	3052.76
878.489	3052.76
878.807	3051.63
879.125	3051.4
879.444	3069.93
879.762	3022.03
880.08	3006.88
880.398	3069.03
880.716	3020.67
881.034	3041.91
881.352	2981.8
881.67	2979.99
881.988	3016.83
882.306	2969.82
882.624	3018.18
882.941	2984.29
883.259	2971.86
883.577	2963.27
883.894	2976.38
884.212	2929.37
884.529	2971.18
884.846	2935.02
885.164	2941.12
885.481	2899.54
885.798	2931.18
886.115	2923.04
886.432	2932.99
886.75	2906.1
887.067	2909.26
887.383	2867
887.7	2897.28
888.017	2903.38
888.334	2861.58
888.651	2866.55
888.967	2860.9
889.284	2799.88
889.6	2824.74
889.917	2840.79
890.233	2854.12
890.55	2796.72
890.866	2811.64
891.182	2796.49
891.498	2771.86
891.815	2777.29
892.131	2749.94
892.447	2746.55
892.763	2745.2
893.079	2717.85
893.395	2669.04
893.71	2705.42
894.026	2735.7
894.342	2702.03
894.657	2715.82
894.973	2670.4
895.289	2700.23
895.604	2687.12
895.92	2661.81
896.235	2668.81
896.55	2641.24
896.865	2679.21
897.181	2625.2
897.496	2640.57
897.811	2643.5
898.126	2630.85
898.441	2585.43
898.756	2632.43
899.071	2588.59
899.386	2581.81
899.7	2551.98
900.015	2551.08
900.33	2532.77
900.644	2514.02
900.959	2525.54
901.273	2523.51
901.588	2516.73
901.902	2490.74
902.216	2496.84
902.531	2476.28
902.845	2502.72
903.159	2466.79
903.473	2438.31
903.787	2460.46
904.101	2441.48
904.415	2434.7
904.729	2417.3
905.042	2446.45
905.356	2395.15
905.67	2403.51
905.984	2404.87
906.297	2394.24
906.611	2353.57
906.924	2382.04
907.237	2350.63
907.551	2332.78
907.864	2355.15
908.177	2330.74
908.491	2347.69
908.804	2324.64
909.117	2311.08
909.43	2269.28
909.743	2285.1
910.056	2276.06
910.368	2265.89
910.681	2238.99
910.994	2239.67
911.307	2257.75
911.619	2217.75
911.932	2288.94
912.244	2210.07
912.557	2194.25
912.869	2216.17
913.181	2214.81
913.494	2210.52
913.806	2196.06
914.118	2191.99
914.43	2148.83
914.742	2173.01
915.054	2128.94
915.366	2140.24
915.678	2121.48
915.99	2083.07
916.302	2090.75
916.613	2100.24
916.925	2087.59
917.236	2090.75
917.548	2100.47
917.859	2079
918.171	2037.19
918.482	2061.15
918.794	2053.91
919.105	2064.08
919.416	2034.48
919.727	2050.3
920.038	2050.98
920.349	2028.15
920.66	1979.11
920.971	2000.36
921.282	2023.41
921.593	1977.53
921.903	2009.4
922.214	1984.76
922.525	1967.59
922.835	1968.27
923.146	1969.17
923.456	1945.44
923.767	1963.97
924.077	1932.34
924.387	1907.25
924.697	1903.86
925.008	1900.02
925.318	1923.3
925.628	1906.8
925.938	1896.86
926.248	1887.59
926.558	1867.71
926.867	1830.19
927.177	1851.89
927.487	1855.28
927.796	1873.13
928.106	1835.84
928.416	1841.72
928.725	1859.57
929.034	1801.94
929.344	1819.8
929.653	1846.91
929.962	1786.13
930.271	1778.67
930.581	1768.05
930.89	1793.36
931.199	1768.05
931.508	1793.13
931.817	1787.93
932.125	1760.82
932.434	1736.86
932.743	1746.58
933.051	1752.91
933.36	1734.15
933.669	1721.49
933.977	1746.58
934.286	1699.35
934.594	1729.86
934.902	1688.05
935.21	1707.26
935.519	1690.53
935.827	1704.55
936.135	1675.39
936.443	1677.88
936.751	1666.58
937.059	1677.88
937.367	1642.4
937.674	1638.11
937.982	1650.99
938.29	1634.26
938.597	1628.16
938.905	1644.89
939.213	1608.95
939.52	1621.16
939.827	1615.28
940.135	1612.34
940.442	1608.95
940.749	1584.77
941.056	1587.03
941.363	1551.56
941.67	1568.73
941.977	1553.82
942.284	1559.46
942.591	1571.44
942.898	1566.92
943.205	1572.12
943.511	1529.63
943.818	1495.96
944.125	1522.63
944.431	1544.1
944.738	1523.99
945.044	1516.98
945.35	1501.16
945.657	1514.95
945.963	1478.56
946.269	1514.95
946.575	1472.91
946.881	1449.41
947.187	1436.98
947.493	1463.87
947.799	1433.37
948.105	1454.16
948.41	1452.12
948.716	1447.15
949.022	1467.49
949.327	1453.25
949.633	1445.57
949.938	1453.25
950.244	1422.29
950.549	1413.03
950.854	1417.77
951.16	1425.23
951.465	1387.72
951.77	1393.82
952.075	1385.46
952.38	1370.54
952.685	1396.76
952.99	1390.66
953.294	1348.85
953.599	1352.24
953.904	1333.26
954.209	1340.26
954.513	1345.46
954.818	1342.97
955.122	1333.48
955.426	1347.72
955.731	1338.23
956.035	1346.36
956.339	1328.28
956.643	1325.57
956.948	1331.9
957.252	1296.42
957.556	1310.66
957.86	1317.89
958.163	1287.83
958.467	1310.43
958.771	1271.56
959.075	1297.78
959.378	1254.61
959.682	1265.91
959.985	1263.88
960.289	1277.66
960.592	1251.68
960.896	1270.21
961.199	1284.67
961.502	1264.56
961.805	1245.8
962.108	1218.68
962.411	1244.67
962.714	1234.73
963.017	1221.85
963.32	1223.65
963.623	1218.68
963.926	1212.13
964.228	1209.19
964.531	1194.28
964.833	1178.01
965.136	1201.73
965.438	1184.11
965.741	1188.85
966.043	1184.56
966.345	1158.8
966.648	1187.05
966.95	1172.58
967.252	1168.29
967.554	1151.34
967.856	1185.46
968.158	1161.96
968.46	1118.35
968.761	1163.99
969.063	1144.56
969.365	1137.1
969.666	1160.38
969.968	1124
970.269	1124
970.571	1134.84
970.872	1115.63
971.174	1101.17
971.475	1105.92
971.776	1122.64
972.077	1116.76
972.378	1100.27
972.679	1118.35
972.98	1100.72
973.281	1067.27
973.582	1109.98
973.883	1082.19
974.183	1073.6
974.484	1055.75
974.785	1057.33
975.085	1046.94
975.386	1055.3
975.686	1094.17
975.986	1083.77
976.287	1055.98
976.587	1049.42
976.887	1062.3
977.187	1048.07
977.487	1052.59
977.787	1044.45
978.087	1018.01
978.387	1055.75
978.687	1009.2
978.987	1035.86
979.286	1011.91
979.586	1031.34
979.885	1001.74
980.185	1011.91
980.484	1004.45
980.784	999.03
981.083	1010.78
981.382	1005.81
981.682	998.12
981.981	959.71
982.28	1006.48
982.579	987.5
982.878	981.17
983.177	975.53
983.475	978.46
983.774	949.09
984.073	952.93
984.372	960.84
984.67	968.97
984.969	938.46
985.267	968.75
985.566	956.32
985.864	952.47
986.162	951.12
986.461	926.03
986.759	929.88
987.057	919.26
987.355	924.91
987.653	926.03
987.951	909.09
988.249	928.97
988.547	910.89
988.844	895.3
989.142	904.34
989.44	893.49
989.737	891.69
990.035	882.87
990.332	890.56
990.63	879.26
990.927	881.97
991.224	884.23
991.521	890.1
991.819	874.96
992.116	881.06
992.413	896.43
992.71	856.21
993.006	865.25
993.303	862.99
993.6	871.35
993.897	873.61
994.193	851.46
994.49	837.9
994.787	843.55
995.083	834.74
995.379	825.7
995.676	832.48
995.972	846.94
996.268	841.29
996.565	823.89
996.861	822.99
997.157	839.71
997.453	838.13
997.749	818.24
998.044	826.38
998.34	781.41
998.636	784.8
998.932	801.07
999.227	829.77
999.523	773.5
999.818	791.12
1000.114	778.69
1000.409	796.77
1000.704	771.91
1001	768.07
1001.295	768.75
1001.59	773.5
1001.885	754.97
1002.18	752.93
1002.475	750.45
1002.77	776.43
1003.065	757.68
1003.359	743.21
1003.654	750.22
1003.949	744.8
1004.243	749.32
1004.538	751.58
1004.832	757.9
1005.127	736.89
1005.421	747.28
1005.715	736.44
1006.009	725.59
1006.304	721.97
1006.598	693.95
1006.892	713.16
1007.186	726.27
1007.48	705.93
1007.773	714.74
1008.067	710.9
1008.361	696.21
1008.655	707.96
1008.948	718.81
1009.242	700.96
1009.535	700.96
1009.829	715.65
1010.122	683.56
1010.415	666.15
1010.708	688.3
1011.001	689.88
1011.295	676.32
1011.588	700.96
1011.881	675.19
1012.173	670.22
1012.466	657.34
1012.759	682.65
1013.052	656.89
1013.344	651.69
1013.637	653.05
1013.93	662.54
1014.222	638.58
1014.514	663.22
1014.807	650.79
1015.099	646.95
1015.391	660.73
1015.683	664.8
1015.976	641.3
1016.268	642.43
1016.56	656.66
1016.851	646.95
1017.143	620.05
1017.435	630.22
1017.727	606.04
1018.018	609.43
1018.31	619.15
1018.602	615.99
1018.893	611.92
1019.185	610.11
1019.476	611.02
1019.767	624.12
1020.058	592.03
1020.35	586.16
1020.641	596.78
1020.932	600.17
1021.223	587.74
1021.514	580.28
1021.804	587.06
1022.095	572.82
1022.386	587.51
1022.677	585.25
1022.967	567.85
1023.258	595.2
1023.548	592.94
1023.839	568.98
1024.129	540.06
1024.419	541.41
1024.709	580.73
1025	567.4
1025.29	562.2
1025.58	555.65
1025.87	554.29
1026.16	562.88
1026.449	556.55
1026.739	552.49
1027.029	544.12
1027.319	551.13
1027.608	548.64
1027.898	536.44
1028.187	542.54
1028.477	548.42
1028.766	538.47
1029.055	514.97
1029.344	531.7
1029.634	549.77
1029.923	514.97
1030.212	542.77
1030.501	517.68
1030.79	507.74
1031.078	500.51
1031.367	527.4
1031.656	522.2
1031.945	513.39
1032.233	512.71
1032.522	509.77
1032.81	524.92
1033.099	498.7
1033.387	518.36
1033.675	493.28
1033.963	503
1034.251	487.4
1034.54	505.93
1034.828	505.26
1035.116	512.03
1035.403	511.36
1035.691	488.76
1035.979	502.77
1036.267	489.66
1036.554	501.19
1036.842	486.05
1037.129	475.2
1037.417	472.71
1037.704	497.57
1037.992	482.43
1038.279	481.75
1038.566	460.06
1038.853	460.06
1039.14	460.06
