Data from blue_chair_FLMS001491_00054.txt Node
Date: Wed Feb 08 10:31:18 GMT 2017
User: dcchb
Spectrometer: FLMS00149
Trigger mode: 0
Integration Time (sec): 2.000000E-2
Scans to average: 10
Electric dark correction enabled: true
Nonlinearity correction enabled: false
Boxcar width: 0
XAxis mode: Wavelengths
Number of Pixels in Spectrum: 2048
>>>>>Begin Spectral Data<<<<<
341.393	-4.7
341.776	-4.7
342.16	-4.7
342.543	-48.77
342.927	-60.3
343.31	-70.69
343.693	-68.88
344.077	-61.2
344.46	-61.2
344.843	-54.19
345.226	-45.15
345.61	-27.98
345.993	-28.66
346.376	-5.83
346.759	37.33
347.142	33.49
347.525	52.24
347.908	43.21
348.291	59.93
348.674	94.5
349.057	103.09
349.44	127.04
349.823	143.99
350.206	157.1
350.588	176.53
350.971	188.29
351.354	214.05
351.737	212.01
352.119	229.87
352.502	231.45
352.884	253.6
353.267	246.14
353.65	269.19
354.032	258.34
354.414	285.91
354.797	298.34
355.179	306.25
355.562	292.24
355.944	307.6
356.326	312.35
356.709	289.98
357.091	290.88
357.473	297.21
357.855	302.63
358.238	330.66
358.62	319.36
359.002	313.48
359.384	314.61
359.766	306.93
360.148	336.53
360.53	301.96
360.912	310.32
361.294	304.67
361.676	295.18
362.057	289.98
362.439	323.88
362.821	306.93
363.203	298.11
363.584	293.37
363.966	301.96
364.348	299.47
364.729	296.76
365.111	279.81
365.493	288.85
365.874	294.05
366.256	292.46
366.637	285.68
367.019	287.94
367.4	315.06
367.781	299.92
368.163	288.17
368.544	287.94
368.925	289.75
369.306	271.45
369.688	259.7
370.069	277.55
370.45	287.49
370.831	265.57
371.212	289.75
371.593	275.29
371.974	287.72
372.355	269.87
372.736	282.52
373.117	270.54
373.498	276.65
373.879	275.06
374.26	287.04
374.641	283.88
375.021	291.56
375.402	298.11
375.783	287.94
376.163	286.81
376.544	299.92
376.925	285.23
377.305	303.09
377.686	289.3
378.066	296.76
378.447	288.85
378.827	280.04
379.208	295.18
379.588	292.92
379.968	293.82
380.349	304.67
380.729	292.92
381.109	320.03
381.489	276.65
381.87	299.7
382.25	285.01
382.63	318.45
383.01	301.5
383.39	291.79
383.77	287.27
384.15	285.23
384.53	292.24
384.91	289.75
385.29	297.89
385.67	290.2
386.049	296.31
386.429	294.5
386.809	321.16
387.189	301.73
387.568	313.93
387.948	315.97
388.328	316.19
388.707	324.1
389.087	323.65
389.466	326.36
389.846	328.62
390.225	329.53
390.605	306.25
390.984	330.2
391.363	326.81
391.743	316.42
392.122	315.06
392.501	309.64
392.881	318.23
393.26	341.05
393.639	307.38
394.018	312.58
394.397	336.08
394.776	338.34
395.155	310.32
395.534	327.72
395.913	325.01
396.292	325.23
396.671	324.1
397.05	346.02
397.429	314.16
397.808	335.63
398.186	338.56
398.565	331.79
398.944	336.08
399.323	346.93
399.701	351.22
400.08	344.67
400.458	343.76
400.837	357.55
401.215	367.49
401.594	345.12
401.972	343.54
402.351	329.75
402.729	348.96
403.107	370.88
403.486	346.7
403.864	352.35
404.242	342.86
404.62	346.25
404.999	357.1
405.377	338.79
405.755	338.34
406.133	380.82
406.511	349.19
406.889	358.9
407.267	367.94
407.645	370.43
408.023	377.43
408.401	376.53
408.779	370.2
409.156	375.63
409.534	402.97
409.912	386.92
410.29	390.99
410.667	395.29
411.045	396.19
411.422	381.73
411.8	400.71
412.178	412.01
412.555	410.43
412.933	411.78
413.31	403.42
413.687	413.14
414.065	413.82
414.442	402.52
414.819	422.18
415.197	422.4
415.574	407.94
415.951	414.95
416.328	412.69
416.705	432.12
417.082	412.46
417.46	413.59
417.837	442.29
418.214	438
418.591	433.48
418.967	417.66
419.344	442.74
419.721	458.56
420.098	418.11
420.475	438.9
420.852	430.99
421.228	453.14
421.605	480.48
421.982	464.21
422.358	459.47
422.735	447.94
423.111	466.02
423.488	478.67
423.864	466.02
424.241	483.65
424.617	493.36
424.994	491.1
425.37	497.43
425.746	480.93
426.123	486.58
426.499	496.98
426.875	503.53
427.251	497.88
427.627	514.15
428.003	520.03
428.379	518.9
428.756	514.61
429.132	513.48
429.507	539.01
429.883	527.94
430.259	550.76
430.635	545.56
431.011	559.58
431.387	555.51
431.763	536.75
432.138	546.47
432.514	575.85
432.89	555.28
433.265	586.92
433.641	598.22
434.016	567.03
434.392	594.38
434.767	580.82
435.143	588.05
435.518	602.51
435.894	596.18
436.269	609.97
436.644	661.04
437.02	654.94
437.395	636.64
437.77	642.06
438.145	648.39
438.52	670.99
438.895	669.63
439.271	682.06
439.646	691.78
440.021	707.59
440.395	706.92
440.77	709.18
441.145	711.44
441.52	713.02
441.895	713.92
442.27	758.89
442.645	722.06
443.019	753.24
443.394	749.18
443.769	767.03
444.143	800.02
444.518	776.75
444.892	782.17
445.267	767.03
445.641	771.55
446.016	783.75
446.39	790.76
446.764	805.9
447.139	820.81
447.513	792.11
447.887	783.75
448.262	818.1
448.636	822.62
449.01	821.04
449.384	819.23
449.758	816.97
450.132	846.35
450.506	849.29
450.88	849.29
451.254	832.11
451.628	872.11
452.002	866.23
452.376	877.53
452.75	847.48
453.123	889.28
453.497	900.81
453.871	924.99
454.244	907.82
454.618	911.43
454.992	938.32
455.365	922.5
455.739	927.02
456.112	949.62
456.486	953.69
456.859	986.91
457.232	977.42
457.606	964.76
457.979	973.35
458.352	974.03
458.725	975.16
459.099	1000.47
459.472	1017.19
459.845	993.24
460.218	1001.37
460.591	1020.81
460.964	1043.4
461.337	1017.42
461.71	1044.76
462.083	1056.06
462.456	1082.95
462.829	1080.47
463.201	1072.33
463.574	1105.32
463.947	1081.37
464.32	1132.22
464.692	1117.75
465.065	1130.18
465.438	1125.66
465.81	1142.39
466.183	1159.33
466.555	1158.2
466.928	1167.47
467.3	1169.28
467.672	1178.09
468.045	1177.86
468.417	1223.96
468.789	1181.93
469.161	1227.13
469.534	1222.38
469.906	1276.84
470.278	1242.95
470.65	1279.56
471.022	1252.89
471.394	1298.09
471.766	1278.88
472.138	1303.96
472.51	1295.6
472.882	1333.11
473.253	1337.86
473.625	1370.63
473.997	1389.16
474.369	1367.01
474.74	1393.9
475.112	1389.61
475.484	1423.73
475.855	1438.2
476.227	1433.68
476.598	1466.22
476.97	1467.8
477.341	1490.17
477.713	1479.1
478.084	1504.64
478.455	1524.07
478.827	1518.42
479.198	1565.65
479.569	1559.78
479.94	1586.67
480.311	1604.07
480.682	1597.51
481.053	1626.67
481.424	1626.67
481.795	1649.72
482.166	1665.99
482.537	1689.72
482.908	1699.66
483.279	1691.75
483.65	1721.35
484.021	1724.74
484.391	1714.57
484.762	1720.68
485.133	1792.31
485.503	1789.83
485.874	1785.98
486.244	1804.97
486.615	1809.71
486.985	1807.9
487.356	1802.48
487.726	1844.06
488.097	1858.98
488.467	1834.57
488.837	1886.32
489.207	1892.65
489.578	1868.47
489.948	1918.41
490.318	1923.61
490.688	1909.37
491.058	1924.74
491.428	1925.87
491.798	1910.95
492.168	1954.57
492.538	1947.34
492.908	1978.52
493.278	1973.55
493.648	1990.27
494.017	1987.56
494.387	1982.82
494.757	1980.1
495.126	1971.74
495.496	1992.08
495.866	1974.23
496.235	1965.19
496.605	2008.13
496.974	1977.17
497.344	1991.18
497.713	2021.23
498.082	1972.87
498.452	1999.76
498.821	1989.82
499.19	1993.21
499.559	1974.68
499.928	2032.31
500.298	1976.94
500.667	1962.25
501.036	1972.65
501.405	1981.01
501.774	2012.64
502.143	1996.37
502.512	1978.97
502.88	1974
503.249	1970.16
503.618	1981.23
503.987	1984.17
504.356	1975.81
504.724	1992.53
505.093	1972.65
505.462	1976.26
505.83	1999.99
506.199	1976.26
506.567	1951.18
506.936	1991.18
507.304	1954.34
507.672	1978.52
508.041	1943.49
508.409	1987.33
508.777	1964.96
509.145	1992.31
509.514	1974.23
509.882	1975.81
510.25	1954.12
510.618	1921.57
510.986	1913.89
511.354	1935.81
511.722	1955.25
512.09	1928.81
512.458	1931.97
512.826	1929.48
513.193	1893.1
513.561	1915.92
513.929	1918.41
514.297	1900.56
514.664	1897.17
515.032	1936.49
515.4	1891.29
515.767	1903.95
516.135	1891.29
516.502	1850.84
516.869	1878.41
517.237	1880.22
517.604	1895.13
517.972	1835.02
518.339	1851.97
518.706	1857.85
519.073	1848.58
519.44	1839.32
519.808	1842.93
520.175	1845.42
520.542	1825.31
520.909	1829.6
521.276	1809.26
521.643	1785.98
522.009	1808.13
522.376	1816.27
522.743	1777.85
523.11	1816.04
523.477	1780.56
523.843	1782.59
524.21	1827.34
524.577	1793.67
524.943	1802.25
525.31	1795.02
525.676	1801.12
526.043	1756.83
526.409	1798.19
526.776	1760.22
527.142	1765.87
527.508	1747.34
527.874	1764.52
528.241	1780.33
528.607	1759.09
528.973	1770.62
529.339	1749.15
529.705	1757.28
530.071	1743.05
530.437	1720.9
530.803	1735.59
531.169	1733.56
531.535	1736.49
531.901	1713.22
532.267	1749.15
532.632	1705.31
532.998	1702.82
533.364	1722.71
533.73	1735.82
534.095	1700.11
534.461	1688.13
534.826	1681.13
535.192	1698.98
535.557	1697.4
535.923	1691.98
536.288	1701.69
536.653	1665.54
537.019	1687.91
537.384	1659.66
537.749	1678.19
538.114	1652.43
538.479	1643.61
538.845	1640.23
539.21	1642.03
539.575	1638.64
539.94	1605.2
540.305	1610.62
540.67	1642.49
541.034	1591.41
541.399	1590.74
541.764	1602.03
542.129	1599.1
542.494	1576.27
542.858	1601.81
543.223	1600.23
543.587	1596.61
543.952	1586.89
544.316	1545.76
544.681	1573.11
545.045	1556.61
545.41	1567.46
545.774	1548.02
546.138	1531.08
546.503	1529.72
546.867	1540.79
547.231	1543.96
547.595	1511.87
547.959	1561.81
548.324	1528.82
548.688	1509.83
549.052	1506.22
549.416	1512.77
549.779	1478.2
550.143	1503.73
550.507	1465.31
550.871	1477.29
551.235	1476.84
551.599	1478.87
551.962	1487.46
552.326	1464.64
552.689	1473.45
553.053	1467.12
553.417	1454.47
553.78	1483.62
554.143	1465.54
554.507	1476.39
554.87	1433.68
555.234	1471.87
555.597	1439.33
555.96	1447.01
556.323	1456.95
556.686	1437.97
557.05	1425.09
557.413	1451.53
557.776	1408.37
558.139	1423.96
558.502	1408.82
558.865	1410.17
559.228	1436.16
559.59	1449.95
559.953	1426.67
560.316	1404.75
560.679	1435.94
561.041	1447.24
561.404	1427.12
561.767	1415.82
562.129	1417.18
562.492	1412.66
562.854	1404.07
563.217	1403.4
563.579	1397.52
563.941	1407.24
564.304	1416.05
564.666	1441.81
565.028	1399.55
565.39	1394.81
565.753	1428.03
566.115	1440.68
566.477	1424.41
566.839	1410.63
567.201	1425.99
567.563	1446.78
567.925	1455.6
568.287	1427.58
568.648	1393.45
569.01	1427.58
569.372	1433.9
569.734	1428.93
570.095	1454.69
570.457	1425.99
570.819	1450.4
571.18	1465.99
571.542	1442.94
571.903	1463.51
572.265	1443.62
572.626	1445.88
572.987	1460.34
573.349	1469.83
573.71	1477.74
574.071	1483.39
574.432	1465.09
574.794	1461.02
575.155	1500.79
575.516	1462.38
575.877	1456.95
576.238	1521.13
576.599	1467.57
576.96	1477.52
577.32	1473.9
577.681	1476.39
578.042	1482.04
578.403	1513.45
578.763	1489.04
579.124	1468.48
579.485	1509.38
579.845	1505.99
580.206	1486.78
580.566	1492.66
580.927	1505.09
581.287	1512.32
581.648	1517.52
582.008	1528.59
582.368	1510.29
582.728	1516.84
583.089	1528.82
583.449	1497.4
583.809	1517.29
584.169	1491.98
584.529	1493.11
584.889	1509.83
585.249	1497.18
585.609	1492.21
585.969	1495.14
586.329	1508.48
586.688	1503.28
587.048	1523.17
587.408	1519.1
587.768	1525.2
588.127	1482.26
588.487	1495.14
588.846	1534.01
589.206	1494.92
589.565	1531.75
589.925	1512.77
590.284	1506.22
590.643	1506.22
591.003	1477.29
591.362	1544.63
591.721	1501.47
592.08	1487.69
592.44	1514.8
592.799	1520.68
593.158	1535.6
593.517	1528.59
593.876	1510.74
594.235	1505.09
594.593	1507.57
594.952	1514.58
595.311	1488.59
595.67	1506.67
596.029	1527.01
596.387	1530.4
596.746	1524.3
597.104	1498.76
597.463	1505.99
597.822	1510.06
598.18	1497.4
598.538	1491.75
598.897	1496.73
599.255	1500.12
599.613	1543.73
599.972	1521.36
600.33	1509.16
600.688	1502.15
601.046	1517.74
601.404	1500.34
601.762	1485.2
602.12	1523.39
602.478	1532.88
602.836	1536.95
603.194	1531.98
603.552	1534.01
603.91	1518.87
604.268	1524.75
604.625	1506.9
604.983	1513.9
605.341	1508.25
605.698	1514.8
606.056	1491.98
606.413	1504.86
606.771	1512.54
607.128	1499.21
607.485	1554.35
607.843	1518.42
608.2	1516.39
608.557	1502.83
608.914	1505.99
609.272	1552.77
609.629	1509.38
609.986	1544.63
610.343	1534.47
610.7	1559.55
611.057	1508.25
611.414	1550.06
611.771	1535.37
612.127	1553.45
612.484	1543.5
612.841	1544.41
613.198	1497.63
613.554	1569.04
613.911	1560.91
614.267	1513.9
614.624	1531.75
614.98	1540.79
615.337	1551.41
615.693	1548.48
616.05	1532.21
616.406	1537.63
616.762	1543.28
617.118	1543.73
617.475	1531.98
617.831	1550.51
618.187	1553.67
618.543	1546.67
618.899	1560.91
619.255	1578.53
619.611	1574.92
619.967	1558.42
620.323	1591.19
620.678	1554.35
621.034	1545.54
621.39	1553.67
621.746	1534.24
622.101	1558.87
622.457	1556.84
622.812	1554.58
623.168	1555.26
623.523	1580.11
623.879	1547.57
624.234	1554.58
624.589	1548.7
624.945	1572.66
625.3	1575.82
625.655	1550.28
626.01	1574.69
626.365	1575.82
626.72	1562.94
627.075	1562.94
627.43	1543.73
627.785	1580.34
628.14	1572.88
628.495	1553.22
628.85	1583.96
629.205	1571.07
629.559	1567.23
629.914	1573.56
630.269	1550.28
630.623	1561.58
630.978	1553.9
631.332	1571.3
631.687	1586.22
632.041	1586.67
632.396	1565.42
632.75	1572.2
633.104	1575.59
633.459	1554.58
633.813	1619.21
634.167	1572.43
634.521	1558.42
634.875	1554.35
635.229	1591.86
635.583	1539.21
635.937	1564.3
636.291	1559.32
636.645	1549.83
636.999	1545.31
637.352	1534.47
637.706	1515.48
638.06	1562.04
638.413	1534.69
638.767	1532.43
639.121	1541.47
639.474	1526.56
639.828	1563.62
640.181	1561.58
640.534	1560.23
640.888	1577.18
641.241	1555.71
641.594	1591.41
641.947	1552.54
642.301	1568.14
642.654	1542.37
643.007	1575.59
643.36	1565.42
643.713	1557.52
644.066	1551.19
644.419	1572.2
644.771	1562.94
645.124	1561.58
645.477	1541.7
645.83	1526.33
646.182	1517.97
646.535	1548.7
646.888	1534.69
647.24	1554.35
647.593	1559.78
647.945	1535.14
648.298	1526.1
648.65	1513.22
649.002	1554.8
649.355	1557.52
649.707	1533.34
650.059	1515.26
650.411	1557.74
650.763	1567.91
651.115	1563.84
651.467	1572.2
651.819	1564.3
652.171	1612.2
652.523	1605.88
652.875	1562.49
653.227	1536.95
653.578	1589.15
653.93	1560.91
654.282	1556.39
654.633	1562.26
654.985	1565.88
655.337	1572.2
655.688	1535.82
656.039	1572.66
656.391	1565.65
656.742	1576.27
657.094	1588.48
657.445	1576.72
657.796	1577.63
658.147	1595.25
658.498	1566.78
658.849	1590.74
659.2	1612.2
659.551	1578.76
659.902	1565.2
660.253	1574.92
660.604	1604.97
660.955	1607.46
661.306	1548.48
661.656	1573.11
662.007	1577.85
662.358	1583.5
662.708	1584.18
663.059	1571.07
663.409	1598.87
663.76	1597.29
664.11	1592.99
664.461	1576.27
664.811	1574.24
665.161	1583.5
665.511	1583.73
665.862	1581.02
666.212	1611.3
666.562	1584.18
666.912	1583.05
667.262	1579.89
667.612	1566.33
667.962	1599.77
668.312	1553.9
668.662	1593.45
669.011	1576.27
669.361	1558.65
669.711	1572.2
670.06	1564.97
670.41	1574.01
670.76	1554.8
671.109	1600.45
671.459	1553
671.808	1549.15
672.157	1551.64
672.507	1573.79
672.856	1573.33
673.205	1562.71
673.554	1584.63
673.904	1579.44
674.253	1581.02
674.602	1549.61
674.951	1536.95
675.3	1538.31
675.649	1541.7
675.998	1532.88
676.346	1530.85
676.695	1553.45
677.044	1550.06
677.393	1540.34
677.741	1531.3
678.09	1534.92
678.438	1545.99
678.787	1532.88
679.135	1543.73
679.484	1532.43
679.832	1534.92
680.181	1518.65
680.529	1546.44
680.877	1505.31
681.225	1510.96
681.573	1522.04
681.922	1508.93
682.27	1547.8
682.618	1544.86
682.966	1518.87
683.314	1506.67
683.661	1512.77
684.009	1496.27
684.357	1493.79
684.705	1503.73
685.053	1519.1
685.4	1519.1
685.748	1476.84
686.095	1490.4
686.443	1501.7
686.79	1472.32
687.138	1473.9
687.485	1463.28
687.832	1475.48
688.18	1496.5
688.527	1462.38
688.874	1483.85
689.221	1479.33
689.568	1439.1
689.915	1445.65
690.262	1432.1
690.609	1466.67
690.956	1435.48
691.303	1448.59
691.65	1480.23
691.997	1437.07
692.344	1453.11
692.69	1469.61
693.037	1425.09
693.383	1432.1
693.73	1410.85
694.077	1408.59
694.423	1412.89
694.769	1425.32
695.116	1399.33
695.462	1419.21
695.808	1416.95
696.155	1417.86
696.501	1439.78
696.847	1383.06
697.193	1398.2
697.539	1397.29
697.885	1404.98
698.231	1363.17
698.577	1381.02
698.923	1406.79
699.269	1387.12
699.614	1374.24
699.96	1358.65
700.306	1344.87
700.651	1360.68
700.997	1379.67
701.342	1369.5
701.688	1361.14
702.033	1363.85
702.379	1372.21
702.724	1373.34
703.069	1380.8
703.415	1340.35
703.76	1367.69
704.105	1377.86
704.45	1348.26
704.795	1342.61
705.14	1360.91
705.485	1361.14
705.83	1368.82
706.175	1360.91
706.52	1337.41
706.865	1357.75
707.209	1374.02
707.554	1379.67
707.899	1357.52
708.243	1350.97
708.588	1375.15
708.932	1338.99
709.277	1359.55
709.621	1327.01
709.966	1354.58
710.31	1341.02
710.654	1347.58
710.998	1333.57
711.342	1324.08
711.687	1383.28
712.031	1351.65
712.375	1351.19
712.719	1337.18
713.063	1353.45
713.407	1334.24
713.75	1362.72
714.094	1360.68
714.438	1335.83
714.782	1395.71
715.125	1350.74
715.469	1388.25
715.812	1376.73
716.156	1377.18
716.499	1388.48
716.843	1392.1
717.186	1372.44
717.53	1381.47
717.873	1400.68
718.216	1388.25
718.559	1379.67
718.902	1390.06
719.246	1384.86
719.589	1421.02
719.932	1375.83
720.275	1381.25
720.617	1416.05
720.96	1426.67
721.303	1424.41
721.646	1438.2
721.989	1422.6
722.331	1418.31
722.674	1433.68
723.016	1427.35
723.359	1446.33
723.701	1462.83
724.044	1442.49
724.386	1437.74
724.729	1450.63
725.071	1439.33
725.413	1471.19
725.755	1482.49
726.097	1480.68
726.439	1445.2
726.782	1485.88
727.124	1471.42
727.465	1469.16
727.807	1493.34
728.149	1513.67
728.491	1474.13
728.833	1511.19
729.175	1505.09
729.516	1502.38
729.858	1506.22
730.199	1517.29
730.541	1513.45
730.882	1538.08
731.224	1547.8
731.565	1564.97
731.906	1545.76
732.248	1564.75
732.589	1568.81
732.93	1561.13
733.271	1601.13
733.612	1584.86
733.953	1594.8
734.294	1621.02
734.635	1607.01
734.976	1633.45
735.317	1635.93
735.658	1651.75
735.999	1651.07
736.339	1654.46
736.68	1669.6
737.021	1705.08
737.361	1692.65
737.702	1706.21
738.042	1687
738.383	1705.53
738.723	1750.28
739.063	1760.45
739.404	1750.96
739.744	1748.02
740.084	1808.58
740.424	1779.88
740.764	1854.68
741.104	1797.28
741.444	1815.36
741.784	1871.63
742.124	1877.96
742.464	1880.9
742.804	1921.35
743.143	1932.65
743.483	1932.65
743.823	1985.98
744.162	1966.32
744.502	2009.71
744.841	2015.13
745.181	2072.76
745.52	2088.12
745.86	2145.3
746.199	2130.38
746.538	2156.14
746.877	2167.44
747.216	2247.67
747.556	2274.11
747.895	2305.52
748.234	2300.55
748.573	2349.81
748.911	2374.9
749.25	2400.66
749.589	2431.84
749.928	2496.25
750.267	2542.35
750.605	2583.03
750.944	2622.12
751.283	2685.17
751.621	2745.05
751.96	2770.82
752.298	2787.09
752.636	2844.49
752.975	2912.28
753.313	2944.15
753.651	3032.96
753.989	3085.38
754.327	3159.73
754.666	3163.12
755.004	3260.97
755.342	3334.87
755.679	3410.12
756.017	3475.43
756.355	3504.81
756.693	3585.71
757.031	3644.92
757.368	3671.13
757.706	3773.28
758.044	3874.52
758.381	3934.63
758.719	3985.47
759.056	4042.65
759.394	4148.63
759.731	4172.36
760.068	4271.57
760.405	4338.46
760.743	4418.23
761.08	4489.42
761.417	4539.58
761.754	4664.33
762.091	4735.29
762.428	4823.64
762.765	4841.27
763.102	4991.78
763.438	5032.9
763.775	5098.67
764.112	5196.06
764.449	5217.98
764.785	5339.11
765.122	5428.15
765.458	5477.86
765.795	5564.19
766.131	5649.84
766.467	5687.12
766.804	5768.7
767.14	5822.49
767.476	5919.21
767.812	5984.07
768.148	5989.94
768.485	6036.95
768.821	6136.38
769.157	6194.46
769.492	6292.76
769.828	6347.22
770.164	6332.76
770.5	6430.83
770.836	6524.62
771.171	6508.57
771.507	6581.56
771.842	6612.52
772.178	6705.85
772.513	6738.17
772.849	6756.02
773.184	6806.64
773.519	6867.43
773.855	6944.94
774.19	6904.95
774.525	7008.22
774.86	7026.52
775.195	7119.63
775.53	7111.04
775.865	7114.66
776.2	7196.24
776.535	7100.19
776.87	7214.77
777.205	7220.42
777.539	7269
777.874	7343.35
778.209	7335.67
778.543	7373.41
778.878	7356.91
779.212	7397.59
779.547	7409.34
779.881	7483.01
780.215	7431.03
780.55	7495.89
780.884	7533.4
781.218	7560.97
781.552	7556.23
781.886	7581.09
782.22	7466.29
782.554	7598.03
782.888	7568.43
783.222	7555.55
783.556	7545.83
783.889	7575.89
784.223	7590.58
784.557	7565.72
784.89	7572.95
785.224	7581.09
785.557	7625.6
785.891	7613.85
786.224	7633.29
786.558	7690.24
786.891	7601.42
787.224	7654.98
787.557	7700.63
787.891	7652.04
788.224	7685.04
788.557	7754.19
788.89	7657.47
789.223	7642.1
789.556	7643.91
789.888	7647.52
790.221	7655.89
790.554	7608.2
790.887	7727.52
791.219	7665.6
791.552	7627.19
791.884	7715.09
792.217	7646.17
792.549	7601.2
792.882	7483.91
793.214	7609.11
793.546	7615.89
793.879	7578.6
794.211	7599.62
794.543	7585.83
794.875	7590.35
795.207	7634.64
795.539	7606.4
795.871	7602.33
796.203	7588.09
796.535	7554.65
796.867	7569.11
797.198	7506.29
797.53	7573.85
797.862	7489.56
798.193	7535.21
798.525	7481.65
798.856	7528.43
799.188	7449.56
799.519	7447.08
799.85	7380.41
800.182	7422.9
800.513	7476
800.844	7381.32
801.175	7402.11
801.506	7500.41
801.837	7414.31
802.168	7369.34
802.499	7370.47
802.83	7323.47
803.161	7358.27
803.491	7250.47
803.822	7390.36
804.153	7264.26
804.483	7250.47
804.814	7283.69
805.145	7318.27
805.475	7292.05
805.805	7211.6
806.136	7272.62
806.466	7207.31
806.796	7209.57
807.126	7200.53
807.457	7138.39
807.787	7177.71
808.117	7164.15
808.447	7156.01
808.777	7208.44
809.107	7110.36
809.436	7095.22
809.766	7148.1
810.096	7094.55
810.426	7138.61
810.755	7104.26
811.085	7109.91
811.414	7073.3
811.744	7012.29
812.073	7010.48
812.403	7060.42
812.732	6968.9
813.061	7040.99
813.39	7015
813.719	7007.09
814.049	7060.42
814.378	6983.59
814.707	6946.98
815.036	6966.41
815.365	6920.31
815.693	6902.46
816.022	6948.11
816.351	6892.52
816.68	6896.36
817.008	6892.29
817.337	6815.23
817.665	6830.15
817.994	6875.34
818.322	6927.77
818.651	6777.94
818.979	6864.27
819.307	6859.52
819.636	6798.73
819.964	6795.34
820.292	6799.64
820.62	6815.91
820.948	6810.48
821.276	6836.92
821.604	6793.76
821.932	6837.38
822.259	6818.39
822.587	6830.6
822.915	6754.44
823.243	6813.2
823.57	6829.92
823.898	6824.5
824.225	6771.62
824.553	6786.3
824.88	6796.93
825.207	6784.27
825.535	6831.05
825.862	6868.34
826.189	6829.02
826.516	6801.22
826.843	6842.35
827.17	6840.31
827.497	6854.78
827.824	6838.28
828.151	6828.11
828.478	6846.19
828.805	6880.77
829.131	6831.28
829.458	6838.73
829.785	6780.2
830.111	6837.6
830.438	6892.74
830.764	6862.01
831.09	6836.47
831.417	6850.94
831.743	6857.04
832.069	6889.8
832.395	6852.74
832.722	6837.38
833.048	6843.7
833.374	6871.73
833.7	6759.19
834.026	6824.5
834.351	6863.14
834.677	6791.95
835.003	6796.7
835.329	6817.04
835.654	6812.97
835.98	6739.75
836.306	6782.69
836.631	6793.76
836.956	6775.23
837.282	6788.56
837.607	6735.01
837.932	6729.36
838.258	6796.02
838.583	6747.21
838.908	6722.13
839.233	6747.44
839.558	6685.97
839.883	6704.72
840.208	6658.85
840.533	6670.15
840.858	6680.54
841.182	6655.46
841.507	6685.97
841.832	6592.64
842.156	6613.88
842.481	6557.61
842.805	6636.93
843.13	6610.04
843.454	6561.23
843.778	6521.23
844.103	6593.09
844.427	6464.96
844.751	6506.99
845.075	6525.29
845.399	6455.69
845.723	6441.91
846.047	6422.47
846.371	6412.3
846.695	6355.81
847.019	6384.28
847.343	6326.2
847.666	6310.38
847.99	6295.7
848.313	6258.63
848.637	6266.54
848.96	6219.31
849.284	6243.04
849.607	6140.45
849.931	6116.94
850.254	6087.34
850.577	6079.43
850.9	6067.23
851.223	6015.03
851.546	6008.92
851.869	6014.57
852.192	5997.62
852.515	5962.6
852.838	5921.24
853.161	5945.42
853.483	5909.04
853.806	5853.22
854.129	5836.5
854.451	5855.93
854.774	5782.26
855.096	5795.6
855.419	5823.84
855.741	5764.86
856.063	5737.74
856.385	5725.77
856.708	5724.64
857.03	5677.86
857.352	5714.02
857.674	5667.24
857.996	5674.02
858.318	5611.19
858.64	5654.13
858.961	5678.31
859.283	5570.29
859.605	5596.51
859.926	5564.42
860.248	5544.53
860.57	5512.44
860.891	5519.22
861.212	5486.45
861.534	5457.75
861.855	5458.88
862.176	5492.1
862.498	5415.04
862.819	5484.42
863.14	5421.37
863.461	5405.1
863.782	5391.99
864.103	5426.11
864.424	5391.99
864.745	5394.7
865.065	5349.73
865.386	5348.83
865.707	5366.23
866.027	5320.35
866.348	5338.89
866.668	5267.02
866.989	5319.68
867.309	5325.55
867.63	5275.38
867.95	5322.39
868.27	5290.07
868.59	5274.48
868.91	5309.96
869.23	5260.7
869.55	5232.67
869.87	5228.61
870.19	5186.12
870.51	5213.46
870.83	5224.09
871.15	5201.49
871.469	5208.94
871.789	5222.5
872.109	5170.98
872.428	5126.01
872.748	5175.95
873.067	5145.67
873.386	5181.38
873.706	5185.67
874.025	5097.54
874.344	5097.99
874.663	5112
874.982	5109.51
875.301	5110.64
875.62	5069.29
875.939	5060.02
876.258	5072.9
876.577	5093.47
876.896	5053.02
877.214	5055.28
877.533	5038.78
877.852	4973.02
878.17	5048.05
878.489	5072.9
878.807	4973.24
879.125	4994.94
879.444	5005.79
879.762	4960.82
880.08	4944.09
880.398	4915.39
880.716	4954.71
881.034	4903.64
881.352	4937.09
881.67	4931.44
881.988	4953.81
882.306	4904.32
882.624	4896.41
882.941	4814.15
883.259	4865.68
883.577	4819.58
883.894	4809.63
884.212	4805.79
884.529	4777.32
884.846	4746.58
885.164	4827.94
885.481	4742.29
885.798	4789.75
886.115	4786.58
886.432	4758.11
886.75	4695.74
887.067	4696.64
887.383	4682.41
887.7	4716.53
888.017	4673.59
888.334	4675.63
888.651	4636.98
888.967	4641.73
889.284	4625.23
889.6	4640.6
889.917	4601.96
890.233	4568.74
890.55	4567.15
890.866	4618.68
891.182	4538.45
891.498	4506.82
891.815	4504.56
892.131	4519.25
892.447	4453.03
892.763	4475.63
893.079	4458
893.395	4449.19
893.71	4429.3
894.026	4394.96
894.342	4409.64
894.657	4399.02
894.973	4369.64
895.289	4356.99
895.604	4342.53
895.92	4331.45
896.235	4288.97
896.55	4309.08
896.865	4302.3
897.181	4270.21
897.496	4253.72
897.811	4244
898.126	4252.59
898.441	4228.86
898.756	4200.84
899.071	4180.05
899.386	4162.19
899.7	4137.79
900.015	4115.87
900.33	4074.29
900.644	4120.84
900.959	4093.27
901.273	4086.49
901.588	4031.57
901.902	4062.31
902.216	3971.69
902.531	4006.26
902.845	3987.51
903.159	3947.74
903.473	3966.49
903.787	3938.7
904.101	3962.2
904.415	3904.8
904.729	3906.38
905.042	3848.08
905.356	3822.31
905.67	3826.16
905.984	3840.62
906.297	3813.05
906.611	3830.22
906.924	3776.67
907.237	3787.74
907.551	3768.3
907.864	3737.8
908.177	3728.76
908.491	3707.74
908.804	3681.08
909.117	3645.14
909.43	3670.45
909.743	3660.29
910.056	3651.02
910.368	3633.39
910.681	3629.33
910.994	3593.62
911.307	3564.02
911.619	3528.31
911.932	3538.71
912.244	3517.92
912.557	3520.18
912.869	3505.26
913.181	3486.28
913.494	3500.06
913.806	3487.18
914.118	3469.78
914.43	3442.21
914.742	3454.41
915.054	3400.4
915.366	3416
915.678	3377.81
915.99	3375.32
916.302	3346.62
916.613	3316.57
916.925	3308.43
917.236	3329.22
917.548	3313.63
917.859	3290.35
918.171	3264.36
918.482	3268.43
918.794	3238.15
919.105	3223.91
919.416	3201.77
919.727	3225.72
920.038	3195.44
920.349	3196.12
920.66	3198.6
920.971	3159.51
921.282	3199.05
921.593	3118.38
921.903	3124.71
922.214	3112.28
922.525	3105.72
922.835	3039.74
923.146	3052.84
923.456	3061.88
923.767	3059.4
924.077	3054.65
924.387	3060.98
924.697	3037.7
925.008	3023.01
925.318	3020.08
925.628	2964.26
925.938	2973.3
926.248	2957.03
926.558	2951.6
926.867	2966.29
927.177	2940.76
927.487	2933.75
927.796	2855.79
928.106	2867.09
928.416	2907.31
928.725	2907.99
929.034	2893.98
929.344	2843.36
929.653	2852.4
929.962	2802.45
930.271	2804.04
930.581	2783.47
930.89	2775.11
931.199	2794.09
931.508	2804.94
931.817	2757.03
932.125	2765.39
932.434	2752.74
932.743	2766.98
933.051	2739.63
933.36	2732.63
933.669	2711.61
933.977	2711.84
934.286	2699.41
934.594	2689.01
934.902	2686.07
935.21	2651.95
935.519	2663.25
935.827	2606.3
936.135	2614.89
936.443	2589.35
936.751	2564.27
937.059	2575.79
937.367	2572.4
937.674	2574.66
937.982	2541.44
938.29	2576.47
938.597	2570.37
938.905	2515.46
939.213	2499.64
939.52	2508.45
939.827	2525.17
940.135	2462.58
940.442	2479.3
940.749	2440.43
941.056	2501.9
941.363	2426.19
941.67	2454.22
941.977	2418.96
942.284	2432.97
942.591	2421.45
942.898	2387.78
943.205	2388.45
943.511	2384.16
943.818	2379.87
944.125	2337.83
944.431	2341.68
944.738	2352.07
945.044	2330.83
945.35	2285.41
945.657	2312.07
945.963	2320.43
946.269	2324.5
946.575	2286.76
946.881	2291.06
947.187	2287.67
947.493	2269.14
947.799	2258.06
948.105	2235.24
948.41	2200.44
948.716	2227.1
949.022	2221
949.327	2179.65
949.633	2188.91
949.938	2156.14
950.244	2190.49
950.549	2170.15
950.854	2179.42
951.16	2164.96
951.465	2139.87
951.77	2162.02
952.075	2122.7
952.38	2137.61
952.685	2142.36
952.99	2092.87
953.294	2073.21
953.599	2098.07
953.904	2087.45
954.209	2063.72
954.513	2056.03
954.818	2048.35
955.122	2055.13
955.426	2045.86
955.731	2044.96
956.035	2057.39
956.339	2051.29
956.643	2012.42
956.948	2030.72
957.252	1993.44
957.556	1954.57
957.86	1998.86
958.163	1988.69
958.467	1951.86
958.771	1975.81
959.075	1919.54
959.378	1923.83
959.682	1938.07
959.985	1921.12
960.289	1938.97
960.592	1894.23
960.896	1921.8
961.199	1887.9
961.502	1895.36
961.805	1872.99
962.108	1893.55
962.411	1860.11
962.714	1859.88
963.017	1849.94
963.32	1863.5
963.623	1838.64
963.926	1841.35
964.228	1828.69
964.531	1808.13
964.833	1821.24
965.136	1792.99
965.438	1814.23
965.741	1799.77
966.043	1773.56
966.345	1762.48
966.648	1779.2
966.95	1754.8
967.252	1780.33
967.554	1768.36
967.856	1739.21
968.158	1731.75
968.46	1697.17
968.761	1705.08
969.063	1671.41
969.365	1679.55
969.666	1709.15
969.968	1672.09
970.269	1655.14
970.571	1685.87
970.872	1673.22
971.174	1649.04
971.475	1668.02
971.776	1644.29
972.077	1664.41
972.378	1652.65
972.679	1636.61
972.98	1631.86
973.281	1610.62
973.582	1612.88
973.883	1607.01
974.183	1641.58
974.484	1614.69
974.785	1605.65
975.085	1595.25
975.386	1597.51
975.686	1569.49
975.986	1538.98
976.287	1536.73
976.587	1553.67
976.887	1567.01
977.187	1532.43
977.487	1526.1
977.787	1501.25
978.087	1506.22
978.387	1504.18
978.687	1503.73
978.987	1508.25
979.286	1519.1
979.586	1521.36
979.885	1520
980.185	1489.49
980.484	1444.07
980.784	1461.02
981.083	1455.37
981.382	1442.72
981.682	1452.89
981.981	1444.52
982.28	1455.82
982.579	1443.85
982.878	1406.79
983.177	1418.76
983.475	1434.58
983.774	1422.15
984.073	1413.34
984.372	1404.07
984.67	1386.22
984.969	1365.2
985.267	1386.9
985.566	1354.36
985.864	1367.69
986.162	1363.62
986.461	1361.36
986.759	1361.14
987.057	1324.75
987.355	1330.85
987.653	1339.44
987.951	1329.72
988.249	1332.44
988.547	1302.61
988.844	1277.3
989.142	1280.01
989.44	1298.31
989.737	1267.81
990.035	1293.34
990.332	1268.71
990.63	1270.52
990.927	1289.73
991.224	1254.92
991.521	1260.8
991.819	1265.55
992.116	1210.63
992.413	1249.95
992.71	1216.06
993.006	1223.74
993.303	1219.67
993.6	1215.38
993.897	1233.68
994.193	1234.81
994.49	1201.82
994.787	1208.82
995.083	1215.6
995.379	1200.91
995.676	1206.79
995.972	1193.46
996.268	1218.54
996.565	1175.83
996.861	1148.71
997.157	1158.88
997.453	1176.06
997.749	1164.98
998.044	1141.93
998.34	1154.59
998.636	1134.02
998.932	1157.53
999.227	1136.06
999.523	1103.74
999.818	1134.02
1000.114	1100.35
1000.409	1118.66
1000.704	1069.62
1001	1108.26
1001.295	1080.69
1001.59	1084.99
1001.885	1102.84
1002.18	1099.9
1002.475	1073.91
1002.77	1078.43
1003.065	1034.82
1003.359	1093.35
1003.654	1046.34
1003.949	1045.66
1004.243	1049.51
1004.538	1035.27
1004.832	1032.11
1005.127	1003.63
1005.421	1016.74
1005.715	1041.37
1006.009	1008.83
1006.304	1010.19
1006.598	981.26
1006.892	995.27
1007.186	995.95
1007.48	995.5
1007.773	981.71
1008.067	966.8
1008.361	973.12
1008.655	983.29
1008.948	959.79
1009.242	943.29
1009.535	951.88
1009.829	936.97
1010.122	952.33
1010.415	931.09
1010.708	940.13
1011.001	940.81
1011.295	913.46
1011.588	906.01
1011.881	923.86
1012.173	912.79
1012.466	915.5
1012.759	906.01
1013.052	909.4
1013.344	907.59
1013.637	889.74
1013.93	891.09
1014.222	872.34
1014.514	860.81
1014.807	863.07
1015.099	849.06
1015.391	871.66
1015.683	850.19
1015.976	862.17
1016.268	852.22
1016.56	849.74
1016.851	845.22
1017.143	853.35
1017.435	841.83
1017.727	855.16
1018.018	825.11
1018.31	829.17
1018.602	824.2
1018.893	804.99
1019.185	806.12
1019.476	822.39
1019.767	810.19
1020.058	797.76
1020.35	806.12
1020.641	795.95
1020.932	795.95
1021.223	799.12
1021.514	795.73
1021.804	776.97
1022.095	778.1
1022.386	771.1
1022.677	762.06
1022.967	764.77
1023.258	744.66
1023.548	750.53
1023.839	770.87
1024.129	734.03
1024.419	742.4
1024.709	755.28
1025	734.26
1025.29	711.66
1025.58	737.2
1025.87	734.49
1026.16	719.8
1026.449	734.26
1026.739	725.45
1027.029	683.19
1027.319	705.56
1027.608	687.26
1027.898	694.49
1028.187	697.88
1028.477	689.52
1028.766	679.12
1029.055	690.19
1029.344	685.9
1029.634	652.91
1029.923	684.54
1030.212	673.7
1030.501	677.31
1030.79	659.91
1031.078	664.66
1031.367	646.13
1031.656	659.46
1031.945	644.09
1032.233	654.26
1032.522	658.1
1032.81	633.02
1033.099	651.32
1033.387	628.73
1033.675	624.88
1033.963	629.4
1034.251	641.83
1034.54	636.41
1034.828	628.27
1035.116	632.79
1035.403	614.26
1035.691	602.51
1035.979	607.48
1036.267	620.37
1036.554	592.57
1036.842	607.94
1037.129	608.61
1037.417	595.73
1037.704	604.32
1037.992	593.47
1038.279	604.09
1038.566	569.97
1038.853	569.97
1039.14	569.97
