Data from blue_clamp_base_FLMS001491_00010.txt Node
Date: Wed Feb 08 15:15:29 GMT 2017
User: dcchb
Spectrometer: FLMS00149
Trigger mode: 0
Integration Time (sec): 2.000000E-2
Scans to average: 10
Electric dark correction enabled: true
Nonlinearity correction enabled: false
Boxcar width: 0
XAxis mode: Wavelengths
Number of Pixels in Spectrum: 2048
>>>>>Begin Spectral Data<<<<<
341.393	-9.89
341.776	-9.89
342.16	-9.89
342.543	-71.58
342.927	-72.71
343.31	-55.76
343.693	-54.86
344.077	-80.62
344.46	-42.43
344.843	-58.47
345.226	-43.33
345.61	-26.84
345.993	-21.86
346.376	-5.37
346.759	6.16
347.142	31.69
347.525	34.86
347.908	48.64
348.291	76.89
348.674	77.57
349.057	113.73
349.44	131.58
349.823	152.14
350.206	169.77
350.588	192.37
350.971	195.08
351.354	212.71
351.737	224.91
352.119	235.98
352.502	262.87
352.884	261.52
353.267	259.48
353.65	254.29
354.032	274.63
354.414	313.72
354.797	316.88
355.179	309.65
355.562	310.33
355.944	310.56
356.326	312.36
356.709	302.87
357.091	314.4
357.473	305.59
357.855	327.73
358.238	317.79
358.62	319.14
359.002	306.26
359.384	331.35
359.766	332.25
360.148	327.28
360.53	347.39
360.912	334.96
361.294	321.4
361.676	321.86
362.057	311.01
362.439	337.67
362.821	347.62
363.203	321.63
363.584	317.56
363.966	293.16
364.348	311.01
364.729	306.94
365.111	308.07
365.493	313.04
365.874	299.71
366.256	292.48
366.637	310.78
367.019	301.07
367.4	307.62
367.781	307.85
368.163	304.23
368.544	308.52
368.925	296.77
369.306	299.26
369.688	297
370.069	301.29
370.45	299.71
370.831	299.26
371.212	308.3
371.593	306.26
371.974	281.86
372.355	324.34
372.736	296.77
373.117	286.38
373.498	295.19
373.879	321.18
374.26	301.52
374.641	300.84
375.021	305.59
375.402	311.91
375.783	293.16
376.163	305.81
376.544	311.91
376.925	316.88
377.305	296.77
377.686	304.23
378.066	316.21
378.447	304.68
378.827	322.31
379.208	333.16
379.588	312.59
379.968	326.15
380.349	310.78
380.729	320.73
381.109	318.24
381.489	349.43
381.87	330.22
382.25	345.36
382.63	326.15
383.01	315.75
383.39	336.54
383.77	339.48
384.15	334.51
384.53	345.13
384.91	358.47
385.29	355.08
385.67	320.05
386.049	339.93
386.429	350.1
386.809	357.79
387.189	346.71
387.568	349.2
387.948	350.56
388.328	363.66
388.707	357.34
389.087	344.91
389.466	358.69
389.846	384
390.225	382.42
390.605	360.72
390.984	373.15
391.363	362.98
391.743	378.58
392.122	391.23
392.501	402.98
392.881	381.52
393.26	400.05
393.639	370.89
394.018	409.31
394.397	418.12
394.776	398.69
395.155	398.92
395.534	438.01
395.913	396.43
396.292	405.47
396.671	417.9
397.05	416.77
397.429	443.21
397.808	425.81
398.186	442.98
398.565	440.72
398.944	444.11
399.323	457.9
399.701	439.37
400.08	451.34
400.458	458.35
400.837	470.78
401.215	487.95
401.594	454.06
401.972	471.46
402.351	482.98
402.729	482.76
403.107	462.64
403.486	502.64
403.864	494.96
404.242	476.43
404.62	485.69
404.999	492.92
405.377	501.74
405.755	507.39
406.133	499.25
406.511	510.78
406.889	540.38
407.267	514.62
407.645	523.88
408.023	563.66
408.401	564.56
408.779	561.4
409.156	565.69
409.534	594.39
409.912	565.69
410.29	581.06
410.667	593.04
411.045	579.7
411.422	590.55
411.8	613.15
412.178	619.25
412.555	636.2
412.933	623.09
413.31	652.02
413.687	628.29
414.065	660.83
414.442	639.59
414.819	650.89
415.197	684.33
415.574	666.71
415.951	661.73
416.328	671
416.705	684.56
417.082	705.57
417.46	702.64
417.837	707.38
418.214	712.58
418.591	730.88
418.967	744.9
419.344	740.83
419.721	754.39
420.098	755.52
420.475	743.77
420.852	766.59
421.228	769.75
421.605	778.12
421.982	777.66
422.358	805.23
422.735	796.19
423.111	817.66
423.488	821.28
423.864	810.88
424.241	854.72
424.617	836.42
424.994	833.25
425.37	867.83
425.746	851.11
426.123	885.23
426.499	866.7
426.875	884.78
427.251	895.85
427.627	925
428.003	920.26
428.379	959.35
428.756	948.96
429.132	984.89
429.507	977.88
429.883	973.59
430.259	980.6
430.635	995.06
431.011	1005.68
431.387	1017.66
431.763	1051.1
432.138	1074.6
432.514	1044.55
432.89	1078.22
433.265	1090.42
433.641	1092.46
434.016	1111.67
434.392	1129.97
434.767	1164.55
435.143	1146.47
435.518	1176.3
435.894	1180.14
436.269	1215.17
436.644	1210.19
437.02	1247.48
437.395	1244.77
437.77	1253.36
438.145	1280.25
438.52	1277.54
438.895	1290.42
439.271	1338.78
439.646	1345.56
440.021	1369.51
440.395	1342.62
440.77	1346.69
441.145	1383.97
441.52	1402.96
441.895	1396.18
442.27	1396.63
442.645	1418.55
443.019	1402.28
443.394	1428.72
443.769	1455.16
444.143	1452.9
444.518	1512.33
444.892	1457.65
445.267	1479.34
445.641	1526.12
446.016	1499.45
446.39	1502.62
446.764	1560.02
447.139	1516.4
447.513	1585.33
447.887	1553.69
448.262	1573.35
448.636	1597.08
449.01	1593.01
449.384	1618.09
449.758	1638.21
450.132	1676.62
450.506	1639.34
450.88	1658.09
451.254	1657.64
451.628	1721.59
452.002	1731.08
452.376	1718.43
452.75	1725.66
453.123	1741.71
453.497	1766.56
453.871	1793.23
454.244	1798.65
454.618	1827.58
454.992	1868.93
455.365	1862.38
455.739	1904.64
456.112	1933.56
456.486	1930.4
456.859	1963.85
457.232	1993.68
457.606	1990.96
457.979	2039.78
458.352	2079.1
458.725	2061.92
459.099	2098.08
459.472	2100.34
459.845	2171.3
460.218	2171.52
460.591	2185.99
460.964	2195.25
461.337	2204.97
461.71	2257.4
462.083	2292.65
462.456	2295.59
462.829	2304.18
463.201	2336.49
463.574	2345.76
463.947	2368.13
464.32	2404.51
464.692	2437.73
465.065	2417.17
465.438	2481.8
465.81	2484.06
466.183	2497.62
466.555	2568.58
466.928	2618.74
467.3	2571.29
467.672	2644.05
468.045	2669.82
468.417	2659.65
468.789	2708.01
469.161	2735.35
469.534	2759.76
469.906	2812.19
470.278	2837.72
470.65	2839.98
471.022	2893.77
471.394	2969.02
471.766	2974.89
472.138	2982.35
472.51	3058.73
472.882	3086.75
473.253	3151.84
473.625	3151.16
473.997	3205.17
474.369	3225.28
474.74	3241.55
475.112	3309.8
475.484	3357.71
475.855	3387.54
476.227	3419.63
476.598	3506.63
476.97	3493.07
477.341	3541.21
477.713	3639.96
478.084	3603.8
478.455	3727.64
478.827	3766.06
479.198	3825.27
479.569	3855.1
479.94	3916.11
480.311	3967.86
480.682	3998.37
481.053	4087.86
481.424	4100.29
481.795	4125.37
482.166	4179.83
482.537	4211.7
482.908	4360.62
483.279	4371.69
483.65	4397.68
484.021	4483.1
484.391	4519.71
484.762	4508.64
485.133	4562.42
485.503	4611.46
485.874	4716.32
486.244	4709.54
486.615	4734.62
486.985	4810.33
487.356	4859.59
487.726	4916.99
488.097	4952.69
488.467	4972.81
488.837	5040.83
489.207	5093.71
489.578	5122.63
489.948	5167.38
490.318	5165.34
490.688	5229.07
491.058	5259.81
491.428	5362.4
491.798	5324.89
492.168	5439.46
492.538	5436.07
492.908	5457.77
493.278	5493.02
493.648	5541.15
494.017	5546.35
494.387	5564.88
494.757	5614.15
495.126	5645.56
495.496	5684.43
495.866	5681.94
496.235	5685.33
496.605	5748.83
496.974	5739.57
497.344	5782.05
497.713	5788.6
498.082	5791.99
498.452	5869.05
498.821	5857.3
499.19	5833.35
499.559	5900.92
499.928	5921.71
500.298	5957.64
500.667	5961.03
501.036	5997.64
501.405	6002.84
501.774	5987.02
502.143	5978.66
502.512	6036.06
502.88	6089.61
503.249	6003.74
503.618	6048.03
503.987	6096.62
504.356	6103.85
504.724	6136.17
505.093	6086.45
505.462	6186.56
505.83	6177.07
506.199	6185.2
506.567	6224.3
506.936	6219.55
507.304	6278.54
507.672	6274.92
508.041	6325.99
508.409	6304.52
508.777	6380.91
509.145	6419.32
509.514	6423.84
509.882	6403.28
510.25	6389.94
510.618	6456.61
510.986	6428.81
511.354	6488.25
511.722	6455.25
512.09	6558.75
512.458	6462.49
512.826	6534.57
513.193	6550.17
513.561	6521.47
513.929	6556.49
514.297	6670.84
514.664	6640.11
515.032	6690.95
515.4	6704.29
515.767	6689.6
516.135	6712.42
516.502	6677.17
516.869	6742.25
517.237	6744.96
517.604	6701.35
517.972	6807.79
518.339	6845.53
518.706	6769.82
519.073	6811.85
519.44	6800.56
519.808	6865.41
520.175	6878.29
520.542	6976.14
520.909	6982.7
521.276	6909.25
521.643	6992.19
522.009	7040.1
522.376	7057.5
522.743	7096.14
523.11	7093.43
523.477	7122.58
523.843	7164.39
524.21	7262.01
524.577	7236.02
524.943	7285.97
525.31	7273.09
525.676	7380.43
526.043	7389.69
526.409	7352.86
526.776	7441.89
527.142	7418.62
527.508	7459.97
527.874	7473.98
528.241	7508.11
528.607	7511.05
528.973	7591.95
529.339	7556.24
529.705	7674.2
530.071	7632.4
530.437	7629.23
530.803	7710.59
531.169	7708.33
531.535	7684.83
531.901	7717.37
532.267	7780.19
532.632	7829.46
532.998	7817.25
533.364	7872.62
533.73	7815.67
534.095	7926.4
534.461	7887.98
534.826	7969.56
535.192	7997.59
535.557	7990.35
535.923	8000.3
536.288	8035.55
536.653	8070.35
537.019	8049.56
537.384	8060.64
537.749	8108.77
538.114	8130.69
538.479	8123.91
538.845	8160.97
539.21	8113.29
539.575	8161.65
539.94	8216.34
540.305	8227.18
540.67	8160.29
541.034	8285.04
541.399	8250.91
541.764	8288.88
542.129	8274.42
542.494	8283.68
542.858	8349.44
543.223	8301.08
543.587	8408.65
543.952	8356.45
544.316	8346.5
544.681	8400.74
545.045	8476.67
545.41	8492.26
545.774	8486.16
546.138	8481.87
546.503	8460.85
546.867	8502.21
547.231	8563.22
547.595	8571.81
547.959	8600.73
548.324	8596.44
548.688	8581.07
549.052	8579.27
549.416	8634.63
549.779	8607.06
550.143	8622.43
550.507	8670.34
550.871	8662.43
551.235	8686.83
551.599	8790.56
551.962	8778.36
552.326	8762.54
552.689	8852.03
553.053	8782.2
553.417	8799.15
553.78	8906.49
554.143	8828.52
554.507	8856.09
554.87	8892.25
555.234	8899.26
555.597	8809.09
555.96	8890.67
556.323	8936.09
556.686	8894.06
557.05	8937.9
557.413	8949.2
557.776	8928.86
558.139	8987.62
558.502	8975.19
558.865	9040.04
559.228	9039.59
559.59	9089.54
559.953	9111.46
560.316	9126.82
560.679	9164.56
561.041	9212.7
561.404	9204.79
561.767	9280.49
562.129	9233.03
562.492	9339.47
562.854	9287.27
563.217	9341.51
563.579	9369.3
563.941	9384.44
564.304	9431.45
564.666	9444.33
565.028	9449.07
565.39	9493.14
565.753	9561.84
566.115	9555.06
566.477	9491.11
566.839	9645
567.201	9619.24
567.563	9602.52
567.925	9690.65
568.287	9726.35
568.648	9714.6
569.01	9715.96
569.372	9788.5
569.734	9803.87
570.095	9857.88
570.457	9880.93
570.819	9891.32
571.18	9922.96
571.542	9923.86
571.903	9983.52
572.265	9968.16
572.626	9998.89
572.987	10067.59
573.349	10073.24
573.71	10161.6
574.071	10102.62
574.432	10151.43
574.794	10208.6
575.155	10228.94
575.516	10167.7
575.877	10244.31
576.238	10151.65
576.599	10287.24
576.96	10258.77
577.32	10320.01
577.681	10362.04
578.042	10413.79
578.403	10399.11
578.763	10443.85
579.124	10455.37
579.485	10407.47
579.845	10443.62
580.206	10488.37
580.566	10444.08
580.927	10531.76
581.287	10547.35
581.648	10487.01
582.008	10597.07
582.368	10562.49
582.728	10592.32
583.089	10597.07
583.449	10566.11
583.809	10579.21
584.169	10653.34
584.529	10557.74
584.889	10622.15
585.249	10597.07
585.609	10614.69
585.969	10613.56
586.329	10637.52
586.688	10701.7
587.048	10661.92
587.408	10608.82
587.768	10621.92
588.127	10609.95
588.487	10631.64
588.846	10760.45
589.206	10646.33
589.565	10728.36
589.925	10693.79
590.284	10713.22
590.643	10682.26
591.003	10752.32
591.362	10716.16
591.721	10763.62
592.08	10786.44
592.44	10875.02
592.799	10810.62
593.158	10808.59
593.517	10822.82
593.876	10810.17
594.235	10759.77
594.593	10856.95
594.952	10844.97
595.311	10707.35
595.67	10797.29
596.029	10812.88
596.387	10914.8
596.746	10870.51
597.104	10803.61
597.463	10808.81
597.822	10889.04
598.18	10905.08
598.538	10830.05
598.897	10900.79
599.255	10855.14
599.613	11021.69
599.972	10858.3
600.33	10906.21
600.688	10880.67
601.046	10941.24
601.404	11000.67
601.762	10977.85
602.12	11091.74
602.478	10996.6
602.836	11036.6
603.194	10917.28
603.552	10968.81
603.91	10950.28
604.268	10976.04
604.625	10978.3
604.983	10974.46
605.341	10987.11
605.698	10946.21
606.056	11084.74
606.413	11126.09
606.771	11039.31
607.128	10993.44
607.485	11047
607.843	10958.86
608.2	11092.19
608.557	11084.51
608.914	11050.84
609.272	11099.43
609.629	11117.05
609.986	11132.87
610.343	11095.81
610.7	11240.44
611.057	11206.54
611.414	11127.22
611.771	11171.29
612.127	11226.43
612.484	11214.22
612.841	11312.08
613.198	11244.28
613.554	11252.19
613.911	11296.03
614.267	11228.46
614.624	11321.34
614.98	11334.9
615.337	11376.93
615.693	11310.49
616.05	11290.83
616.406	11435.24
616.762	11300.32
617.118	11405.86
617.475	11360.21
617.831	11398.4
618.187	11461.45
618.543	11453.31
618.899	11503.93
619.255	11448.57
619.611	11413.09
619.967	11500.32
620.323	11531.73
620.678	11463.48
621.034	11449.02
621.39	11507.55
621.746	11442.69
622.101	11603.82
622.457	11621.9
622.812	11556.36
623.168	11600.88
623.523	11587.1
623.879	11557.94
624.234	11538.28
624.589	11614.89
624.945	11680.88
625.3	11649.92
625.655	11685.17
626.01	11629.13
626.365	11597.04
626.72	11649.69
627.075	11720.65
627.43	11709.58
627.785	11655.34
628.14	11607.43
628.495	11677.26
628.85	11690.82
629.205	11722.01
629.559	11757.94
629.914	11725.17
630.269	11778.73
630.623	11685.4
630.978	11777.6
631.332	11851.5
631.687	11879.29
632.041	11794.32
632.396	11833.64
632.75	11836.13
633.104	11879.07
633.459	11795.68
633.813	11839.97
634.167	11694.21
634.521	11787.09
634.875	11888.33
635.229	11874.55
635.583	11757.26
635.937	11844.94
636.291	11812.85
636.645	11918.61
636.999	11994.09
637.352	11885.17
637.706	11799.97
638.06	11902.79
638.413	11866.19
638.767	11804.94
639.121	11914.32
639.474	11843.36
639.828	11907.54
640.181	11917.71
640.534	11929.46
640.888	11898.73
641.241	11890.82
641.594	11959.29
641.947	11972.62
642.301	11883.59
642.654	12004.71
643.007	11975.33
643.36	12071.15
643.713	12041.32
644.066	12090.81
644.419	12035.45
644.771	12044.03
645.124	11895.34
645.477	11977.82
645.83	11799.07
646.182	11787.77
646.535	11802.68
646.888	11772.63
647.24	11746.41
647.593	11752.52
647.945	11768.11
648.298	11834.1
648.65	11740.99
649.002	11777.6
649.355	11843.81
649.707	11873.42
650.059	11965.84
650.411	12041.1
650.763	12135.78
651.115	12257.81
651.467	12226.63
651.819	12238.15
652.171	12285.84
652.523	12212.16
652.875	12275.21
653.227	12223.24
653.578	12361.77
653.93	12371.71
654.282	12291.48
654.633	12218.27
654.985	12412.61
655.337	12411.93
655.688	12372.61
656.039	12439.96
656.391	12365.61
656.742	12401.09
657.094	12331.26
657.445	12450.8
657.796	12444.7
658.147	12342.56
658.498	12407.19
658.849	12431.37
659.2	12420.29
659.551	12400.86
659.902	12501.87
660.253	12474.3
660.604	12529.44
660.955	12460.97
661.306	12491.03
661.656	12530.57
662.007	12462.1
662.358	12539.61
662.708	12541.42
663.059	12532.83
663.409	12465.94
663.76	12532.83
664.11	12474.08
664.461	12579.61
664.811	12605.15
665.161	12514.76
665.511	12543.68
665.862	12591.36
666.212	12541.42
666.562	12587.52
666.912	12471.59
667.262	12558.37
667.612	12505.04
667.962	12499.84
668.312	12538.26
668.662	12584.36
669.011	12490.12
669.361	12451.93
669.711	12460.07
670.06	12467.3
670.41	12423.23
670.76	12295.1
671.109	12446.73
671.459	12413.29
671.808	12304.82
672.157	12423.01
672.507	12272.28
672.856	12270.47
673.205	12217.36
673.554	12327.19
673.904	12293.07
674.253	12293.52
674.602	12145.27
674.951	12077.25
675.3	12031.6
675.649	12191.6
675.998	12155.9
676.346	12103.92
676.695	12146.86
677.044	12053.07
677.393	12080.64
677.741	12054.2
678.09	12021.21
678.438	11952.74
678.787	12082.68
679.135	11975.33
679.484	11831.38
679.832	11943.47
680.181	11796.36
680.529	11907.99
680.877	11784.15
681.225	11838.16
681.573	11857.82
681.922	11807.43
682.27	11720.65
682.618	11726.08
682.966	11700.77
683.314	11701.22
683.661	11685.62
684.009	11592.52
684.357	11550.04
684.705	11553.43
685.053	11459.42
685.4	11593.88
685.748	11499.64
686.095	11471.39
686.443	11482.69
686.79	11458.06
687.138	11474.78
687.485	11458.29
687.832	11421.23
688.18	11400.21
688.527	11378.06
688.874	11345.97
689.221	11335.35
689.568	11374.9
689.915	11311.4
690.262	11325.63
690.609	11246.77
690.956	11220.55
691.303	11196.37
691.65	11194.56
691.997	11190.5
692.344	11147.11
692.69	11131.29
693.037	11110.72
693.383	11021.69
693.73	11047.68
694.077	11089.48
694.423	11005.42
694.769	10996.6
695.116	11063.72
695.462	10992.08
695.808	10980.56
696.155	10955.47
696.501	10964.51
696.847	10886.32
697.193	10882.93
697.539	10949.15
697.885	10855.14
698.231	10770.17
698.577	10814.24
698.923	10841.81
699.269	10783.28
699.614	10790.96
699.96	10755.03
700.306	10748.25
700.651	10663.5
700.997	10743.5
701.342	10702.15
701.688	10651.53
702.033	10604.07
702.379	10651.53
702.724	10659.66
703.069	10682.49
703.415	10602.94
703.76	10576.73
704.105	10536.28
704.45	10548.25
704.795	10561.36
705.14	10529.95
705.485	10478.43
705.83	10476.84
706.175	10570.4
706.52	10471.42
706.865	10510.97
707.209	10550.06
707.554	10478.43
707.899	10564.52
708.243	10425.09
708.588	10403.62
708.932	10360.01
709.277	10376.05
709.621	10405.88
709.966	10311.65
710.31	10382.61
710.654	10348.03
710.998	10364.3
711.342	10301.93
711.687	10411.31
712.031	10306.68
712.375	10251.09
712.719	10290.86
713.063	10329.05
713.407	10312.55
713.75	10294.25
714.094	10320.46
714.438	10286.11
714.782	10312.55
715.125	10249.96
715.469	10330.41
715.812	10223.29
716.156	10219.22
716.499	10181.71
716.843	10285.66
717.186	10175.61
717.53	10265.55
717.873	10215.16
718.216	10239.34
718.559	10279.79
718.902	10163.63
719.246	10187.81
719.589	10144.2
719.932	10156.4
720.275	10184.87
720.617	10190.75
720.96	10148.04
721.303	10151.43
721.646	10158.89
721.989	10105.33
722.331	10161.82
722.674	10101.03
723.016	10223.97
723.359	10164.53
723.701	10194.14
724.044	10123.18
724.386	10083.41
724.729	10082.28
725.071	10144.65
725.413	10065.78
725.755	10091.99
726.097	10080.47
726.439	10082.5
726.782	10162.95
727.124	10110.07
727.465	10079.34
727.807	10131.09
728.149	10083.86
728.491	10124.76
728.833	10086.12
729.175	10057.87
729.516	10113.91
729.858	10116.4
730.199	10103.29
730.541	10096.29
730.882	10119.56
731.224	10157.08
731.565	10114.59
731.906	10159.11
732.248	10207.92
732.589	10110.75
732.93	10165.21
733.271	10136.97
733.612	10218.54
733.953	10249.28
734.294	10169.73
734.635	10131.09
734.976	10182.39
735.317	10239.11
735.658	10205.89
735.999	10273.01
736.339	10220.13
736.68	10281.59
737.021	10232.1
737.361	10217.19
737.702	10339.9
738.042	10255.61
738.383	10274.59
738.723	10364.08
739.063	10287.02
739.404	10369.28
739.744	10394.13
740.084	10442.04
740.424	10377.86
740.764	10357.3
741.104	10489.05
741.444	10470.74
741.784	10374.25
742.124	10458.76
742.464	10557.97
742.804	10584.41
743.143	10596.61
743.483	10616.05
743.823	10557.07
744.162	10574.92
744.502	10662.15
744.841	10713.67
745.181	10660.12
745.52	10679.55
745.86	10701.24
746.199	10755.71
746.538	10787.8
746.877	10822.14
747.216	10820.79
747.556	10810.62
747.895	10872.99
748.234	10860.11
748.573	10884.74
748.911	10855.59
749.25	11000.22
749.589	10924.52
749.928	11092.19
750.267	11117.05
750.605	11079.54
750.944	11117.73
751.283	11084.74
751.621	11148.24
751.96	11097.17
752.298	11184.17
752.636	11251.51
752.975	11244.73
753.313	11196.37
753.651	11319.76
753.989	11277.73
754.327	11279.99
754.666	11260.78
755.004	11402.92
755.342	11437.72
755.679	11415.8
756.017	11415.8
756.355	11530.37
756.693	11450.6
757.031	11527.89
757.368	11420.55
757.706	11512.3
758.044	11585.29
758.381	11541.22
758.719	11566.53
759.056	11591.16
759.394	11634.33
759.731	11629.13
760.068	11647.43
760.405	11672.29
760.743	11679.3
761.08	11729.92
761.417	11642.24
761.754	11793.19
762.091	11729.24
762.428	11746.64
762.765	11692.86
763.102	11829.8
763.438	11782.57
763.775	11821.67
764.112	11811.72
764.449	11790.03
764.785	11856.92
765.122	11852.17
765.458	11841.55
765.795	11880.87
766.131	11808.11
766.467	11818.95
766.804	11886.3
767.14	11801.1
767.476	11866.19
767.812	11883.59
768.148	11932.85
768.485	11848.11
768.821	11922.23
769.157	11874.55
769.492	11922.68
769.828	11907.99
770.164	11765.17
770.5	11858.95
770.836	11943.92
771.171	11884.04
771.507	11908.44
771.842	11855.79
772.178	11939.18
772.513	11910.93
772.849	11895.34
773.184	11891.27
773.519	11866.19
773.855	11873.19
774.19	11903.47
774.525	11848.11
774.86	11829.58
775.195	11924.26
775.53	11910.93
775.865	11869.12
776.2	11835
776.535	11677.94
776.87	11823.02
777.205	11845.39
777.539	11815.34
777.874	11884.49
778.209	11727.88
778.543	11804.49
778.878	11677.72
779.212	11759.3
779.547	11694.66
779.881	11801.55
780.215	11696.25
780.55	11785.06
780.884	11750.26
781.218	11781.44
781.552	11717.26
781.886	11697.83
782.22	11724.27
782.554	11730.37
782.888	11638.62
783.222	11689.01
783.556	11636.59
783.889	11637.49
784.223	11558.62
784.557	11611.95
784.89	11660.31
785.224	11562.24
785.557	11555.91
785.891	11550.49
786.224	11512.75
786.558	11649.24
786.891	11531.96
787.224	11550.04
787.557	11433.65
787.891	11466.87
788.224	11488.79
788.557	11483.37
788.89	11481.34
789.223	11446.08
789.556	11425.52
789.888	11456.03
790.221	11385.07
790.554	11424.84
790.887	11368.12
791.219	11356.82
791.552	11383.94
791.884	11308.91
792.217	11297.61
792.549	11281.57
792.882	11230.95
793.214	11184.85
793.546	11288.12
793.879	11294.9
794.211	11154.57
794.543	11307.56
794.875	11165.86
795.207	11291.06
795.539	11123.15
795.871	11216.94
796.203	11153.21
796.535	11078.41
796.867	11097.17
797.198	11061.01
797.53	11087.22
797.862	11102.36
798.193	11135.81
798.525	11002.93
798.856	11082.93
799.188	10919.09
799.519	10979.65
799.85	10929.71
800.182	10997.96
800.513	10937.4
800.844	10908.92
801.175	10932.88
801.506	10965.64
801.837	10886.55
802.168	10847
802.499	10854.46
802.83	10849.94
803.161	10787.12
803.491	10835.48
803.822	10854.46
804.153	10755.48
804.483	10755.93
804.814	10767.46
805.145	10737.63
805.475	10680.68
805.805	10711.41
806.136	10719.32
806.466	10694.24
806.796	10751.19
807.126	10641.58
807.457	10593.45
807.787	10619.66
808.117	10567.46
808.447	10589.16
808.777	10467.8
809.107	10527.01
809.436	10520.46
809.766	10525.43
810.096	10512.32
810.426	10537.86
810.755	10570.63
811.085	10449.05
811.414	10499.67
811.744	10383.51
812.073	10484.98
812.403	10398.65
812.732	10397.3
813.061	10402.04
813.39	10343.97
813.719	10344.64
814.049	10409.73
814.378	10370.41
814.707	10306.23
815.036	10276.4
815.365	10276.4
815.693	10206.57
816.022	10191.43
816.351	10220.13
816.68	10165.21
817.008	10174.93
817.337	10176.29
817.665	10046.57
817.994	10159.79
818.322	10119.11
818.651	10117.08
818.979	10034.59
819.307	10065.1
819.636	10028.95
819.964	10007.25
820.292	10090.86
820.62	10109.62
820.948	10014.03
821.276	10007.03
821.604	10006.35
821.932	10061.71
822.259	10107.36
822.587	10069.85
822.915	10035.27
823.243	10098.32
823.57	10052.45
823.898	10070.53
824.225	9995.5
824.553	10055.39
824.88	10088.15
825.207	10033.46
825.535	10081.83
825.862	10115.95
826.189	10117.76
826.516	10150.52
826.843	10170.18
827.17	10130.64
827.497	10096.97
827.824	10131.09
828.151	10134.03
828.478	10172.67
828.805	10151.43
829.131	10179.45
829.458	10049.51
829.785	10026.23
830.111	10128.38
830.438	10136.74
830.764	10153.69
831.09	10201.82
831.417	10169.96
831.743	10184.42
832.069	10151.2
832.395	10140.81
832.722	10234.59
833.048	10136.51
833.374	10153.69
833.7	10127.7
834.026	10149.85
834.351	10119.79
834.677	10065.55
835.003	10113.46
835.329	10103.97
835.654	10067.81
835.98	10014.71
836.306	10111.2
836.631	10062.39
836.956	10144.87
837.282	10133.58
837.607	10132.67
837.932	10034.14
838.258	10006.35
838.583	10122.05
838.908	9993.47
839.233	9987.59
839.558	9957.99
839.883	9955.5
840.208	9972.45
840.533	9932.22
840.858	9970.64
841.182	9995.05
841.507	9930.64
841.832	9898.78
842.156	9857.2
842.481	9852.9
842.805	9824.43
843.13	9835.05
843.454	9834.83
843.778	9791.89
844.103	9728.61
844.427	9776.3
844.751	9720.7
845.075	9707.82
845.399	9702.63
845.723	9606.81
846.047	9691.55
846.371	9621.27
846.695	9569.07
847.019	9509.86
847.343	9504.67
847.666	9444.33
847.99	9417.44
848.313	9403.65
848.637	9364.56
848.96	9384.67
849.284	9303.77
849.607	9325.91
849.931	9275.52
850.254	9170.44
850.577	9089.54
850.9	9079.14
851.223	9111.91
851.546	9104.22
851.869	8978.58
852.192	8995.07
852.515	9016.32
852.838	8926.83
853.161	8931.35
853.483	8877.11
853.806	8758.47
854.129	8769.54
854.451	8778.58
854.774	8740.17
855.096	8699.26
855.419	8749.88
855.741	8687.06
856.063	8673.5
856.385	8681.41
856.708	8614.29
857.03	8554.63
857.352	8550.34
857.674	8558.93
857.996	8454.75
858.318	8527.52
858.64	8446.16
858.961	8438.48
859.283	8427.18
859.605	8429.89
859.926	8474.18
860.248	8446.84
860.57	8306.28
860.891	8320.06
861.212	8295.88
861.534	8311.7
861.855	8337.24
862.176	8275.77
862.498	8324.58
862.819	8287.07
863.14	8261.08
863.461	8284.81
863.782	8159.84
864.103	8213.63
864.424	8154.87
864.745	8237.81
865.065	8168.43
865.386	8144.7
865.707	8160.52
866.027	8097.92
866.348	8127.75
866.668	8206.85
866.989	8078.04
867.309	7996.46
867.63	8076.45
867.95	8066.74
868.27	7970.02
868.59	8064.03
868.91	8010.24
869.23	8001.88
869.55	7962.56
869.87	7971.82
870.19	7919.62
870.51	8041.88
870.83	7997.36
871.15	7945.16
871.469	7892.05
871.789	7986.51
872.109	7941.54
872.428	7859.51
872.748	7892.28
873.067	7907.65
873.386	7923.24
873.706	7864.03
874.025	7808.21
874.344	7853.64
874.663	7910.58
874.982	7821.32
875.301	7765.5
875.62	7808.44
875.939	7822.68
876.258	7750.14
876.577	7726.63
876.896	7702
877.214	7709.68
877.533	7729.8
877.852	7637.14
878.17	7721.21
878.489	7726.18
878.807	7678.5
879.125	7647.31
879.444	7676.24
879.762	7642.12
880.08	7633.3
880.398	7588.11
880.716	7654.77
881.034	7568.67
881.352	7586.75
881.67	7554.66
881.988	7556.02
882.306	7539.29
882.624	7496.81
882.941	7470.59
883.259	7466.98
883.577	7552.85
883.894	7458.84
884.212	7462.23
884.529	7411.39
884.846	7479.86
885.164	7387.66
885.481	7380.2
885.798	7397.15
886.115	7311.73
886.432	7335.68
886.75	7303.59
887.067	7318.28
887.383	7242.35
887.7	7208.91
888.017	7214.33
888.334	7197.61
888.651	7191.96
888.967	7135.69
889.284	7165.07
889.6	7172.75
889.917	7096.37
890.233	7115.35
890.55	7081
890.866	7081
891.182	7058.63
891.498	7033.54
891.815	7028.8
892.131	7024.5
892.447	7008.69
892.763	6937.28
893.079	6968.91
893.395	6921.23
893.71	6901.12
894.026	6863.38
894.342	6876.94
894.657	6868.35
894.973	6824.74
895.289	6763.72
895.604	6772.08
895.92	6747
896.235	6693.21
896.55	6694.8
896.865	6627.23
897.181	6695.02
897.496	6667.9
897.811	6640.33
898.126	6593.1
898.441	6554.46
898.756	6552.43
899.071	6532.99
899.386	6545.87
899.7	6483.28
900.015	6474.46
900.33	6424.52
900.644	6383.17
900.959	6451.64
901.273	6374.13
901.588	6351.75
901.902	6320.57
902.216	6362.15
902.531	6329.38
902.845	6276.95
903.159	6245.32
903.473	6216.39
903.787	6152.21
904.101	6125.09
904.415	6184.07
904.729	6177.07
905.042	6083.74
905.356	6091.2
905.67	6039.9
905.984	6063.63
906.297	6065.89
906.611	6022.05
906.924	6023.17
907.237	5930.97
907.551	5940.01
907.864	5943.63
908.177	5905.21
908.491	5947.24
908.804	5843.97
909.117	5864.99
909.43	5775.95
909.743	5778.21
910.056	5781.37
910.368	5718.78
910.681	5699.34
910.994	5716.06
911.307	5666.12
911.619	5611.21
911.932	5640.81
912.244	5592.9
912.557	5610.08
912.869	5577.08
913.181	5519.91
913.494	5566.24
913.806	5535.5
914.118	5474.04
914.43	5486.24
914.742	5452.12
915.054	5385.68
915.366	5390.2
915.678	5391.78
915.99	5394.26
916.302	5343.64
916.613	5294.61
916.925	5329.18
917.236	5301.39
917.548	5272.91
917.859	5233.14
918.171	5164.44
918.482	5159.24
918.794	5206.93
919.105	5205.8
919.416	5143.65
919.727	5158.34
920.038	5088.96
920.349	5053.93
920.66	5044.9
920.971	5072.24
921.282	5019.13
921.593	4995.86
921.903	4956.54
922.214	4983.2
922.525	4938.01
922.835	4912.92
923.146	4857.78
923.456	4903.88
923.767	4841.96
924.077	4798.8
924.387	4855.52
924.697	4783.89
925.008	4767.84
925.318	4750.89
925.628	4736.2
925.938	4716.09
926.248	4679.48
926.558	4670.89
926.867	4654.17
927.177	4632.03
927.487	4615.53
927.796	4554.96
928.106	4610.1
928.416	4592.7
928.725	4549.09
929.034	4518.13
929.344	4527.4
929.653	4499.15
929.962	4466.61
930.271	4446.72
930.581	4430.67
930.89	4385.7
931.199	4375.99
931.508	4412.37
931.817	4353.61
932.125	4363.56
932.434	4369.43
932.743	4288.98
933.051	4253.96
933.36	4242.43
933.669	4248.98
933.977	4255.31
934.286	4255.99
934.594	4193.17
934.902	4159.27
935.21	4159.72
935.519	4191.13
935.827	4166.05
936.135	4050.8
936.443	4101.87
936.751	4062.77
937.059	4050.35
937.367	4066.62
937.674	4033.4
937.982	4052.15
938.29	3998.37
938.597	3983.68
938.905	3972.61
939.213	3946.17
939.52	3881.54
939.827	3944.13
940.135	3881.99
940.442	3890.35
940.749	3882.44
941.056	3863.01
941.363	3837.92
941.67	3805.38
941.977	3801.54
942.284	3802.67
942.591	3821.42
942.898	3765.38
943.205	3715.89
943.511	3764.25
943.818	3730.13
944.125	3701.2
944.431	3697.59
944.738	3689.9
945.044	3702.56
945.35	3627.98
945.657	3579.17
945.963	3617.36
946.269	3608.55
946.575	3593.63
946.881	3568.32
947.187	3557.7
947.493	3524.71
947.799	3509.57
948.105	3483.35
948.41	3494.88
948.716	3497.37
949.022	3520.42
949.327	3443.36
949.633	3416.01
949.938	3387.54
950.244	3409.01
950.549	3359.97
950.854	3354.32
951.16	3318.16
951.465	3391.15
951.77	3328.33
952.075	3348.67
952.38	3316.58
952.685	3292.4
952.99	3310.25
953.294	3279.52
953.599	3272.51
953.904	3214.21
954.209	3234.55
954.513	3219.86
954.818	3189.35
955.122	3174.21
955.426	3185.96
955.731	3156.58
956.035	3120.43
956.339	3068.45
956.643	3108.68
956.948	3104.61
957.252	3110.03
957.556	3078.17
957.86	3063.93
958.163	3036.81
958.467	3038.39
958.771	3044.72
959.075	3042.24
959.378	2961.56
959.682	3013.31
959.985	2981.22
960.289	2966.76
960.592	2925.86
960.896	2952.97
961.199	2956.59
961.502	2916.59
961.805	2900.55
962.108	2896.25
962.411	2867.1
962.714	2884.5
963.017	2855.57
963.32	2858.74
963.623	2851.51
963.926	2808.57
964.228	2797.95
964.531	2785.52
964.833	2786.88
965.136	2803.6
965.438	2732.41
965.741	2751.17
966.043	2733.09
966.345	2743.26
966.648	2716.37
966.95	2753.2
967.252	2699.42
967.554	2685.41
967.856	2680.89
968.158	2653.77
968.46	2670.27
968.761	2629.82
969.063	2635.24
969.365	2627.11
969.666	2611.97
969.968	2570.16
970.269	2564.06
970.571	2572.64
970.872	2560.22
971.174	2549.14
971.475	2554.11
971.776	2535.36
972.077	2502.82
972.378	2526.54
972.679	2500.78
972.98	2522.93
973.281	2470.95
973.582	2459.88
973.883	2463.27
974.183	2449.94
974.484	2461.91
974.785	2420.78
975.085	2432.76
975.386	2389.15
975.686	2383.72
975.986	2403.38
976.287	2399.77
976.587	2370.62
976.887	2358.19
977.187	2366.55
977.487	2347.11
977.787	2294.23
978.087	2324.97
978.387	2300.56
978.687	2303.95
978.987	2315.02
979.286	2289.04
979.586	2270.51
979.885	2279.32
980.185	2264.63
980.484	2270.28
980.784	2214.01
981.083	2158.87
981.382	2241.81
981.682	2177.63
981.981	2195.7
982.28	2199.77
982.579	2164.52
982.878	2182.82
983.177	2120.68
983.475	2149.15
983.774	2134.46
984.073	2122.49
984.372	2101.47
984.67	2135.14
984.969	2130.62
985.267	2110.51
985.566	2093.56
985.864	2079.78
986.162	2045.65
986.461	2086.33
986.759	2064.18
987.057	2009.27
987.355	2041.36
987.653	2010.4
987.951	2034.81
988.249	1986.67
988.547	1991.64
988.844	2011.76
989.142	1977.41
989.44	1976.73
989.737	1941.7
990.035	1938.08
990.332	1968.37
990.63	1947.58
990.927	1963.62
991.224	1939.21
991.521	1924.53
991.819	1904.64
992.116	1901.02
992.413	1888.14
992.71	1876.84
993.006	1885.66
993.303	1897.18
993.6	1868.26
993.897	1861.48
994.193	1828.26
994.49	1835.26
994.787	1822.83
995.083	1790.97
995.379	1816.05
995.676	1792.78
995.972	1790.29
996.268	1780.35
996.565	1747.36
996.861	1782.38
997.157	1769.5
997.453	1736.73
997.749	1738.54
998.044	1750.07
998.34	1718.66
998.636	1717.3
998.932	1716.85
999.227	1668.94
999.523	1689.05
999.818	1670.52
1000.114	1686.34
1000.409	1640.47
1000.704	1645.44
1001	1635.72
1001.295	1645.89
1001.59	1632.78
1001.885	1647.7
1002.18	1595.27
1002.475	1588.94
1002.77	1609.05
1003.065	1581.26
1003.359	1581.26
1003.654	1599.11
1003.949	1555.5
1004.243	1567.47
1004.538	1551.65
1004.832	1535.84
1005.127	1540.81
1005.421	1494.48
1005.715	1499.68
1006.009	1523.41
1006.304	1484.54
1006.598	1513.91
1006.892	1503.97
1007.186	1476.85
1007.48	1491.09
1007.773	1500.13
1008.067	1473.46
1008.361	1479.11
1008.655	1458.1
1008.948	1427.82
1009.242	1437.98
1009.535	1426.91
1009.829	1422.84
1010.122	1421.94
1010.415	1418.78
1010.708	1416.29
1011.001	1389.4
1011.295	1361.6
1011.588	1361.38
1011.881	1341.26
1012.173	1344.65
1012.466	1363.41
1012.759	1325.22
1013.052	1334.94
1013.344	1337.87
1013.637	1282.28
1013.93	1292.9
1014.222	1284.77
1014.514	1284.32
1014.807	1306.46
1015.099	1289.97
1015.391	1292.23
1015.683	1270.53
1015.976	1263.3
1016.268	1239.35
1016.56	1229.18
1016.851	1261.94
1017.143	1235.5
1017.435	1228.5
1017.727	1200.25
1018.018	1234.6
1018.31	1240.02
1018.602	1187.6
1018.893	1177.2
1019.185	1183.53
1019.476	1139.24
1019.767	1178.1
1020.058	1150.76
1020.35	1180.14
1020.641	1169.52
1020.932	1152.79
1021.223	1138.11
1021.514	1128.39
1021.804	1106.24
1022.095	1103.08
1022.386	1080.25
1022.677	1115.96
1022.967	1096.75
1023.258	1083.87
1023.548	1085
1023.839	1080.03
1024.129	1067.83
1024.419	1040.03
1024.709	1056.98
1025	1033.7
1025.29	1042.74
1025.58	1037.32
1025.87	1012.91
1026.16	1024.66
1026.449	1003.19
1026.739	998.22
1027.029	1005.23
1027.319	1023.53
1027.608	988.96
1027.898	1005.23
1028.187	989.41
1028.477	968.84
1028.766	944.89
1029.055	960.26
1029.344	960.03
1029.634	966.36
1029.923	928.17
1030.212	958.22
1030.501	953.93
1030.79	928.17
1031.078	919.35
1031.367	903.76
1031.656	892.69
1031.945	908.73
1032.233	892.69
1032.522	912.12
1032.81	891.11
1033.099	869.41
1033.387	845.68
1033.675	877.77
1033.963	876.19
1034.251	865.57
1034.54	850.88
1034.828	855.85
1035.116	846.36
1035.403	851.33
1035.691	860.37
1035.979	849.07
1036.267	833.03
1036.554	819.47
1036.842	833.25
1037.129	833.48
1037.417	799.13
1037.704	797.32
1037.992	802.52
1038.279	801.17
1038.566	801.62
1038.853	801.62
1039.14	801.62
