Data from blue_shiny_book_FLMS001491_00042.txt Node
Date: Wed Feb 08 15:27:00 GMT 2017
User: dcchb
Spectrometer: FLMS00149
Trigger mode: 0
Integration Time (sec): 2.000000E-2
Scans to average: 10
Electric dark correction enabled: true
Nonlinearity correction enabled: false
Boxcar width: 0
XAxis mode: Wavelengths
Number of Pixels in Spectrum: 2048
>>>>>Begin Spectral Data<<<<<
341.393	-25.61
341.776	-25.61
342.16	-25.61
342.543	-56.11
342.927	-67.41
343.31	-68.09
343.693	-84.14
344.077	-67.64
344.46	-62.22
344.843	-42.78
345.226	-52.27
345.61	-28.77
345.993	-14.53
346.376	-11.6
346.759	7.84
347.142	35.18
347.525	34.28
347.908	58.91
348.291	96.65
348.674	105.24
349.057	93.94
349.44	128.51
349.823	157.21
350.206	172.81
350.588	178.68
350.971	214.39
351.354	245.57
351.737	243.76
352.119	262.97
352.502	265.46
352.884	315.85
353.267	293.03
353.65	309.98
354.032	337.1
354.414	330.54
354.797	324.44
355.179	332.12
355.562	323.08
355.944	361.73
356.326	340.71
356.709	324.44
357.091	360.15
357.473	359.92
357.855	363.08
358.238	354.72
358.62	349.98
359.002	353.37
359.384	365.34
359.766	343.42
360.148	328.51
360.53	354.04
360.912	347.94
361.294	341.39
361.676	336.42
362.057	347.72
362.439	340.26
362.821	367.38
363.203	346.59
363.584	333.03
363.966	342.75
364.348	342.29
364.729	334.84
365.111	336.64
365.493	345.46
365.874	321.5
366.256	302.52
366.637	341.16
367.019	336.64
367.4	320.15
367.781	355.4
368.163	326.93
368.544	338
368.925	334.38
369.306	324.44
369.688	330.09
370.069	344.33
370.45	358.11
370.831	340.49
371.212	340.49
371.593	338.23
371.974	345.23
372.355	350.43
372.736	338.68
373.117	348.85
373.498	337.77
373.879	369.19
374.26	348.17
374.641	338.23
375.021	342.29
375.402	341.39
375.783	354.72
376.163	361.28
376.544	363.08
376.925	368.96
377.305	344.1
377.686	370.32
378.066	379.81
378.447	379.58
378.827	368.06
379.208	380.03
379.588	395.63
379.968	406.25
380.349	398.79
380.729	399.01
381.109	405.79
381.489	397.21
381.87	377.32
382.25	415.51
382.63	405.12
383.01	393.59
383.39	384.78
383.77	408.96
384.15	404.21
384.53	404.89
384.91	434.72
385.29	420.48
385.67	432.01
386.049	415.74
386.429	411.67
386.809	449.86
387.189	435.17
387.568	445.34
387.948	441.73
388.328	465.23
388.707	457.09
389.087	461.16
389.466	459.13
389.846	462.06
390.225	463.19
390.605	467.94
390.984	489.63
391.363	493.48
391.743	479.46
392.122	489.18
392.501	487.37
392.881	504.1
393.26	525.57
393.639	517.43
394.018	529.18
394.397	543.19
394.776	528.5
395.155	518.11
395.534	533.25
395.913	542.06
396.292	538.22
396.671	533.93
397.05	576.19
397.429	559.01
397.808	562.4
398.186	567.6
398.565	570.99
398.944	599.91
399.323	569.86
399.701	605.56
400.08	606.69
400.458	614.15
400.837	616.18
401.215	624.32
401.594	619.8
401.972	625.68
402.351	628.84
402.729	630.42
403.107	682.17
403.486	682.62
403.864	668.39
404.242	661.15
404.62	670.42
404.999	703.41
405.377	682.17
405.755	718.55
406.133	727.59
406.511	734.83
406.889	716.97
407.267	731.21
407.645	753.36
408.023	766.69
408.401	790.87
408.779	802.17
409.156	787.93
409.534	791.32
409.912	824.54
410.29	816.63
410.667	840.59
411.045	841.72
411.422	839.68
411.8	841.04
412.178	848.72
412.555	894.6
412.933	902.5
413.31	921.71
413.687	940.24
414.065	945.22
414.442	932.56
414.819	954.25
415.197	971.43
415.574	985.67
415.951	996.97
416.328	999.68
416.705	1029.05
417.082	1012.33
417.46	1052.56
417.837	1042.61
418.214	1080.8
418.591	1074.93
418.967	1082.84
419.344	1085.55
419.721	1097.3
420.098	1091.88
420.475	1079.9
420.852	1124.19
421.228	1145.66
421.605	1175.27
421.982	1165.55
422.358	1196.06
422.735	1193.12
423.111	1202.16
423.488	1255.94
423.864	1233.12
424.241	1277.86
424.617	1259.33
424.994	1250.52
425.37	1303.85
425.746	1294.36
426.123	1313.34
426.499	1349.72
426.875	1352.44
427.251	1387.46
427.627	1419.33
428.003	1459.55
428.379	1467.46
428.756	1464.98
429.132	1491.19
429.507	1453.9
429.883	1515.37
430.259	1523.28
430.635	1545.43
431.011	1589.72
431.387	1601.24
431.763	1647.57
432.138	1639.89
432.514	1680.56
432.89	1716.27
433.265	1746.1
433.641	1771.41
434.016	1753.78
434.392	1816.38
434.767	1826.1
435.143	1825.64
435.518	1850.73
435.894	1886.43
436.269	1896.38
436.644	1931.18
437.02	1951.52
437.395	1988.13
437.77	2012.08
438.145	2046.66
438.52	2059.54
438.895	2058.41
439.271	2089.59
439.646	2109.93
440.021	2173.43
440.395	2174.79
440.77	2161
441.145	2164.39
441.52	2260.66
441.895	2219.08
442.27	2296.37
442.645	2264.95
443.019	2313.99
443.394	2300.89
443.769	2337.04
444.143	2349.47
444.518	2389.7
444.892	2361
445.267	2389.02
445.641	2432.41
446.016	2446.87
446.39	2466.08
446.764	2454.55
447.139	2470.15
447.513	2555.79
447.887	2526.64
448.262	2566.87
448.636	2595.34
449.01	2620.43
449.384	2644.83
449.758	2623.14
450.132	2650.48
450.506	2700.88
450.88	2719.18
451.254	2734.32
451.628	2761.89
452.002	2754.89
452.376	2833.08
452.75	2878.72
453.123	2888.44
453.497	2973.18
453.871	2980.87
454.244	3014.09
454.618	3046.4
454.992	3071.04
455.365	3064.93
455.739	3170.69
456.112	3223.12
456.486	3246.4
456.859	3281.43
457.232	3372.72
457.606	3331.14
457.979	3389.44
458.352	3447.3
458.725	3473.74
459.099	3493.4
459.472	3586.5
459.845	3638.25
460.218	3642.32
460.591	3671.92
460.964	3694.52
461.337	3800.73
461.71	3855.65
462.083	3947.85
462.456	3916.21
462.829	3960.96
463.201	4016.32
463.574	4083.21
463.947	4117.34
464.32	4233.26
464.692	4304.22
465.065	4324.34
465.438	4373.15
465.81	4418.12
466.183	4438.23
466.555	4524.56
466.928	4590.32
467.3	4628.06
467.672	4668.28
468.045	4794.83
468.417	4794.61
468.789	4819.24
469.161	4957.77
469.534	5017.42
469.906	5112.79
470.278	5140.36
470.65	5202.73
471.022	5324.08
471.394	5435.04
471.766	5420.13
472.138	5480.01
472.51	5567.69
472.882	5667.58
473.253	5768.82
473.625	5879.77
473.997	5986.66
474.369	6006.1
474.74	6168.81
475.112	6241.57
475.484	6406.54
475.855	6482.02
476.227	6533.77
476.598	6738.51
476.97	6723.82
477.341	6860.54
477.713	6979.18
478.084	7025.51
478.455	7249
478.827	7314.54
479.198	7530.35
479.569	7491.26
479.94	7754.75
480.311	7913.85
480.682	8019.38
481.053	8199.71
481.424	8309.32
481.795	8444.68
482.166	8572.36
482.537	8659.14
482.908	8841.05
483.279	9013.48
483.65	9050.54
484.021	9271.1
484.391	9296.18
484.762	9421.83
485.133	9544.54
485.503	9714.93
485.874	9916.28
486.244	10040.57
486.615	10236.72
486.985	10388.81
487.356	10572.76
487.726	10750.83
488.097	10826.76
488.467	10966.65
488.837	11167.32
489.207	11333.19
489.578	11459.52
489.948	11609.12
490.318	11807.3
490.688	11883.91
491.058	12029.9
491.428	12201.19
491.798	12338.59
492.168	12605.47
492.538	12645.7
492.908	12796.66
493.278	13006.14
493.648	12963.43
494.017	13262.41
494.387	13364.32
494.757	13447.03
495.126	13635.5
495.496	13692.45
495.866	13749.85
496.235	14023.06
496.605	14031.88
496.974	14167.47
497.344	14261.48
497.713	14451.75
498.082	14557.51
498.452	14681.13
498.821	14724.06
499.19	14847.45
499.559	14986.88
499.928	15169.7
500.298	15232.75
500.667	15310.04
501.036	15347.1
501.405	15628.22
501.774	15632.51
502.143	15794.09
502.512	15929.68
502.88	15946.18
503.249	16058.04
503.618	16118.38
503.987	16225.94
504.356	16337.35
504.724	16422.1
505.093	16546.39
505.462	16660.51
505.83	16815.76
506.199	16949.09
506.567	17098.46
506.936	17178.46
507.304	17432.92
507.672	17428.85
508.041	17625.68
508.409	17761.04
508.777	17841.27
509.145	17977.99
509.514	17983.64
509.882	18203.97
510.25	18266.12
510.618	18438.31
510.986	18419.78
511.354	18658.42
511.722	18839.43
512.09	19034.91
512.458	19018.19
512.826	19174.57
513.193	19239.2
513.561	19330.49
513.929	19595.8
514.297	19693.87
514.664	19851.61
515.032	19853.64
515.4	20166.4
515.767	20165.27
516.135	20414.53
516.502	20308.55
516.869	20714.64
517.237	20754.86
517.604	20687.07
517.972	21043.67
518.339	21181.52
518.706	21229.65
519.073	21435.98
519.44	21498.12
519.808	21762.3
520.175	21732.69
520.542	22050.88
520.909	22187.59
521.276	22197.76
521.643	22449.96
522.009	22615.83
522.376	22728.82
522.743	22863.06
523.11	23116.84
523.477	23350.5
523.843	23503.49
524.21	23873.2
524.577	24061.44
524.943	24065.96
525.31	24227.09
525.676	24324.49
526.043	24544.82
526.409	24766.28
526.776	24973.51
527.142	25028.42
527.508	25274.52
527.874	25400.17
528.241	25572.82
528.607	25635.41
528.973	25946.37
529.339	25892.58
529.705	26046.25
530.071	26469.97
530.437	26481.94
530.803	26809.17
531.169	26950.41
531.535	26979.33
531.901	27085.32
532.267	27322.37
532.632	27474.46
532.998	27565.98
533.364	27855.47
533.73	27837.39
534.095	28137.27
534.461	28048.91
534.826	28379.75
535.192	28407.32
535.557	28521.44
535.923	28518.5
536.288	28687.31
536.653	28713.98
537.019	28803.01
537.384	29010.01
537.749	29165.72
538.114	29257.69
538.479	29284.13
538.845	29591.02
539.21	29493.39
539.575	29738.13
539.94	29760.5
540.305	30050.21
540.67	30034.17
541.034	30147.16
541.399	30340.15
541.764	30233.71
542.129	30495.4
542.494	30235.52
542.858	30618.33
543.223	30659.24
543.587	30743.3
543.952	30836.63
544.316	30760.93
544.681	30883.64
545.045	31142.84
545.41	31205.44
545.774	31211.09
546.138	31346.45
546.503	31572.66
546.867	31595.03
547.231	31878.19
547.595	31968.13
547.959	31967.9
548.324	32251.28
548.688	32220.55
549.052	32210.83
549.416	32477.95
549.779	32365.41
550.143	32477.95
550.507	32630.71
550.871	32556.36
551.235	32552.07
551.599	32863.92
551.962	32842.46
552.326	32826.18
552.689	33038.38
553.053	32939.85
553.417	33009.91
553.78	33532.83
554.143	33439.73
554.507	33658.03
554.87	33818.93
555.234	34114.51
555.597	33978.7
555.96	34122.42
556.323	34416.88
556.686	34527.61
557.05	34730.09
557.413	34592.24
557.776	34754.04
558.139	35036.3
558.502	34999.69
558.865	35050.99
559.228	35251.43
559.59	35179.12
559.953	35139.8
560.316	35585.21
560.679	35504.08
561.041	35754.24
561.404	35817.97
561.767	35984.52
562.129	36000.79
562.492	36332.08
562.854	36348.35
563.217	36439.65
563.579	36810.94
563.941	37236.24
564.304	37272.62
564.666	37325.28
565.028	37389
565.39	37656.79
565.753	37871.02
566.115	38026.27
566.477	38147.85
566.839	38262.88
567.201	38379.49
567.563	38303.56
567.925	38444.34
568.287	38408.19
568.648	38441.86
569.01	38578.12
569.372	38680.95
569.734	38509.65
570.095	38746.26
570.457	38980.37
570.819	39197.99
571.18	39070.99
571.542	39413.81
571.903	39713.91
572.265	39923.4
572.626	39817.64
572.987	39973.57
573.349	40342.82
573.71	40620.56
574.071	40503.72
574.432	40748.91
574.794	40754.56
575.155	40752.08
575.516	40530.62
575.877	40863.71
576.238	40931.96
576.599	40872.98
576.96	40948.91
577.32	40875.01
577.681	41070.04
578.042	41220.09
578.403	41192.74
578.763	41028.91
579.124	41095.57
579.485	41286.53
579.845	41461.21
580.206	41443.36
580.566	41593.64
580.927	41739.17
581.287	41992.05
581.648	41836.8
582.008	42064.36
582.368	42105.71
582.728	42303.68
583.089	42153.62
583.449	42335.99
583.809	42230.46
584.169	42368.53
584.529	42404.01
584.889	42634.06
585.249	42371.24
585.609	42168.31
585.969	42222.1
586.329	42122.21
586.688	42039.95
587.048	42141.42
587.408	42065.04
587.768	41908.21
588.127	41957.02
588.487	41893.29
588.846	42326.95
589.206	41887.19
589.565	42011.03
589.925	42254.41
590.284	42106.62
590.643	42260.06
591.003	42566.27
591.362	42767.84
591.721	42635.19
592.08	42799.03
592.44	42818.92
592.799	43050.1
593.158	42928.97
593.517	42998.35
593.876	42971.23
594.235	42803.78
594.593	42883.32
594.952	42953.15
595.311	42679.26
595.67	42777.79
596.029	42724.68
596.387	42884.68
596.746	42861.4
597.104	42606.49
597.463	42572.14
597.822	42744.34
598.18	42586.15
598.538	42646.49
598.897	42785.7
599.255	42559.26
599.613	43124.22
599.972	42994.96
600.33	43235.85
600.688	43065.92
601.046	43301.62
601.404	43616.86
601.762	43472.91
602.12	43804.88
602.478	43743.19
602.836	43774.6
603.194	43665
603.552	43835.39
603.91	43709.29
604.268	43597.65
604.625	43420.26
604.983	43574.6
605.341	43357.66
605.698	43472.68
606.056	43544.55
606.413	43387.49
606.771	43574.15
607.128	43585.45
607.485	43327.15
607.843	43410.31
608.2	43548.61
608.557	43719.01
608.914	43677.2
609.272	44006.46
609.629	43876.52
609.986	44188.82
610.343	43956.51
610.7	44418.42
611.057	44337.52
611.414	44513.56
611.771	44594.69
612.127	44728.7
612.484	44760.56
612.841	44894.57
613.198	44716.04
613.554	44805.53
613.911	45034.45
614.267	45065.41
614.624	44991.06
614.98	45029.93
615.337	45128.91
615.693	45047.11
616.05	44813.44
616.406	45033.32
616.762	44753.78
617.118	44922.59
617.475	44575.71
617.831	44717.4
618.187	44812.99
618.543	44807.34
618.899	45009.37
619.255	44951.74
619.611	44969.59
619.967	45201.68
620.323	45170.04
620.678	45107.22
621.034	45253.43
621.39	45333.2
621.746	45292.07
622.101	45791.27
622.457	45611.16
622.812	45692.74
623.168	45712.85
623.523	45773.19
623.879	45784.94
624.234	45560.54
624.589	45674.21
624.945	45763.02
625.3	45679.86
625.655	45519.86
626.01	45568.22
626.365	45429.02
626.72	45292.75
627.075	45392.18
627.43	45356.02
627.785	45116.26
628.14	45181.11
628.495	45284.39
628.85	45161
629.205	44984.96
629.559	45080.78
629.914	44932.53
630.269	45088.46
630.623	44917.84
630.978	45096.82
631.332	45275.35
631.687	45580.65
632.041	45252.98
632.396	45530.94
632.75	45278.51
633.104	45515.12
633.459	45188.57
633.813	45265.18
634.167	45295.46
634.521	45232.86
634.875	45189.93
635.229	45124.84
635.583	45066.99
635.937	45004.4
636.291	45058.86
636.645	44998.97
636.999	44815.93
637.352	44817.06
637.706	44474.47
638.06	44641.47
638.413	44424.3
638.767	44227.24
639.121	44148.15
639.474	43878.32
639.828	44103.85
640.181	44041.48
640.534	43886.46
640.888	43894.82
641.241	43872
641.594	43708.84
641.947	43926.01
642.301	43869.96
642.654	43870.64
643.007	44009.39
643.36	44030.41
643.713	43866.57
644.066	44138.43
644.419	44060.92
644.771	44083.74
645.124	43922.39
645.477	43876.97
645.83	43599.23
646.182	43116.99
646.535	42781.18
646.888	42792.7
647.24	42390.68
647.593	42661.41
647.945	42536.66
648.298	42345.48
648.65	42159.95
649.002	42050.8
649.355	42164.7
649.707	42201.31
650.059	42260.29
650.411	42716.09
650.763	42898.46
651.115	43125.12
651.467	42926.26
651.819	42897.11
652.171	42825.7
652.523	42771.01
652.875	42782.99
653.227	42662.76
653.578	43022.98
653.93	42989.53
654.282	42858.69
654.633	42640.84
654.985	42892.36
655.337	42776.21
655.688	42746.6
656.039	43155.4
656.391	42772.82
656.742	42961.06
657.094	42962.42
657.445	43128.96
657.796	43107.27
658.147	43022.08
658.498	43101.85
658.849	43189.53
659.2	42930.78
659.551	42823.66
659.902	43028.18
660.253	42902.08
660.604	42935.07
660.955	42615.98
661.306	42724.91
661.656	42416.89
662.007	42460.06
662.358	42305.94
662.708	42291.25
663.059	42205.15
663.409	41854.65
663.76	42142.1
664.11	42254.41
664.461	42091.7
664.811	42190.46
665.161	41971.26
665.511	42026.17
665.862	42142.1
666.212	42223.45
666.562	42241.53
666.912	42241.98
667.262	42389.1
667.612	42422.77
667.962	42639.49
668.312	42564.91
668.662	42771.69
669.011	42759.94
669.361	42829.76
669.711	42646.04
670.06	42672.71
670.41	42597.23
670.76	42514.52
671.109	42629.09
671.459	42503.22
671.808	42640.62
672.157	42508.42
672.507	42100.52
672.856	42157.24
673.205	42258.25
673.554	42240.63
673.904	41982.55
674.253	42170.8
674.602	41936
674.951	41246.98
675.3	40961.56
675.649	41399.74
675.998	41421.67
676.346	41198.39
676.695	41359.07
677.044	41049.25
677.393	41221.44
677.741	41270.26
678.09	41088.34
678.438	41097.15
678.787	41033.65
679.135	41132.41
679.484	40909.59
679.832	41300.09
680.181	41016.25
680.529	41184.61
680.877	41195
681.225	41070.04
681.573	41343.25
681.922	41252.4
682.27	41123.37
682.618	41270.48
682.966	40997.5
683.314	41291.73
683.661	41170.15
684.009	41079.53
684.357	40814.22
684.705	40776.71
685.053	40729.25
685.4	40715.92
685.748	40484.51
686.095	40302.15
686.443	39986.9
686.79	39888.82
687.138	39960.91
687.485	39901.93
687.832	39757.08
688.18	39660.13
688.527	39252.91
688.874	39254.04
689.221	39080.03
689.568	39017.66
689.915	38846.82
690.262	38894.27
690.609	38783.09
690.956	38687.05
691.303	38586.94
691.65	38569.99
691.997	38548.29
692.344	38150.11
692.69	38261.52
693.037	38369.77
693.383	38190.79
693.73	38285.02
694.077	38068.53
694.423	38189.66
694.769	38073.5
695.116	38132.26
695.462	37888.88
695.808	37812.49
696.155	37857.47
696.501	37735.43
696.847	37697.24
697.193	37498.38
697.539	37509
697.885	37366.63
698.231	37081.44
698.577	37230.36
698.923	37100.42
699.269	36755.35
699.614	36494.79
699.96	36444.39
700.306	36194.91
700.651	36065.87
700.997	35810.51
701.342	35751.31
701.688	35704.98
702.033	35358.77
702.379	35457.53
702.724	35334.14
703.069	35399
703.415	34818.67
703.76	34890.76
704.105	34937.99
704.45	34826.13
704.795	34693.93
705.14	34515.18
705.485	34479.25
705.83	34362.64
706.175	34623.43
706.52	34481.73
706.865	34519.02
707.209	34446.26
707.554	34415.97
707.899	34512.92
708.243	34348.86
708.588	34318.8
708.932	34306.6
709.277	34232.48
709.621	34192.25
709.966	34111.57
710.31	34235.19
710.654	33788.42
710.998	33901.18
711.342	33901.86
711.687	33781.64
712.031	33582.55
712.375	33526.96
712.719	33533.28
713.063	33311.82
713.407	33445.83
713.75	33121.54
714.094	33205.61
714.438	32933.3
714.782	32909.8
715.125	32688.56
715.469	32778.95
715.812	32487.44
716.156	32347.1
716.499	32226.65
716.843	32162.02
717.186	31872.09
717.53	32093.77
717.873	31945.76
718.216	31803.16
718.559	31863.27
718.902	31593.45
719.246	31839.09
719.589	31794.8
719.932	31741.69
720.275	31748.93
720.617	31808.81
720.96	31714.58
721.303	31850.84
721.646	32038.41
721.989	31810.62
722.331	31980.78
722.674	31846.78
723.016	31883.61
723.359	31969.03
723.701	31822.6
724.044	31630.74
724.386	31534.02
724.729	31633
725.071	31554.81
725.413	31651.3
725.755	31785.08
726.097	31669.61
726.439	31477.29
726.782	31399.1
727.124	31452.89
727.465	31261.03
727.807	31208.37
728.149	31034.14
728.491	30981.71
728.833	30987.82
729.175	30912.11
729.516	30780.36
729.858	30755.96
730.199	31015.16
730.541	30657.43
730.882	30614.27
731.224	30780.36
731.565	30421.95
731.906	30431.9
732.248	30570.65
732.589	30388.28
732.93	30238.91
733.271	30435.97
733.612	30462.86
733.953	30460.6
734.294	30287.95
734.635	30418.34
734.976	30444.55
735.317	30400.94
735.658	30414.27
735.999	30613.81
736.339	30481.39
736.68	30530.2
737.021	30569.75
737.361	30508.96
737.702	30632.8
738.042	30741.72
738.383	30539.47
738.723	30626.69
739.063	30652.23
739.404	30648.84
739.744	30681.16
740.084	30779.91
740.424	30774.71
740.764	30674.38
741.104	30840.25
741.444	30680.48
741.784	30508.73
742.124	30608.62
742.464	30615.85
742.804	30635.51
743.143	30426.25
743.483	30525
743.823	30430.32
744.162	30252.92
744.502	30306.7
744.841	30146.03
745.181	30309.19
745.52	30146.26
745.86	30140.38
746.199	30078.91
746.538	29967.5
746.877	30238.23
747.216	30200.04
747.556	30200.04
747.895	30232.58
748.234	30138.8
748.573	30049.53
748.911	29998.91
749.25	30187.38
749.589	30086.6
749.928	30206.59
750.267	30216.31
750.605	30253.82
750.944	30149.65
751.283	30217.89
751.621	30467.15
751.96	30278
752.298	30490.43
752.636	30524.55
752.975	30499.01
753.313	30435.51
753.651	30707.14
753.989	30623.98
754.327	30651.1
754.666	30382.41
755.004	30578.79
755.342	30642.06
755.679	30780.36
756.017	30640.48
756.355	30841.15
756.693	30580.14
757.031	30612.01
757.368	30499.24
757.706	30585.79
758.044	30428.06
758.381	30583.08
758.719	30463.99
759.056	30668.95
759.394	30401.39
759.731	30336.76
760.068	30394.61
760.405	30199.36
760.743	30093.83
761.08	30274.39
761.417	30180.6
761.754	30063.77
762.091	30111.45
762.428	29990.55
762.765	29739.71
763.102	29998.46
763.438	29842.99
763.775	29743.1
764.112	29729.77
764.449	29737
764.785	29595.76
765.122	29607.96
765.458	29590.56
765.795	29607.51
766.131	29655.87
766.467	29508.31
766.804	29454.52
767.14	29430.34
767.476	29510.11
767.812	29388.54
768.148	29545.14
768.485	29374.98
768.821	29360.29
769.157	29273.51
769.492	29324.13
769.828	29370.68
770.164	29123.68
770.5	29024.25
770.836	29192.16
771.171	29012.73
771.507	28997.81
771.842	28833.75
772.178	28782
772.513	28843.69
772.849	28631.04
773.184	28505.39
773.519	28528.9
773.855	28373.42
774.19	28221.79
774.525	27987.89
774.86	28009.14
775.195	27942.7
775.53	27967.1
775.865	27826.54
776.2	27705.64
776.535	27549.04
776.87	27527.57
777.205	27266.56
777.539	27205.77
777.874	27208.93
778.209	26855.72
778.543	26844.2
778.878	26606.91
779.212	26718.32
779.547	26529.18
779.881	26672.67
780.215	26407.6
780.55	26543.41
780.884	26292.8
781.218	26241.95
781.552	26243.08
781.886	26070.66
782.22	26006.48
782.554	25778.46
782.888	25653.94
783.222	25513.38
783.556	25433.16
783.889	25472.25
784.223	25415.98
784.557	25399.71
784.89	25255.54
785.224	25173.96
785.557	25038.82
785.891	25124.24
786.224	25003.11
786.558	25054.19
786.891	24901.87
787.224	24851.03
787.557	24811.71
787.891	24884.47
788.224	24902.1
788.557	24840.18
788.89	24777.81
789.223	24638.15
789.556	24514.54
789.888	24428.21
790.221	24428.21
790.554	24256.01
790.887	24115.45
791.219	24065.29
791.552	23971.05
791.884	23688.35
792.217	23795.24
792.549	23583.72
792.882	23524.06
793.214	23410.61
793.546	23545.52
793.879	23383.72
794.211	23099.44
794.543	23220.79
794.875	23155.25
795.207	23101.92
795.539	22984.64
795.871	22841.81
796.203	22614.02
796.535	22465.78
796.867	22412.67
797.198	22429.4
797.53	22290.64
797.862	22254.26
798.193	22238.44
798.525	22157.99
798.856	22155.96
799.188	21922.52
799.519	21802.52
799.85	21787.38
800.182	21814.27
800.513	21836.19
800.844	21512.81
801.175	21736.98
801.506	21828.73
801.837	21662.41
802.168	21652.02
802.499	21432.36
802.83	21332.93
803.161	21343.32
803.491	21362.76
803.822	21389.65
804.153	21249.31
804.483	21050
804.814	21101.97
805.145	21152.14
805.475	21111.46
805.805	20994.41
806.136	21065.82
806.466	20995.54
806.796	21001.19
807.126	20921.64
807.457	20800.51
807.787	20753.06
808.117	20655.43
808.447	20657.01
808.777	20753.96
809.107	20548.09
809.436	20527.75
809.766	20461.31
810.096	20482.55
810.426	20365.95
810.755	20239.85
811.085	20126.18
811.414	20116.46
811.744	20025.17
812.073	19983.36
812.403	19932.51
812.732	19706.98
813.061	19755.34
813.39	19616.59
813.719	19490.26
814.049	19616.59
814.378	19522.58
814.707	19470.83
815.036	19443.94
815.365	19238.29
815.693	19143.15
816.022	19129.82
816.351	19129.6
816.68	19086.89
817.008	19045.08
817.337	18942.71
817.665	18850.51
817.994	18921.47
818.322	18829.94
818.651	18806.67
818.979	18660.68
819.307	18766.44
819.636	18648.93
819.964	18588.37
820.292	18563.74
820.62	18671.98
820.948	18569.61
821.276	18643.06
821.604	18647.57
821.932	18697.74
822.259	18646.67
822.587	18695.93
822.915	18684.64
823.243	18672.88
823.57	18680.79
823.898	18679.89
824.225	18592.66
824.553	18623.85
824.88	18783.62
825.207	18857.96
825.535	18791.98
825.862	18832.88
826.189	18812.09
826.516	18794.24
826.843	18801.69
827.17	18875.37
827.497	18942.48
827.824	18799.44
828.151	18794.69
828.478	18875.14
828.805	18930.51
829.131	18748.59
829.458	18779.1
829.785	18635.82
830.111	18664.75
830.438	18784.97
830.764	18643.73
831.09	18695.26
831.417	18536.62
831.743	18643.51
832.069	18627.91
832.395	18488.48
832.722	18559.44
833.048	18399.45
833.374	18514.92
833.7	18288.26
834.026	18303.63
834.351	18301.82
834.677	18290.07
835.003	18348.37
835.329	18332.33
835.654	18277.87
835.98	18118.32
836.306	18119.68
836.631	18016.86
836.956	18051.88
837.282	18108.15
837.607	18075.84
837.932	17971.21
838.258	17915.62
838.583	17860.93
838.908	17836.07
839.233	17906.8
839.558	17780.48
839.883	17686.7
840.208	17800.82
840.533	17786.35
840.858	17819.57
841.182	17821.38
841.507	17750.65
841.832	17682.18
842.156	17745.9
842.481	17665.68
842.805	17762.63
843.13	17717.43
843.454	17648.05
843.778	17501.62
844.103	17566.93
844.427	17535.51
844.751	17538.68
845.075	17542.29
845.399	17463.88
845.723	17424.78
846.047	17380.72
846.371	17294.16
846.695	17293.94
847.019	17073.15
847.343	17126.03
847.666	16894.4
847.99	16810.79
848.313	16840.84
848.637	16662.54
848.96	16676.55
849.284	16700.51
849.607	16591.58
849.931	16505.71
850.254	16311.82
850.577	16298.26
850.9	16055.33
851.223	16106.62
851.546	16024.37
851.869	15931.26
852.192	15945.95
852.515	15752.51
852.838	15725.62
853.161	15678.39
853.483	15532.4
853.806	15560.42
854.129	15486.3
854.451	15400.65
854.774	15316.14
855.096	15298.28
855.419	15247.44
855.741	15185.97
856.063	15039.53
856.385	15041.12
856.708	15025.52
857.03	14967.67
857.352	14959.08
857.674	14933.32
857.996	14887.9
858.318	14826.66
858.64	14785.98
858.961	14776.72
859.283	14712.08
859.605	14632.99
859.926	14652.65
860.248	14585.31
860.57	14563.61
860.891	14600
861.212	14570.39
861.534	14528.13
861.855	14465.31
862.176	14516.16
862.498	14518.42
862.819	14419.89
863.14	14357.74
863.461	14390.29
863.782	14376.05
864.103	14488.59
864.424	14454.46
864.745	14406.33
865.065	14366.33
865.386	14349.38
865.707	14325.88
866.027	14367.46
866.348	14334.24
866.668	14368.59
866.989	14256.5
867.309	14184.64
867.63	14204.53
867.95	14225.32
868.27	14087.24
868.59	14148.94
868.91	14117.07
869.23	14078.2
869.55	14061.71
869.87	14025.55
870.19	13980.35
870.51	13955.04
870.83	13959.34
871.15	13908.94
871.469	13866.23
871.789	13877.98
872.109	13781.49
872.428	13690.19
872.748	13717.53
873.067	13614.26
873.386	13653.13
873.706	13697.87
874.025	13546.01
874.344	13512.79
874.663	13628.95
874.982	13505.11
875.301	13469.18
875.62	13343.76
875.939	13284.33
876.258	13339.69
876.577	13228.06
876.896	13305.12
877.214	13268.96
877.533	13198.68
877.852	13155.52
878.17	13165.23
878.489	13163.65
878.807	13149.87
879.125	13126.36
879.444	13139.24
879.762	13063.99
880.08	13044.11
880.398	12930.21
880.716	12971.57
881.034	12987.16
881.352	12982.86
881.67	12896.54
881.988	12865.35
882.306	12885.24
882.624	12908.06
882.941	12757.79
883.259	12868.97
883.577	12808.18
883.894	12828.97
884.212	12842.3
884.529	12791.91
884.846	12729.54
885.164	12755.53
885.481	12761.85
885.798	12801.17
886.115	12706.94
886.432	12662.2
886.75	12674.85
887.067	12591.69
887.383	12619.03
887.7	12591.46
888.017	12508.98
888.334	12601.86
888.651	12578.58
888.967	12534.97
889.284	12486.38
889.6	12525.48
889.917	12378.36
890.233	12358.02
890.55	12283.45
890.866	12299.94
891.182	12177.69
891.498	12150.12
891.815	12167.29
892.131	12129.33
892.447	12050.46
892.763	11991.7
893.079	11937.47
893.395	11976.34
893.71	11855.66
894.026	11815.21
894.342	11854.76
894.657	11690.24
894.973	11613.64
895.289	11634.43
895.604	11640.08
895.92	11563.69
896.235	11416.8
896.55	11513.52
896.865	11362.57
897.181	11326.19
897.496	11333.19
897.811	11253.19
898.126	11188.79
898.441	11143.59
898.756	11153.31
899.071	11072.18
899.386	11071.5
899.7	11028.11
900.015	10944.95
900.33	10864.73
900.644	10863.37
900.959	10917.38
901.273	10832.64
901.588	10728.23
901.902	10746.77
902.216	10747.9
902.531	10676.71
902.845	10661.57
903.159	10551.74
903.473	10599.88
903.787	10562.36
904.101	10438.75
904.415	10480.11
904.729	10427.68
905.042	10363.05
905.356	10314.46
905.67	10276.72
905.984	10325.53
906.297	10342.93
906.611	10266.78
906.924	10282.82
907.237	10139.1
907.551	10221.81
907.864	10186.33
908.177	10179.55
908.491	10106.33
908.804	10081.7
909.117	10057.74
909.43	9997.86
909.743	9902.27
910.056	9926.45
910.368	9933.23
910.681	9846.22
910.994	9830.18
911.307	9799.9
911.619	9777.75
911.932	9766.68
912.244	9709.73
912.557	9667.02
912.869	9603.29
913.181	9563.07
913.494	9588.38
913.806	9501.83
914.118	9399
914.43	9365.78
914.742	9390.64
915.054	9266.8
915.366	9262.28
915.678	9169.63
915.99	9169.18
916.302	9069.97
916.613	9022.07
916.925	9043.08
917.236	8998.56
917.548	8955.17
917.859	8934.38
918.171	8827.72
918.482	8838.34
918.794	8743.88
919.105	8789.53
919.416	8676.76
919.727	8682.86
920.038	8652.58
920.349	8590.44
920.66	8462.31
920.971	8520.84
921.282	8459.14
921.593	8375.3
921.903	8336.66
922.214	8267.28
922.525	8299.82
922.835	8255.98
923.146	8215.53
923.456	8192.03
923.767	8106.83
924.077	8122.2
924.387	8070.23
924.697	8078.14
925.008	7977.57
925.318	7983.22
925.628	7984.58
925.938	7875.65
926.248	7869.78
926.558	7840.63
926.867	7823
927.177	7794.98
927.487	7772.83
927.796	7687.64
928.106	7717.01
928.416	7639.28
928.725	7680.86
929.034	7606.28
929.344	7616.9
929.653	7557.02
929.962	7541.65
930.271	7565.15
930.581	7504.36
930.89	7463.01
931.199	7419.62
931.508	7438.6
931.817	7451.03
932.125	7370.81
932.434	7318.16
932.743	7316.57
933.051	7313.18
933.36	7243.81
933.669	7172.4
933.977	7232.96
934.286	7234.99
934.594	7066.18
934.902	7069.8
935.21	7069.8
935.519	7083.58
935.827	7109.35
936.135	7015.56
936.443	6958.39
936.751	6896.02
937.059	6902.12
937.367	6907.09
937.674	6933.98
937.982	6893.76
938.29	6770.15
938.597	6783.71
938.905	6705.29
939.213	6711.84
939.52	6626.42
939.827	6563.6
940.135	6572.19
940.442	6570.6
940.749	6531.06
941.056	6510.72
941.363	6420.55
941.67	6446.77
941.977	6386.43
942.284	6331.74
942.591	6319.09
942.898	6312.53
943.205	6232.08
943.511	6175.59
943.818	6173.78
944.125	6130.16
944.431	6135.81
944.738	6106.66
945.044	6089.26
945.35	6010.39
945.657	6053.56
945.963	6026.89
946.269	5983.95
946.575	5959.32
946.881	5941.02
947.187	5926.33
947.493	5840.23
947.799	5856.95
948.105	5822.15
948.41	5786.22
948.716	5804.97
949.022	5755.94
949.327	5777.18
949.633	5656.96
949.938	5677.29
950.244	5607.24
950.549	5585.32
950.854	5567.47
951.16	5544.64
951.465	5553.91
951.77	5442.27
952.075	5525.89
952.38	5489.73
952.685	5443.85
952.99	5410.63
953.294	5444.98
953.599	5385.55
953.904	5362.27
954.209	5368.15
954.513	5353.46
954.818	5348.72
955.122	5336.06
955.426	5301.48
955.731	5320.24
956.035	5291.09
956.339	5255.61
956.643	5259.45
956.948	5264.88
957.252	5250.64
957.556	5199.79
957.86	5162.05
958.163	5132.68
958.467	5113.47
958.771	5097.87
959.075	5089.97
959.378	5065.78
959.682	5028.5
959.985	5047.48
960.289	5000.48
960.592	4980.59
960.896	4927.26
961.199	4904.21
961.502	4929.07
961.805	4878.45
962.108	4859.01
962.411	4846.36
962.714	4850.2
963.017	4790.09
963.32	4778.33
963.623	4761.39
963.926	4751.89
964.228	4742.86
964.531	4664.89
964.833	4715.74
965.136	4634.84
965.438	4631.22
965.741	4601.62
966.043	4588.96
966.345	4583.99
966.648	4532.69
966.95	4516.19
967.252	4472.58
967.554	4458.12
967.856	4444.11
968.158	4401.62
968.46	4384.45
968.761	4353.26
969.063	4321.17
969.365	4301.96
969.666	4298.8
969.968	4236.88
970.269	4242.3
970.571	4235.52
970.872	4185.81
971.174	4190.78
971.475	4156.2
971.776	4186.49
972.077	4138.35
972.378	4128.86
972.679	4144.68
972.98	4108.52
973.281	4057.9
973.582	4016.55
973.883	4015.87
974.183	3995.76
974.484	3930.9
974.785	3941.52
975.085	3947.85
975.386	3954.18
975.686	3911.69
975.986	3899.71
976.287	3881.18
976.587	3818.36
976.887	3828.08
977.187	3833.05
977.487	3839.38
977.787	3819.04
978.087	3805.71
978.387	3748.76
978.687	3753.95
978.987	3760.06
979.286	3779.94
979.586	3730.9
979.885	3710.57
980.185	3728.87
980.484	3677.12
980.784	3648.87
981.083	3676.44
981.382	3616.33
981.682	3659.04
981.981	3600.51
982.28	3589.89
982.579	3605.48
982.878	3585.15
983.177	3538.14
983.475	3586.05
983.774	3542.21
984.073	3465.83
984.372	3495.43
984.67	3465.37
984.969	3501.08
985.267	3510.8
985.566	3490.01
985.864	3476.9
986.162	3474.19
986.461	3446.39
986.759	3419.05
987.057	3400.97
987.355	3350.12
987.653	3377.92
987.951	3345.6
988.249	3317.58
988.547	3293.4
988.844	3269.67
989.142	3288.2
989.44	3248.66
989.737	3214.08
990.035	3242.33
990.332	3191.71
990.63	3195.78
990.927	3176.57
991.224	3160.98
991.521	3152.39
991.819	3127.08
992.116	3059.06
992.413	3079.85
992.71	3051.15
993.006	3077.14
993.303	3047.53
993.6	3043.47
993.897	2992.85
994.193	2978.83
994.49	2991.72
994.787	2982.9
995.083	2937.25
995.379	2917.82
995.676	2906.52
995.972	2871.72
996.268	2891.6
996.565	2867.42
996.861	2855
997.157	2824.49
997.453	2819.06
997.749	2828.78
998.044	2796.24
998.34	2776.58
998.636	2735.9
998.932	2713.76
999.227	2704.94
999.523	2708.11
999.818	2686.64
1000.114	2638.05
1000.409	2642.35
1000.704	2671.05
1001	2630.59
1001.295	2621.78
1001.59	2587.88
1001.885	2593.08
1002.18	2576.13
1002.475	2559.41
1002.77	2555.34
1003.065	2510.82
1003.359	2535.46
1003.654	2532.07
1003.949	2501.56
1004.243	2499.75
1004.538	2480.54
1004.832	2479.41
1005.127	2479.64
1005.421	2451.62
1005.715	2425.4
1006.009	2453.88
1006.304	2411.17
1006.598	2379.08
1006.892	2364.84
1007.186	2379.3
1007.48	2333.2
1007.773	2343.14
1008.067	2295.46
1008.361	2282.36
1008.655	2304.95
1008.948	2282.36
1009.242	2307.89
1009.535	2309.7
1009.829	2263.82
1010.122	2273.09
1010.415	2230.15
1010.708	2234.9
1011.001	2224.5
1011.295	2222.24
1011.588	2188.12
1011.881	2156.71
1012.173	2161
1012.466	2166.65
1012.759	2153.32
1013.052	2135.69
1013.344	2132.3
1013.637	2085.52
1013.93	2090.04
1014.222	2126.43
1014.514	2076.03
1014.807	2071.97
1015.099	2057.5
1015.391	2048.69
1015.683	2009.14
1015.976	2026.32
1016.268	1993.1
1016.56	2010.72
1016.851	2001.23
1017.143	1959.65
1017.435	1930.05
1017.727	1952.19
1018.018	1965.3
1018.31	1919.88
1018.602	1897.51
1018.893	1884.4
1019.185	1899.31
1019.476	1865.19
1019.767	1860.67
1020.058	1833.55
1020.35	1852.08
1020.641	1795.59
1020.932	1791.97
1021.223	1774.35
1021.514	1769.6
1021.804	1759.66
1022.095	1735.93
1022.386	1764.4
1022.677	1728.25
1022.967	1716.72
1023.258	1709.04
1023.548	1707.46
1023.839	1663.84
1024.129	1662.48
1024.419	1671.98
1024.709	1653.9
1025	1608.47
1025.29	1614.8
1025.58	1590.17
1025.87	1600.11
1026.16	1577.97
1026.449	1578.87
1026.739	1555.59
1027.029	1549.27
1027.319	1537.97
1027.608	1525.76
1027.898	1526.89
1028.187	1509.72
1028.477	1518.53
1028.766	1507.91
1029.055	1456.84
1029.344	1461.36
1029.634	1464.52
1029.923	1452.55
1030.212	1442.6
1030.501	1429.04
1030.79	1386.33
1031.078	1411.42
1031.367	1378.2
1031.656	1383.62
1031.945	1391.08
1032.233	1389.95
1032.522	1370.97
1032.81	1323.28
1033.099	1325.32
1033.387	1310.4
1033.675	1308.14
1033.963	1330.97
1034.251	1324.87
1034.54	1324.87
1034.828	1263.17
1035.116	1298.43
1035.403	1272.66
1035.691	1272.89
1035.979	1276.28
1036.267	1264.3
1036.554	1245.77
1036.842	1247.58
1037.129	1243.96
1037.417	1221.14
1037.704	1201.93
1037.992	1197.64
1038.279	1188.15
1038.566	1182.27
1038.853	1182.27
1039.14	1182.27
