Data from blue_clamp_base_FLMS001491_00021.txt Node
Date: Wed Feb 08 15:15:45 GMT 2017
User: dcchb
Spectrometer: FLMS00149
Trigger mode: 0
Integration Time (sec): 2.000000E-2
Scans to average: 10
Electric dark correction enabled: true
Nonlinearity correction enabled: false
Boxcar width: 0
XAxis mode: Wavelengths
Number of Pixels in Spectrum: 2048
>>>>>Begin Spectral Data<<<<<
341.393	-2.33
341.776	-2.33
342.16	-2.33
342.543	-63.8
342.927	-62.22
343.31	-73.97
343.693	-55.89
344.077	-72.39
344.46	-64.93
344.843	-59.05
345.226	-49.79
345.61	-21.54
345.993	-23.8
346.376	-11.82
346.759	8.29
347.142	34.96
347.525	39.02
347.908	53.94
348.291	89.42
348.674	101.85
349.057	105.69
349.44	121.06
349.823	131.9
350.206	160.15
350.588	187.5
350.971	203.31
351.354	212.81
351.737	233.6
352.119	246.48
352.502	256.42
352.884	262.07
353.267	273.82
353.65	292.35
354.032	294.61
354.414	291
354.797	304.55
355.179	320.82
355.562	318.11
355.944	316.53
356.326	329.41
356.709	314.72
357.091	315.85
357.473	328.73
357.855	347.04
358.238	332.8
358.62	328.28
359.002	342.97
359.384	338.9
359.766	335.06
360.148	334.84
360.53	317.89
360.912	318.34
361.294	333.48
361.676	312.92
362.057	315.63
362.439	325.34
362.821	317.21
363.203	320.82
363.584	337.1
363.966	313.14
364.348	316.98
364.729	322.18
365.111	318.79
365.493	311.11
365.874	308.4
366.256	316.08
366.637	289.41
367.019	277.44
367.4	316.31
367.781	303.42
368.163	311.79
368.544	316.76
368.925	301.62
369.306	305.46
369.688	305.46
370.069	309.53
370.45	308.17
370.831	324.44
371.212	309.75
371.593	308.85
371.974	299.13
372.355	289.64
372.736	307.04
373.117	309.53
373.498	313.82
373.879	322.18
374.26	302.97
374.641	294.61
375.021	292.35
375.402	314.27
375.783	307.04
376.163	303.2
376.544	322.18
376.925	308.17
377.305	307.27
377.686	332.12
378.066	316.31
378.447	321.05
378.827	317.21
379.208	350.2
379.588	326.47
379.968	317.89
380.349	334.38
380.729	332.8
381.109	316.31
381.489	345.23
381.87	338.68
382.25	354.95
382.63	328.73
383.01	346.36
383.39	332.58
383.77	331.67
384.15	321.5
384.53	338.9
384.91	321.95
385.29	357.21
385.67	352.46
386.049	341.62
386.429	348.85
386.809	359.47
387.189	335.74
387.568	330.77
387.948	354.72
388.328	357.21
388.707	367.38
389.087	378.68
389.466	366.25
389.846	339.81
390.225	370.09
390.605	352.69
390.984	364.44
391.363	355.63
391.743	369.41
392.122	370.77
392.501	392.24
392.881	375.51
393.26	379.81
393.639	379.58
394.018	391.78
394.397	375.29
394.776	405.57
395.155	387.94
395.534	403.53
395.913	412.57
396.292	432.69
396.671	408.73
397.05	405.34
397.429	403.53
397.808	413.93
398.186	403.99
398.565	419.35
398.944	419.35
399.323	424.55
399.701	423.42
400.08	433.36
400.458	414.38
400.837	441.5
401.215	450.31
401.594	444.66
401.972	456.87
402.351	481.72
402.729	441.05
403.107	473.82
403.486	483.31
403.864	482.85
404.242	474.72
404.62	480.37
404.999	465.23
405.377	474.04
405.755	500.48
406.133	490.54
406.511	496.19
406.889	497.09
407.267	534.15
407.645	511.33
408.023	514.72
408.401	532.34
408.779	536.19
409.156	560.37
409.534	561.5
409.912	568.05
410.29	564.43
410.667	566.92
411.045	569.86
411.422	576.41
411.8	584.09
412.178	587.26
412.555	601.95
412.933	599.01
413.31	608.27
413.687	604.43
414.065	620.25
414.442	634.49
414.819	613.25
415.197	641.95
415.574	647.37
415.951	653.25
416.328	678.78
416.705	665.22
417.082	643.53
417.46	659.8
417.837	688.95
418.214	667.71
418.591	682.4
418.967	689.63
419.344	689.18
419.721	709.29
420.098	728.05
420.475	717.42
420.852	736.86
421.228	735.73
421.605	739.57
421.982	732.79
422.358	753.36
422.735	744.77
423.111	754.03
423.488	792.22
423.864	791.1
424.241	786.58
424.617	810.08
424.994	782.51
425.37	802.85
425.746	827.93
426.123	819.57
426.499	817.31
426.875	852.34
427.251	828.61
427.627	883.75
428.003	875.61
428.379	875.39
428.756	906.35
429.132	904.31
429.507	923.75
429.883	910.19
430.259	947.7
430.635	954.48
431.011	957.42
431.387	988.83
431.763	972.11
432.138	975.5
432.514	1015.95
432.89	989.51
433.265	1012.78
433.641	1031.77
434.016	1055.04
434.392	1054.36
434.767	1114.93
435.143	1071.09
435.518	1095.04
435.894	1104.08
436.269	1135.04
436.644	1163.51
437.02	1146.11
437.395	1148.6
437.77	1179.56
438.145	1215.94
438.52	1195.38
438.895	1185.89
439.271	1225.43
439.646	1217.07
440.021	1269.95
440.395	1269.95
440.77	1292.55
441.145	1293.68
441.52	1319.44
441.895	1280.35
442.27	1324.64
442.645	1337.75
443.019	1330.97
443.394	1360.57
443.769	1365.32
444.143	1352.66
444.518	1371.87
444.892	1407.12
445.267	1361.25
445.641	1407.8
446.016	1440.57
446.39	1417.52
446.764	1441.93
447.139	1462.49
447.513	1450.29
447.887	1467.46
448.262	1466.56
448.636	1480.34
449.01	1486.9
449.384	1497.97
449.758	1548.59
450.132	1554.69
450.506	1579.77
450.88	1555.82
451.254	1558.31
451.628	1620
452.002	1619.32
452.376	1617.97
452.75	1609.38
453.123	1648.93
453.497	1705.65
453.871	1713.56
454.244	1717.85
454.618	1754.69
454.992	1765.53
455.365	1728.92
455.739	1802.59
456.112	1813.89
456.486	1809.6
456.859	1830.16
457.232	1871.97
457.606	1893.44
457.979	1908.58
458.352	1930.73
458.725	1958.75
459.099	1980.44
459.472	2031.51
459.845	2004.4
460.218	2031.74
460.591	2048.24
460.964	2057.95
461.337	2115.81
461.71	2130.95
462.083	2139.31
462.456	2146.99
462.829	2164.62
463.201	2196.93
463.574	2214.79
463.947	2252.53
464.32	2312.18
464.692	2273.54
465.065	2312.64
465.438	2353.09
465.81	2363.94
466.183	2391.96
466.555	2422.92
466.928	2443.48
467.3	2430.6
467.672	2481.22
468.045	2524.16
468.417	2563.25
468.789	2578.84
469.161	2598.51
469.534	2605.96
469.906	2646.64
470.278	2674.66
470.65	2747.88
471.022	2753.53
471.394	2826.75
471.766	2820.19
472.138	2829.91
472.51	2881.66
472.882	2942.22
473.253	2972.51
473.625	3001.21
473.997	3018.61
474.369	3072.16
474.74	3076.68
475.112	3146.97
475.484	3202.78
475.855	3243.23
476.227	3258.83
476.598	3318.03
476.97	3368.43
477.341	3429.67
477.713	3468.54
478.084	3467.41
478.455	3556.22
478.827	3593.06
479.198	3640.74
479.569	3640.74
479.94	3777.46
480.311	3800.51
480.682	3866.27
481.053	3936.55
481.424	3940.39
481.795	3968.86
482.166	4039.15
482.537	4073.72
482.908	4153.94
483.279	4170.22
483.65	4249.31
484.021	4287.95
484.391	4346.71
484.762	4346.93
485.133	4370.44
485.503	4415.63
485.874	4459.47
486.244	4518.23
486.615	4575.63
486.985	4645
487.356	4727.71
487.726	4679.58
488.097	4776.75
488.467	4774.72
488.837	4905.56
489.207	4881.61
489.578	4937.88
489.948	4997.31
490.318	5025.33
490.688	5105.78
491.058	5118.66
491.428	5123.86
491.798	5157.99
492.168	5277.3
492.538	5313.91
492.908	5335.83
493.278	5339.22
493.648	5307.13
494.017	5361.14
494.387	5479.56
494.757	5472.78
495.126	5530.41
495.496	5524.53
495.866	5539.67
496.235	5572.44
496.605	5635.94
496.974	5564.53
497.344	5673
497.713	5669.38
498.082	5640.01
498.452	5747.12
498.821	5761.81
499.19	5741.93
499.559	5833.45
499.928	5801.13
500.298	5873.22
500.667	5891.98
501.036	5836.84
501.405	5911.19
501.774	5888.59
502.143	5969.49
502.512	5950.28
502.88	5950.28
503.249	5967.91
503.618	6007.68
503.987	6029.6
504.356	6077.06
504.724	6030.28
505.093	6063.5
505.462	6089.03
505.83	6121.35
506.199	6157.51
506.567	6226.21
506.936	6215.59
507.304	6275.7
507.672	6336.94
508.041	6293.55
508.409	6307.79
508.777	6379.65
509.145	6427.78
509.514	6368.12
509.882	6399.08
510.25	6389.59
510.618	6407.22
510.986	6435.24
511.354	6472.75
511.722	6551.62
512.09	6567.21
512.458	6542.81
512.826	6575.12
513.193	6601.79
513.561	6579.87
513.929	6593.43
514.297	6662.35
514.664	6707.78
515.032	6660.32
515.4	6733.99
515.767	6740.54
516.135	6765.18
516.502	6742.35
516.869	6827.09
517.237	6777.6
517.604	6799.52
517.972	6794.33
518.339	6895.34
518.706	6823.03
519.073	6927.66
519.44	6976.02
519.808	6962.68
520.175	6996.36
520.542	7013.98
520.909	7015.34
521.276	7016.02
521.643	7079.97
522.009	7114.09
522.376	7112.06
522.743	7131.04
523.11	7188.89
523.477	7249.68
523.843	7246.07
524.21	7286.52
524.577	7329.23
524.943	7347.76
525.31	7384.82
525.676	7406.97
526.043	7467.08
526.409	7455.78
526.776	7540.97
527.142	7517.47
527.508	7495.1
527.874	7605.15
528.241	7647.64
528.607	7670.69
528.973	7737.35
529.339	7693.96
529.705	7756.56
530.071	7805.6
530.437	7810.57
530.803	7909.33
531.169	7923.11
531.535	7930.34
531.901	7910
532.267	7990.23
532.632	7945.94
532.998	7963.11
533.364	8028.87
533.73	8050.34
534.095	8127.63
534.461	8116.78
534.826	8162.65
535.192	8156.78
535.557	8250.11
535.923	8219.37
536.288	8213.95
536.653	8279.26
537.019	8270.67
537.384	8257.11
537.749	8303.89
538.114	8315.64
538.479	8266.83
538.845	8360.39
539.21	8280.84
539.575	8346.83
539.94	8353.83
540.305	8460.95
540.67	8372.36
541.034	8427.5
541.399	8437.45
541.764	8457.56
542.129	8495.07
542.494	8479.03
542.858	8493.04
543.223	8540.04
543.587	8534.85
543.952	8538.69
544.316	8593.38
544.681	8562.64
545.045	8591.57
545.41	8632.24
545.774	8681.06
546.138	8686.93
546.503	8638.57
546.867	8674.96
547.231	8722.41
547.595	8758.12
547.959	8760.15
548.324	8766.48
548.688	8758.8
549.052	8833.6
549.416	8768.06
549.779	8836.08
550.143	8817.55
550.507	8899.58
550.871	8816.19
551.235	8815.29
551.599	8919.69
551.962	8806.03
552.326	8906.36
552.689	8949.07
553.053	8955.63
553.417	8928.06
553.78	9005.79
554.143	8971.9
554.507	8974.16
554.87	9043.99
555.234	9046.7
555.597	9047.6
555.96	8986.13
556.323	9035.85
556.686	9173.7
557.05	9099.58
557.413	9166.47
557.776	9147.26
558.139	9214.83
558.502	9214.15
558.865	9236.75
559.228	9360.14
559.59	9227.03
559.953	9288.5
560.316	9315.62
560.679	9285.56
561.041	9277.43
561.404	9380.02
561.767	9410.98
562.129	9385.9
562.492	9446.91
562.854	9427.7
563.217	9447.14
563.579	9580.02
563.941	9537.76
564.304	9529.62
564.666	9731.65
565.028	9637.64
565.39	9579.79
565.753	9684.87
566.115	9711.31
566.477	9716.51
566.839	9748.37
567.201	9845.32
567.563	9829.95
567.925	9842.16
568.287	9823.63
568.648	9886
569.01	9900.91
569.372	9990.85
569.734	9933.45
570.095	10052.09
570.457	10101.81
570.819	10056.16
571.18	10050.06
571.542	10118.76
571.903	10158.53
572.265	10141.81
572.626	10130.96
572.987	10157.85
573.349	10176.38
573.71	10298.64
574.071	10288.02
574.432	10310.84
574.794	10361.92
575.155	10365.98
575.516	10387.9
575.877	10391.29
576.238	10455.7
576.599	10431.75
576.96	10443.5
577.32	10472.87
577.681	10474.23
578.042	10550.39
578.403	10624.51
578.763	10565.75
579.124	10568.92
579.485	10556.26
579.845	10577.5
580.206	10652.76
580.566	10650.95
580.927	10624.06
581.287	10691.4
581.648	10649.59
582.008	10776.6
582.368	10691.4
582.728	10709.25
583.089	10714
583.449	10709.03
583.809	10736.82
584.169	10740.66
584.529	10745.41
584.889	10808.46
585.249	10735.47
585.609	10786.99
585.969	10862.24
586.329	10750.16
586.688	10836.03
587.048	10758.06
587.408	10754
587.768	10805.07
588.127	10842.81
588.487	10770.04
588.846	10900.43
589.206	10812.07
589.565	10852.07
589.925	10877.16
590.284	10815.01
590.643	10822.24
591.003	10865.41
591.362	10975.01
591.721	10913.09
592.08	10937.49
592.44	10871.73
592.799	10948.12
593.158	10882.13
593.517	10927.1
593.876	10985.4
594.235	10938.17
594.593	10914.22
594.952	11015.01
595.311	10980.21
595.67	11007.32
596.029	10984.73
596.387	11082.8
596.746	11050.03
597.104	10980.88
597.463	11032.63
597.822	11082.35
598.18	10968
598.538	10993.54
598.897	11102.46
599.255	11013.88
599.613	11075.8
599.972	11099.52
600.33	11071.05
600.688	11008.68
601.046	11034.44
601.404	11086.87
601.762	11141.56
602.12	11196.92
602.478	11146.08
602.836	11187.66
603.194	11075.8
603.552	11138.17
603.91	11101.56
604.268	11158.51
604.625	11110.37
604.983	11199.41
605.341	11073.08
605.698	11159.64
606.056	11174.1
606.413	11071.5
606.771	11160.99
607.128	11257.71
607.485	11174.32
607.843	11220.65
608.2	11252.74
608.557	11255
608.914	11285.51
609.272	11276.47
609.629	11313.53
609.986	11353.53
610.343	11264.72
610.7	11377.71
611.057	11402.57
611.414	11333.64
611.771	11367.09
612.127	11311.72
612.484	11414.54
612.841	11402.79
613.198	11406.18
613.554	11419.29
613.911	11451.83
614.267	11447.09
614.624	11474.88
614.98	11402.12
615.337	11532.51
615.693	11466.29
616.05	11433.75
616.406	11623.8
616.762	11542.9
617.118	11567.31
617.475	11578.61
617.831	11610.7
618.187	11555.78
618.543	11628.1
618.899	11694.76
619.255	11640.53
619.611	11653.63
619.967	11584.71
620.323	11762.78
620.678	11667.42
621.034	11687.76
621.39	11709.23
621.746	11634.2
622.101	11753.97
622.457	11790.81
622.812	11704.03
623.168	11764.14
623.523	11773.18
623.879	11901.09
624.234	11699.51
624.589	11851.6
624.945	11795.1
625.3	11750.13
625.655	11829.67
626.01	11827.19
626.365	11834.42
626.72	11883.01
627.075	11850.69
627.43	11887.3
627.785	11925.72
628.14	11905.83
628.495	11968.2
628.85	11945.83
629.205	11901.76
629.559	11898.6
629.914	11870.13
630.269	11921.65
630.623	11990.8
630.978	11874.19
631.332	11941.31
631.687	12020.86
632.041	11950.8
632.396	12019.73
632.75	11944.25
633.104	12003.68
633.459	11961.87
633.813	11976.56
634.167	12106.5
634.521	11967.52
634.875	11985.15
635.229	12005.49
635.583	11969.11
635.937	11970.24
636.291	11913.74
636.645	11996.68
636.999	11916.45
637.352	12054.75
637.706	12031.93
638.06	12038.48
638.413	11992.83
638.767	12001.87
639.121	12087.07
639.474	12042.32
639.828	11992.16
640.181	12003
640.534	12003.46
640.888	12051.59
641.241	11991.03
641.594	11986.73
641.947	12044.58
642.301	12092.49
642.654	12087.75
643.007	12131.81
643.36	12085.26
643.713	12058.82
644.066	12102.21
644.419	12072.83
644.771	12066.05
645.124	12033.51
645.477	12013.17
645.83	11990.12
646.182	11919.62
646.535	11867.87
646.888	11800.98
647.24	11723.24
647.593	11790.13
647.945	11790.35
648.298	11733.41
648.65	11671.71
649.002	11788.77
649.355	11882.55
649.707	11975.43
650.059	12042.78
650.411	12143.11
650.763	12124.36
651.115	12257.23
651.467	12204.35
651.819	12259.72
652.171	12238.93
652.523	12308.31
652.875	12274.86
653.227	12193.06
653.578	12397.8
653.93	12303.79
654.282	12269.21
654.633	12238.03
654.985	12285.03
655.337	12352.6
655.688	12305.82
656.039	12347.85
656.391	12291.58
656.742	12383.56
657.094	12412.71
657.445	12390.11
657.796	12411.35
658.147	12382.65
658.498	12356.44
658.849	12383.56
659.2	12351.02
659.551	12359.6
659.902	12503.78
660.253	12484.12
660.604	12434.18
660.955	12493.39
661.306	12547.4
661.656	12459.26
662.007	12442.31
662.358	12433.73
662.708	12439.6
663.059	12500.17
663.409	12346.27
663.76	12511.69
664.11	12522.54
664.461	12358.02
664.811	12468.98
665.161	12468.3
665.511	12490.22
665.862	12376.33
666.212	12461.75
666.562	12496.55
666.912	12469.21
667.262	12485.02
667.612	12515.31
667.962	12401.19
668.312	12406.38
668.662	12419.94
669.011	12374.75
669.361	12407.51
669.711	12290.68
670.06	12324.8
670.41	12312.15
670.76	12334.97
671.109	12324.8
671.459	12287.74
671.808	12182.43
672.157	12188.99
672.507	12215.43
672.856	12090.46
673.205	12233.05
673.554	12127.97
673.904	12168.87
674.253	12238.25
674.602	12108.76
674.951	11939.28
675.3	11833.97
675.649	12001.2
675.998	11986.05
676.346	11973.4
676.695	11967.3
677.044	11917.58
677.393	11999.61
677.741	11929.79
678.09	11897.02
678.438	11836
678.787	11955.77
679.135	11868.54
679.484	11786.51
679.832	11832.61
680.181	11702.67
680.529	11800.98
680.877	11734.08
681.225	11743.12
681.573	11753.52
681.922	11631.04
682.27	11616.57
682.618	11573.41
682.966	11536.58
683.314	11615.9
683.661	11546.07
684.009	11485.05
684.357	11471.72
684.705	11472.85
685.053	11472.17
685.4	11465.39
685.748	11334.09
686.095	11357.37
686.443	11281.21
686.79	11343.36
687.138	11280.31
687.485	11290.71
687.832	11275.11
688.18	11356.01
688.527	11255.23
688.874	11250.93
689.221	11154.89
689.568	11198.73
689.915	11186.98
690.262	11165.51
690.609	11166.64
690.956	11158.73
691.303	11158.28
691.65	11029.24
691.997	11101.11
692.344	11067.66
692.69	11034.44
693.037	11024.27
693.383	10941.11
693.73	11008.45
694.077	10962.58
694.423	10953.09
694.769	10858.63
695.116	10889.13
695.462	10905.41
695.808	10844.16
696.155	10906.08
696.501	10831.06
696.847	10810.94
697.193	10728.23
697.539	10706.77
697.885	10690.5
698.231	10665.86
698.577	10737.5
698.923	10661.8
699.269	10655.47
699.614	10689.59
699.96	10597.84
700.306	10623.15
700.651	10606.66
700.997	10618.86
701.342	10558.97
701.688	10543.15
702.033	10509.26
702.379	10525.98
702.724	10489.82
703.069	10571.18
703.415	10481.91
703.76	10507.45
704.105	10493.89
704.45	10489.37
704.795	10502.48
705.14	10438.07
705.485	10389.03
705.83	10440.78
706.175	10442.59
706.52	10445.98
706.865	10411.41
707.209	10390.62
707.554	10413.89
707.899	10531.4
708.243	10326.21
708.588	10306.78
708.932	10248.25
709.277	10263.39
709.621	10284.63
709.966	10257.29
710.31	10243.73
710.654	10195.37
710.998	10263.39
711.342	10307.91
711.687	10183.62
712.031	10167.57
712.375	10187.68
712.719	10170.74
713.063	10178.64
713.407	10212.77
713.75	10145.2
714.094	10195.82
714.438	10119.89
714.782	10170.96
715.125	10099.55
715.469	10145.43
715.812	10055.03
716.156	9966.22
716.499	10068.14
716.843	10126.67
717.186	10028.59
717.53	10098.65
717.873	10108.82
718.216	10018.87
718.559	10036.5
718.902	9973
719.246	9997.41
719.589	9988.82
719.932	9993.79
720.275	9970.06
720.617	10012.1
720.96	9972.77
721.303	9979.1
721.646	9954.92
721.989	9860.24
722.331	9933.68
722.674	9934.58
723.016	10009.38
723.359	9962.38
723.701	9955.37
724.044	9893.45
724.386	9908.6
724.729	9933.68
725.071	9859.78
725.413	9927.58
725.755	9891.87
726.097	9878.77
726.439	9779.33
726.782	9841.7
727.124	9889.16
727.465	9830.63
727.807	9869.27
728.149	9812.33
728.491	9894.13
728.833	9881.25
729.175	9869.27
729.516	9897.97
729.858	9890.97
730.199	9902.49
730.541	9887.13
730.882	9876.51
731.224	9945.43
731.565	9943.4
731.906	9919.22
732.248	9926.9
732.589	9822.27
732.93	9853.68
733.271	9853.91
733.612	9849.16
733.953	9908.82
734.294	9884.87
734.635	9844.19
734.976	9925.77
735.317	9856.85
735.658	9873.12
735.999	9931.19
736.339	9932.55
736.68	9937.3
737.021	9894.13
737.361	9948.37
737.702	9980.01
738.042	9967.12
738.383	9972.55
738.723	9935.94
739.063	9952.44
739.404	10036.95
739.744	10005.54
740.084	9999.21
740.424	10055.26
740.764	10070.4
741.104	10136.39
741.444	10090.06
741.784	10037.41
742.124	10164.63
742.464	10115.14
742.804	10164.18
743.143	10097.74
743.483	10171.41
743.823	10125.99
744.162	10211.64
744.502	10258.19
744.841	10257.29
745.181	10306.78
745.52	10314.01
745.86	10281.01
746.199	10361.01
746.538	10355.59
746.877	10314.46
747.216	10392.42
747.556	10343.84
747.895	10362.37
748.234	10373.22
748.573	10462.71
748.911	10480.56
749.25	10481.01
749.589	10395.36
749.928	10531.86
750.267	10583.83
750.605	10626.09
750.944	10628.58
751.283	10618.63
751.621	10633.32
751.96	10655.47
752.298	10605.98
752.636	10735.24
752.975	10646.66
753.313	10641.68
753.651	10683.94
753.989	10689.37
754.327	10754.45
754.666	10718.52
755.004	10821.34
755.342	10846.2
755.679	10736.6
756.017	10830.83
756.355	10841.9
756.693	10861.34
757.031	10906.31
757.368	10830.61
757.706	10874.45
758.044	10885.29
758.381	10964.16
758.719	10949.25
759.056	11007.1
759.394	11013.2
759.731	10897.27
760.068	10925.52
760.405	11004.16
760.743	10984.05
761.08	11035.35
761.417	10965.74
761.754	10934.56
762.091	11016.36
762.428	10919.87
762.765	11055.91
763.102	11044.61
763.438	11110.15
763.775	10968
764.112	11077.6
764.449	11098.39
764.785	11017.94
765.122	11094.33
765.458	11093.2
765.795	11124.38
766.131	11129.35
766.467	11176.36
766.804	11092.29
767.14	11061.79
767.476	11097.72
767.812	11113.31
768.148	11141.33
768.485	11063.14
768.821	11110.6
769.157	11049.81
769.492	11097.49
769.828	11098.17
770.164	11076.02
770.5	11120.31
770.836	11104.27
771.171	11106.76
771.507	11045.51
771.842	11047.32
772.178	11049.81
772.513	11078.51
772.849	11085.06
773.184	11049.36
773.519	11027.21
773.855	11099.75
774.19	11087.1
774.525	10999.64
774.86	11035.57
775.195	11029.47
775.53	11000.32
775.865	10993.31
776.2	10981.34
776.535	10966.65
776.87	11010.26
777.205	10933.2
777.539	10990.37
777.874	11016.81
778.209	10917.38
778.543	10948.34
778.878	10975.69
779.212	10940.66
779.547	10910.38
779.881	11023.82
780.215	10891.62
780.55	10893.65
780.884	10873.09
781.218	10945.4
781.552	10942.69
781.886	10842.58
782.22	10804.62
782.554	10849.59
782.888	10794
783.222	10736.6
783.556	10759.19
783.889	10781.79
784.223	10743.38
784.557	10734.34
784.89	10801.68
785.224	10695.47
785.557	10733.66
785.891	10689.82
786.224	10684.39
786.558	10722.59
786.891	10651.85
787.224	10643.49
787.557	10578.86
787.891	10589.93
788.224	10582.48
788.557	10641.46
788.89	10640.33
789.223	10610.05
789.556	10602.36
789.888	10535.7
790.221	10615.02
790.554	10478.52
790.887	10556.94
791.219	10516.72
791.552	10457.96
791.884	10403.72
792.217	10487.34
792.549	10457.51
792.882	10434.68
793.214	10419.77
793.546	10391.75
793.879	10308.58
794.211	10316.04
794.543	10394.46
794.875	10319.21
795.207	10467
795.539	10356.72
795.871	10318.98
796.203	10264.29
796.535	10166.89
796.867	10265.2
797.198	10238.08
797.53	10269.04
797.862	10181.36
798.193	10265.87
798.525	10163.05
798.856	10237.63
799.188	10095.03
799.519	10071.08
799.85	10054.35
800.182	10116.05
800.513	10147.69
800.844	10108.82
801.175	10097.29
801.506	10067.24
801.837	10120.79
802.168	10064.98
802.499	10031.76
802.83	10008.03
803.161	9974.13
803.491	10054.13
803.822	10016.39
804.153	9902.95
804.483	9879.9
804.814	9836.51
805.145	9879.67
805.475	9842.16
805.805	9872.44
806.136	9860.24
806.466	9902.04
806.796	9834.02
807.126	9739.11
807.457	9755.38
807.787	9763.97
808.117	9749.05
808.447	9709.73
808.777	9742.05
809.107	9815.94
809.436	9661.82
809.766	9718.77
810.096	9710.63
810.426	9673.35
810.755	9671.31
811.085	9657.75
811.414	9670.41
811.744	9598.55
812.073	9621.37
812.403	9599.45
812.732	9501.37
813.061	9574.14
813.39	9508.83
813.719	9412.34
814.049	9524.65
814.378	9584.76
814.707	9528.94
815.036	9485.78
815.365	9435.16
815.693	9397.2
816.022	9355.84
816.351	9351.55
816.68	9334.83
817.008	9401.94
817.337	9287.37
817.665	9263.19
817.994	9295.96
818.322	9291.89
818.651	9246.47
818.979	9226.81
819.307	9307.48
819.636	9245.34
819.964	9206.47
820.292	9164.66
820.62	9213.92
820.948	9235.84
821.276	9215.73
821.604	9207.37
821.932	9233.58
822.259	9232.23
822.587	9282.85
822.915	9222.06
823.243	9266.8
823.57	9227.26
823.898	9251.66
824.225	9250.76
824.553	9269.74
824.88	9308.84
825.207	9340.47
825.535	9315.84
825.862	9347.48
826.189	9280.59
826.516	9345.9
826.843	9294.37
827.17	9314.03
827.497	9312.68
827.824	9312.9
828.151	9316.29
828.478	9348.84
828.805	9392
829.131	9309.06
829.458	9321.04
829.785	9248.05
830.111	9336.41
830.438	9350.42
830.764	9348.84
831.09	9319.68
831.417	9304.32
831.743	9283.3
832.069	9363.07
832.395	9284.88
832.722	9375.95
833.048	9320.14
833.374	9352.23
833.7	9308.84
834.026	9308.84
834.351	9340.7
834.677	9306.58
835.003	9361.94
835.329	9297.31
835.654	9309.97
835.98	9296.86
836.306	9299.12
836.631	9332.79
836.956	9283.98
837.282	9245.56
837.607	9223.19
837.932	9300.02
838.258	9256.64
838.583	9211.89
838.908	9172.57
839.233	9192.91
839.558	9188.39
839.883	9120.14
840.208	9175.73
840.533	9156.3
840.858	9134.38
841.182	9150.88
841.507	9111.33
841.832	9105.23
842.156	9078.79
842.481	9043.31
842.805	8985.23
843.13	8971.9
843.454	8994.95
843.778	8982.07
844.103	8923.31
844.427	8989.3
844.751	8926.47
845.075	8902.07
845.399	8890.32
845.723	8894.16
846.047	8843.54
846.371	8781.17
846.695	8766.7
847.019	8759.47
847.343	8735.97
847.666	8630.66
847.99	8635.86
848.313	8623.43
848.637	8597.9
848.96	8579.82
849.284	8552.7
849.607	8506.15
849.931	8462.76
850.254	8443.78
850.577	8368.97
850.9	8375.3
851.223	8356.09
851.546	8290.56
851.869	8298.02
852.192	8360.84
852.515	8231.13
852.838	8184.35
853.161	8239.94
853.483	8169.88
853.806	8116.33
854.129	8152.48
854.451	8081.52
854.774	8040.85
855.096	8040.17
855.419	8086.5
855.741	7993.62
856.063	7964.01
856.385	8025.26
856.708	7996.1
857.03	7900.74
857.352	7915.65
857.674	7891.02
857.996	7750.91
858.318	7804.02
858.64	7801.08
858.961	7758.82
859.283	7779.39
859.605	7723.79
859.926	7769.89
860.248	7741.42
860.57	7714.75
860.891	7660.97
861.212	7600.41
861.534	7596.79
861.855	7614.64
862.176	7671.82
862.498	7619.16
862.819	7581.42
863.14	7618.49
863.461	7584.14
863.782	7570.13
864.103	7537.36
864.424	7552.5
864.745	7571.93
865.065	7499.17
865.386	7460.98
865.707	7476.79
866.027	7454.42
866.348	7495.55
866.668	7456.46
866.989	7415.55
867.309	7394.54
867.63	7395.44
867.95	7402.67
868.27	7370.58
868.59	7364.26
868.91	7370.81
869.23	7341.66
869.55	7342.34
869.87	7384.37
870.19	7291.94
870.51	7263.24
870.83	7302.34
871.15	7235.22
871.469	7246.29
871.789	7302.79
872.109	7329.68
872.428	7180.98
872.748	7286.74
873.067	7235.9
873.386	7250.13
873.706	7217.37
874.025	7185.28
874.344	7149.35
874.663	7234.09
874.982	7134.43
875.301	7110.25
875.62	7177.14
875.939	7149.35
876.258	7198.84
876.577	7114.09
876.896	7140.53
877.214	7076.35
877.533	7077.71
877.852	7051.72
878.17	7053.08
878.489	7089.69
878.807	7059.63
879.125	7030.7
879.444	6989.35
879.762	7017.37
880.08	7034.55
880.398	6994.1
880.716	7012.4
881.034	6964.72
881.352	6966.98
881.67	6924.95
881.988	7011.5
882.306	6929.24
882.624	6891.95
882.941	6855.79
883.259	6858.05
883.577	6867.77
883.894	6857.38
884.212	6779.86
884.529	6752.52
884.846	6774.21
885.164	6753.42
885.481	6765.63
885.798	6787.77
886.115	6723.59
886.432	6743.71
886.75	6714.1
887.067	6728.57
887.383	6679.75
887.7	6732.86
888.017	6678.85
888.334	6657.38
888.651	6687.44
888.967	6624.16
889.284	6632.75
889.6	6618.06
889.917	6535.58
890.233	6556.37
890.55	6575.35
890.866	6584.84
891.182	6562.92
891.498	6444.05
891.815	6489.25
892.131	6470.04
892.447	6381.23
892.763	6423.26
893.079	6384.39
893.395	6394.11
893.71	6367.67
894.026	6362.7
894.342	6328.12
894.657	6278.86
894.973	6280.89
895.289	6257.17
895.604	6197.51
895.92	6217.62
896.235	6123.38
896.55	6166.32
896.865	6186.89
897.181	6158.41
897.496	6093.1
897.811	6106.44
898.126	6067.79
898.441	6081.8
898.756	6033.9
899.071	5995.03
899.386	6001.58
899.7	6009.71
900.015	5946.21
900.33	5906.89
900.644	5917.97
900.959	5887.68
901.273	5906.21
901.588	5822.83
901.902	5828.48
902.216	5832.09
902.531	5782.38
902.845	5786.44
903.159	5725.43
903.473	5777.86
903.787	5714.58
904.101	5664.64
904.415	5711.42
904.729	5595.71
905.042	5609.95
905.356	5608.82
905.67	5618.54
905.984	5568.6
906.297	5601.36
906.611	5569.73
906.924	5551.87
907.237	5529.5
907.551	5488.15
907.864	5459.45
908.177	5495.15
908.491	5432.78
908.804	5410.41
909.117	5396.4
909.43	5327.92
909.743	5308.26
910.056	5348.49
910.368	5297.42
910.681	5259.45
910.994	5256.97
911.307	5242.73
911.619	5207.48
911.932	5243.18
912.244	5160.02
912.557	5152.56
912.869	5150.75
913.181	5122.28
913.494	5116.18
913.806	5086.8
914.118	5048.38
914.43	5030.53
914.742	4982.17
915.054	5003.64
915.366	4997.99
915.678	4939.69
915.99	4919.8
916.302	4916.41
916.613	4883.87
916.925	4888.84
917.236	4874.15
917.548	4821.5
917.859	4878.67
918.171	4797.54
918.482	4772.23
918.794	4772.46
919.105	4740.6
919.416	4737.66
919.727	4704.66
920.038	4715.06
920.349	4678
920.66	4690.2
920.971	4669.41
921.282	4640.03
921.593	4575.4
921.903	4579.24
922.214	4609.53
922.525	4579.24
922.835	4567.72
923.146	4505.8
923.456	4456.99
923.767	4454.73
924.077	4471
924.387	4407.05
924.697	4406.82
925.008	4393.71
925.318	4373.15
925.628	4353.26
925.938	4388.97
926.248	4301.06
926.558	4306.26
926.867	4276.65
927.177	4274.62
927.487	4266.94
927.796	4209.54
928.106	4175.19
928.416	4218.58
928.725	4179.93
929.034	4118.01
929.344	4174.96
929.653	4134.74
929.962	4082.76
930.271	4085.02
930.581	4081.63
930.89	4055.87
931.199	4046.6
931.508	4055.87
931.817	4045.92
932.125	4004.34
932.434	4011.8
932.743	3974.74
933.051	3942.2
933.36	3929.32
933.669	3927.28
933.977	3931.35
934.286	3881.86
934.594	3897.45
934.902	3819.04
935.21	3834.4
935.519	3838.7
935.827	3808.42
936.135	3784.46
936.443	3781.07
936.751	3763.9
937.059	3706.5
937.367	3711.24
937.674	3708.98
937.982	3696.1
938.29	3723.67
938.597	3683
938.905	3648.87
939.213	3637.12
939.52	3647.07
939.827	3650.23
940.135	3581.53
940.442	3625.14
940.749	3590.8
941.056	3561.87
941.363	3560.97
941.67	3510.57
941.977	3487.75
942.284	3516.22
942.591	3476.67
942.898	3496.56
943.205	3486.62
943.511	3441.42
943.818	3440.52
944.125	3434.19
944.431	3454.08
944.738	3409.56
945.044	3360.97
945.35	3388.09
945.657	3331.59
945.963	3314.87
946.269	3308.54
946.575	3316
946.881	3302.44
947.187	3308.54
947.493	3273.29
947.799	3236.68
948.105	3268.54
948.41	3199.62
948.716	3229.22
949.022	3210.24
949.327	3184.03
949.633	3144.93
949.938	3172.95
950.244	3156.91
950.549	3131.15
950.854	3121.66
951.16	3090.92
951.465	3131.37
951.77	3078.72
952.075	3047.53
952.38	3035.1
952.685	3029.91
952.99	3009.12
953.294	3001.66
953.599	2988.1
953.904	2979.74
954.209	2970.47
954.513	2997.14
954.818	2970.02
955.122	2947.2
955.426	2951.49
955.731	2945.84
956.035	2870.59
956.339	2926.63
956.643	2894.54
956.948	2885.28
957.252	2883.24
957.556	2885.96
957.86	2832.4
958.163	2839.4
958.467	2833.75
958.771	2836.01
959.075	2810.7
959.378	2795.79
959.682	2802.12
959.985	2771.83
960.289	2760.76
960.592	2718.5
960.896	2729.8
961.199	2745.17
961.502	2715.11
961.805	2703.36
962.108	2683.7
962.411	2665.85
962.714	2654.1
963.017	2625.85
963.32	2631.95
963.623	2633.76
963.926	2625.85
964.228	2601.89
964.531	2587.43
964.833	2597.83
965.136	2586.75
965.438	2531.39
965.741	2568.68
966.043	2538.17
966.345	2533.2
966.648	2548.56
966.95	2526.19
967.252	2502.01
967.554	2506.98
967.856	2503.14
968.158	2460.2
968.46	2441.22
968.761	2455.01
969.063	2414.78
969.365	2445.97
969.666	2411.17
969.968	2421.11
970.269	2403.03
970.571	2391.28
970.872	2382.47
971.174	2382.92
971.475	2397.15
971.776	2335.01
972.077	2301.34
972.378	2329.59
972.679	2298.4
972.98	2290.94
973.281	2302.92
973.582	2302.47
973.883	2287.78
974.183	2269.7
974.484	2298.17
974.785	2253.66
975.085	2238.74
975.386	2257.27
975.686	2237.84
975.986	2191.28
976.287	2223.15
976.587	2183.37
976.887	2202.81
977.187	2197.84
977.487	2193.54
977.787	2179.53
978.087	2215.01
978.387	2162.13
978.687	2144.73
978.987	2138.4
979.286	2171.62
979.586	2088.46
979.885	2122.81
980.185	2084.39
980.484	2095.69
980.784	2092.76
981.083	2104.51
981.382	2079.65
981.682	2058.86
981.981	2038.52
982.28	2019.76
982.579	2038.29
982.878	2017.73
983.177	1985.19
983.475	2034
983.774	2024.73
984.073	2001.91
984.372	1995.13
984.67	1966.88
984.969	1987.9
985.267	1941.57
985.566	1954.91
985.864	1946.54
986.162	1927.34
986.461	1912.87
986.759	1915.81
987.057	1914
987.355	1904.74
987.653	1906.09
987.951	1906.55
988.249	1829.49
988.547	1870.61
988.844	1823.84
989.142	1898.41
989.44	1835.81
989.737	1806.66
990.035	1827.45
990.332	1816.6
990.63	1791.97
990.927	1813.67
991.224	1801.46
991.521	1788.36
991.819	1769.6
992.116	1738.41
992.413	1773.67
992.71	1792.2
993.006	1741.35
993.303	1720.56
993.6	1747.91
993.897	1727.79
994.193	1713.56
994.49	1732.99
994.787	1690.51
995.083	1713.56
995.379	1680.34
995.676	1698.19
995.972	1655.48
996.268	1661.81
996.565	1645.99
996.861	1681.02
997.157	1633.11
997.453	1649.38
997.749	1628.14
998.044	1626.1
998.34	1621.81
998.636	1596.05
998.932	1589.72
999.227	1603.96
999.523	1571.64
999.818	1564.41
1000.114	1559.21
1000.409	1573.67
1000.704	1560.34
1001	1556.5
1001.295	1510.62
1001.59	1530.28
1001.885	1530.06
1002.18	1510.85
1002.475	1496.16
1002.77	1500.45
1003.065	1510.17
1003.359	1466.33
1003.654	1484.86
1003.949	1469.5
1004.243	1444.41
1004.538	1467.69
1004.832	1468.82
1005.127	1442.6
1005.421	1438.31
1005.715	1412.1
1006.009	1438.99
1006.304	1423.17
1006.598	1391.98
1006.892	1423.39
1007.186	1394.69
1007.48	1385.66
1007.773	1357.86
1008.067	1383.17
1008.361	1356.05
1008.655	1355.15
1008.948	1345.66
1009.242	1310.4
1009.535	1357.86
1009.829	1314.7
1010.122	1321.25
1010.415	1316.5
1010.708	1306.34
1011.001	1299.33
1011.295	1262.04
1011.588	1313.34
1011.881	1270.4
1012.173	1273.79
1012.466	1280.8
1012.759	1259.78
1013.052	1266.56
1013.344	1262.5
1013.637	1234.7
1013.93	1230.18
1014.222	1227.47
1014.514	1225.43
1014.807	1206.45
1015.099	1229.73
1015.391	1173.23
1015.683	1174.14
1015.976	1198.54
1016.268	1200.12
1016.56	1177.75
1016.851	1152.22
1017.143	1171.65
1017.435	1188.82
1017.727	1146.34
1018.018	1149.05
1018.31	1133.46
1018.602	1108.15
1018.893	1136.62
1019.185	1138.2
1019.476	1123.06
1019.767	1120.13
1020.058	1086.23
1020.35	1083.06
1020.641	1082.16
1020.932	1092.1
1021.223	1082.61
1021.514	1046.68
1021.804	1027.02
1022.095	1055.49
1022.386	1068.38
1022.677	1031.99
1022.967	1011.88
1023.258	1013.91
1023.548	1029.51
1023.839	1016.17
1024.129	1015.95
1024.419	987.02
1024.709	1017.53
1025	1008.49
1025.29	996.74
1025.58	984.08
1025.87	977.08
1026.16	993.58
1026.449	959.45
1026.739	926.68
1027.029	954.93
1027.319	945.89
1027.608	945.44
1027.898	948.83
1028.187	942.73
1028.477	912
1028.766	940.47
1029.055	914.71
1029.344	923.07
1029.634	919.45
1029.923	893.69
1030.212	908.61
1030.501	902.73
1030.79	897.98
1031.078	871.77
1031.367	882.84
1031.656	876.97
1031.945	879
1032.233	884.2
1032.522	858.66
1032.81	870.64
1033.099	854.82
1033.387	847.59
1033.675	835.16
1033.963	834.03
1034.251	818.66
1034.54	833.81
1034.828	831.55
1035.116	828.16
1035.403	813.47
1035.691	813.24
1035.979	815.05
1036.267	783.86
1036.554	774.6
1036.842	800.81
1037.129	791.55
1037.417	789.74
1037.704	797.65
1037.992	751.77
1038.279	782.28
1038.566	764.66
1038.853	764.66
1039.14	764.66
