Data from blue_clamp_base_FLMS001491_00042.txt Node
Date: Wed Feb 08 15:16:03 GMT 2017
User: dcchb
Spectrometer: FLMS00149
Trigger mode: 0
Integration Time (sec): 2.000000E-2
Scans to average: 10
Electric dark correction enabled: true
Nonlinearity correction enabled: false
Boxcar width: 0
XAxis mode: Wavelengths
Number of Pixels in Spectrum: 2048
>>>>>Begin Spectral Data<<<<<
341.393	-2.54
341.776	-2.54
342.16	-2.54
342.543	-76.21
342.927	-51.35
343.31	-71.92
343.693	-71.02
344.077	-69.43
344.46	-64.24
344.843	-37.12
345.226	-12.26
345.61	-45.25
345.993	-19.72
346.376	-6.61
346.759	6.27
347.142	36.33
347.525	31.36
347.908	62.77
348.291	69.55
348.674	97.79
349.057	93.5
349.44	128.08
349.823	159.04
350.206	187.74
350.588	212.59
350.971	219.37
351.354	232.71
351.737	243.78
352.119	272.93
352.502	279.48
352.884	305.7
353.267	279.48
353.65	316.77
354.032	307.96
354.414	302.76
354.797	331.23
355.179	342.76
355.562	348.18
355.944	326.04
356.326	380.27
356.709	347.96
357.091	363.1
357.473	354.96
357.855	357.45
358.238	359.26
358.62	352.48
359.002	354.51
359.384	357.45
359.766	369.65
360.148	356.32
360.53	335.75
360.912	361.97
361.294	357.67
361.676	332.14
362.057	363.78
362.439	346.38
362.821	315.87
363.203	331.46
363.584	327.84
363.966	345.25
364.348	344.34
364.729	331.46
365.111	325.81
365.493	320.61
365.874	331.01
366.256	332.82
366.637	360.16
367.019	357.9
367.4	315.87
367.781	346.38
368.163	328.75
368.544	306.6
368.925	306.6
369.306	347.73
369.688	349.54
370.069	333.27
370.45	331.91
370.831	334.17
371.212	334.62
371.593	342.99
371.974	331.01
372.355	327.39
372.736	332.14
373.117	338.69
373.498	342.31
373.879	339.82
374.26	333.27
374.641	319.03
375.021	346.6
375.402	333.04
375.783	347.96
376.163	352.93
376.544	352.02
376.925	366.49
377.305	358.58
377.686	350.89
378.066	358.58
378.447	365.81
378.827	390.67
379.208	372.59
379.588	364
379.968	362.87
380.349	374.85
380.729	368.97
381.109	384.79
381.489	380.72
381.87	391.12
382.25	398.35
382.63	380.72
383.01	376.43
383.39	359.48
383.77	373.72
384.15	401.51
384.53	408.29
384.91	406.49
385.29	410.1
385.67	388.63
386.049	393.61
386.429	405.81
386.809	406.49
387.189	425.92
387.568	410.1
387.948	424.11
388.328	405.81
388.707	416.88
389.087	421.85
389.466	422.98
389.846	413.72
390.225	448.97
390.605	431.34
390.984	434.06
391.363	442.42
391.743	445.36
392.122	469.08
392.501	448.75
392.881	462.08
393.26	475.86
393.639	472.47
394.018	458.24
394.397	490.78
394.776	491.68
395.155	491.23
395.534	503.43
395.913	484
396.292	502.76
396.671	525.58
397.05	522.19
397.429	519.93
397.808	528.52
398.186	526.71
398.565	535.3
398.944	527.84
399.323	552.92
399.701	547.27
400.08	552.02
400.458	571.68
400.837	550.66
401.215	562.87
401.594	564.22
401.972	584.33
402.351	582.98
402.729	604
403.107	619.14
403.486	593.15
403.864	618.46
404.242	606.71
404.62	619.14
404.999	617.55
405.377	657.1
405.755	679.02
406.133	648.51
406.511	647.84
406.889	674.95
407.267	689.19
407.645	674.95
408.023	680.6
408.401	683.32
408.779	709.98
409.156	710.43
409.534	742.3
409.912	726.7
410.29	723.54
410.667	746.59
411.045	756.31
411.422	787.49
411.8	764.67
412.178	787.95
412.555	830.66
412.933	810.77
413.31	834.5
413.687	833.82
414.065	852.8
414.442	830.2
414.819	860.94
415.197	896.87
415.574	855.29
415.951	899.58
416.328	893.93
416.705	885.12
417.082	902.07
417.46	919.92
417.837	932.35
418.214	946.59
418.591	942.52
418.967	937.77
419.344	964.89
419.721	979.8
420.098	966.02
420.475	1012.12
420.852	994.72
421.228	1005.79
421.605	1032.46
421.982	1023.42
422.358	998.56
422.735	1048.96
423.111	1053.25
423.488	1090.54
423.864	1080.14
424.241	1096.86
424.617	1113.13
424.994	1083.08
425.37	1111.78
425.746	1128.95
426.123	1146.13
426.499	1143.87
426.875	1141.83
427.251	1160.36
427.627	1185.45
428.003	1221.15
428.379	1208.95
428.756	1237.88
429.132	1282.85
429.507	1282.4
429.883	1314.03
430.259	1302.06
430.635	1321.72
431.011	1335.95
431.387	1373.24
431.763	1393.35
432.138	1380.02
432.514	1426.8
432.89	1422.05
433.265	1465.22
433.641	1489.4
434.016	1473.13
434.392	1522.16
434.767	1527.81
435.143	1537.08
435.518	1555.16
435.894	1569.85
436.269	1585.44
436.644	1604.87
437.02	1643.97
437.395	1627.92
437.77	1654.59
438.145	1690.75
438.52	1724.64
438.895	1751.54
439.271	1730.97
439.646	1777.52
440.021	1775.26
440.395	1782.5
440.77	1796.96
441.145	1798.31
441.52	1822.72
441.895	1827.24
442.27	1864.98
442.645	1864.53
443.019	1888.03
443.394	1908.59
443.769	1944.07
444.143	1939.1
444.518	1983.85
444.892	1976.61
445.267	1972.55
445.641	1991.08
446.016	2022.26
446.39	2054.13
446.764	2034.47
447.139	2017.52
447.513	2078.76
447.887	2079.21
448.262	2083.5
448.636	2134.8
449.01	2119.44
449.384	2124.41
449.758	2166.89
450.132	2194.91
450.506	2217.29
450.88	2243.05
451.254	2223.61
451.628	2241.24
452.002	2270.84
452.376	2269.49
452.75	2287.79
453.123	2326.89
453.497	2368.02
453.871	2395.59
454.244	2419.99
454.618	2443.27
454.992	2457.05
455.365	2450.05
455.739	2538.63
456.112	2546.54
456.486	2570.05
456.859	2590.84
457.232	2636.94
457.606	2655.24
457.979	2661.34
458.352	2720.1
458.725	2771.85
459.099	2756.48
459.472	2830.6
459.845	2863.37
460.218	2861.34
460.591	2920.54
460.964	2888.23
461.337	2979.07
461.71	3045.51
462.083	3047.1
462.456	3035.12
462.829	3071.5
463.201	3075.34
463.574	3104.49
463.947	3153.53
464.32	3216.36
464.692	3274.89
465.065	3263.13
465.438	3297.26
465.81	3360.31
466.183	3394.43
466.555	3473.52
466.928	3489.34
467.3	3457.03
467.672	3511.26
468.045	3579.96
468.417	3582
468.789	3657.02
469.161	3650.24
469.534	3684.37
469.906	3776.57
470.278	3810.46
470.65	3890.24
471.022	3908.09
471.394	3974.08
471.766	4026.05
472.138	4037.35
472.51	4104.02
472.882	4134.75
473.253	4189.21
473.625	4233.73
473.997	4332.71
474.369	4347.4
474.74	4404.12
475.112	4447.28
475.484	4506.04
475.855	4603.21
476.227	4673.72
476.598	4687.73
476.97	4764.11
477.341	4838.69
477.713	4891.11
478.084	4920.49
478.455	5130.2
478.827	5056.53
479.198	5198.68
479.569	5203.2
479.94	5334.04
480.311	5338.33
480.682	5431.21
481.053	5567.71
481.424	5647.93
481.795	5636.63
482.166	5734.71
482.537	5733.35
482.908	5877.08
483.279	5920.69
483.65	6024.42
484.021	6091.99
484.391	6139.22
484.762	6164.53
485.133	6161.36
485.503	6303.28
485.874	6414.01
486.244	6451.07
486.615	6555.93
486.985	6621.46
487.356	6655.14
487.726	6680.9
488.097	6835.7
488.467	6799.54
488.837	6905.07
489.207	6955.92
489.578	7034.11
489.948	7118.85
490.318	7187.1
490.688	7166.08
491.058	7277.27
491.428	7274.78
491.798	7363.59
492.168	7475.45
492.538	7470.93
492.908	7521.33
493.278	7692.85
493.648	7609.46
494.017	7719.74
494.387	7753.19
494.757	7695.33
495.126	7801.09
495.496	7850.58
495.866	7852.39
496.235	7916.8
496.605	7988.89
496.974	7966.51
497.344	8056.45
497.713	8052.39
498.082	8165.83
498.452	8157.92
498.821	8164.02
499.19	8123.57
499.559	8302.78
499.928	8249.44
500.298	8342.32
500.667	8317.24
501.036	8324.02
501.405	8447.41
501.774	8377.12
502.143	8407.18
502.512	8440.4
502.88	8460.06
503.249	8497.57
503.618	8549.78
503.987	8505.93
504.356	8599.27
504.724	8638.59
505.093	8660.05
505.462	8648.53
505.83	8702.09
506.199	8697.79
506.567	8828.64
506.936	8807.17
507.304	8938.47
507.672	8890.56
508.041	8891.24
508.409	8999.71
508.777	9025.02
509.145	9033.6
509.514	8943.44
509.882	9036.99
510.25	9062.98
510.618	9087.61
510.986	9148.63
511.354	9178.69
511.722	9234.73
512.09	9295.52
512.458	9250.55
512.826	9338.91
513.193	9346.82
513.561	9392.92
513.929	9407.61
514.297	9496.19
514.664	9478.11
515.032	9445.12
515.4	9534.16
515.767	9519.02
516.135	9630.65
516.502	9498
516.869	9695.06
517.237	9690.76
517.604	9661.61
517.972	9719.91
518.339	9749.52
518.706	9750.42
519.073	9831.32
519.44	9885.56
519.808	9946.35
520.175	9921.72
520.542	10107.93
520.909	10028.15
521.276	10008.27
521.643	10058.66
522.009	10132.78
522.376	10199
522.743	10208.49
523.11	10287.36
523.477	10348.37
523.843	10382.95
524.21	10478.31
524.577	10494.36
524.943	10540.68
525.31	10567.58
525.676	10604.18
526.043	10741.13
526.409	10638.08
526.776	10881.01
527.142	10846.66
527.508	10844.63
527.874	10977.28
528.241	10993.33
528.607	10984.74
528.973	11053.44
529.339	11001.69
529.705	11150.16
530.071	11214.56
530.437	11248.24
530.803	11298.63
531.169	11313.77
531.535	11296.37
531.901	11360.77
532.267	11455.46
532.632	11551.05
532.998	11478.74
533.364	11583.37
533.73	11542.92
534.095	11648.45
534.461	11685.29
534.826	11743.36
535.192	11783.14
535.557	11847.54
535.923	11832.63
536.288	11887.99
536.653	11933.87
537.019	11903.36
537.384	12027.65
537.749	12013.86
538.114	11978.84
538.479	12062
538.845	12126.18
539.21	12069.23
539.575	12207.98
539.94	12200.75
540.305	12246.85
540.67	12251.82
541.034	12364.59
541.399	12334.76
541.764	12352.84
542.129	12356.23
542.494	12390.58
542.858	12441.65
543.223	12469.45
543.587	12605.49
543.952	12561.42
544.316	12627.18
544.681	12567.97
545.045	12711.47
545.41	12735.2
545.774	12708.99
546.138	12746.05
546.503	12793.05
546.867	12691.14
547.231	12934.07
547.595	12907.85
547.959	12966.61
548.324	12986.49
548.688	12937.68
549.052	13001.64
549.416	12981.3
549.779	12983.1
550.143	13038.24
550.507	13211.8
550.871	13148.07
551.235	13137.23
551.599	13186.49
551.962	13193.95
552.326	13246.37
552.689	13307.39
553.053	13143.33
553.417	13342.19
553.78	13471.45
554.143	13478.46
554.507	13396.43
554.87	13495.63
555.234	13588.96
555.597	13586.7
555.96	13590.09
556.323	13582.64
556.686	13639.58
557.05	13760.03
557.413	13731.56
557.776	13789.86
558.139	13906.7
558.502	13878.67
558.865	13920.26
559.228	14038.67
559.59	13983.53
559.953	13967.94
560.316	14072.34
560.679	14171.32
561.041	14207.25
561.404	14251.55
561.767	14397.08
562.129	14241.38
562.492	14469.39
562.854	14444.31
563.217	14428.94
563.579	14515.49
563.941	14559.33
564.304	14586.9
564.666	14660.57
565.028	14751.42
565.39	14684.76
565.753	14903.05
566.115	14880.46
566.477	14933.79
566.839	14947.8
567.201	15087.68
567.563	15083.16
567.925	15217.17
568.287	15142.6
568.648	15154.8
569.01	15257.85
569.372	15432.31
569.734	15333.33
570.095	15437.73
570.457	15499.87
570.819	15594.56
571.18	15523.38
571.542	15705.07
571.903	15627.56
572.265	15754.11
572.626	15797.72
572.987	15889.92
573.349	15856.25
573.71	15964.72
574.071	15999.52
574.432	16089.69
574.794	16167.43
575.155	16160.42
575.516	16089.46
575.877	16232.96
576.238	16211.04
576.599	16338.5
576.96	16347.76
577.32	16279.97
577.681	16413.75
578.042	16532.16
578.403	16455.1
578.763	16416.01
579.124	16592.5
579.485	16591.82
579.845	16639.73
580.206	16566.74
580.566	16654.19
580.927	16565.38
581.287	16634.76
581.648	16615.1
582.008	16748.43
582.368	16760.63
582.728	16725.38
583.089	16754.53
583.449	16766.51
583.809	16812.38
584.169	16792.5
584.529	16744.14
584.889	16838.14
585.249	16824.81
585.609	16813.06
585.969	16859.39
586.329	16824.36
586.688	16978.25
587.048	16851.03
587.408	16841.08
587.768	16892.83
588.127	16912.27
588.487	16814.64
588.846	16871.82
589.206	16883.12
589.565	16811.7
589.925	17032.94
590.284	16910.69
590.643	16941.19
591.003	17080.62
591.362	17052.83
591.721	17082.88
592.08	17039.72
592.44	17096.44
592.799	17114.75
593.158	17062.55
593.517	17058.48
593.876	17143.67
594.235	17058.25
594.593	17067.97
594.952	17138.02
595.311	17072.71
595.67	17143.22
596.029	17238.81
596.387	17243.33
596.746	17257.34
597.104	17194.97
597.463	17175.99
597.822	17268.19
598.18	17168.98
598.538	17274.07
598.897	17233.84
599.255	17175.54
599.613	17397.45
599.972	17264.57
600.33	17299.38
600.688	17313.84
601.046	17345.02
601.404	17404.01
601.762	17252.6
602.12	17351.8
602.478	17321.3
602.836	17493.72
603.194	17357
603.552	17372.14
603.91	17375.08
604.268	17440.39
604.625	17372.59
604.983	17484
605.341	17338.47
605.698	17479.94
606.056	17574.62
606.413	17539.14
606.771	17546.83
607.128	17577.33
607.485	17473.16
607.843	17468.18
608.2	17623.21
608.557	17671.12
608.914	17600.61
609.272	17745.47
609.629	17757.67
609.986	17766.93
610.343	17596.09
610.7	17784.79
611.057	17792.92
611.414	17698.46
611.771	17677.22
612.127	17726.94
612.484	17827.95
612.841	17879.02
613.198	17826.37
613.554	17812.81
613.911	17928.06
614.267	17933.71
614.624	17899.36
614.98	17816.65
615.337	17964.89
615.693	17920.15
616.05	17970.09
616.406	18077.89
616.762	18059.81
617.118	18051.45
617.475	18044.21
617.831	18067.04
618.187	18125.12
618.543	18172.8
618.899	18203.76
619.255	18169.86
619.611	18161.95
619.967	18225.23
620.323	18300.93
620.678	18148.62
621.034	18269.07
621.39	18198.34
621.746	18239.46
622.101	18419.35
622.457	18272.01
622.812	18287.82
623.168	18444.43
623.523	18380.7
623.879	18453.24
624.234	18317.43
624.589	18352.68
624.945	18325.56
625.3	18517.42
625.655	18490.53
626.01	18492.34
626.365	18558.1
626.72	18501.15
627.075	18485.11
627.43	18517.2
627.785	18373.7
628.14	18509.97
628.495	18559
628.85	18539.34
629.205	18525.78
629.559	18646.01
629.914	18539.12
630.269	18636.97
630.623	18621.6
630.978	18561.26
631.332	18660.24
631.687	18659.11
632.041	18546.12
632.396	18626.12
632.75	18657.08
633.104	18577.53
633.459	18613.01
633.813	18569.62
634.167	18562.39
634.521	18598.32
634.875	18574.6
635.229	18550.87
635.583	18547.48
635.937	18571.43
636.291	18618.21
636.645	18612.34
636.999	18680.81
637.352	18597.87
637.706	18587.48
638.06	18730.52
638.413	18632.9
638.767	18670.87
639.121	18706.8
639.474	18556.07
639.828	18611.43
640.181	18710.41
640.534	18665.67
640.888	18602.84
641.241	18567.36
641.594	18637.65
641.947	18680.58
642.301	18633.13
642.654	18657.31
643.007	18742.5
643.36	18642.17
643.713	18632.45
644.066	18845.32
644.419	18664.31
644.771	18490.98
645.124	18338.67
645.477	18290.31
645.83	18218.9
646.182	18226.36
646.535	18314.94
646.888	18291.44
647.24	18401.95
647.593	18407.6
647.945	18447.59
648.298	18333.02
648.65	18390.65
649.002	18462.73
649.355	18374.83
649.707	18396.97
650.059	18475.84
650.411	18692.79
650.763	18765.78
651.115	18954.25
651.467	18928.03
651.819	18958.09
652.171	18875.15
652.523	18859.79
652.875	18880.58
653.227	18886.68
653.578	19030.63
653.93	18987.92
654.282	18897.53
654.633	18946.34
654.985	18972.1
655.337	19078.09
655.688	19014.58
656.039	19038.54
656.391	18954.02
656.742	19069.72
657.094	19018.2
657.445	19136.84
657.796	19122.38
658.147	19035.83
658.498	19001.25
658.849	19084.19
659.2	19091.87
659.551	18967.58
659.902	19097.07
660.253	19127.35
660.604	19095.03
660.955	19076.5
661.306	19052.78
661.656	19078.31
662.007	19093.45
662.358	19101.81
662.708	19191.53
663.059	19150.17
663.409	19063.17
663.76	19123.73
664.11	19252.32
664.461	19141.81
664.811	19305.88
665.161	19227.01
665.511	19165.99
665.862	19155.82
666.212	19192.89
666.562	19209.38
666.912	19229.04
667.262	19151.53
667.612	19068.82
667.962	19189.95
668.312	19041.93
668.662	19170.51
669.011	19126.9
669.361	19142.72
669.711	19120.34
670.06	18938.2
670.41	18851.88
670.76	18918.32
671.109	19026.34
671.459	18943.4
671.808	18922.61
672.157	18984.53
672.507	18851.2
672.856	18890.97
673.205	18915.15
673.554	18863.4
673.904	18676.97
674.253	18877.41
674.602	18753.12
674.951	18493.92
675.3	18333.7
675.649	18610.08
675.998	18688.27
676.346	18539.8
676.695	18626.35
677.044	18489.17
677.393	18508.16
677.741	18544.99
678.09	18469.06
678.438	18387.93
678.787	18506.8
679.135	18445.11
679.484	18254.83
679.832	18354.26
680.181	18185
680.529	18251.89
680.877	18230.42
681.225	18145.23
681.573	18221.84
681.922	18096.19
682.27	18037.21
682.618	18014.16
682.966	18005.12
683.314	18035.18
683.661	17957.21
684.009	17889.87
684.357	17820.72
684.705	17876.08
685.053	17780.04
685.4	17760.15
685.748	17749.53
686.095	17707.27
686.443	17651.46
686.79	17687.39
687.138	17724.68
687.485	17675.41
687.832	17530.78
688.18	17526.26
688.527	17421.18
688.874	17416.66
689.221	17411.46
689.568	17455.08
689.915	17413.95
690.262	17418.24
690.609	17338.24
690.956	17330.56
691.303	17291.01
691.65	17231.35
691.997	17234.74
692.344	17198.14
692.69	17137.35
693.037	17230.9
693.383	16996.78
693.73	17153.62
694.077	17061.64
694.423	17038.14
694.769	16962.21
695.116	16769.45
695.462	16867.75
695.808	16867.97
696.155	16959.05
696.501	16737.13
696.847	16782.1
697.193	16596.34
697.539	16733.29
697.885	16667.75
698.231	16599.73
698.577	16625.95
698.923	16688.32
699.269	16502.11
699.614	16470.7
699.96	16547.76
700.306	16501.43
700.651	16363.81
700.997	16332.62
701.342	16402.45
701.688	16431.6
702.033	16390.47
702.379	16322.68
702.724	16387.76
703.069	16378.5
703.415	16227.31
703.76	16253.08
704.105	16251.95
704.45	16174.21
704.795	16142.34
705.14	16081.33
705.485	16072.06
705.83	16043.36
706.175	16084.94
706.52	16079.07
706.865	16073.87
707.209	16034.78
707.554	15937.38
707.899	16035.68
708.243	15945.29
708.588	15949.58
708.932	15836.14
709.277	15792.75
709.621	15815.35
709.966	15802.47
710.31	15793.2
710.654	15694.9
710.998	15776.93
711.342	15777.38
711.687	15805.86
712.031	15720.21
712.375	15681.57
712.719	15710.72
713.063	15689.25
713.407	15755.24
713.75	15643.6
714.094	15754.56
714.438	15604.96
714.782	15607.44
715.125	15623.49
715.469	15585.97
715.812	15513.89
716.156	15484.51
716.499	15508.69
716.843	15554.34
717.186	15509.37
717.53	15543.94
717.873	15546.88
718.216	15492.87
718.559	15403.83
718.902	15436.6
719.246	15455.36
719.589	15377.62
719.932	15336.72
720.275	15375.81
720.617	15308.92
720.96	15345.3
721.303	15307.11
721.646	15289.48
721.989	15222.14
722.331	15212.42
722.674	15272.99
723.016	15364.29
723.359	15270.73
723.701	15336.49
724.044	15127.46
724.386	15131.75
724.729	15160
725.071	15248.13
725.413	15200.9
725.755	15178.3
726.097	15120.68
726.439	15098.98
726.782	15188.92
727.124	15236.38
727.465	15122.03
727.807	15120.68
728.149	15190.28
728.491	15053.33
728.833	15179.43
729.175	15212.88
729.516	15191.41
729.858	15091.07
730.199	15195.02
730.541	15085.2
730.882	15118.87
731.224	15196.38
731.565	15204.74
731.906	15106.44
732.248	15123.16
732.589	15089.04
732.93	15058.3
733.271	15093.33
733.612	15174.46
733.953	15132.2
734.294	15162.48
734.635	15140.11
734.976	15214.23
735.317	15112.54
735.658	15135.14
735.999	15123.39
736.339	15146.89
736.68	15230.5
737.021	15176.49
737.361	15145.31
737.702	15233.89
738.042	15271.63
738.383	15245.19
738.723	15337.62
739.063	15334.23
739.404	15373.55
739.744	15320.9
740.084	15320.9
740.424	15341.01
740.764	15344.85
741.104	15474.56
741.444	15387.11
741.784	15371.06
742.124	15418.52
742.464	15388.47
742.804	15416.49
743.143	15403.15
743.483	15568.57
743.823	15524.73
744.162	15493.55
744.502	15499.65
744.841	15646.99
745.181	15730.15
745.52	15566.99
745.86	15717.27
746.199	15661.45
746.538	15816.93
746.877	15805.86
747.216	15752.98
747.556	15898.28
747.895	15895.34
748.234	15814.89
748.573	15872.29
748.911	15920.2
749.25	15978.96
749.589	15939.19
749.928	15959.52
750.267	16014.89
750.605	16015.12
750.944	15974.21
751.283	16001.33
751.621	16093.76
751.96	16075.9
752.298	16047.88
752.636	16169.01
752.975	16100.99
753.313	16131.95
753.651	16305.28
753.989	16173.3
754.327	16217.14
754.666	16128.78
755.004	16303.02
755.342	16411.49
755.679	16314.77
756.017	16283.81
756.355	16412.39
756.693	16391.6
757.031	16410.13
757.368	16326.07
757.706	16378.27
758.044	16437.25
758.381	16442
758.719	16380.3
759.056	16511.83
759.394	16502.79
759.731	16508.66
760.068	16634.08
760.405	16582.56
760.743	16511.37
761.08	16627.3
761.417	16505.95
761.754	16605.16
762.091	16620.98
762.428	16613.07
762.765	16591.82
763.102	16651.26
763.438	16566.29
763.775	16586.4
764.112	16632.05
764.449	16633.63
764.785	16596.34
765.122	16533.29
765.458	16640.64
765.795	16511.15
766.131	16629.11
766.467	16511.37
766.804	16534.2
767.14	16568.32
767.476	16571.71
767.812	16534.65
768.148	16637.02
768.485	16581.43
768.821	16523.35
769.157	16566.74
769.492	16493.3
769.828	16542.11
770.164	16438.38
770.5	16368.1
770.836	16520.19
771.171	16521.32
771.507	16495.78
771.842	16385.28
772.178	16512.28
772.513	16475.89
772.849	16477.7
773.184	16413.52
773.519	16489.68
773.855	16393.86
774.19	16327.42
774.525	16419.4
774.86	16398.16
775.195	16359.97
775.53	16411.04
775.865	16313.64
776.2	16242.91
776.535	16202
776.87	16245.17
777.205	16189.35
777.539	16118.16
777.874	16207.65
778.209	16118.39
778.543	16153.64
778.878	16083.59
779.212	16204.26
779.547	16065.74
779.881	16190.48
780.215	16050.59
780.55	16169.01
780.884	15947.55
781.218	15957.94
781.552	16048.34
781.886	15983.7
782.22	15940.77
782.554	15895.34
782.888	15813.31
783.222	15773.31
783.556	15798.17
783.889	15781.68
784.223	15740.09
784.557	15740.55
784.89	15859.87
785.224	15825.74
785.557	15742.58
785.891	15622.58
786.224	15646.09
786.558	15703.71
786.891	15582.81
787.224	15454.9
787.557	15493.1
787.891	15536.71
788.224	15568.8
788.557	15510.72
788.89	15506.65
789.223	15479.54
789.556	15432.53
789.888	15351.86
790.221	15362.48
790.554	15308.47
790.887	15348.01
791.219	15283.84
791.552	15312.54
791.884	15260.56
792.217	15239.09
792.549	15189.6
792.882	15040
793.214	15112.09
793.546	15181.01
793.879	15010.85
794.211	15047.46
794.543	15045.2
794.875	14989.15
795.207	15057.85
795.539	14925.43
795.871	14938.99
796.203	14878.2
796.535	14842.49
796.867	14874.81
797.198	14824.41
797.53	14860.34
797.862	14720.46
798.193	14792.77
798.525	14744.64
798.856	14774.02
799.188	14697.86
799.519	14631.65
799.85	14485.66
800.182	14519.11
800.513	14591.42
800.844	14460.81
801.175	14487.7
801.506	14541.71
801.837	14448.83
802.168	14513.69
802.499	14423.75
802.83	14293.13
803.161	14356.85
803.491	14372.45
803.822	14292.9
804.153	14342.84
804.483	14233.47
804.814	14151.44
805.145	14172.23
805.475	14195.5
805.805	14190.08
806.136	14226.91
806.466	14178.33
806.796	14061.27
807.126	13973.59
807.457	13982.4
807.787	14092
808.117	14013.81
808.447	13915.96
808.777	14004.77
809.107	13883.87
809.436	13902.4
809.766	13903.98
810.096	13809.75
810.426	13759.36
810.755	13796.19
811.085	13730.2
811.414	13809.52
811.744	13654.73
812.073	13680.26
812.403	13672.8
812.732	13544.22
813.061	13668.74
813.39	13522.53
813.719	13559.59
814.049	13655.86
814.378	13583.32
814.707	13495.63
815.036	13524.79
815.365	13433.49
815.693	13343.55
816.022	13394.62
816.351	13385.35
816.68	13265.36
817.008	13402.3
817.337	13327.28
817.665	13292.25
817.994	13269.2
818.322	13277.56
818.651	13169.09
818.979	13120.73
819.307	13196.88
819.636	13133.16
819.964	13075.76
820.292	13127.73
820.62	13168.86
820.948	13036.66
821.276	13106.94
821.604	13057.23
821.932	13184.68
822.259	13118.47
822.587	13074.85
822.915	13077.11
823.243	13182.65
823.57	13144
823.898	13139.71
824.225	13007.29
824.553	13009.32
824.88	13112.82
825.207	13101.07
825.535	13098.13
825.862	13098.36
826.189	13167.51
826.516	13142.2
826.843	13213.61
827.17	13208.18
827.497	13256.32
827.824	13224.68
828.151	13310.33
828.478	13193.04
828.805	13270.78
829.131	13129.54
829.458	13153.95
829.785	13114.85
830.111	13194.85
830.438	13277.56
830.764	13214.74
831.09	13149.88
831.417	13136.55
831.743	13226.49
832.069	13266.04
832.395	13188.3
832.722	13206.83
833.048	13066.49
833.374	13196.21
833.7	13135.42
834.026	13119.37
834.351	13095.42
834.677	13119.6
835.003	13181.97
835.329	13111.69
835.654	13145.59
835.98	13057.45
836.306	13148.3
836.631	13045.48
836.956	13065.14
837.282	13027.4
837.607	13009.77
837.932	13062.88
838.258	13018.81
838.583	13025.82
838.908	12892.03
839.233	12940.39
839.558	12950.11
839.883	12872.83
840.208	12893.16
840.533	12825.37
840.858	12952.6
841.182	12889.32
841.507	12903.33
841.832	12804.35
842.156	12775.65
842.481	12769.55
842.805	12771.59
843.13	12710.57
843.454	12693.62
843.778	12576.34
844.103	12661.98
844.427	12602.55
844.751	12574.75
845.075	12567.07
845.399	12477.58
845.723	12486.39
846.047	12527.3
846.371	12308.32
846.695	12372.95
847.019	12289.34
847.343	12188.1
847.666	12237.59
847.99	12160.98
848.313	12138.38
848.637	12121.21
848.96	12009.8
849.284	12087.31
849.607	11942.91
849.931	11914.66
850.254	11883.7
850.577	11756.7
850.9	11688.45
851.223	11833.76
851.546	11651.61
851.869	11590.6
852.192	11600.77
852.515	11519.19
852.838	11529.58
853.161	11472.41
853.483	11400.32
853.806	11394.22
854.129	11368.68
854.451	11279.87
854.774	11314
855.096	11309.25
855.419	11199.42
855.741	11185.19
856.063	11104.28
856.385	11112.19
856.708	11068.13
857.03	11064.06
857.352	10988.58
857.674	11000.56
857.996	10974.12
858.318	10896.38
858.64	10861.58
858.961	10829.94
859.283	10803.28
859.605	10751.07
859.926	10835.59
860.248	10732.54
860.57	10709.04
860.891	10731.86
861.212	10713.33
861.534	10648.7
861.855	10693.9
862.176	10637.4
862.498	10626.33
862.819	10632.66
863.14	10571.87
863.461	10536.84
863.782	10570.74
864.103	10547.24
864.424	10535.71
864.745	10547.91
865.065	10484.87
865.386	10443.28
865.707	10429.05
866.027	10426.11
866.348	10384.53
866.668	10361.7
866.989	10351.31
867.309	10305.66
867.63	10292.78
867.95	10344.53
868.27	10227.92
868.59	10241.93
868.91	10226.34
869.23	10182.05
869.55	10170.98
869.87	10208.49
870.19	10197.42
870.51	10191.99
870.83	10142.73
871.15	10103.18
871.469	10100.02
871.789	10140.24
872.109	10141.37
872.428	10111.77
872.748	10103.86
873.067	10045.56
873.386	10128.26
873.706	10080.81
874.025	9913.36
874.344	9935.5
874.663	9959
874.982	9962.39
875.301	9919.91
875.62	9953.58
875.939	9905.22
876.258	9876.29
876.577	9802.85
876.896	9880.81
877.214	9856.18
877.533	9884.43
877.852	9883.53
878.17	9857.76
878.489	9824.32
878.807	9804.43
879.125	9851.89
879.444	9693.47
879.762	9683.76
880.08	9721.04
880.398	9689.18
880.716	9729.63
881.034	9699.12
881.352	9666.13
881.67	9607.83
881.988	9612.8
882.306	9577.09
882.624	9559.69
882.941	9574.83
883.259	9518.79
883.577	9535.96
883.894	9487.38
884.212	9474.95
884.529	9419.36
884.846	9402.41
885.164	9361.96
885.481	9389.3
885.798	9404.22
886.115	9319.7
886.432	9314.95
886.75	9233.37
887.067	9326.25
887.383	9269.76
887.7	9271.11
888.017	9153.15
888.334	9230.66
888.651	9181.62
888.967	9124.45
889.284	9144.79
889.6	9122.42
889.917	9022.76
890.233	9064.34
890.55	8994.06
890.866	9034.28
891.182	9024.11
891.498	8982.08
891.815	8952.7
892.131	8934.17
892.447	8887.85
892.763	8831.58
893.079	8863.44
893.395	8830.9
893.71	8819.82
894.026	8786.61
894.342	8732.14
894.657	8721.52
894.973	8679.72
895.289	8698.47
895.604	8642.65
895.92	8548.87
896.235	8564.92
896.55	8543.22
896.865	8566.27
897.181	8449.21
897.496	8457.8
897.811	8309.78
898.126	8361.53
898.441	8352.27
898.756	8369.89
899.071	8306.39
899.386	8321.98
899.7	8202.44
900.015	8167.41
900.33	8168.99
900.644	8209.22
900.959	8139.62
901.273	8138.94
901.588	8086.06
901.902	8044.48
902.216	8000.64
902.531	7956.34
902.845	7938.27
903.159	7887.65
903.473	7930.81
903.787	7873.18
904.101	7834.09
904.415	7770.81
904.729	7773.75
905.042	7732.85
905.356	7716.8
905.67	7699.85
905.984	7708.89
906.297	7670.48
906.611	7603.81
906.924	7616.47
907.237	7578.95
907.551	7493.31
907.864	7448.79
908.177	7445.17
908.491	7451.5
908.804	7390.48
909.117	7416.02
909.43	7352.74
909.743	7363.14
910.056	7246.98
910.368	7253.99
910.681	7269.58
910.994	7235.91
911.307	7143.94
911.619	7149.81
911.932	7058.97
912.244	7038.4
912.557	7097.16
912.869	7007.44
913.181	6986.43
913.494	6949.82
913.806	6933.09
914.118	6856.26
914.43	6825.53
914.742	6832.08
915.054	6815.81
915.366	6793.44
915.678	6778.3
915.99	6781.23
916.302	6720.67
916.613	6701.69
916.925	6659.43
917.236	6649.71
917.548	6591.18
917.859	6598.19
918.171	6518.19
918.482	6551.41
918.794	6550.73
919.105	6461.69
919.416	6458.98
919.727	6456.95
920.038	6423.96
920.349	6323.62
920.66	6307.12
920.971	6337.63
921.282	6223.73
921.593	6270.51
921.903	6270.97
922.214	6226.9
922.525	6216.05
922.835	6180.57
923.146	6126.11
923.456	6095.6
923.767	6063.96
924.077	6031.2
924.387	6052.67
924.697	6007.47
925.008	5973.35
925.318	5986.45
925.628	5985.55
925.938	5916.4
926.248	5919.79
926.558	5867.81
926.867	5789.62
927.177	5852.44
927.487	5825.33
927.796	5741.94
928.106	5744.2
928.416	5753.24
928.725	5675.27
929.034	5675.95
929.344	5702.84
929.653	5601.38
929.962	5572.45
930.271	5597.99
930.581	5540.36
930.89	5522.74
931.199	5445
931.508	5460.36
931.817	5457.65
932.125	5395.96
932.434	5410.42
932.743	5360.03
933.051	5316.41
933.36	5306.02
933.669	5324.1
933.977	5294.49
934.286	5233.48
934.594	5221.05
934.902	5202.52
935.21	5171.78
935.519	5193.48
935.827	5143.54
936.135	5126.14
936.443	5092.24
936.751	5088.85
937.059	5083.43
937.367	5017.44
937.674	5002.07
937.982	5003.2
938.29	4977.67
938.597	4929.31
938.905	4960.72
939.213	4924.56
939.52	4869.19
939.827	4927.5
940.135	4868.74
940.442	4817.9
940.749	4825.13
941.056	4767.73
941.363	4766.6
941.67	4768.63
941.977	4731.57
942.284	4699.71
942.591	4675.53
942.898	4685.24
943.205	4630.1
943.511	4636.88
943.818	4621.74
944.125	4595.98
944.431	4538.81
944.738	4572.93
945.044	4543.33
945.35	4521.63
945.657	4494.51
945.963	4495.64
946.269	4464.68
946.575	4492.93
946.881	4435.08
947.187	4406.61
947.493	4356.44
947.799	4409.32
948.105	4398.02
948.41	4312.37
948.716	4300.17
949.022	4287.97
949.327	4262.66
949.633	4169.78
949.938	4230.57
950.244	4196.9
950.549	4155.31
950.854	4148.08
951.16	4171.36
951.465	4130.23
951.77	4145.82
952.075	4130.68
952.38	4098.82
952.685	4095.66
952.99	4054.3
953.294	4030.12
953.599	4013.62
953.904	3981.76
954.209	3958.48
954.513	3937.69
954.818	3924.13
955.122	3938.37
955.426	3952.38
955.731	3915.32
956.035	3882.1
956.339	3903.12
956.643	3861.31
956.948	3846.62
957.252	3821.09
957.556	3824.48
957.86	3807.75
958.163	3756.23
958.467	3737.02
958.771	3740.18
959.075	3738.15
959.378	3712.16
959.682	3680.52
959.985	3699.51
960.289	3633.75
960.592	3645.05
960.896	3587.19
961.199	3577.48
961.502	3611.6
961.805	3614.31
962.108	3546.97
962.411	3530.25
962.714	3532.96
963.017	3509.23
963.32	3499.06
963.623	3502.68
963.926	3483.69
964.228	3448.89
964.531	3451.38
964.833	3443.92
965.136	3391.49
965.438	3419.51
965.741	3392.17
966.043	3346.97
966.345	3379.06
966.648	3332.29
966.95	3344.04
967.252	3335.45
967.554	3293.87
967.856	3300.65
968.158	3272.4
968.46	3216.36
968.761	3242.8
969.063	3209.12
969.365	3195.57
969.666	3188.11
969.968	3175.68
970.269	3165.74
970.571	3164.15
970.872	3118.73
971.174	3142.01
971.475	3096.13
971.776	3079.86
972.077	3095
972.378	3054.33
972.679	3050.71
972.98	3041.67
973.281	3036.25
973.582	3017.72
973.883	2989.24
974.183	3003.48
974.484	2951.5
974.785	2955.8
975.085	2934.56
975.386	2967.32
975.686	2950.15
975.986	2951.05
976.287	2913.54
976.587	2905.4
976.887	2888.23
977.187	2880.09
977.487	2859.3
977.787	2854.11
978.087	2835.58
978.387	2807.33
978.687	2810.04
978.987	2859.98
979.286	2771.85
979.586	2785.18
979.885	2737.72
980.185	2752.19
980.484	2739.98
980.784	2738.85
981.083	2769.14
981.382	2703.38
981.682	2676.94
981.981	2668.12
982.28	2690.04
982.579	2654.79
982.878	2649.59
983.177	2668.12
983.475	2612.53
983.774	2617.5
984.073	2599.42
984.372	2590.61
984.67	2579.76
984.969	2574.57
985.267	2585.64
985.566	2519.88
985.864	2526.88
986.162	2497.73
986.461	2509.26
986.759	2499.31
987.057	2459.77
987.355	2457.73
987.653	2445.53
987.951	2443.5
988.249	2448.47
988.547	2424.74
988.844	2424.74
989.142	2396.94
989.44	2402.37
989.737	2361.01
990.035	2361.92
990.332	2358.98
990.63	2323.72
990.927	2332.99
991.224	2315.36
991.521	2312.43
991.819	2295.7
992.116	2270.17
992.413	2256.61
992.71	2268.36
993.006	2253.9
993.303	2243.27
993.6	2249.15
993.897	2250.96
994.193	2233.33
994.49	2207.12
994.787	2158.98
995.083	2178.19
995.379	2179.77
995.676	2176.38
995.972	2173.45
996.268	2159.66
996.565	2113.33
996.861	2122.6
997.157	2169.38
997.453	2105.42
997.749	2094.35
998.044	2080.57
998.34	2079.89
998.636	2073.79
998.932	2045.99
999.227	2030.17
999.523	2073.34
999.818	2060.45
1000.114	1994.02
1000.409	1992.66
1000.704	2005.09
1001	1966.22
1001.295	1971.42
1001.59	1950.4
1001.885	1982.26
1002.18	1944.3
1002.475	1936.62
1002.77	1940.23
1003.065	1915.37
1003.359	1895.03
1003.654	1911.76
1003.949	1884.19
1004.243	1863.4
1004.538	1848.48
1004.832	1856.62
1005.127	1834.02
1005.421	1820.46
1005.715	1843.28
1006.009	1820.69
1006.304	1795.83
1006.598	1775.49
1006.892	1771.65
1007.186	1793.34
1007.48	1749.5
1007.773	1738.43
1008.067	1709.96
1008.361	1751.31
1008.655	1730.29
1008.948	1710.18
1009.242	1708.15
1009.535	1676.06
1009.829	1671.54
1010.122	1685.55
1010.415	1677.87
1010.708	1640.35
1011.001	1641.26
1011.295	1633.12
1011.588	1630.41
1011.881	1621.82
1012.173	1631.09
1012.466	1593.12
1012.759	1603.97
1013.052	1545.44
1013.344	1559.22
1013.637	1572.33
1013.93	1517.19
1014.222	1563.74
1014.514	1554.25
1014.807	1529.17
1015.099	1527.81
1015.391	1517.64
1015.683	1490.07
1015.976	1483.97
1016.268	1477.87
1016.56	1447.36
1016.851	1471.32
1017.143	1456.85
1017.435	1446.01
1017.727	1440.13
1018.018	1435.16
1018.31	1451.43
1018.602	1420.47
1018.893	1396.97
1019.185	1387.03
1019.476	1408.72
1019.767	1373.69
1020.058	1366.46
1020.35	1354.03
1020.641	1360.59
1020.932	1375.95
1021.223	1349.06
1021.514	1315.62
1021.804	1341.15
1022.095	1315.62
1022.386	1315.84
1022.677	1298.21
1022.967	1293.02
1023.258	1281.49
1023.548	1277.65
1023.839	1258.44
1024.129	1265.22
1024.419	1228.61
1024.709	1222.74
1025	1223.87
1025.29	1187.26
1025.58	1220.25
1025.87	1204.66
1026.16	1193.58
1026.449	1190.87
1026.739	1171.66
1027.029	1156.75
1027.319	1170.31
1027.608	1130.54
1027.898	1156.07
1028.187	1169.4
1028.477	1159.46
1028.766	1137.99
1029.055	1108.39
1029.344	1135.96
1029.634	1111.1
1029.923	1121.72
1030.212	1115.39
1030.501	1083.98
1030.79	1075.62
1031.078	1061.38
1031.367	1086.92
1031.656	1048.05
1031.945	1039.01
1032.233	1024.55
1032.522	1050.99
1032.81	1038.79
1033.099	1032.01
1033.387	1014.61
1033.675	1020.03
1033.963	989.97
1034.251	1007.83
1034.54	980.93
1034.828	970.54
1035.116	992.23
1035.403	1000.37
1035.691	957.43
1035.979	973.93
1036.267	951.78
1036.554	947.26
1036.842	947.49
1037.129	929.86
1037.417	932.8
1037.704	954.04
1037.992	932.12
1038.279	922.41
1038.566	905
1038.853	905
1039.14	905
