Data from blue_chair_FLMS001491_00017.txt Node
Date: Wed Feb 08 10:29:33 GMT 2017
User: dcchb
Spectrometer: FLMS00149
Trigger mode: 0
Integration Time (sec): 2.000000E-2
Scans to average: 10
Electric dark correction enabled: true
Nonlinearity correction enabled: false
Boxcar width: 0
XAxis mode: Wavelengths
Number of Pixels in Spectrum: 2048
>>>>>Begin Spectral Data<<<<<
341.393	-8.53
341.776	-8.53
342.16	-8.53
342.543	-46.27
342.927	-77.68
343.31	-72.26
343.693	-60.73
344.077	-51.69
344.46	-63.9
344.843	-42.65
345.226	-49.66
345.61	-53.28
345.993	-23.67
346.376	-0.85
346.759	15.65
347.142	10.9
347.525	37.12
347.908	78.25
348.291	75.31
348.674	83.22
349.057	118.25
349.44	121.64
349.823	155.76
350.206	153.27
350.588	163.67
350.971	191.24
351.354	200.96
351.737	231.46
352.119	236.21
352.502	261.74
352.884	244.12
353.267	261.07
353.65	265.36
354.032	273.5
354.414	289.09
354.797	299.48
355.179	292.93
355.562	292.03
355.944	295.87
356.326	292.03
356.709	289.31
357.091	314.85
357.473	320.05
357.855	303.78
358.238	324.12
358.62	321.86
359.002	322.08
359.384	320.05
359.766	306.49
360.148	312.59
360.53	314.62
360.912	323.66
361.294	336.09
361.676	311.69
362.057	316.21
362.439	312.59
362.821	294.96
363.203	294.29
363.584	308.97
363.966	285.25
364.348	289.54
364.729	297.68
365.111	299.94
365.493	307.62
365.874	288.18
366.256	300.84
366.637	277.11
367.019	279.6
367.4	289.31
367.781	280.05
368.163	291.35
368.544	309.88
368.925	267.39
369.306	287.73
369.688	294.96
370.069	277.56
370.45	276.21
370.831	293.16
371.212	284.12
371.593	290.67
371.974	283.66
372.355	285.25
372.736	279.37
373.117	287.73
373.498	272.59
373.879	288.64
374.26	274.63
374.641	294.51
375.021	271.69
375.402	282.76
375.783	287.96
376.163	292.48
376.544	296.77
376.925	276.66
377.305	295.42
377.686	279.15
378.066	281.86
378.447	287.96
378.827	289.31
379.208	289.09
379.588	288.86
379.968	294.06
380.349	301.74
380.729	315.98
381.109	309.43
381.489	313.49
381.87	308.52
382.25	291.12
382.63	272.82
383.01	292.48
383.39	318.69
383.77	293.61
384.15	299.26
384.53	304.91
384.91	307.62
385.29	304.91
385.67	293.38
386.049	319.37
386.429	319.14
386.809	299.26
387.189	312.82
387.568	327.51
387.948	299.94
388.328	305.59
388.707	324.34
389.087	307.17
389.466	313.95
389.846	311.69
390.225	294.74
390.605	309.65
390.984	299.03
391.363	312.36
391.743	315.3
392.122	329.31
392.501	326.6
392.881	343.55
393.26	317.56
393.639	335.87
394.018	322.76
394.397	316.21
394.776	323.21
395.155	327.96
395.534	322.31
395.913	321.4
396.292	329.54
396.671	328.41
397.05	314.85
397.429	323.89
397.808	325.02
398.186	348.75
398.565	314.62
398.944	316.88
399.323	331.57
399.701	346.04
400.08	335.87
400.458	321.63
400.837	348.97
401.215	333.16
401.594	307.17
401.972	358.47
402.351	355.53
402.729	357.34
403.107	354.62
403.486	356.21
403.864	342.19
404.242	365.02
404.62	356.66
404.999	344
405.377	347.62
405.755	360.27
406.133	371.12
406.511	380.39
406.889	371.12
407.267	350.1
407.645	354.62
408.023	369.76
408.401	375.41
408.779	348.75
409.156	397.79
409.534	366.83
409.912	374.06
410.29	376.32
410.667	383.78
411.045	394.4
411.422	378.35
411.8	388.75
412.178	405.47
412.555	366.37
412.933	392.59
413.31	412.02
413.687	402.31
414.065	399.82
414.442	397.56
414.819	408.63
415.197	395.3
415.574	418.58
415.951	404.34
416.328	419.71
416.705	418.35
417.082	416.54
417.46	404.34
417.837	434.17
418.214	401.63
418.591	438.01
418.967	416.32
419.344	418.8
419.721	452.02
420.098	420.61
420.475	446.15
420.852	440.27
421.228	421.74
421.605	442.98
421.982	442.08
422.358	451.8
422.735	440.5
423.111	454.06
423.488	426.94
423.864	475.07
424.241	459.71
424.617	464
424.994	461.51
425.37	443.21
425.746	469.87
426.123	478.91
426.499	489.31
426.875	505.35
427.251	461.97
427.627	468.52
428.003	466.71
428.379	506.26
428.756	485.02
429.132	481.17
429.507	499.93
429.883	506.03
430.259	511.91
430.635	534.28
431.011	504.9
431.387	510.33
431.763	541.29
432.138	511.23
432.514	522.08
432.89	535.41
433.265	540.83
433.641	555.07
434.016	571.11
434.392	554.17
434.767	573.83
435.143	590.78
435.518	589.42
435.894	571.57
436.269	584.45
436.644	583.32
437.02	606.14
437.395	607.72
437.77	602.3
438.145	589.42
438.52	615.86
438.895	606.82
439.271	624.67
439.646	639.59
440.021	650.43
440.395	671
440.77	643.88
441.145	656.08
441.52	682.52
441.895	662.41
442.27	703.09
442.645	661.73
443.019	711
443.394	665.8
443.769	690.43
444.143	711.68
444.518	715.74
444.892	716.87
445.267	712.35
445.641	705.57
446.016	720.26
446.39	680.04
446.764	706.25
447.139	730.66
447.513	744.67
447.887	738.12
448.262	740.83
448.636	769.75
449.01	738.12
449.384	751.22
449.758	778.79
450.132	783.54
450.506	792.13
450.88	770.43
451.254	781.05
451.628	769.75
452.002	790.09
452.376	789.19
452.75	801.39
453.123	806.36
453.497	810.88
453.871	798.23
454.244	829.41
454.618	830.77
454.992	850.66
455.365	820.15
455.739	848.62
456.112	843.42
456.486	858.34
456.859	874.61
457.232	901.5
457.606	859.47
457.979	880.71
458.352	907.6
458.725	937.88
459.099	887.72
459.472	923.42
459.845	911.67
460.218	929.75
460.591	921.39
460.964	938.11
461.337	960.26
461.71	965.23
462.083	973.36
462.456	981.95
462.829	976.53
463.201	993.25
463.574	988.05
463.947	993.93
464.32	1018.11
464.692	1028.73
465.065	1026.02
465.438	1010.65
465.81	1030.99
466.183	1033.7
466.555	1068.95
466.928	1049.07
467.3	1057.66
467.672	1085
468.045	1076.41
468.417	1109.41
468.789	1100.14
469.161	1103.3
469.534	1124.55
469.906	1102.17
470.278	1112.57
470.65	1155.05
471.022	1169.97
471.394	1173.13
471.766	1155.28
472.138	1196.86
472.51	1178.1
472.882	1186.69
473.253	1216.07
473.625	1206.8
473.997	1257.65
474.369	1240.93
474.74	1271.21
475.112	1251.77
475.484	1283.86
475.855	1272.79
476.227	1311.21
476.598	1350.08
476.97	1325.22
477.341	1338.78
477.713	1364.99
478.084	1374.48
478.455	1401.6
478.827	1407.48
479.198	1413.13
479.569	1405.44
479.94	1445.44
480.311	1436.4
480.682	1487.7
481.053	1490.19
481.424	1489.73
481.795	1480.7
482.166	1535.16
482.537	1511.2
482.908	1558.89
483.279	1545.1
483.65	1573.57
484.021	1552.56
484.391	1595.95
484.762	1593.69
485.133	1615.16
485.503	1598.88
485.874	1624.19
486.244	1652.22
486.615	1649.5
486.985	1660.8
487.356	1680.46
487.726	1684.98
488.097	1696.96
488.467	1718.88
488.837	1696.96
489.207	1732.67
489.578	1745.32
489.948	1714.81
490.318	1754.13
490.688	1750.97
491.058	1747.58
491.428	1805.88
491.798	1792.33
492.168	1825.77
492.538	1806.11
492.908	1803.4
493.278	1814.7
493.648	1779.9
494.017	1811.99
494.387	1835.26
494.757	1786.45
495.126	1832.1
495.496	1845.43
495.866	1820.12
496.235	1843.4
496.605	1832.1
496.974	1875.71
497.344	1868.26
497.713	1854.92
498.082	1847.69
498.452	1866.67
498.821	1874.36
499.19	1835.04
499.559	1882.04
499.928	1843.62
500.298	1849.27
500.667	1814.25
501.036	1838.2
501.405	1838.65
501.774	1871.42
502.143	1854.7
502.512	1830.06
502.88	1875.71
503.249	1861.25
503.618	1852.21
503.987	1858.09
504.356	1835.71
504.724	1842.27
505.093	1865.09
505.462	1862.83
505.83	1874.81
506.199	1857.86
506.567	1870.74
506.936	1857.41
507.304	1862.83
507.672	1842.49
508.041	1836.62
508.409	1848.6
508.777	1843.4
509.145	1842.04
509.514	1830.52
509.882	1844.98
510.25	1847.24
510.618	1841.14
510.986	1813.79
511.354	1834.58
511.722	1859.67
512.09	1847.01
512.458	1835.94
512.826	1834.81
513.193	1846.79
513.561	1838.88
513.929	1828.03
514.297	1825.77
514.664	1830.06
515.032	1824.19
515.4	1823.51
515.767	1792.1
516.135	1821.7
516.502	1784.87
516.869	1806.34
517.237	1776.96
517.604	1804.08
517.972	1793.46
518.339	1806.56
518.706	1783.96
519.073	1772.44
519.44	1781.48
519.808	1772.44
520.175	1787.13
520.542	1796.85
520.909	1789.16
521.276	1815.15
521.643	1759.11
522.009	1804.98
522.376	1773.57
522.743	1754.59
523.11	1757.75
523.477	1797.75
523.843	1784.64
524.21	1748.71
524.577	1755.49
524.943	1781.7
525.31	1762.04
525.676	1785.32
526.043	1768.15
526.409	1782.61
526.776	1768.6
527.142	1779.9
527.508	1780.35
527.874	1769.95
528.241	1737.41
528.607	1749.39
528.973	1748.49
529.339	1745.77
529.705	1774.47
530.071	1750.74
530.437	1750.29
530.803	1764.3
531.169	1765.89
531.535	1761.37
531.901	1731.54
532.267	1760.24
532.632	1763.63
532.998	1761.37
533.364	1752.78
533.73	1748.03
534.095	1746.23
534.461	1747.36
534.826	1774.25
535.192	1760.24
535.557	1758.88
535.923	1747.13
536.288	1722.72
536.653	1731.08
537.019	1742.38
537.384	1727.47
537.749	1755.49
538.114	1742.16
538.479	1732.67
538.845	1721.14
539.21	1705.32
539.575	1707.58
539.94	1719.79
540.305	1714.36
540.67	1747.13
541.034	1708.26
541.399	1697.19
541.764	1694.02
542.129	1703.51
542.494	1693.8
542.858	1702.38
543.223	1682.95
543.587	1687.7
543.952	1711.42
544.316	1671.65
544.681	1670.52
545.045	1710.29
545.41	1677.75
545.774	1645.44
546.138	1662.39
546.503	1667.81
546.867	1672.55
547.231	1656.06
547.595	1640.24
547.959	1657.19
548.324	1648.15
548.688	1661.03
549.052	1655.61
549.416	1630.97
549.779	1654.25
550.143	1656.06
550.507	1641.6
550.871	1642.95
551.235	1637.98
551.599	1622.16
551.962	1644.53
552.326	1641.37
552.689	1635.49
553.053	1658.32
553.417	1619.9
553.78	1641.6
554.143	1646.34
554.507	1640.01
554.87	1610.64
555.234	1642.27
555.597	1607.92
555.96	1602.95
556.323	1637.53
556.686	1614.25
557.05	1624.42
557.413	1599.34
557.776	1616.51
558.139	1624.65
558.502	1601.37
558.865	1599.79
559.228	1580.81
559.59	1606.12
559.953	1620.8
560.316	1596.4
560.679	1590.07
561.041	1602.73
561.404	1602.27
561.767	1649.28
562.129	1630.3
562.492	1620.8
562.854	1612.67
563.217	1631.43
563.579	1617.42
563.941	1624.19
564.304	1618.09
564.666	1629.17
565.028	1627.58
565.39	1600.47
565.753	1633.69
566.115	1658.77
566.477	1654.7
566.839	1642.73
567.201	1658.54
567.563	1646.11
567.925	1681.82
568.287	1672.78
568.648	1661.48
569.01	1647.7
569.372	1642.73
569.734	1650.41
570.095	1648.6
570.457	1668.49
570.819	1660.8
571.18	1702.61
571.542	1654.7
571.903	1684.08
572.265	1702.16
572.626	1677.07
572.987	1690.41
573.349	1675.27
573.71	1671.65
574.071	1695.15
574.432	1718.66
574.794	1701.03
575.155	1707.58
575.516	1709.62
575.877	1734.7
576.238	1712.55
576.599	1737.19
576.96	1732.44
577.32	1733.34
577.681	1732.44
578.042	1699.22
578.403	1725.89
578.763	1739.45
579.124	1750.97
579.485	1752.78
579.845	1761.37
580.206	1750.29
580.566	1754.59
580.927	1776.96
581.287	1756.39
581.648	1744.87
582.008	1747.81
582.368	1719.56
582.728	1768.37
583.089	1770.41
583.449	1735.38
583.809	1766.79
584.169	1792.33
584.529	1759.78
584.889	1786.9
585.249	1769.28
585.609	1764.53
585.969	1783.96
586.329	1787.58
586.688	1766.34
587.048	1770.41
587.408	1797.52
587.768	1794.81
588.127	1775.83
588.487	1786
588.846	1825.09
589.206	1744.19
589.565	1763.17
589.925	1761.82
590.284	1779.9
590.643	1780.12
591.003	1804.08
591.362	1810.4
591.721	1779.44
592.08	1768.6
592.44	1795.49
592.799	1765.89
593.158	1789.61
593.517	1797.07
593.876	1754.13
594.235	1788.03
594.593	1745.32
594.952	1800.01
595.311	1745.32
595.67	1776.96
596.029	1780.12
596.387	1774.02
596.746	1793.68
597.104	1787.81
597.463	1784.87
597.822	1789.61
598.18	1770.63
598.538	1783.06
598.897	1785.77
599.255	1744.64
599.613	1795.26
599.972	1771.31
600.33	1774.7
600.688	1793.23
601.046	1786.68
601.404	1792.55
601.762	1771.99
602.12	1791.2
602.478	1764.53
602.836	1750.52
603.194	1796.62
603.552	1770.18
603.91	1771.08
604.268	1755.94
604.625	1792.33
604.983	1791.42
605.341	1772.89
605.698	1773.8
606.056	1797.3
606.413	1787.81
606.771	1824.19
607.128	1808.82
607.485	1786.45
607.843	1793.23
608.2	1776.73
608.557	1778.09
608.914	1746.68
609.272	1766.79
609.629	1768.82
609.986	1837.97
610.343	1812.21
610.7	1801.59
611.057	1786
611.414	1770.86
611.771	1782.16
612.127	1771.08
612.484	1772.89
612.841	1779.22
613.198	1796.17
613.554	1812.21
613.911	1818.99
614.267	1820.35
614.624	1794.36
614.98	1808.37
615.337	1830.74
615.693	1809.27
616.05	1790.52
616.406	1799.78
616.762	1813.12
617.118	1802.72
617.475	1835.49
617.831	1813.57
618.187	1820.12
618.543	1822.38
618.899	1827.13
619.255	1796.17
619.611	1845.66
619.967	1840.69
620.323	1811.53
620.678	1819.67
621.034	1813.34
621.39	1842.95
621.746	1829.84
622.101	1852.66
622.457	1837.3
622.812	1821.03
623.168	1818.99
623.523	1835.26
623.879	1852.66
624.234	1816.05
624.589	1833.68
624.945	1831.19
625.3	1852.44
625.655	1824.42
626.01	1839.1
626.365	1819.44
626.72	1841.14
627.075	1809.95
627.43	1837.3
627.785	1832.1
628.14	1821.25
628.495	1857.63
628.85	1859.44
629.205	1837.3
629.559	1858.09
629.914	1855.15
630.269	1827.35
630.623	1811.08
630.978	1826.45
631.332	1874.81
631.687	1835.26
632.041	1821.03
632.396	1826.9
632.75	1818.77
633.104	1839.56
633.459	1844.98
633.813	1836.39
634.167	1837.52
634.521	1836.62
634.875	1803.85
635.229	1879.78
635.583	1855.15
635.937	1834.36
636.291	1819.9
636.645	1810.18
636.999	1817.86
637.352	1824.87
637.706	1812.44
638.06	1845.21
638.413	1805.88
638.767	1824.64
639.121	1826.68
639.474	1818.77
639.828	1813.12
640.181	1812.66
640.534	1826.45
640.888	1831.19
641.241	1825.32
641.594	1805.43
641.947	1823.29
642.301	1810.18
642.654	1793.23
643.007	1815.15
643.36	1830.29
643.713	1853.57
644.066	1849.05
644.419	1816.51
644.771	1807.01
645.124	1815.83
645.477	1815.83
645.83	1777.18
646.182	1799.11
646.535	1794.59
646.888	1801.37
647.24	1791.2
647.593	1759.11
647.945	1809.95
648.298	1776.96
648.65	1793.68
649.002	1812.21
649.355	1818.31
649.707	1801.59
650.059	1805.66
650.411	1807.24
650.763	1814.92
651.115	1860.8
651.467	1818.31
651.819	1823.96
652.171	1860.35
652.523	1866.9
652.875	1840.91
653.227	1858.99
653.578	1821.7
653.93	1848.82
654.282	1847.47
654.633	1832.78
654.985	1850.86
655.337	1838.65
655.688	1837.52
656.039	1821.93
656.391	1844.98
656.742	1851.53
657.094	1841.36
657.445	1830.52
657.796	1877.97
658.147	1850.86
658.498	1855.83
658.849	1855.6
659.2	1830.06
659.551	1833.91
659.902	1867.35
660.253	1884.3
660.604	1885.66
660.955	1861.48
661.306	1876.84
661.656	1861.7
662.007	1877.07
662.358	1868.03
662.708	1844.98
663.059	1879.78
663.409	1877.97
663.76	1859.22
664.11	1896.73
664.461	1879.56
664.811	1851.99
665.161	1869.16
665.511	1844.08
665.862	1901.7
666.212	1896.28
666.562	1858.54
666.912	1856.96
667.262	1839.56
667.612	1860.12
667.962	1875.04
668.312	1851.31
668.662	1842.95
669.011	1850.4
669.361	1848.82
669.711	1859.89
670.06	1840.91
670.41	1852.44
670.76	1851.53
671.109	1840.23
671.459	1859.89
671.808	1887.46
672.157	1843.17
672.507	1834.81
672.856	1846.56
673.205	1860.8
673.554	1848.37
673.904	1827.58
674.253	1819.44
674.602	1837.52
674.951	1841.36
675.3	1834.13
675.649	1849.73
675.998	1793.68
676.346	1823.96
676.695	1815.15
677.044	1797.52
677.393	1823.29
677.741	1837.97
678.09	1820.8
678.438	1812.44
678.787	1798.43
679.135	1800.24
679.484	1799.33
679.832	1834.58
680.181	1829.16
680.529	1781.7
680.877	1790.07
681.225	1809.05
681.573	1828.93
681.922	1769.95
682.27	1806.34
682.618	1761.82
682.966	1791.2
683.314	1792.33
683.661	1788.48
684.009	1759.56
684.357	1784.42
684.705	1761.37
685.053	1779.9
685.4	1790.74
685.748	1722.05
686.095	1740.35
686.443	1742.84
686.79	1730.63
687.138	1723.18
687.485	1739.45
687.832	1746.23
688.18	1734.47
688.527	1703.06
688.874	1728.37
689.221	1690.86
689.568	1724.3
689.915	1699.22
690.262	1708.94
690.609	1734.02
690.956	1716.4
691.303	1702.84
691.65	1706.9
691.997	1722.95
692.344	1703.29
692.69	1673.91
693.037	1691.54
693.383	1685.21
693.73	1674.14
694.077	1665.78
694.423	1675.27
694.769	1676.17
695.116	1654.7
695.462	1637.08
695.808	1648.15
696.155	1641.14
696.501	1629.84
696.847	1647.47
697.193	1620.58
697.539	1642.05
697.885	1608.38
698.231	1619.9
698.577	1604.76
698.923	1597.75
699.269	1591.2
699.614	1592.78
699.96	1594.82
700.306	1607.47
700.651	1594.59
700.997	1586.68
701.342	1591.43
701.688	1581.26
702.033	1585.33
702.379	1587.36
702.724	1573.35
703.069	1589.17
703.415	1584.87
703.76	1581.71
704.105	1586.23
704.45	1583.29
704.795	1526.8
705.14	1549.62
705.485	1559.79
705.83	1575.61
706.175	1557.08
706.52	1559.79
706.865	1576.06
707.209	1544.87
707.554	1515.95
707.899	1557.3
708.243	1536.51
708.588	1563.18
708.932	1544.42
709.277	1555.27
709.621	1536.97
709.966	1530.19
710.31	1562.95
710.654	1524.54
710.998	1548.49
711.342	1526.8
711.687	1580.13
712.031	1518.21
712.375	1538.1
712.719	1576.29
713.063	1565.44
713.407	1542.84
713.75	1545.78
714.094	1570.86
714.438	1534.25
714.782	1575.83
715.125	1523.86
715.469	1585.55
715.812	1574.25
716.156	1552.11
716.499	1574.25
716.843	1609.51
717.186	1554.14
717.53	1576.06
717.873	1549.17
718.216	1576.06
718.559	1584.65
718.902	1570.41
719.246	1571.31
719.589	1583.07
719.932	1590.3
720.275	1609.96
720.617	1593.69
720.96	1603.63
721.303	1598.21
721.646	1587.59
721.989	1598.43
722.331	1604.53
722.674	1600.69
723.016	1621.26
723.359	1586
723.701	1609.05
724.044	1647.24
724.386	1632.78
724.729	1626.68
725.071	1662.61
725.413	1642.05
725.755	1643.86
726.097	1627.36
726.439	1614.7
726.782	1634.82
727.124	1668.71
727.465	1691.54
727.807	1652.44
728.149	1638.43
728.491	1681.82
728.833	1675.72
729.175	1652.89
729.516	1679.11
729.858	1661.71
730.199	1675.72
730.541	1704.87
730.882	1729.5
731.224	1688.6
731.565	1703.06
731.906	1738.77
732.248	1734.47
732.589	1737.64
732.93	1712.55
733.271	1738.99
733.612	1760.24
733.953	1739.67
734.294	1747.13
734.635	1760.01
734.976	1806.79
735.317	1796.39
735.658	1808.6
735.999	1821.93
736.339	1796.62
736.68	1865.09
737.021	1870.52
737.361	1842.04
737.702	1856.28
738.042	1868.26
738.383	1880.01
738.723	1888.37
739.063	1910.29
739.404	1943.06
739.744	1945.32
740.084	1959.78
740.424	1951.87
740.764	1968.14
741.104	1979.44
741.444	1998.42
741.784	2021.92
742.124	2020.79
742.464	2024.41
742.804	2045.88
743.143	2099.44
743.483	2101.24
743.823	2121.13
744.162	2101.47
744.502	2139.21
744.841	2151.86
745.181	2183.95
745.52	2227.12
745.86	2219.89
746.199	2244.74
746.538	2281.8
746.877	2307.34
747.216	2350.96
747.556	2372.42
747.895	2405.87
748.234	2421.24
748.573	2461.01
748.911	2477.96
749.25	2486.54
749.589	2547.33
749.928	2599.76
750.267	2628.91
750.605	2623.04
750.944	2673.21
751.283	2703.71
751.621	2787.33
751.96	2806.54
752.298	2868
752.636	2885.4
752.975	2931.96
753.313	2956.36
753.651	3034.1
753.989	3079.52
754.327	3143.93
754.666	3194.77
755.004	3207.2
755.342	3293.76
755.679	3317.94
756.017	3347.99
756.355	3408.78
756.693	3466.63
757.031	3561.77
757.368	3610.81
757.706	3627.31
758.044	3668.21
758.381	3785.72
758.719	3816.91
759.056	3838.6
759.394	3906.62
759.731	3980.06
760.068	4057.58
760.405	4081.76
760.743	4144.13
761.08	4210.79
761.417	4278.36
761.754	4352.71
762.091	4372.82
762.428	4424.8
762.765	4498.92
763.102	4608.75
763.438	4604.68
763.775	4686.03
764.112	4760.84
764.449	4824.56
764.785	4820.04
765.122	4846.48
765.458	4866.82
765.795	4996.76
766.131	5069.75
766.467	5074.05
766.804	5114.5
767.14	5190.65
767.476	5237.43
767.812	5279.01
768.148	5345.23
768.485	5381.38
768.821	5443.3
769.157	5406.02
769.492	5510.87
769.828	5576.63
770.164	5511.78
770.5	5563.53
770.836	5609.63
771.171	5637.2
771.507	5738.66
771.842	5713.8
772.178	5721.94
772.513	5762.16
772.849	5841.71
773.184	5843.29
773.519	5868.15
773.855	5915.83
774.19	5898.66
774.525	5931.65
774.86	5973.68
775.195	6062.5
775.53	6053
775.865	6013.46
776.2	6101.59
776.535	6049.16
776.87	6081.25
777.205	6096.39
777.539	6100.46
777.874	6202.38
778.209	6190.85
778.543	6158.09
778.878	6165.32
779.212	6205.54
779.547	6168.93
779.881	6199.89
780.215	6209.38
780.55	6220.46
780.884	6235.37
781.218	6248.71
781.552	6257.52
781.886	6293.22
782.22	6234.24
782.554	6307.69
782.888	6274.24
783.222	6231.08
783.556	6282.38
783.889	6262.04
784.223	6169.16
784.557	6247.12
784.89	6307.69
785.224	6253.23
785.557	6267.24
785.891	6293.22
786.224	6240.57
786.558	6304.52
786.891	6247.8
787.224	6290.96
787.557	6258.87
787.891	6257.29
788.224	6241.7
788.557	6266.78
788.89	6267.69
789.223	6255.94
789.556	6258.2
789.888	6274.02
790.221	6287.57
790.554	6189.95
790.887	6213.45
791.219	6235.15
791.552	6234.69
791.884	6204.87
792.217	6229.72
792.549	6250.97
792.882	6192.89
793.214	6213.45
793.546	6167.35
793.879	6148.14
794.211	6140.91
794.543	6251.64
794.875	6151.08
795.207	6168.26
795.539	6212.1
795.871	6202.38
796.203	6128.03
796.535	6152.66
796.867	6153.79
797.198	6143.4
797.53	6097.75
797.862	6083.29
798.193	6127.58
798.525	6075.15
798.856	6116.28
799.188	6050.74
799.519	6049.84
799.85	6040.8
800.182	6029.73
800.513	6029.05
800.844	6008.26
801.175	5986.57
801.506	6066.34
801.837	6015.27
802.168	5944.31
802.499	5964.65
802.83	5916.74
803.161	5952.89
803.491	5942.73
803.822	5955.15
804.153	5916.74
804.483	5870.41
804.814	5845.78
805.145	5879.9
805.475	5874.48
805.805	5858.21
806.136	5849.17
806.466	5869.96
806.796	5860.02
807.126	5805.78
807.457	5823.18
807.787	5867.7
808.117	5752.45
808.447	5777.53
808.777	5782.96
809.107	5754.93
809.436	5823.63
809.766	5793.12
810.096	5766.01
810.426	5701.38
810.755	5744.99
811.085	5757.87
811.414	5762.39
811.744	5692.34
812.073	5761.49
812.403	5691.66
812.732	5675.16
813.061	5621.15
813.39	5654.37
813.719	5672.45
814.049	5676.52
814.378	5712.67
814.707	5627.03
815.036	5639
815.365	5639
815.693	5603.3
816.022	5596.29
816.351	5566.01
816.68	5539.12
817.008	5630.19
817.337	5470.2
817.665	5558.33
817.994	5552.45
818.322	5527.37
818.651	5497.09
818.979	5505.9
819.307	5540.93
819.636	5470.65
819.964	5484.88
820.292	5504.09
820.62	5511.32
820.948	5529.18
821.276	5517.65
821.604	5500.25
821.932	5515.84
822.259	5518.33
822.587	5522.4
822.915	5508.16
823.243	5514.49
823.57	5559.68
823.898	5502.96
824.225	5502.06
824.553	5507.48
824.88	5513.13
825.207	5577.08
825.535	5574.15
825.862	5498.22
826.189	5508.39
826.516	5534.15
826.843	5561.49
827.17	5542.96
827.497	5555.16
827.824	5578.44
828.151	5587.48
828.478	5504.77
828.805	5568.27
829.131	5562.4
829.458	5531.66
829.785	5522.85
830.111	5572.57
830.438	5603.52
830.764	5541.61
831.09	5566.46
831.417	5595.84
831.743	5553.81
832.069	5563.75
832.395	5562.17
832.722	5582.73
833.048	5493.47
833.374	5487.6
833.7	5495.05
834.026	5555.84
834.351	5535.73
834.677	5529.85
835.003	5552
835.329	5540.7
835.654	5535.73
835.98	5486.01
836.306	5519.46
836.631	5490.08
836.956	5490.53
837.282	5505.9
837.607	5492.12
837.932	5469.74
838.258	5465.22
838.583	5448.73
838.908	5424.32
839.233	5442.4
839.558	5415.06
839.883	5427.94
840.208	5365.34
840.533	5430.2
840.858	5486.24
841.182	5400.82
841.507	5387.94
841.832	5340.71
842.156	5378.45
842.481	5350.65
842.805	5384.55
843.13	5301.84
843.454	5371.44
843.778	5286.47
844.103	5295.96
844.427	5275.62
844.751	5323.31
845.075	5240.82
845.399	5276.98
845.723	5249.41
846.047	5235.63
846.371	5172.8
846.695	5169.19
847.019	5216.87
847.343	5143.88
847.666	5129.87
847.99	5112.01
848.313	5104.56
848.637	5030.43
848.96	5051.9
849.284	5061.62
849.607	5025.91
849.931	5025.69
850.254	4985.69
850.577	4978.23
850.9	4953.37
851.223	4969.64
851.546	4932.13
851.869	4881.74
852.192	4915.86
852.515	4848.97
852.838	4876.31
853.161	4813.94
853.483	4803.55
853.806	4821.62
854.129	4773.26
854.451	4730.1
854.774	4771.23
855.096	4782.98
855.419	4735.98
855.741	4725.13
856.063	4655.53
856.385	4679.48
856.708	4693.49
857.03	4695.75
857.352	4696.2
857.674	4597
857.996	4635.64
858.318	4606.94
858.64	4596.77
858.961	4586.6
859.283	4571.91
859.605	4548.86
859.926	4542.54
860.248	4480.39
860.57	4483.55
860.891	4484.23
861.212	4468.41
861.534	4465.48
861.855	4508.41
862.176	4523.78
862.498	4462.54
862.819	4484.68
863.14	4481.52
863.461	4463.44
863.782	4446.72
864.103	4438.13
864.424	4422.77
864.745	4409.88
865.065	4381.64
865.386	4460.96
865.707	4421.18
866.027	4402.65
866.348	4328.98
866.668	4376.66
866.989	4336.67
867.309	4338.47
867.63	4381.41
867.95	4326.5
868.27	4363.33
868.59	4364.46
868.91	4326.72
869.23	4300.51
869.55	4260.28
869.87	4321.3
870.19	4314.97
870.51	4300.28
870.83	4333.73
871.15	4282.2
871.469	4269.55
871.789	4234.07
872.109	4265.03
872.428	4272.03
872.748	4267.29
873.067	4286.95
873.386	4171.47
873.706	4236.78
874.025	4255.54
874.344	4206.73
874.663	4186.16
874.982	4179.83
875.301	4181.87
875.62	4147.29
875.939	4156.33
876.258	4187.74
876.577	4197.91
876.896	4143.9
877.214	4158.37
877.533	4201.08
877.852	4178.48
878.17	4127.86
878.489	4095.99
878.807	4151.36
879.125	4106.84
879.444	4102.1
879.762	4093.96
880.08	4090.8
880.398	4079.05
880.716	4039.72
881.034	4072.27
881.352	4064.36
881.67	4033.17
881.988	4067.29
882.306	4057.12
882.624	4046.28
882.941	4055.32
883.259	4013.28
883.577	3979.39
883.894	3972.83
884.212	4013.74
884.529	3961.76
884.846	3939.84
885.164	3993.17
885.481	3971.48
885.798	3971.25
886.115	3920.86
886.432	3934.87
886.75	3905.26
887.067	3900.97
887.383	3857.81
887.7	3879.95
888.017	3869.11
888.334	3834.08
888.651	3851.25
888.967	3852.84
889.284	3808.09
889.6	3796.79
889.917	3779.39
890.233	3766.96
890.55	3775.55
890.866	3788.88
891.182	3780.52
891.498	3702.33
891.815	3724.03
892.131	3736
892.447	3685.84
892.763	3686.74
893.079	3713.18
893.395	3677.02
893.71	3609.23
894.026	3646.29
894.342	3637.47
894.657	3630.92
894.973	3574.65
895.289	3641.54
895.604	3646.97
895.92	3577.59
896.235	3588.21
896.55	3532.17
896.865	3529.91
897.181	3558.16
897.496	3558.61
897.811	3544.6
898.126	3554.09
898.441	3454.65
898.756	3484.71
899.071	3499.63
899.386	3468.89
899.7	3433.64
900.015	3424.6
900.33	3425.05
900.644	3388.89
900.959	3394.09
901.273	3387.99
901.588	3377.82
901.902	3379.4
902.216	3367.43
902.531	3367.65
902.845	3307.54
903.159	3314.55
903.473	3298.27
903.787	3315.68
904.101	3289.01
904.415	3279.07
904.729	3205.85
905.042	3226.41
905.356	3206.98
905.67	3205.85
905.984	3223.93
906.297	3203.14
906.611	3197.94
906.924	3168.56
907.237	3170.37
907.551	3192.97
907.864	3152.06
908.177	3131.95
908.491	3106.42
908.804	3117.26
909.117	3093.31
909.43	3057.15
909.743	3051.5
910.056	3011.73
910.368	3011.95
910.681	3050.6
910.994	3002.46
911.307	2973.09
911.619	2982.8
911.932	3007.44
912.244	2997.49
912.557	2953.88
912.869	2915.23
913.181	2861.45
913.494	2928.79
913.806	2923.37
914.118	2926.08
914.43	2909.58
914.742	2857.83
915.054	2865.74
915.366	2858.74
915.678	2832.3
915.99	2840.66
916.302	2811.06
916.613	2790.94
916.925	2796.37
917.236	2782.58
917.548	2789.81
917.859	2768.35
918.171	2784.84
918.482	2709.82
918.794	2747.33
919.105	2779.87
919.416	2719.76
919.727	2731.06
920.038	2691.29
920.349	2686.09
920.66	2657.39
920.971	2651.06
921.282	2649.48
921.593	2664.17
921.903	2605.19
922.214	2620.1
922.525	2599.31
922.835	2592.53
923.146	2611.97
923.456	2607.45
923.767	2565.19
924.077	2550.27
924.387	2575.81
924.697	2550.27
925.008	2515.02
925.318	2520.89
925.628	2505.75
925.938	2497.39
926.248	2491.06
926.558	2496.49
926.867	2494.68
927.177	2493.55
927.487	2484.74
927.796	2490.61
928.106	2463.95
928.416	2401.58
928.725	2432.08
929.034	2438.64
929.344	2453.33
929.653	2422.37
929.962	2412.42
930.271	2396.6
930.581	2407.22
930.89	2352.54
931.199	2345.53
931.508	2358.64
931.817	2353.21
932.125	2320.45
932.434	2336.27
932.743	2298.08
933.051	2320.22
933.36	2318.64
933.669	2274.12
933.977	2266.21
934.286	2284.52
934.594	2253.78
934.902	2243.16
935.21	2270.96
935.519	2237.29
935.827	2226.21
936.135	2213.78
936.443	2193.9
936.751	2203.16
937.059	2188.47
937.367	2171.3
937.674	2186.21
937.982	2157.06
938.29	2123.84
938.597	2161.81
938.905	2151.86
939.213	2142.37
939.52	2115.03
939.827	2158.19
940.135	2108.7
940.442	2099.21
940.749	2121.58
941.056	2090.4
941.363	2063.51
941.67	2032.32
941.977	2059.44
942.284	2051.53
942.591	2068.7
942.898	2048.36
943.205	2066.22
943.511	2020.57
943.818	2030.51
944.125	2031.42
944.431	2008.14
944.738	2006.33
945.044	1972.66
945.35	1971.3
945.657	1979.67
945.963	1938.31
946.269	1928.14
946.575	1952.32
946.881	1947.12
947.187	1939.67
947.493	1920.23
947.799	1899.22
948.105	1906.22
948.41	1915.94
948.716	1903.74
949.022	1864.87
949.327	1866.67
949.633	1866.22
949.938	1873
950.244	1863.51
950.549	1865.32
950.854	1858.76
951.16	1820.57
951.465	1835.49
951.77	1849.27
952.075	1824.64
952.38	1808.14
952.685	1788.71
952.99	1827.35
953.294	1782.16
953.599	1809.73
953.904	1776.73
954.209	1770.63
954.513	1753.46
954.818	1772.89
955.122	1755.04
955.426	1770.63
955.731	1787.58
956.035	1727.24
956.339	1759.78
956.643	1698.32
956.948	1693.8
957.252	1707.36
957.556	1696.74
957.86	1690.63
958.163	1682.05
958.467	1681.14
958.771	1677.53
959.075	1645.66
959.378	1663.97
959.682	1677.07
959.985	1642.05
960.289	1654.7
960.592	1646.79
960.896	1643.86
961.199	1635.72
961.502	1600.47
961.805	1608.6
962.108	1604.76
962.411	1608.6
962.714	1615.38
963.017	1573.12
963.32	1615.38
963.623	1563.63
963.926	1566.79
964.228	1571.54
964.531	1576.74
964.833	1531.09
965.136	1574.7
965.438	1541.03
965.741	1530.41
966.043	1519.34
966.345	1519.34
966.648	1549.62
966.95	1512.79
967.252	1506.23
967.554	1507.59
967.856	1517.08
968.158	1481.15
968.46	1476.4
968.761	1457.19
969.063	1471.88
969.365	1469.17
969.666	1448.38
969.968	1423.52
970.269	1449.96
970.571	1475.05
970.872	1427.14
971.174	1417.19
971.475	1433.92
971.776	1406.8
972.077	1422.17
972.378	1408.83
972.679	1412.45
972.98	1422.62
973.281	1378.1
973.582	1410.19
973.883	1395.05
974.183	1372.9
974.484	1360.47
974.785	1355.05
975.085	1348.5
975.386	1373.13
975.686	1345.56
975.986	1372.45
976.287	1328.38
976.587	1334.94
976.887	1320.7
977.187	1339
977.487	1331.32
977.787	1306.24
978.087	1316.41
978.387	1309.63
978.687	1283.86
978.987	1271.44
979.286	1307.14
979.586	1289.29
979.885	1297.88
980.185	1324.54
980.484	1301.04
980.784	1280.47
981.083	1255.84
981.382	1247.48
981.682	1259.46
981.981	1238.22
982.28	1277.54
982.579	1230.53
982.878	1249.52
983.177	1220.82
983.475	1254.71
983.774	1219.01
984.073	1239.57
984.372	1209.29
984.67	1205.67
984.969	1190.76
985.267	1208.16
985.566	1196.41
985.864	1194.15
986.162	1181.27
986.461	1199.12
986.759	1191.44
987.057	1171.78
987.355	1170.65
987.653	1150.08
987.951	1173.36
988.249	1167.94
988.547	1156.86
988.844	1148.05
989.142	1127.94
989.44	1147.37
989.737	1114.6
990.035	1118.67
990.332	1139.46
990.63	1116.86
990.927	1134.49
991.224	1102.85
991.521	1108.5
991.819	1080.71
992.116	1078.9
992.413	1086.13
992.71	1098.78
993.006	1086.36
993.303	1119.35
993.6	1104.89
993.897	1056.98
994.193	1064.44
994.49	1092.01
994.787	1050.2
995.083	1081.38
995.379	1019.92
995.676	1056.75
995.972	1065.11
996.268	1026.24
996.565	1044.1
996.861	1028.28
997.157	1026.24
997.453	1027.15
997.749	1014.49
998.044	1032.8
998.34	1018.56
998.636	1012.69
998.932	1012.91
999.227	1033.93
999.523	998.9
999.818	993.48
1000.114	973.14
1000.409	954.83
1000.704	981.73
1001	972.69
1001.295	963.87
1001.59	960.48
1001.885	949.18
1002.18	969.07
1002.475	958
1002.77	938.11
1003.065	925.91
1003.359	956.42
1003.654	953.03
1003.949	930.65
1004.243	919.35
1004.538	913.48
1004.832	912.8
1005.127	926.81
1005.421	909.19
1005.715	895.63
1006.009	931.56
1006.304	897.89
1006.598	888.17
1006.892	894.5
1007.186	892.01
1007.48	869.41
1007.773	879.36
1008.067	872.58
1008.361	867.15
1008.655	832.58
1008.948	887.26
1009.242	867.83
1009.535	859.69
1009.829	844.78
1010.122	847.27
1010.415	814.05
1010.708	841.84
1011.001	821.73
1011.295	837.55
1011.588	836.19
1011.881	829.41
1012.173	826.48
1012.466	807.27
1012.759	812.92
1013.052	806.36
1013.344	798.45
1013.637	817.89
1013.93	800.94
1014.222	785.57
1014.514	788.51
1014.807	794.84
1015.099	791.45
1015.391	770.66
1015.683	758.45
1015.976	774.95
1016.268	763.65
1016.56	774.27
1016.851	744.67
1017.143	756.65
1017.435	747.16
1017.727	724.33
1018.018	746.7
1018.31	759.13
1018.602	740.38
1018.893	745.12
1019.185	744.9
1019.476	744.44
1019.767	730.88
1020.058	717.1
1020.35	704.9
1020.641	732.24
1020.932	692.24
1021.223	696.54
1021.514	703.99
1021.804	677.1
1022.095	708.74
1022.386	703.77
1022.677	698.8
1022.967	678.68
1023.258	668.29
1023.548	698.8
1023.839	667.38
1024.129	677.33
1024.419	681.85
1024.709	676.65
1025	671.23
1025.29	660.38
1025.58	640.94
1025.87	660.6
1026.16	637.78
1026.449	666.71
1026.739	650.43
1027.029	661.06
1027.319	642.07
1027.608	620.15
1027.898	626.03
1028.187	636.88
1028.477	647.95
1028.766	625.12
1029.055	610.89
1029.344	600.72
1029.634	610.66
1029.923	614.05
1030.212	622.64
1030.501	616.76
1030.79	597.1
1031.078	631.45
1031.367	615.18
1031.656	606.14
1031.945	603.66
1032.233	605.24
1032.522	596.88
1032.81	603.2
1033.099	594.84
1033.387	587.61
1033.675	595.75
1033.963	581.96
1034.251	584
1034.54	584
1034.828	559.14
1035.116	572.47
1035.403	582.19
1035.691	590.78
1035.979	577.89
1036.267	583.77
1036.554	579.48
1036.842	551
1037.129	549.19
1037.417	542.87
1037.704	547.84
1037.992	545.35
1038.279	554.17
1038.566	548.97
1038.853	548.97
1039.14	548.97
