Data from blue_shiny_book_FLMS001491_00047.txt Node
Date: Wed Feb 08 15:27:01 GMT 2017
User: dcchb
Spectrometer: FLMS00149
Trigger mode: 0
Integration Time (sec): 2.000000E-2
Scans to average: 10
Electric dark correction enabled: true
Nonlinearity correction enabled: false
Boxcar width: 0
XAxis mode: Wavelengths
Number of Pixels in Spectrum: 2048
>>>>>Begin Spectral Data<<<<<
341.393	-1.61
341.776	-1.61
342.16	-1.61
342.543	-46.58
342.927	-58.56
343.31	-70.31
343.693	-48.61
344.077	-67.15
344.46	-60.59
344.843	-60.37
345.226	-44.55
345.61	-42.51
345.993	-24.89
346.376	-3.64
346.759	16.02
347.142	24.38
347.525	52.17
347.908	37.94
348.291	80.65
348.674	105.96
349.057	105.51
349.44	119.97
349.823	125.84
350.206	159.97
350.588	191.61
350.971	223.02
351.354	262.34
351.737	239.74
352.119	250.59
352.502	279.74
352.884	271.83
353.267	304.14
353.65	309.12
354.032	316.8
354.414	331.94
354.797	324.26
355.179	325.61
355.562	340.75
355.944	354.99
356.326	345.5
356.709	362.22
357.091	349.79
357.473	342.79
357.855	373.3
358.238	354.76
358.62	341.88
359.002	353.18
359.384	361.54
359.766	362.22
360.148	358.61
360.53	361.09
360.912	342.34
361.294	363.35
361.676	352.28
362.057	334.43
362.439	363.13
362.821	343.69
363.203	329.23
363.584	338.27
363.966	339.17
364.348	338.49
364.729	347.08
365.111	351.83
365.493	353.18
365.874	311.83
366.256	337.82
366.637	341.21
367.019	343.47
367.4	329.23
367.781	331.71
368.163	351.6
368.544	351.6
368.925	332.62
369.306	332.62
369.688	342.34
370.069	339.17
370.45	339.17
370.831	351.37
371.212	349.79
371.593	345.05
371.974	330.36
372.355	354.76
372.736	356.8
373.117	350.92
373.498	362
373.879	345.05
374.26	356.57
374.641	340.3
375.021	325.16
375.402	361.54
375.783	347.99
376.163	362
376.544	377.36
376.925	351.37
377.305	362.45
377.686	389.57
378.066	365.39
378.447	364.48
378.827	388.89
379.208	393.18
379.588	368.1
379.968	385.5
380.349	382.56
380.729	390.02
381.109	409.45
381.489	398.38
381.87	382.33
382.25	403.12
382.63	410.58
383.01	411.26
383.39	405.38
383.77	425.72
384.15	423.01
384.53	416.46
384.91	432.95
385.29	425.5
385.67	431.6
386.049	455.55
386.429	460.07
386.809	459.39
387.189	443.12
387.568	449.9
387.948	449.23
388.328	450.81
388.707	471.15
389.087	466.63
389.466	464.14
389.846	461.43
390.225	473.18
390.605	464.59
390.984	477.7
391.363	459.62
391.743	487.64
392.122	515.89
392.501	493.97
392.881	510.47
393.26	522.9
393.639	522.67
394.018	522.22
394.397	531.48
394.776	546.62
395.155	526.29
395.534	528.09
395.913	539.39
396.292	578.26
396.671	574.42
397.05	565.83
397.429	564.25
397.808	537.58
398.186	598.6
398.565	561.54
398.944	550.92
399.323	581.2
399.701	599.73
400.08	606.06
400.458	598.15
400.837	615.55
401.215	629.79
401.594	620.75
401.972	639.73
402.351	652.61
402.729	645.83
403.107	663.01
403.486	669.78
403.864	646.51
404.242	649.9
404.62	686.51
404.999	680.41
405.377	690.8
405.755	717.24
406.133	721.99
406.511	738.71
406.889	721.31
407.267	739.61
407.645	739.16
408.023	752.72
408.401	757.47
408.779	759.95
409.156	782.32
409.534	799.27
409.912	808.09
410.29	828.2
410.667	845.37
411.045	867.97
411.422	858.48
411.8	834.75
412.178	881.98
412.555	893.06
412.933	911.59
413.31	918.37
413.687	921.76
414.065	958.59
414.442	947.74
414.819	961.75
415.197	996.1
415.574	1003.34
415.951	1005.14
416.328	988.19
416.705	984.13
417.082	1023.22
417.46	1035.2
417.837	1092.15
418.214	1051.92
418.591	1067.74
418.967	1089.66
419.344	1065.93
419.721	1104.58
420.098	1102.99
420.475	1099.6
420.852	1137.79
421.228	1126.27
421.605	1146.38
421.982	1168.08
422.358	1179.6
422.735	1185.93
423.111	1230
423.488	1218.47
423.864	1237
424.241	1246.04
424.617	1285.59
424.994	1254.4
425.37	1294.4
425.746	1286.27
426.123	1335.53
426.499	1346.15
426.875	1371.24
427.251	1402.19
427.627	1426.83
428.003	1422.08
428.379	1450.1
428.756	1435.19
429.132	1475.41
429.507	1480.84
429.883	1498.92
430.259	1536.2
430.635	1568.74
431.011	1576.2
431.387	1623.43
431.763	1621.17
432.138	1651
432.514	1681.96
432.89	1678.8
433.265	1733.03
433.641	1759.47
434.016	1744.33
434.392	1785.46
434.767	1818
435.143	1807.38
435.518	1841.51
435.894	1854.61
436.269	1893.93
436.644	1965.57
437.02	1974.38
437.395	1981.39
437.77	2013.93
438.145	2048.73
438.52	2015.06
438.895	2052.57
439.271	2041.95
439.646	2099.8
440.021	2144.55
440.395	2156.07
440.77	2184.55
441.145	2222.96
441.52	2248.27
441.895	2259.57
442.27	2241.72
442.645	2272
443.019	2319.68
443.394	2307.03
443.769	2314.49
444.143	2325.79
444.518	2355.39
444.892	2321.94
445.267	2373.69
445.641	2435.84
446.016	2423.86
446.39	2470.19
446.764	2478.78
447.139	2450.75
447.513	2550.87
447.887	2539.34
448.262	2564.2
448.636	2554.25
449.01	2564.65
449.384	2607.13
449.758	2614.14
450.132	2679.22
450.506	2680.81
450.88	2709.28
451.254	2725.78
451.628	2738.2
452.002	2782.27
452.376	2811.88
452.75	2871.76
453.123	2853.46
453.497	2949.5
453.871	2953.57
454.244	3030.17
454.618	3006.22
454.992	3048.93
455.365	3079.89
455.739	3173.9
456.112	3170.51
456.486	3212.99
456.859	3245.31
457.232	3308.36
457.606	3332.77
457.979	3408.92
458.352	3456.38
458.725	3488.24
459.099	3515.13
459.472	3598.97
459.845	3609.82
460.218	3662.02
460.591	3681.46
460.964	3721.23
461.337	3775.92
461.71	3826.99
462.083	3893.2
462.456	3882.81
462.829	3932.3
463.201	4013.43
463.574	4094.78
463.947	4138.17
464.32	4242.57
464.692	4253.19
465.065	4278.73
465.438	4374.55
465.81	4397.14
466.183	4408.9
466.555	4536.58
466.928	4567.54
467.3	4528.21
467.672	4668.55
468.045	4795.33
468.417	4797.59
468.789	4804.59
469.161	4903.12
469.534	5003.68
469.906	5090.46
470.278	5147.18
470.65	5225.82
471.022	5281.19
471.394	5410.45
471.766	5386.04
472.138	5487.96
472.51	5594.85
472.882	5649.31
473.253	5775.19
473.625	5832.59
473.997	5980.15
474.369	5991.23
474.74	6075.52
475.112	6277.32
475.484	6322.97
475.855	6470.31
476.227	6551.21
476.598	6698.1
476.97	6757.31
477.341	6861.03
477.713	6953.46
478.084	7003.86
478.455	7229.61
478.827	7327.91
479.198	7429.83
479.569	7535.37
479.94	7776.72
480.311	7830.95
480.682	7966.77
481.053	8154.11
481.424	8333.54
481.795	8360.43
482.166	8538.05
482.537	8684.94
482.908	8810.36
483.279	8917.48
483.65	9042.9
484.021	9269.11
484.391	9363.34
484.762	9441.08
485.133	9523.79
485.503	9696.21
485.874	9907.96
486.244	10029.31
486.615	10173.94
486.985	10338.01
487.356	10590.2
487.726	10642.63
488.097	10926.24
488.467	10908.39
488.837	11194.48
489.207	11250.3
489.578	11493
489.948	11603.28
490.318	11670.4
490.688	11718.76
491.058	11948.81
491.428	12157.17
491.798	12289.82
492.168	12526.2
492.538	12594.67
492.908	12698.39
493.278	12933.19
493.648	12954.89
494.017	13170.25
494.387	13340.41
494.757	13435.1
495.126	13585.83
495.496	13664.7
495.866	13796.22
496.235	13908.08
496.605	14032.15
496.974	14130.67
497.344	14260.84
497.713	14334.74
498.082	14499.25
498.452	14680.49
498.821	14787.61
499.19	14775.4
499.559	14977.21
499.928	15035.28
500.298	15187.14
500.667	15297.65
501.036	15385.33
501.405	15472.79
501.774	15636.17
502.143	15752.78
502.512	15808.37
502.88	15951.42
503.249	16022.38
503.618	16094.24
503.987	16219.21
504.356	16370.16
504.724	16420.78
505.093	16573.1
505.462	16587.33
505.83	16743.71
506.199	16960.2
506.567	17130.59
506.936	17077.94
507.304	17353.64
507.672	17356.58
508.041	17524.93
508.409	17621.2
508.777	17796.57
509.145	17971.7
509.514	18004.47
509.882	18091.7
510.25	18183.9
510.618	18372.6
510.986	18433.61
511.354	18591.8
511.722	18781.17
512.09	18906.82
512.458	18929.87
512.826	19040.15
513.193	19165.57
513.561	19201.95
513.929	19488.5
514.297	19577.08
514.664	19721.94
515.032	19830.64
515.4	20070.63
515.767	20116.96
516.135	20261.59
516.502	20187.01
516.869	20664.51
517.237	20728.69
517.604	20640.33
517.972	21048.01
518.339	21113.77
518.706	21106.08
519.073	21281.45
519.44	21387.21
519.808	21695.22
520.175	21697.93
520.542	22026.96
520.909	22058.15
521.276	22067.41
521.643	22382.21
522.009	22453.17
522.376	22640.05
522.743	22770.67
523.11	23041.17
523.477	23234.62
523.843	23489.98
524.21	23820.59
524.577	23956.18
524.943	23949.4
525.31	24112.11
525.676	24453.11
526.043	24532.89
526.409	24687.68
526.776	24914.8
527.142	25007.45
527.508	25193.89
527.874	25361.34
528.241	25361.34
528.607	25544.38
528.973	25876.81
529.339	25823.7
529.705	25978.5
530.071	26286.29
530.437	26449.9
530.803	26719.04
531.169	26899.6
531.535	26974.86
531.901	27059.37
532.267	27175.53
532.632	27410.1
532.998	27500.49
533.364	27761.95
533.73	27734.61
534.095	27917.88
534.461	28104.32
534.826	28237.2
535.192	28227.93
535.557	28470.18
535.923	28327.36
536.288	28467.02
536.653	28682.38
537.019	28615.04
537.384	28971.41
537.749	29095.48
538.114	29161.24
538.479	29222.93
538.845	29509.93
539.21	29394.91
539.575	29601.68
539.94	29724.84
540.305	29950.6
540.67	29962.57
541.034	30085.96
541.399	30184.71
541.764	30334.54
542.129	30356.91
542.494	30420.19
542.858	30532.95
543.223	30504.93
543.587	30592.39
543.952	30705.83
544.316	30754.87
544.681	30755.55
545.045	30885.71
545.41	31132.26
545.774	31133.16
546.138	31208.87
546.503	31460.16
546.867	31474.4
547.231	31626.71
547.595	31892.47
547.959	31969.07
548.324	32006.59
548.688	32266.92
549.052	32311.44
549.416	32356.64
549.779	32407.71
550.143	32426.92
550.507	32602.5
550.871	32521.15
551.235	32540.36
551.599	32787.81
551.962	32797.98
552.326	32812.67
552.689	32840.24
553.053	32809.96
553.417	32962.72
553.78	33431.64
554.143	33267.8
554.507	33411.3
554.87	33805.64
555.234	33973.09
555.597	33838.4
555.96	34062.58
556.323	34359.07
556.686	34334.66
557.05	34590.02
557.413	34695.33
557.776	34683.13
558.139	34869.34
558.502	34735.78
558.865	34870.02
559.228	35099.61
559.59	35056.68
559.953	35205.15
560.316	35371.47
560.679	35414.63
561.041	35658.92
561.404	35717
561.767	36035.86
562.129	35879.25
562.492	36250.54
562.854	36378
563.217	36354.04
563.579	36666.58
563.941	36843.52
564.304	37080.58
564.666	37282.61
565.028	37368.03
565.39	37463.39
565.753	37707.45
566.115	37783.84
566.477	37990.61
566.839	38083.26
567.201	38111.74
567.563	38159.87
567.925	38382.01
568.287	38293.88
568.648	38310.38
569.01	38329.36
569.372	38555.12
569.734	38362.58
570.095	38798.73
570.457	38948.33
570.819	39124.82
571.18	39014.31
571.542	39372.72
571.903	39524.36
572.265	39751.92
572.626	39748.53
572.987	39985.14
573.349	40145.81
573.71	40321.17
574.071	40492.92
574.432	40687.94
574.794	40786.47
575.155	40826.69
575.516	40414.95
575.877	40641.16
576.238	40677.32
576.599	40838.22
576.96	40872.34
577.32	40953.47
577.681	40947.82
578.042	40906.69
578.403	41033.92
578.763	41055.39
579.124	41005
579.485	41186.23
579.845	41383.29
580.206	41283.41
580.566	41554.36
580.927	41566.11
581.287	42006.78
581.648	41671.19
582.008	41943.5
582.368	42020.79
582.728	42211.97
583.089	42153.67
583.449	42119.54
583.809	42251.74
584.169	42207
584.529	42102.59
584.889	42530.15
585.249	42170.61
585.609	42033.89
585.969	42265.98
586.329	41981.24
586.688	42037.28
587.048	42013.56
587.408	41835.71
587.768	41803.84
588.127	41879.55
588.487	41741.47
588.846	42123.38
589.206	41810.17
589.565	41971.07
589.925	42138.07
590.284	42096.49
590.643	42119.32
591.003	42384.39
591.362	42486.31
591.721	42451.74
592.08	42606.76
592.44	42780.54
592.799	42813.31
593.158	42757.94
593.517	42737.38
593.876	42885.4
594.235	42853.99
594.593	42794.55
594.952	42784.61
595.311	42580.55
595.67	42688.34
596.029	42719.07
596.387	42738.06
596.746	42733.76
597.104	42477.72
597.463	42457.61
597.822	42642.24
598.18	42363.83
598.538	42486.99
598.897	42631.62
599.255	42550.49
599.613	42949.12
599.972	42767.21
600.33	43069.12
600.688	42959.29
601.046	43201.77
601.404	43342.79
601.762	43387.98
602.12	43563.8
602.478	43596.34
602.836	43767.86
603.194	43511.6
603.552	43648.09
603.91	43565.83
604.268	43656
604.625	43299.4
604.983	43597.02
605.341	43237.48
605.698	43343.69
606.056	43526.06
606.413	43365.61
606.771	43495.1
607.128	43454.2
607.485	43096.01
607.843	43308.21
608.2	43369.9
608.557	43646.96
608.914	43526.28
609.272	43742.32
609.629	43905.48
609.986	44093.73
610.343	44046.72
610.7	44276.55
611.057	44267.96
611.414	44324
611.771	44489.65
612.127	44650.78
612.484	44624.56
612.841	44736.42
613.198	44703.88
613.554	44702.07
613.911	44939.81
614.267	45007.83
614.624	44803.77
614.98	44896.42
615.337	45102.29
615.693	45002.4
616.05	44751.11
616.406	44849.87
616.762	44689.64
617.118	44694.39
617.475	44648.74
617.831	44554.51
618.187	44599.25
618.543	44759.92
618.899	45008.28
619.255	44838.34
619.611	44797.21
619.967	45013.48
620.323	45055.51
620.678	44938.9
621.034	45207.6
621.39	45294.37
621.746	45189.29
622.101	45829.5
622.457	45342.06
622.812	45495.27
623.168	45611.88
623.523	45609.85
623.879	45848.03
624.234	45427.25
624.589	45554.48
624.945	45606.23
625.3	45519.23
625.655	45415.27
626.01	45233.81
626.365	45349.74
626.72	45283.3
627.075	45267.03
627.43	45128.95
627.785	45069.75
628.14	45108.62
628.495	44911.56
628.85	45046.24
629.205	44790.43
629.559	45048.28
629.914	44863.42
630.269	45020.03
630.623	45015.74
630.978	44756.99
631.332	45158.33
631.687	45240.14
632.041	45029.97
632.396	45236.52
632.75	45176.19
633.104	45251.89
633.459	45089.41
633.813	45235.84
634.167	45216.41
634.521	45220.93
634.875	45140.25
635.229	45099.58
635.583	44943.2
635.937	44954.95
636.291	44958.34
636.645	44862.97
636.999	44718.34
637.352	44744.33
637.706	44451.01
638.06	44619.82
638.413	44322.42
638.767	44153.16
639.121	43910.23
639.474	43743.23
639.828	43920.62
640.181	43873.17
640.534	43726.51
640.888	43776.45
641.241	43631.59
641.594	43825.71
641.947	43806.5
642.301	43923.79
642.654	43928.08
643.007	43905.03
643.36	43928.08
643.713	43719.05
644.066	44040.17
644.419	43966.5
644.771	43767.63
645.124	43689.9
645.477	43885.6
645.83	43380.53
646.182	43040.87
646.535	42701.22
646.888	42571.06
647.24	42299.2
647.593	42551.85
647.945	42274.11
648.298	42228.47
648.65	42162.93
649.002	42015.82
649.355	42048.81
649.707	42032.09
650.059	42272.08
650.411	42625.07
650.763	42713.42
651.115	42945.96
651.467	42800.43
651.819	42827.77
652.171	42739.64
652.523	42656.25
652.875	42609.92
653.227	42482.47
653.578	43004.72
653.93	42792.07
654.282	42631.85
654.633	42491.51
654.985	42608.12
655.337	42593.88
655.688	42706.19
656.039	42887.66
656.391	42691.96
656.742	42730.37
657.094	42889.01
657.445	42978.05
657.796	43086.75
658.147	42918.17
658.498	42860.09
658.849	42911.39
659.2	42824.16
659.551	42726.08
659.902	42886.75
660.253	42716.59
660.604	42943.02
660.955	42592.75
661.306	42464.84
661.656	42417.39
662.007	42526.54
662.358	42406.31
662.708	42266.43
663.059	42148.47
663.409	41838.42
663.76	42122.48
664.11	42007.91
664.461	42058.3
664.811	41964.97
665.161	41945.08
665.511	41841.81
665.862	41850.4
666.212	42172.42
666.562	42251.06
666.912	42122.25
667.262	42260.33
667.612	42265.75
667.962	42402.92
668.312	42311.18
668.662	42506.2
669.011	42522.7
669.361	42560.66
669.711	42540.55
670.06	42507.1
670.41	42440.44
670.76	42239.09
671.109	42498.06
671.459	42275.7
671.808	42314.79
672.157	42395.92
672.507	42024.86
672.856	42130.39
673.205	42084.74
673.554	42163.16
673.904	41918.87
674.253	42088.58
674.602	41887.01
674.951	41108.72
675.3	40910.31
675.649	41312.33
675.998	41142.17
676.346	41118.44
676.695	41231.88
677.044	40990.98
677.393	41079.57
677.741	41149.4
678.09	41084.99
678.438	40935.84
678.787	41058.78
679.135	41030.08
679.484	40823.08
679.832	41106.69
680.181	41005.45
680.529	41117.99
680.877	41028.27
681.225	40985.56
681.573	41365.21
681.922	41087.48
682.27	41082.28
682.618	41051.32
682.966	40993.24
683.314	41096.07
683.661	41052
684.009	40798.67
684.357	40667.83
684.705	40522.07
685.053	40675.96
685.4	40598.45
685.748	40310.78
686.095	40191.91
686.443	39993.27
686.79	39903.78
687.138	39847.74
687.485	39834.86
687.832	39666.95
688.18	39541.3
688.527	39297.24
688.874	39063.35
689.221	39012.28
689.568	39027.65
689.915	38832.4
690.262	38786.07
690.609	38676.69
690.956	38627.88
691.303	38505.85
691.65	38408.23
691.997	38543.37
692.344	38156.03
692.69	38048.91
693.037	38082.36
693.383	37892.99
693.73	38116.03
694.077	38054.11
694.423	38002.81
694.769	37892.99
695.116	37966.66
695.462	37740
695.808	37777.06
696.155	37740.67
696.501	37442.83
696.847	37545.43
697.193	37458.65
697.539	37382.49
697.885	37253.91
698.231	37110.63
698.577	37085.78
698.923	36896.18
699.269	36626.35
699.614	36345.23
699.96	36352.01
700.306	36295.51
700.651	36064.11
700.997	35821.85
701.342	35730.78
701.688	35546.83
702.033	35393.39
702.379	35366.05
702.724	35164.02
703.069	35328.53
703.415	34807.42
703.76	34805.38
704.105	34843.12
704.45	34747.76
704.795	34480.87
705.14	34348.67
705.485	34460.53
705.83	34396.36
706.175	34332.85
706.52	34420.54
706.865	34314.78
707.209	34408.33
707.554	34252.18
707.899	34420.31
708.243	34265.29
708.588	34246.3
708.932	34150.26
709.277	34077.04
709.621	34188.45
709.966	33844.51
710.31	34172.18
710.654	33822.13
710.998	33907.33
711.342	33861.91
711.687	33714.34
712.031	33583.72
712.375	33393.44
712.719	33486.55
713.063	33460.56
713.407	33399.77
713.75	33197.74
714.094	33098.08
714.438	32896.51
714.782	32842.05
715.125	32654.25
715.469	32616.29
715.812	32331.55
716.156	32170.43
716.499	32094.72
716.843	32116.87
717.186	31821.51
717.53	31965.01
717.873	31894.5
718.216	31865.57
718.559	31697.22
718.902	31484.12
719.246	31866.03
719.589	31697.22
719.932	31666.26
720.275	31653.83
720.617	31774.73
720.96	31706.71
721.303	31749.19
721.646	31676.88
721.989	31713.26
722.331	31816.99
722.674	31765.46
723.016	31851.79
723.359	31715.52
723.701	31724.11
724.044	31561.18
724.386	31478.92
724.729	31713.04
725.071	31577.9
725.413	31658.8
725.755	31627.84
726.097	31527.5
726.439	31300.39
726.782	31329.77
727.124	31451.35
727.465	31162.99
727.807	31120.74
728.149	30997.8
728.491	30925.03
728.833	30963.23
729.175	30780.41
729.516	30693.18
729.858	30804.13
730.199	30747.64
730.541	30582.9
730.882	30546.74
731.224	30564.82
731.565	30377.03
731.906	30339.74
732.248	30416.12
732.589	30450.24
732.93	30316.46
733.271	30310.36
733.612	30355.11
733.953	30332.73
734.294	30341.09
734.635	30258.39
734.976	30480.98
735.317	30259.29
735.658	30349.68
735.999	30571.6
736.339	30410.7
736.68	30492.28
737.021	30401.43
737.361	30481.43
737.702	30508.32
738.042	30477.36
738.383	30545.38
738.723	30620.41
739.063	30443.69
739.404	30722.33
739.744	30619.28
740.084	30545.16
740.424	30682.78
740.764	30648.66
741.104	30732.95
741.444	30544.71
741.784	30383.81
742.124	30575.89
742.464	30466.97
742.804	30525.72
743.143	30275.79
743.483	30358.27
743.823	30246.41
744.162	30238.95
744.502	30274.66
744.841	30105.17
745.181	30074.89
745.52	30147.88
745.86	30035.57
746.199	29922.8
746.538	29882.8
746.877	30134.55
747.216	30027.43
747.556	30087.54
747.895	29998.96
748.234	29935.91
748.573	29946.98
748.911	30000.76
749.25	30146.98
749.589	29983.59
749.928	30186.3
750.267	30251.83
750.605	30087.32
750.944	30163.02
751.283	30087.32
751.621	30209.57
751.96	30247.31
752.298	30311.72
752.636	30454.31
752.975	30431.49
753.313	30385.61
753.651	30589.22
753.989	30432.84
754.327	30599.39
754.666	30500.64
755.004	30663.57
755.342	30615.66
755.679	30513.75
756.017	30531.6
756.355	30613.4
756.693	30540.64
757.031	30627.87
757.368	30637.13
757.706	30412.28
758.044	30344.26
758.381	30407.53
758.719	30357.59
759.056	30455.44
759.394	30370.92
759.731	30196.92
760.068	30252.06
760.405	30136.81
760.743	30109.69
761.08	30065.4
761.417	29889.81
761.754	29892.52
762.091	29975.23
762.428	29969.13
762.765	29727.1
763.102	29939.98
763.438	29622.7
763.775	29563.49
764.112	29775.23
764.449	29709.47
764.785	29635.12
765.122	29422.02
765.458	29466.54
765.795	29413.89
766.131	29644.84
766.467	29510.16
766.804	29431.51
767.14	29275.36
767.476	29340.67
767.812	29318.52
768.148	29396.71
768.485	29266.09
768.821	29191.29
769.157	29216.15
769.492	29184.06
769.828	29212.99
770.164	29007.57
770.5	29011.64
770.836	29126.21
771.171	28798.76
771.507	28982.03
771.842	28709.73
772.178	28787.24
772.513	28785.88
772.849	28573.01
773.184	28553.12
773.519	28441.26
773.855	28145.45
774.19	28129.85
774.525	28017.99
774.86	28035.39
775.195	28026.81
775.53	28093.92
775.865	27843.76
776.2	27728.28
776.535	27436.76
776.87	27355.41
777.205	27200.16
777.539	27132.59
777.874	27079.71
778.209	26849.44
778.543	26866.16
778.878	26564.47
779.212	26766.05
779.547	26569.44
779.881	26630.23
780.215	26422.55
780.55	26448.54
780.884	26312.27
781.218	26222.56
781.552	26251.71
781.886	25997.25
782.22	25835.9
782.554	25681.1
782.888	25583.93
783.222	25463.26
783.556	25442.69
783.889	25351.17
784.223	25216.26
784.557	25143.49
784.89	25224.62
785.224	25155.92
785.557	25064.17
785.891	25108.24
786.224	25012.65
786.558	25075.24
786.891	24733.11
787.224	24695.14
787.557	24774.01
787.891	24734.01
788.224	24696.5
788.557	24703.28
788.89	24665.76
789.223	24477.07
789.556	24402.72
789.888	24314.13
790.221	24217.41
790.554	24172.22
790.887	24184.42
791.219	23998.89
791.552	23937.65
791.884	23688.84
792.217	23669.41
792.549	23505.57
792.882	23449.98
793.214	23421.95
793.546	23544.21
793.879	23209.98
794.211	23100.38
794.543	23157.55
794.875	23033.26
795.207	22991.01
795.539	22849.09
795.871	22742.2
796.203	22614.97
796.535	22325.49
796.867	22364.58
797.198	22279.16
797.53	22358.93
797.862	22267.86
798.193	22204.59
798.525	22120.29
798.856	22088.88
799.188	21884.82
799.519	21935.67
799.85	21750.81
800.182	21789.91
800.513	21715.33
800.844	21521.89
801.175	21673.53
801.506	21652.96
801.837	21547.2
802.168	21545.62
802.499	21398.73
802.83	21370.03
803.161	21314.21
803.491	21289.81
803.822	21251.62
804.153	21167.55
804.483	21026.76
804.814	20985.18
805.145	21045.75
805.475	21059.76
805.805	20889.37
806.136	20969.36
806.466	20907.22
806.796	20967.33
807.126	20733.44
807.457	20710.39
807.787	20777.05
808.117	20678.98
808.447	20584.06
808.777	20614.12
809.107	20540.45
809.436	20447.34
809.766	20387.46
810.096	20348.36
810.426	20288.25
810.755	20311.3
811.085	20146.33
811.414	20089.16
811.744	19855.27
812.073	19918.77
812.403	19816.17
812.732	19732.33
813.061	19665.44
813.39	19567.37
813.719	19473.13
814.049	19615.5
814.378	19491.89
814.707	19347.49
815.036	19422.29
815.365	19156.3
815.693	19038.79
816.022	19060.94
816.351	19031.11
816.68	18944.33
817.008	19116.98
817.337	18830.21
817.665	18775.07
817.994	18725.58
818.322	18779.14
818.651	18708.41
818.979	18561.29
819.307	18705.69
819.636	18691.01
819.964	18502.08
820.292	18568.3
820.62	18545.25
820.948	18605.81
821.276	18622.08
821.604	18600.61
821.932	18533.27
822.259	18639.71
822.587	18670.44
822.915	18583.44
823.243	18604.45
823.57	18590.67
823.898	18739.82
824.225	18581.63
824.553	18607.17
824.88	18808.74
825.207	18838.35
825.535	18705.92
825.862	18742.76
826.189	18604.45
826.516	18740.04
826.843	18825.01
827.17	18836.09
827.497	18799.93
827.824	18760.83
828.151	18834.96
828.478	18724.9
828.805	18826.37
829.131	18624.34
829.458	18680.16
829.785	18631.12
830.111	18592.93
830.438	18653.94
830.764	18660.95
831.09	18605.13
831.417	18496.89
831.743	18580.05
832.069	18570.1
832.395	18492.59
832.722	18560.16
833.048	18474.51
833.374	18452.14
833.7	18325.14
834.026	18277.46
834.351	18288.53
834.677	18196.78
835.003	18285.59
835.329	18210.79
835.654	18214.63
835.98	18086.28
836.306	18134.18
836.631	18037.01
836.956	18131.47
837.282	17956.79
837.607	18011.7
837.932	17920.86
838.258	17936.68
838.583	17871.37
838.908	17762.22
839.233	17851.48
839.558	17816.68
839.883	17668.21
840.208	17705.49
840.533	17700.52
840.858	17814.19
841.182	17744.14
841.507	17740.97
841.832	17651.03
842.156	17571.04
842.481	17656.46
842.805	17625.5
843.13	17646.06
843.454	17558.61
843.778	17437.71
844.103	17449
844.427	17470.02
844.751	17536.69
845.075	17376.69
845.399	17399.51
845.723	17363.36
846.047	17444.03
846.371	17247.2
846.695	17235.68
847.019	17063.93
847.343	17021.45
847.666	16823.94
847.99	16842.01
848.313	16821
848.637	16622.13
848.96	16756.14
849.284	16583.49
849.607	16498.52
849.931	16438.18
850.254	16302.37
850.577	16187.79
850.9	16021.47
851.223	15969.72
851.546	15934.92
851.869	15945.32
852.192	16043.39
852.515	15723.4
852.838	15711.88
853.161	15717.07
853.483	15633.46
853.806	15489.51
854.129	15465.78
854.451	15399.57
854.774	15341.49
855.096	15177.88
855.419	15133.81
855.741	15155.05
856.063	15032.34
856.385	15092.23
856.708	14887.04
857.03	14899.69
857.352	14902.18
857.674	14855.85
857.996	14763.43
858.318	14767.95
858.64	14743.76
858.961	14734.73
859.283	14768.85
859.605	14639.13
859.926	14700.38
860.248	14550.55
860.57	14533.83
860.891	14495.41
861.212	14516.2
861.534	14546.71
861.855	14526.82
862.176	14442.98
862.498	14403.21
862.819	14398.46
863.14	14293.83
863.461	14386.94
863.782	14299.71
864.103	14467.16
864.424	14419.71
864.745	14436.2
865.065	14335.64
865.386	14215.64
865.707	14225.13
866.027	14327.96
866.348	14269.43
866.668	14234.4
866.989	14306.49
867.309	14139.71
867.63	14131.58
867.95	14078.02
868.27	14038.92
868.59	14102.88
868.91	14088.41
869.23	13992.37
869.55	13918.48
869.87	13979.27
870.19	13941.75
870.51	13897.01
870.83	14015.2
871.15	13866.95
871.469	13793.28
871.789	13894.75
872.109	13641.65
872.428	13694.3
872.748	13649.33
873.067	13624.02
873.386	13678.26
873.706	13687.07
874.025	13594.42
874.344	13511.03
874.663	13505.38
874.982	13393.74
875.301	13442.33
875.62	13320.98
875.939	13253.86
876.258	13288.21
876.577	13242.56
876.896	13243.24
877.214	13173.41
877.533	13152.39
877.852	13127.08
878.17	13208.89
878.489	13137.03
878.807	13054.77
879.125	13012.28
879.444	13068.1
879.762	13118.72
880.08	13032.4
880.398	12928.67
880.716	12983.81
881.034	12911.95
881.352	12918.95
881.67	12819.07
881.988	12888.22
882.306	12800.09
882.624	12833.08
882.941	12711.73
883.259	12775.68
883.577	12802.12
883.894	12743.37
884.212	12833.98
884.529	12713.08
884.846	12750.37
885.164	12744.72
885.481	12726.87
885.798	12719.64
886.115	12580.43
886.432	12641.22
886.75	12648.9
887.067	12590.6
887.383	12635.8
887.7	12640.77
888.017	12530.04
888.334	12590.6
888.651	12488.46
888.967	12470.38
889.284	12438.06
889.6	12470.15
889.917	12381.34
890.233	12355.35
890.55	12300.89
890.866	12292.08
891.182	12192.65
891.498	12198.97
891.815	12101.57
892.131	12099.77
892.447	12063.16
892.763	11973.89
893.079	11956.04
893.395	11878.76
893.71	11828.59
894.026	11768.02
894.342	11736.16
894.657	11666.11
894.973	11643.51
895.289	11667.46
895.604	11595.15
895.92	11465.43
896.235	11433.12
896.55	11481.03
896.865	11417.07
897.181	11356.06
897.496	11310.63
897.811	11191.77
898.126	11112.45
898.441	11138.44
898.756	11123.07
899.071	11066.12
899.386	11029.96
899.7	10974.82
900.015	10965.11
900.33	10801.5
900.644	10790.42
900.959	10866.58
901.273	10720.37
901.588	10734.83
901.902	10619.58
902.216	10700.26
902.531	10641.5
902.845	10613.48
903.159	10641.73
903.473	10550.88
903.787	10479.7
904.101	10378.23
904.415	10514.95
904.729	10380.94
905.042	10321.51
905.356	10285.8
905.67	10269.08
905.984	10282.41
906.297	10296.2
906.611	10175.98
906.924	10227.73
907.237	10146.82
907.551	10154.73
907.864	10156.99
908.177	10100.72
908.491	10141.63
908.804	10056.88
909.117	10032.93
909.43	9952.48
909.743	9938.92
910.056	9979.14
910.368	9904.57
910.681	9863.67
910.994	9754.74
911.307	9762.65
911.619	9752.26
911.932	9705.71
912.244	9638.14
912.557	9641.98
912.869	9589.55
913.181	9548.65
913.494	9524.24
913.806	9443.34
914.118	9425.94
914.43	9281.99
914.742	9399.27
915.054	9329.44
915.366	9263.01
915.678	9228.43
915.99	9105.27
916.302	9083.35
916.613	9027.53
916.925	9028.43
917.236	9003.12
917.548	8926.97
917.859	8865.95
918.171	8849
918.482	8776.92
918.794	8794.54
919.105	8699.18
919.416	8638.84
919.727	8623.93
920.038	8616.69
920.349	8522.91
920.66	8440.65
920.971	8443.37
921.282	8461.22
921.593	8428
921.903	8296.93
922.214	8322.01
922.525	8219.87
922.835	8244.27
923.146	8174.9
923.456	8112.07
923.767	8093.77
924.077	8136.48
924.387	8051.51
924.697	8014
925.008	8008.8
925.318	7961.34
925.628	7939.2
925.938	7957.95
926.248	7823.27
926.558	7789.82
926.867	7801.12
927.177	7802.03
927.487	7725.19
927.796	7655.59
928.106	7735.14
928.416	7722.71
928.725	7585.76
929.034	7603.84
929.344	7574.69
929.653	7628.02
929.962	7478.87
930.271	7432.77
930.581	7485.88
930.89	7444.75
931.199	7393.22
931.508	7378.99
931.817	7338.31
932.125	7380.79
932.434	7311.19
932.743	7321.59
933.051	7235.26
933.36	7226.67
933.669	7164.08
933.977	7179.9
934.286	7125.66
934.594	7268.48
934.902	7070.52
935.21	7063.06
935.519	7070.75
935.827	7000.69
936.135	6951.88
936.443	6861.49
936.751	6899.9
937.059	6941.71
937.367	6890.86
937.674	6944.65
937.982	6848.83
938.29	6757.08
938.597	6791.43
938.905	6690.64
939.213	6722.05
939.52	6615.84
939.827	6631.21
940.135	6622.17
940.442	6555.96
940.749	6506.24
941.056	6540.14
941.363	6408.39
941.67	6412.91
941.977	6357.09
942.284	6325.46
942.591	6328.62
942.898	6266.93
943.205	6230.77
943.511	6238
943.818	6169.98
944.125	6138.57
944.431	6179.24
944.738	6111.68
945.044	6019.25
945.35	5984.9
945.657	5927.95
945.963	6025.8
946.269	5932.25
946.575	5986.48
946.881	5918.91
947.187	5893.83
947.493	5848.63
947.799	5844.11
948.105	5865.35
948.41	5770.44
948.716	5704.23
949.022	5728.41
949.327	5707.17
949.633	5653.83
949.938	5662.42
950.244	5605.02
950.549	5589.2
950.854	5557.79
951.16	5527.96
951.465	5495.87
951.77	5516.21
952.075	5437.57
952.38	5461.75
952.685	5471.69
952.99	5416.1
953.294	5444.12
953.599	5363.22
953.904	5342.66
954.209	5354.86
954.513	5342.43
954.818	5320.96
955.122	5362.54
955.426	5241.64
955.731	5278.93
956.035	5221.08
956.339	5229.44
956.643	5271.25
956.948	5160.06
957.252	5208.42
957.556	5138.14
957.86	5170.23
958.163	5172.04
958.467	5127.52
958.771	5084.13
959.075	5105.15
959.378	5066.73
959.682	5022.89
959.985	5005.49
960.289	4995.55
960.592	4931.59
960.896	4914.87
961.199	4890.69
961.502	4883.46
961.805	4843.69
962.108	4845.95
962.411	4900.18
962.714	4825.61
963.017	4798.49
963.32	4787.64
963.623	4797.59
963.926	4746.74
964.228	4722.79
964.531	4676.68
964.833	4642.34
965.136	4656.35
965.438	4615.67
965.741	4564.37
966.043	4612.51
966.345	4560.53
966.648	4540.64
966.95	4510.81
967.252	4472.62
967.554	4488.22
967.856	4424.26
968.158	4363.92
968.46	4439.4
968.761	4353.3
969.063	4343.36
969.365	4311.27
969.666	4286.41
969.968	4230.82
970.269	4247.09
970.571	4209.8
970.872	4235.57
971.174	4165.51
971.475	4147.66
971.776	4172.97
972.077	4161.22
972.378	4109.92
972.679	4086.19
972.98	4082.58
973.281	4028.11
973.582	4023.82
973.883	4026.76
974.183	3996.25
974.484	3999.19
974.785	3958.51
975.085	3947.44
975.386	3920.32
975.686	3925.97
975.986	3911.06
976.287	3866.99
976.587	3810.04
976.887	3814.11
977.187	3856.82
977.487	3829.25
977.787	3794
978.087	3785.41
978.387	3746.99
978.687	3749.25
978.987	3752.42
979.286	3757.61
979.586	3775.69
979.885	3679.42
980.185	3660.89
980.484	3680.55
980.784	3693.21
981.083	3652.08
981.382	3644.17
981.682	3627.9
981.981	3642.14
982.28	3603.49
982.579	3569.82
982.878	3558.3
983.177	3568.92
983.475	3499.31
983.774	3544.06
984.073	3484.85
984.372	3516.04
984.67	3471.52
984.969	3507.22
985.267	3482.82
985.566	3512.2
985.864	3449.6
986.162	3450.5
986.461	3394.91
986.759	3428.13
987.057	3377.28
987.355	3353.78
987.653	3374.57
987.951	3338.42
988.249	3296.83
988.547	3310.17
988.844	3327.34
989.142	3265.65
989.44	3221.81
989.737	3258.42
990.035	3256.84
990.332	3218.19
990.63	3159.66
990.927	3181.36
991.224	3169.38
991.521	3128.25
991.819	3088.03
992.116	3095.94
992.413	3101.59
992.71	3019.33
993.006	3046.45
993.303	3041.02
993.6	3056.61
993.897	2989.27
994.193	2984.53
994.49	2961.25
994.787	2969.84
995.083	2912.66
995.379	2972.32
995.676	2930.97
995.972	2904.53
996.268	2887.35
996.565	2851.65
996.861	2892.55
997.157	2817.3
997.453	2788.6
997.749	2798.09
998.044	2795.6
998.34	2760.35
998.636	2747.7
998.932	2723.52
999.227	2709.96
999.523	2713.8
999.818	2731.65
1000.114	2682.16
1000.409	2659.56
1000.704	2633.12
1001	2616.85
1001.295	2643.97
1001.59	2604.2
1001.885	2564.2
1002.18	2596.97
1002.475	2573.46
1002.77	2567.59
1003.065	2526.68
1003.359	2543.86
1003.654	2530.53
1003.949	2497.76
1004.243	2468.61
1004.538	2472.22
1004.832	2445.78
1005.127	2462.96
1005.421	2463.41
1005.715	2414.15
1006.009	2403.98
1006.304	2418.89
1006.598	2401.04
1006.892	2362.4
1007.186	2380.47
1007.48	2350.42
1007.773	2314.71
1008.067	2314.04
1008.361	2284.88
1008.655	2313.58
1008.948	2276.97
1009.242	2281.72
1009.535	2269.52
1009.829	2283.08
1010.122	2254.83
1010.415	2228.61
1010.708	2224.77
1011.001	2213.25
1011.295	2180.71
1011.588	2230.2
1011.881	2144.32
1012.173	2153.59
1012.466	2170.54
1012.759	2114.94
1013.052	2125.11
1013.344	2099.35
1013.637	2099.35
1013.93	2104.32
1014.222	2082.4
1014.514	2109.29
1014.807	2041.95
1015.099	2034.95
1015.391	2033.36
1015.683	2029.3
1015.976	2035.85
1016.268	2010.54
1016.56	2004.21
1016.851	1981.16
1017.143	1960.6
1017.435	1951.11
1017.727	1905.46
1018.018	1919.92
1018.31	1922.41
1018.602	1916.31
1018.893	1865.69
1019.185	1897.77
1019.476	1840.83
1019.767	1829.75
1020.058	1837.89
1020.35	1814.61
1020.641	1816.2
1020.932	1790.21
1021.223	1781.17
1021.514	1768.06
1021.804	1736.42
1022.095	1738.23
1022.386	1711.57
1022.677	1719.93
1022.967	1699.59
1023.258	1701.62
1023.548	1699.59
1023.839	1695.52
1024.129	1675.18
1024.419	1631.57
1024.709	1620.49
1025	1610.32
1025.29	1605.35
1025.58	1601.96
1025.87	1600.83
1026.16	1567.61
1026.449	1563.55
1026.739	1545.24
1027.029	1549.31
1027.319	1551.34
1027.608	1497.79
1027.898	1547.73
1028.187	1530.33
1028.477	1509.99
1028.766	1499.14
1029.055	1472.25
1029.344	1464.57
1029.634	1459.82
1029.923	1421.4
1030.212	1442.19
1030.501	1422.53
1030.79	1436.09
1031.078	1404.23
1031.367	1390.44
1031.656	1386.15
1031.945	1395.64
1032.233	1351.8
1032.522	1366.04
1032.81	1302.99
1033.099	1333.72
1033.387	1352.93
1033.675	1310.67
1033.963	1286.72
1034.251	1309.09
1034.54	1294.63
1034.828	1319.26
1035.116	1312.25
1035.403	1271.58
1035.691	1243.55
1035.979	1262.31
1036.267	1210.11
1036.554	1250.79
1036.842	1244.91
1037.129	1223.67
1037.417	1192.26
1037.704	1232.93
1037.992	1220.5
1038.279	1204.91
1038.566	1184.35
1038.853	1184.35
1039.14	1184.35
