Data from blue_shiny_book_FLMS001491_00020.txt Node
Date: Wed Feb 08 15:26:37 GMT 2017
User: dcchb
Spectrometer: FLMS00149
Trigger mode: 0
Integration Time (sec): 2.000000E-2
Scans to average: 10
Electric dark correction enabled: true
Nonlinearity correction enabled: false
Boxcar width: 0
XAxis mode: Wavelengths
Number of Pixels in Spectrum: 2048
>>>>>Begin Spectral Data<<<<<
341.393	-26.85
341.776	-26.85
342.16	-26.85
342.543	-72.27
342.927	-62.33
343.31	-76.57
343.693	-67.3
344.077	-62.33
344.46	-68.88
344.843	-47.64
345.226	-36.79
345.61	-37.24
345.993	-27.75
346.376	2.98
346.759	25.58
347.142	23.54
347.525	48.4
347.908	60.61
348.291	74.62
348.674	87.72
349.057	101.06
349.44	133.82
349.823	142.64
350.206	139.25
350.588	211.11
350.971	245.46
351.354	239.13
351.737	264.89
352.119	280.49
352.502	271.45
352.884	308.06
353.267	286.59
353.65	309.64
354.032	304.44
354.414	331.56
354.797	341.5
355.179	328.4
355.562	351.67
355.944	347.6
356.326	378.34
356.709	348.73
357.091	337.43
357.473	373.37
357.855	347.83
358.238	353.48
358.62	370.2
359.002	342.86
359.384	359.81
359.766	358.23
360.148	376.76
360.53	372.01
360.912	367.04
361.294	360.26
361.676	371.56
362.057	356.64
362.439	359.58
362.821	369.3
363.203	353.48
363.584	346.47
363.966	343.08
364.348	360.26
364.729	361.16
365.111	358.45
365.493	337.66
365.874	362.74
366.256	345.57
366.637	339.02
367.019	348.28
367.4	336.08
367.781	345.57
368.163	356.64
368.544	360.03
368.925	339.24
369.306	366.13
369.688	347.15
370.069	342.41
370.45	344.67
370.831	354.38
371.212	366.81
371.593	346.93
371.974	362.74
372.355	383.08
372.736	351.45
373.117	369.3
373.498	362.74
373.879	347.83
374.26	393.7
374.641	352.58
375.021	360.03
375.402	383.54
375.783	369.52
376.163	410.43
376.544	404.55
376.925	383.99
377.305	404.33
377.686	431.9
378.066	403.2
378.447	406.59
378.827	414.95
379.208	405.68
379.588	405.23
379.968	412.91
380.349	416.75
380.729	427.38
381.109	432.8
381.489	431.22
381.87	430.09
382.25	399.81
382.63	430.99
383.01	447.94
383.39	425.57
383.77	423.99
384.15	443.87
384.53	429.41
384.91	456.53
385.29	480.26
385.67	446.13
386.049	447.04
386.429	494.04
386.809	487.49
387.189	477.77
387.568	478.22
387.948	473.48
388.328	487.71
388.707	503.98
389.087	511.89
389.466	498.79
389.846	524.55
390.225	522.74
390.605	529.07
390.984	539.69
391.363	524.32
391.743	553.02
392.122	554.15
392.501	569.29
392.881	574.04
393.26	555.73
393.639	564.1
394.018	568.84
394.397	603.19
394.776	562.74
395.155	598.44
395.534	584.21
395.913	587.37
396.292	600.48
396.671	616.75
397.05	636.18
397.429	632.12
397.808	626.47
398.186	633.25
398.565	662.4
398.944	652.45
399.323	643.64
399.701	676.63
400.08	683.19
400.458	678.22
400.837	684.32
401.215	714.6
401.594	690.65
401.972	715.96
402.351	717.31
402.729	722.06
403.107	724.77
403.486	714.15
403.864	760.47
404.242	766.12
404.62	734.03
404.999	761.38
405.377	808.83
405.755	771.32
406.133	809.96
406.511	809.96
406.889	848.61
407.267	836.63
407.645	849.51
408.023	866.91
408.401	876.63
408.779	899.91
409.156	907.36
409.534	945.1
409.912	909.4
410.29	957.08
410.667	971.54
411.045	978.1
411.422	992.11
411.8	991.43
412.178	1014.03
412.555	1021.48
412.933	1025.33
413.31	1070.52
413.687	1073.91
414.065	1100.13
414.442	1122.27
414.819	1141.26
415.197	1135.61
415.574	1159.11
415.951	1163.4
416.328	1172.89
416.705	1165.66
417.082	1200.91
417.46	1229.39
417.837	1241.59
418.214	1244.53
418.591	1259.44
418.967	1261.48
419.344	1294.25
419.721	1311.65
420.098	1305.09
420.475	1323.4
420.852	1324.53
421.228	1367.92
421.605	1375.6
421.982	1401.81
422.358	1400.68
422.735	1449.04
423.111	1457.86
423.488	1472.09
423.864	1458.54
424.241	1512.09
424.617	1517.29
424.994	1536.73
425.37	1527.46
425.746	1570.4
426.123	1586.22
426.499	1585.09
426.875	1627.12
427.251	1648.59
427.627	1685.2
428.003	1697.62
428.379	1727.45
428.756	1750.96
429.132	1784.4
429.507	1794.12
429.883	1794.35
430.259	1838.41
430.635	1850.84
431.011	1873.89
431.387	1903.95
431.763	1957.73
432.138	1987.11
432.514	2018.75
432.89	2040.44
433.265	2096.94
433.641	2117.27
434.016	2096.71
434.392	2168.12
434.767	2192.08
435.143	2214.67
435.518	2230.27
435.894	2282.47
436.269	2300.77
436.644	2363.37
437.02	2359.75
437.395	2428.68
437.77	2423.48
438.145	2511.39
438.52	2523.82
438.895	2535.12
439.271	2543.93
439.646	2569.69
440.021	2602.46
440.395	2604.72
440.77	2615.79
441.145	2649.24
441.52	2729.24
441.895	2710.25
442.27	2759.29
442.645	2792.29
443.019	2837.48
443.394	2839.52
443.769	2874.09
444.143	2842.23
444.518	2895.79
444.892	2888.1
445.267	2916.35
445.641	2955.67
446.016	2980.08
446.39	3015.56
446.764	3030.92
447.139	3068.21
447.513	3112.95
447.887	3094.65
448.262	3124.25
448.636	3137.14
449.01	3229.56
449.384	3231.6
449.758	3234.76
450.132	3291.48
450.506	3284.02
450.88	3324.7
451.254	3316.11
451.628	3386.62
452.002	3423.91
452.376	3458.03
452.75	3502.78
453.123	3554.53
453.497	3630.46
453.871	3667.29
454.244	3706.61
454.618	3733.73
454.992	3824.12
455.365	3836.1
455.739	3900.05
456.112	3907.06
456.486	3962.65
456.859	4035.64
457.232	4112.02
457.606	4113.83
457.979	4213.94
458.352	4266.82
458.725	4349.08
459.099	4361.74
459.472	4459.59
459.845	4533.03
460.218	4559.47
460.591	4566.02
460.964	4601.73
461.337	4708.85
461.71	4834.72
462.083	4897.77
462.456	4862.74
462.829	4916.52
463.201	5024.32
463.574	5117.2
463.947	5206.01
464.32	5283.52
464.692	5323.07
465.065	5317.19
465.438	5424.98
465.81	5534.81
466.183	5524.42
466.555	5714.69
466.928	5721.93
467.3	5744.75
467.672	5850.28
468.045	5987.46
468.417	6046.44
468.789	6102.48
469.161	6214.79
469.534	6287.33
469.906	6450.04
470.278	6404.62
470.65	6566.2
471.022	6669.02
471.394	6749.47
471.766	6811.84
472.138	6963.02
472.51	7050.25
472.882	7216.58
473.253	7311.71
473.625	7400.3
473.997	7611.59
474.369	7711.93
474.74	7746.51
475.112	7954.41
475.484	8046.38
475.855	8155.53
476.227	8244.35
476.598	8501.51
476.97	8533.38
477.341	8676.2
477.713	8850.21
478.084	8997.55
478.455	9245.67
478.827	9261.95
479.198	9558.66
479.569	9627.59
479.94	9882.27
480.311	9988.03
480.682	10208.14
481.053	10445.87
481.424	10652.42
481.795	10708.46
482.166	10945.07
482.537	11005.85
482.908	11225.28
483.279	11393.64
483.65	11463.47
484.021	11816
484.391	11958.15
484.762	11977.81
485.133	12206.05
485.503	12509.09
485.874	12669.99
486.244	12857.78
486.615	13239.24
486.985	13319.69
487.356	13493.02
487.726	13621.61
488.097	13923.74
488.467	13992.22
488.837	14293.45
489.207	14415.26
489.578	14666.55
489.948	14727.56
490.318	14980.89
490.688	15074.22
491.058	15382.24
491.428	15614.55
491.798	15789.46
492.168	16166.17
492.538	16219.05
492.908	16345.6
493.278	16618.59
493.648	16714.41
494.017	16904
494.387	16979.71
494.757	17134.96
495.126	17346.93
495.496	17445.91
495.866	17565.46
496.235	17817.43
496.605	18013.58
496.974	18058.32
497.344	18168.6
497.713	18458.09
498.082	18663.51
498.452	18944.63
498.821	19111.63
499.19	19064.85
499.559	19302.81
499.928	19348.69
500.298	19506.42
500.667	19646.98
501.036	19772.63
501.405	20017.37
501.774	20006.97
502.143	20132.39
502.512	20273.63
502.88	20404.03
503.249	20508.66
503.618	20686.96
503.987	20829.78
504.356	20986.84
504.724	21241.29
505.093	21292.14
505.462	21473.15
505.83	21698
506.199	21760.6
506.567	22112.68
506.936	21983.87
507.304	22243.3
507.672	22293.24
508.041	22417.53
508.409	22516.74
508.777	22689.62
509.145	22853.45
509.514	22997.4
509.882	23177.29
510.25	23245.76
510.618	23541.8
510.986	23711.06
511.354	23927.55
511.722	24155.79
512.09	24476.91
512.458	24570.02
512.826	24654.76
513.193	24798.26
513.561	24923.45
513.929	25059.72
514.297	25132.49
514.664	25361.41
515.032	25412.26
515.4	25684.56
515.767	25720.04
516.135	26046.36
516.502	25854.96
516.869	26439.8
517.237	26498.33
517.604	26541.72
517.972	26936.06
518.339	27233.45
518.706	27244.07
519.073	27533.56
519.44	27739.88
519.808	28167.44
520.175	28016.03
520.542	28325.17
520.909	28473.19
521.276	28476.81
521.643	28713.19
522.009	28846.52
522.376	29016.23
522.743	29071.14
523.11	29568.3
523.477	29716.32
523.843	29936.43
524.21	30369.64
524.577	30622.74
524.943	30868.38
525.31	31088.72
525.676	31464.53
526.043	31668.59
526.409	31959.88
526.776	32282.81
527.142	32269.25
527.508	32525.74
527.874	32651.61
528.241	32822.23
528.607	32850.48
528.973	33123.24
529.339	33058.16
529.705	33410.24
530.071	33593.96
530.437	33661.98
530.803	34040.05
531.169	34285.47
531.535	34155.3
531.901	34485.01
532.267	34720.26
532.632	35017.43
532.998	35340.81
533.364	35729.95
533.73	35923.62
534.095	35968.81
534.461	36203.84
534.826	36342.59
535.192	36406.09
535.557	36608.12
535.923	36452.64
536.288	36534.67
536.653	36723.6
537.019	36635.46
537.384	36815.57
537.749	36980.31
538.114	37049.01
538.479	36998.17
538.845	37256.46
539.21	37327.65
539.575	37694.42
539.94	37839.05
540.305	38189.09
540.67	38296.89
541.034	38589.31
541.399	38740.94
541.764	38919.92
542.129	39019.58
542.494	39176.87
542.858	39240.37
543.223	39265.9
543.587	39286.24
543.952	39278.56
544.316	39173.7
544.681	39123.53
545.045	39410.98
545.41	39476.97
545.774	39447.37
546.138	39608.72
546.503	39591.09
546.867	39757.87
547.231	40235.82
547.595	40382.26
547.959	40531.18
548.324	40704.73
548.688	41012.52
549.052	41156.25
549.416	41347.88
549.779	41367.09
550.143	41444.15
550.507	41676.69
550.871	41780.41
551.235	41446.86
551.599	41896.57
551.962	41697.93
552.326	41804.37
552.689	41893.86
553.053	41713.52
553.417	41732.96
553.78	42242.1
554.143	42032.38
554.507	42271.47
554.87	42440.28
555.234	42818.8
555.597	42676.43
555.96	43120.04
556.323	43365.23
556.686	43497.66
557.05	43787.59
557.413	44060.13
557.776	44056.29
558.139	44390.51
558.502	44415.15
558.865	44432.77
559.228	44603.84
559.59	44631.64
559.953	44668.25
560.316	44909.37
560.679	44807.68
561.041	44927.67
561.404	45190.04
561.767	45346.19
562.129	45224.16
562.492	45634.1
562.854	45680.2
563.217	45708.45
563.579	45926.74
563.941	46138.26
564.304	46566.28
564.666	46742.09
565.028	46950.9
565.39	47122.87
565.753	47507.72
566.115	47625.23
566.477	47889.4
566.839	47856.19
567.201	48098.44
567.563	48095.27
567.925	48276.97
568.287	48163.07
568.648	48108.16
569.01	48243.07
569.372	48350.64
569.734	48072.45
570.095	48323.07
570.457	48428.15
570.819	48399.9
571.18	48560.12
571.542	48798.76
571.903	48857.06
572.265	49049.83
572.626	49252.31
572.987	49357.16
573.349	49661.11
573.71	49970.03
574.071	50006.64
574.432	50179.29
574.794	50487.53
575.155	50322.56
575.516	50336.35
575.877	50466.29
576.238	50493.86
576.599	50482.78
576.96	50511.48
577.32	50412.5
577.681	50610.01
578.042	50572.5
578.403	50673.51
578.763	50547.41
579.124	50632.84
579.485	50631.71
579.845	50653.17
580.206	50680.74
580.566	50739.95
580.927	50764.36
581.287	50958.7
581.648	50974.3
582.008	51204.35
582.368	51301.29
582.728	51433.04
583.089	51402.76
583.449	51411.12
583.809	51486.82
584.169	51631.45
584.529	51603.88
584.889	51803.65
585.249	51522.98
585.609	51489.31
585.969	51612.92
586.329	51465.81
586.688	51456.32
587.048	51474.4
587.408	51334.29
587.768	51258.58
588.127	51325.47
588.487	51214.51
588.846	51403.21
589.206	51148.75
589.565	51215.42
589.925	51237.57
590.284	51261.75
590.643	51392.36
591.003	51485.47
591.362	51599.82
591.721	51587.16
592.08	51732.24
592.44	51763.2
592.799	51957.77
593.158	51865.57
593.517	51955.74
593.876	52010.65
594.235	51999.58
594.593	52043.19
594.952	52054.27
595.311	51920.71
595.67	52024.44
596.029	52075.96
596.387	51966.36
596.746	51992.57
597.104	51766.14
597.463	51710.1
597.822	51803.88
598.18	51758
598.538	51683.2
598.897	51800.71
599.255	51585.8
599.613	52044.1
599.972	51887.72
600.33	52044.78
600.688	51866.02
601.046	52172.46
601.404	52228.95
601.762	52253.81
602.12	52335.84
602.478	52531.54
602.836	52548.72
603.194	52438.44
603.552	52584.87
603.91	52319.8
604.268	52567.47
604.625	52469.62
604.983	52560.47
605.341	52423.3
605.698	52514.82
606.056	52589.17
606.413	52367.48
606.771	52537.64
607.128	52567.02
607.485	52267.14
607.843	52354.82
608.2	52714.14
608.557	52635.27
608.914	52341.94
609.272	52657.19
609.629	52663.29
609.986	52666.68
610.343	52495.84
610.7	52809.95
611.057	52843.17
611.414	52856.73
611.771	52945.54
612.127	53169.72
612.484	53221.92
612.841	53279.55
613.198	53287
613.554	53293.78
613.911	53467.56
614.267	53413.78
614.624	53427.79
614.98	53483.16
615.337	53550.95
615.693	53529.03
616.05	53509.14
616.406	53698.97
616.762	53427.79
617.118	53356.15
617.475	53402.71
617.831	53384.85
618.187	53475.47
618.543	53434.57
618.899	53521.8
619.255	53418.75
619.611	53378.75
619.967	53507.34
620.323	53556.83
620.678	53432.54
621.034	53421.91
621.39	53489.94
621.746	53430.73
622.101	53764.96
622.457	53566.09
622.812	53737.39
623.168	53858.06
623.523	53782.81
623.879	53924.5
624.234	53822.81
624.589	53951.39
624.945	54030.71
625.3	54072.29
625.655	54052.18
626.01	53959.53
626.365	53950.71
626.72	53903.03
627.075	53860.32
627.43	53834.56
627.785	53820.32
628.14	53837.72
628.495	53754.79
628.85	53707.33
629.205	53555.92
629.559	53695.13
629.914	53478.64
630.269	53464.4
630.623	53390.73
630.978	53370.16
631.332	53538.07
631.687	53591.63
632.041	53508.47
632.396	53563.61
632.75	53406.32
633.104	53541.46
633.459	53372.42
633.813	53449.48
634.167	53487.68
634.521	53364.74
634.875	53378.98
635.229	53394.57
635.583	53426.66
635.937	53413.1
636.291	53420.11
636.645	53404.97
636.999	53340.11
637.352	53354.8
637.706	53194.8
638.06	53322.48
638.413	53111.87
638.767	53044.75
639.121	53080.45
639.474	52797.3
639.828	52753.68
640.181	52703.29
640.534	52695.83
640.888	52551.2
641.241	52414.71
641.594	52457.87
641.947	52495.61
642.301	52397.53
642.654	52431.43
643.007	52391.21
643.36	52376.74
643.713	52260.36
644.066	52444.31
644.419	52290.42
644.771	52277.99
645.124	52262.17
645.477	52237.54
645.83	52004.78
646.182	51719.81
646.535	51555.07
646.888	51568.86
647.24	51265.36
647.593	51542.42
647.945	51440.95
648.298	51265.14
648.65	51255.87
649.002	51152.6
649.355	51296.77
649.707	51211.13
650.059	51426.26
650.411	51823.31
650.763	51859.7
651.115	52036.41
651.467	51816.98
651.819	51740.15
652.171	51608.4
652.523	51603.88
652.875	51526.15
653.227	51376.54
653.578	51635.29
653.93	51528.86
654.282	51312.37
654.633	51164.8
654.985	51313.95
655.337	51344.91
655.688	51384.23
656.039	51419.71
656.391	51266.72
656.742	51248.19
657.094	51415.87
657.445	51612.92
657.796	51520.5
658.147	51491.34
658.498	51597.56
658.849	51669.87
659.2	51674.84
659.551	51523.66
659.902	51725.01
660.253	51640.72
660.604	51760.49
660.955	51521.63
661.306	51642.53
661.656	51436.2
662.007	51555.07
662.358	51337.68
662.708	51360.05
663.059	51370.67
663.409	51079.83
663.76	51168.19
664.11	51238.7
664.461	51118.47
664.811	51003.45
665.161	50939.04
665.511	50834.41
665.862	50888.87
666.212	50966.16
666.562	50947.86
666.912	50871.25
667.262	50731.82
667.612	50849.55
667.962	50987.63
668.312	50925.03
668.662	51087.29
669.011	51104.01
669.361	51115.53
669.711	51112.6
670.06	51045.03
670.41	51011.13
670.76	51089.09
671.109	51148.53
671.459	51147.17
671.808	51077.8
672.157	51164.8
672.507	51013.84
672.856	51038.47
673.205	51121.41
673.554	51098.81
673.904	51060.17
674.253	51129.77
674.602	51004.13
674.951	50367.08
675.3	50153.75
675.649	50625.6
675.998	50409.56
676.346	50222.68
676.695	50219.74
677.044	50077.37
677.393	50077.6
677.741	50041.21
678.09	49929.35
678.438	49852.97
678.787	49749.47
679.135	49799.18
679.484	49596.25
679.832	49817.26
680.181	49629.25
680.529	49692.97
680.877	49763.93
681.225	49590.83
681.573	49942.01
681.922	49776.36
682.27	49694.55
682.618	49738.85
682.966	49817.94
683.314	49841.44
683.661	49838.96
684.009	49724.38
684.357	49589.02
684.705	49692.07
685.053	49606.65
685.4	49622.92
685.748	49413.88
686.095	49429.03
686.443	49277.39
686.79	49120.78
687.138	49147
687.485	49240.56
687.832	48878.53
688.18	48863.16
688.527	48468.6
688.874	48476.73
689.221	48204.2
689.568	48086.01
689.915	47938.67
690.262	47907.03
690.609	47749.52
690.956	47462.07
691.303	47509.3
691.65	47229.31
691.997	47096.21
692.344	47011.01
692.69	46933.5
693.037	46762.43
693.383	46577.35
693.73	46752.03
694.077	46630.23
694.423	46684.01
694.769	46613.28
695.116	46698.93
695.462	46601.98
695.808	46532.38
696.155	46626.84
696.501	46314.98
696.847	46587.97
697.193	46222.56
697.539	46385.26
697.885	46068.89
698.231	46085.61
698.577	46030.92
698.923	45933.07
699.269	45802.45
699.614	45544.61
699.96	45277.5
700.306	45422.12
700.651	45136.48
700.997	44821.91
701.342	44564.75
701.688	44493.34
702.033	44285.21
702.379	44235.04
702.724	44150.52
703.069	44157.07
703.415	43575.62
703.76	43555.06
704.105	43535.85
704.45	43302.63
704.795	43011.79
705.14	42727.51
705.485	42783.55
705.83	42629.66
706.175	42618.36
706.52	42604.57
706.865	42444.12
707.209	42471.47
707.554	42532.26
707.899	42596.44
708.243	42180.85
708.588	42491.35
708.932	42215.2
709.277	42275.77
709.621	42219.95
709.966	42049.56
710.31	42393.5
710.654	41899.96
710.998	42138.37
711.342	42139.95
711.687	41940.63
712.031	41854.54
712.375	41793.52
712.719	41847.08
713.063	41678.95
713.407	41684.82
713.75	41524.37
714.094	41488.89
714.438	41339.97
714.782	41257.49
715.125	41027.44
715.469	40991.73
715.812	40744.96
716.156	40507
716.499	40465.42
716.843	40296.61
717.186	40114.24
717.53	40210.06
717.873	39931.2
718.216	39696.4
718.559	39653.69
718.902	39281.04
719.246	39601.94
719.589	39651.66
719.932	39465.22
720.275	39405.79
720.617	39252.34
720.96	39192.23
721.303	39234.04
721.646	39264.55
721.989	39146.36
722.331	39433.13
722.674	39151.33
723.016	39368.95
723.359	39502.51
723.701	39577.31
724.044	39231.1
724.386	39171.22
724.729	39333.47
725.071	39231.78
725.413	39266.35
725.755	39314.71
726.097	39125.12
726.439	39112.23
726.782	39113.82
727.124	39251.44
727.465	39037.66
727.807	38913.6
728.149	38878.12
728.491	38813.71
728.833	38804.22
729.175	38585.92
729.516	38513.83
729.858	38484.45
730.199	38295.98
730.541	38151.36
730.882	38093.96
731.224	38166.27
731.565	38006.95
731.906	37933.73
732.248	37840.86
732.589	37689.9
732.93	37621.65
733.271	37616.23
733.612	37695.55
733.953	37618.26
734.294	37330.13
734.635	37368.1
734.976	37658.49
735.317	37407.19
735.658	37329.91
735.999	37542.56
736.339	37411.26
736.68	37600.41
737.021	37458.04
737.361	37276.35
737.702	37597.25
738.042	37628.66
738.383	37616.45
738.723	37653.06
739.063	37525.38
739.404	37719.28
739.744	37681.54
740.084	37519.06
740.424	37730.58
740.764	37861.42
741.104	37934.86
741.444	37632.05
741.784	37668.88
742.124	37734.19
742.464	37630.47
742.804	37555.21
743.143	37557.02
743.483	37573.29
743.823	37216.46
744.162	37323.81
744.502	37296.01
744.841	37305.28
745.181	37291.94
745.52	36997.94
745.86	37184.6
746.199	37054.44
746.538	37016.92
746.877	37189.57
747.216	37063.25
747.556	36985.06
747.895	36950.26
748.234	36844.95
748.573	36781.22
748.911	36777.61
749.25	36727.44
749.589	36704.39
749.928	36569.93
750.267	36819.87
750.605	36761.34
750.944	36667.55
751.283	36617.84
751.621	36799.75
751.96	36729.02
752.298	36757.04
752.636	36914.78
752.975	36846.53
753.313	36858.51
753.651	37049.46
753.989	36927.66
754.327	36893.76
754.666	36776.02
755.004	36942.35
755.342	37003.36
755.679	36955.68
756.017	36934.44
756.355	36966.08
756.693	36877.49
757.031	37155
757.368	36863.25
757.706	36812.63
758.044	36861.22
758.381	36994.1
758.719	36882.46
759.056	36973.76
759.394	36882.46
759.731	36777.15
760.068	36629.59
760.405	36489.7
760.743	36444.28
761.08	36643.37
761.417	36332.19
761.754	36334.68
762.091	36218.98
762.428	36122.03
762.765	35991.41
763.102	35923.17
763.438	35724.75
763.775	35703.51
764.112	35583.51
764.449	35633.23
764.785	35621.25
765.122	35311.66
765.458	35339
765.795	35320.7
766.131	35162.06
766.467	35179.46
766.804	35115.73
767.14	34962.51
767.476	34995.28
767.812	34937.65
768.148	35034.15
768.485	34700.6
768.821	34576.76
769.157	34583.99
769.492	34514.16
769.828	34610.88
770.164	34503.54
770.5	34361.62
770.836	34548.06
771.171	34200.5
771.507	34217.9
771.842	33925.48
772.178	34069.88
772.513	34130.22
772.849	33980.84
773.184	33911.24
773.519	33949.21
773.855	33763.9
774.19	33593.28
774.525	33409.33
774.86	33507.86
775.195	33287.53
775.53	33284.59
775.865	33254.99
776.2	33049.12
776.535	32684.15
776.87	32754.89
777.205	32617.94
777.539	32478.51
777.874	32407.33
778.209	32111.97
778.543	31970.73
778.878	31880.11
779.212	31849.15
779.547	31667.68
779.881	31774.8
780.215	31482.15
780.55	31511.76
780.884	31197.41
781.218	31085.1
781.552	31035.61
781.886	30890.53
782.22	30649.63
782.554	30542.97
782.888	30445.12
783.222	30300.26
783.556	30281.28
783.889	30187.72
784.223	29980.27
784.557	29938.46
784.89	29830.44
785.224	29735.08
785.557	29642.2
785.891	29715.87
786.224	29541.86
786.558	29571.24
786.891	29284.24
787.224	29126.28
787.557	29078.83
787.891	29246.05
788.224	29207.41
788.557	29130.58
788.89	29091.71
789.223	29029.11
789.556	28920.41
789.888	28865.05
790.221	28891.94
790.554	28548.67
790.887	28649.91
791.219	28499.18
791.552	28522.91
791.884	28307.55
792.217	28186.42
792.549	28213.54
792.882	27896.71
793.214	27771.52
793.546	27959.99
793.879	27731.52
794.211	27611.75
794.543	27682.03
794.875	27390.06
795.207	27609.71
795.539	27217.41
795.871	27315.48
796.203	27007.69
796.535	26782.16
796.867	26798.21
797.198	26806.12
797.53	26675.5
797.862	26463.08
798.193	26444.32
798.525	26187.15
798.856	26293.36
799.188	26012.92
799.519	25886.14
799.85	25686.15
800.182	25844.11
800.513	25713.94
800.844	25403.89
801.175	25584.91
801.506	25564.12
801.837	25544
802.168	25320.51
802.499	25330.45
802.83	25233.5
803.161	25215.88
803.491	25111.92
803.822	25072.15
804.153	24963
804.483	24823.57
804.814	24744.48
805.145	24771.37
805.475	24743.8
805.805	24638.49
806.136	24729.34
806.466	24689.11
806.796	24621.09
807.126	24504.26
807.457	24432.39
807.787	24438.95
808.117	24331.61
808.447	24238.5
808.777	24331.61
809.107	24225.17
809.436	24161.89
809.766	24096.81
810.096	24101.33
810.426	23992.18
810.755	24097.94
811.085	23924.61
811.414	23796.03
811.744	23708.57
812.073	23754.67
812.403	23689.14
812.732	23559.65
813.061	23534.79
813.39	23332.54
813.719	23163.95
814.049	23360.33
814.378	23204.63
814.707	23050.06
815.036	23069.04
815.365	22918.08
815.693	22732.78
816.022	22676.51
816.351	22556.74
816.68	22497.53
817.008	22444.2
817.337	22253.24
817.665	22187.03
817.994	22234.94
818.322	22205.33
818.651	22051.67
818.979	21908.17
819.307	22023.19
819.636	21958.79
819.964	21814.16
820.292	21933.02
820.62	21939.13
820.948	21778.9
821.276	21783.2
821.604	21777.77
821.932	21873.14
822.259	21859.81
822.587	21741.17
822.915	21792.24
823.243	21919.01
823.57	21879.69
823.898	21879.24
824.225	21811.67
824.553	21933.48
824.88	21949.52
825.207	22029.97
825.535	22016.86
825.862	21944.32
826.189	21880.37
826.516	22123.08
826.843	22140.03
827.17	22079.69
827.497	22153.58
827.824	22064.09
828.151	22180.48
828.478	22169.4
828.805	22182.74
829.131	22028.84
829.458	22164.88
829.785	22081.95
830.111	22048.5
830.438	22277.2
830.764	22130.53
831.09	22211.89
831.417	22045.11
831.743	22178.67
832.069	22151.32
832.395	22008.28
832.722	22083.98
833.048	22009.86
833.374	21812.12
833.7	21813.93
834.026	21890.31
834.351	21856.42
834.677	21820.49
835.003	21827.49
835.329	21791.79
835.654	21581.62
835.98	21567.38
836.306	21517.22
836.631	21425.69
836.956	21426.15
837.282	21422.3
837.607	21252.36
837.932	21121.75
838.258	21193.16
838.583	21162.42
838.908	20989.32
839.233	20943.45
839.558	20920.17
839.883	20800.4
840.208	20750.46
840.533	20834.52
840.858	20783.22
841.182	20886.27
841.507	20781.64
841.832	20703.23
842.156	20618.48
842.481	20601.76
842.805	20578.48
843.13	20609.22
843.454	20542.78
843.778	20439.96
844.103	20521.54
844.427	20407.42
844.751	20482.22
845.075	20413.06
845.399	20375.33
845.723	20210.81
846.047	20238.38
846.371	20104.82
846.695	20180.98
847.019	19951.83
847.343	19885.85
847.666	19896.92
847.99	19799.97
848.313	19952.06
848.637	19771.5
848.96	19847.43
849.284	19722.01
849.607	19649.02
849.931	19523.37
850.254	19394.33
850.577	19348.69
850.9	19170.61
851.223	19175.36
851.546	18919.32
851.869	18836.61
852.192	18985.08
852.515	18643.39
852.838	18689.72
853.161	18687.01
853.483	18561.81
853.806	18430.07
854.129	18397.98
854.451	18312.78
854.774	18220.13
855.096	18121.83
855.419	18034.82
855.741	17990.98
856.063	17928.38
856.385	17836.18
856.708	17782.4
857.03	17706.02
857.352	17645
857.674	17512.8
857.996	17418.79
858.318	17370.89
858.64	17440.71
858.961	17321.39
859.283	17230.55
859.605	17078.01
859.926	17166.37
860.248	17037.33
860.57	16986.26
860.891	16979.93
861.212	16927.05
861.534	16819.26
861.855	16905.36
862.176	16853.61
862.498	16824.68
862.819	16856.32
863.14	16818.36
863.461	16850.67
863.782	16785.59
864.103	16783.1
864.424	16772.71
864.745	16782.88
865.065	16670.79
865.386	16668.53
865.707	16673.05
866.027	16612.94
866.348	16668.08
866.668	16683.45
866.989	16656.55
867.309	16469.21
867.63	16589.21
867.95	16690.68
868.27	16511.47
868.59	16631.47
868.91	16501.98
869.23	16513.96
869.55	16462.66
869.87	16589.89
870.19	16364.13
870.51	16549.66
870.83	16506.28
871.15	16204.14
871.469	16353.51
871.789	16381.76
872.109	16328.2
872.428	16234.64
872.748	16305.38
873.067	16219.05
873.386	16337.47
873.706	16190.58
874.025	16042.11
874.344	16049.11
874.663	16133.4
874.982	15989.68
875.301	15949.45
875.62	15843.24
875.939	15755.56
876.258	15760.08
876.577	15662.91
876.896	15595.11
877.214	15649.35
877.533	15617.71
877.852	15490.48
878.17	15532.52
878.489	15569.58
878.807	15580.2
879.125	15413.87
879.444	15429.02
879.762	15446.64
880.08	15323.03
880.398	15277.83
880.716	15212.98
881.034	15163.94
881.352	15154.67
881.67	15036.48
881.988	15146.99
882.306	14919.88
882.624	15036.26
882.941	14971.17
883.259	14832.87
883.577	14862.7
883.894	14905.64
884.212	14794
884.529	14897.05
884.846	14831.29
885.164	14768.02
885.481	14829.93
885.798	14792.87
886.115	14721.01
886.432	14702.71
886.75	14634.23
887.067	14785.87
887.383	14755.36
887.7	14799.43
888.017	14645.31
888.334	14707.45
888.651	14644.18
888.967	14712.42
889.284	14631.97
889.6	14615.7
889.917	14450.06
890.233	14522.6
890.55	14493.45
890.866	14425.2
891.182	14356.95
891.498	14375.94
891.815	14396.95
892.131	14310.17
892.447	14240.57
892.763	14130.07
893.079	14194.25
893.395	14166
893.71	14152.66
894.026	14083.29
894.342	13958.55
894.657	13872.22
894.973	13942.95
895.289	13786.57
895.604	13795.84
895.92	13687.82
896.235	13696.63
896.55	13627.03
896.865	13554.94
897.181	13505
897.496	13447.37
897.811	13435.85
898.126	13285.12
898.441	13265.91
898.756	13175.29
899.071	13159.47
899.386	13123.77
899.7	12922.64
900.015	12964.67
900.33	12817.56
900.644	12807.62
900.959	12814.17
901.273	12657.56
901.588	12630.22
901.902	12581.86
902.216	12611.69
902.531	12528.3
902.845	12409.21
903.159	12427.06
903.473	12337.8
903.787	12243.11
904.101	12215.54
904.415	12225.26
904.729	12128.99
905.042	12044.02
905.356	12072.04
905.67	11967.64
905.984	12018.03
906.297	11961.31
906.611	11936.23
906.924	11935.32
907.237	11841.54
907.551	11738.49
907.864	11733.29
908.177	11741.43
908.491	11776.91
908.804	11701.2
909.117	11601.09
909.43	11639.96
909.743	11558.38
910.056	11595.22
910.368	11524.26
910.681	11516.58
910.994	11486.52
911.307	11419.18
911.619	11259.86
911.932	11338.95
912.244	11259.18
912.557	11288.11
912.869	11171.27
913.181	11159.75
913.494	11140.54
913.806	11115
914.118	11083.82
914.43	11026.19
914.742	11053.54
915.054	10963.82
915.366	10913.88
915.678	10874.11
915.99	10894.67
916.302	10748.46
916.613	10738.52
916.925	10804.96
917.236	10660.78
917.548	10667.33
917.859	10655.13
918.171	10552.99
918.482	10465.98
918.794	10364.97
919.105	10385.98
919.416	10279.55
919.727	10187.12
920.038	10124.75
920.349	10090.17
920.66	10010.63
920.971	9969.27
921.282	9924.98
921.593	9829.61
921.903	9748.49
922.214	9824.42
922.525	9707.58
922.835	9547.59
923.146	9601.37
923.456	9496.52
923.767	9523.41
924.077	9457.65
924.387	9460.13
924.697	9391.89
925.008	9328.16
925.318	9312.79
925.628	9267.37
925.938	9209.29
926.248	9079.13
926.558	9056.08
926.867	9051.78
927.177	9033.7
927.487	9030.31
927.796	8930.66
928.106	8935.4
928.416	8839.13
928.725	8883.42
929.034	8796.2
929.344	8770.21
929.653	8753.26
929.962	8747.83
930.271	8676.2
930.581	8676.88
930.89	8632.36
931.199	8557.11
931.508	8553.72
931.817	8516.88
932.125	8551.46
932.434	8544
932.743	8442.08
933.051	8416.77
933.36	8392.14
933.669	8308.98
933.977	8396.21
934.286	8297.45
934.594	8314.17
934.902	8286.83
935.21	8270.33
935.519	8335.64
935.827	8230.11
936.135	8203.67
936.443	8117.12
936.751	8148.75
937.059	8158.25
937.367	8056.55
937.674	8069.43
937.982	8078.02
938.29	7986.73
938.597	8012.94
938.905	7904.02
939.213	7835.32
939.52	7860.17
939.827	7889.78
940.135	7794.87
940.442	7767.52
940.749	7731.82
941.056	7677.13
941.363	7560.52
941.67	7596
941.977	7525.49
942.284	7443.91
942.591	7466.96
942.898	7382.45
943.205	7403.69
943.511	7313.07
943.818	7279.4
944.125	7279.62
944.431	7206.63
944.738	7219.29
945.044	7132.96
945.35	7131.38
945.657	7082.57
945.963	7003.47
946.269	7022.91
946.575	6982.01
946.881	6949.46
947.187	6837.6
947.493	6798.96
947.799	6789.47
948.105	6827.66
948.41	6754.67
948.716	6753.76
949.022	6685.74
949.327	6651.62
949.633	6565.75
949.938	6570.49
950.244	6533.66
950.549	6474.22
950.854	6471.28
951.16	6475.8
951.465	6418.18
951.77	6389.03
952.075	6346.99
952.38	6260.67
952.685	6260.67
952.99	6278.52
953.294	6291.4
953.599	6262.48
953.904	6217.05
954.209	6203.95
954.513	6203.5
954.818	6144.29
955.122	6155.59
955.426	6169.6
955.731	6099.99
956.035	6042.14
956.339	6043.05
956.643	6043.95
956.948	5999.66
957.252	6006.66
957.556	5956.04
957.86	5928.7
958.163	5957.63
958.467	5965.76
958.771	5913.79
959.075	5891.86
959.378	5890.73
959.682	5864.75
959.985	5832.88
960.289	5816.61
960.592	5775.94
960.896	5772.09
961.199	5786.1
961.502	5752.43
961.805	5725.77
962.108	5681.47
962.411	5682.38
962.714	5624.53
963.017	5643.96
963.32	5628.59
963.623	5588.82
963.926	5625.66
964.228	5532.1
964.531	5480.35
964.833	5448.03
965.136	5443.06
965.438	5397.19
965.741	5417.75
966.043	5391.31
966.345	5316.06
966.648	5329.62
966.95	5264.31
967.252	5295.72
967.554	5238.32
967.856	5222.05
968.158	5149.96
968.46	5098.67
968.761	5105.44
969.063	5060.93
969.365	5035.62
969.666	5036.52
969.968	4941.16
970.269	4971.44
970.571	4944.55
970.872	4897.54
971.174	4891.89
971.475	4857.54
971.776	4828.62
972.077	4829.97
972.378	4852.12
972.679	4796.3
972.98	4784.55
973.281	4728.73
973.582	4665.46
973.883	4637.89
974.183	4613.03
974.484	4624.1
974.785	4579.81
975.085	4561.96
975.386	4575.52
975.686	4535.74
975.986	4490.32
976.287	4485.8
976.587	4439.47
976.887	4400.15
977.187	4433.37
977.487	4365.58
977.787	4375.29
978.087	4377.78
978.387	4291.45
978.687	4305.24
978.987	4302.98
979.286	4245.81
979.586	4253.04
979.885	4263.66
980.185	4177.11
980.484	4235.41
980.784	4180.5
981.083	4190.21
981.382	4174.4
981.682	4159.26
981.981	4167.62
982.28	4104.34
982.579	4084
982.878	4093.04
983.177	4130.33
983.475	4069.99
983.774	4039.48
984.073	4030.22
984.372	3989.32
984.67	4015.08
984.969	4023.67
985.267	3983.89
985.566	3935.76
985.864	3913.84
986.162	3931.24
986.461	3958.13
986.759	3935.98
987.057	3898.92
987.355	3874.97
987.653	3866.38
987.951	3880.84
988.249	3843.78
988.547	3849.21
988.844	3818.02
989.142	3820.96
989.44	3788.19
989.737	3740.06
990.035	3739.38
990.332	3714.29
990.63	3700.74
990.927	3677.69
991.224	3695.54
991.521	3655.54
991.819	3620.06
992.116	3612.6
992.413	3579.38
992.71	3535.77
993.006	3563.34
993.303	3520.18
993.6	3479.72
993.897	3495.32
994.193	3472.72
994.49	3467.3
994.787	3427.97
995.083	3404.47
995.379	3402.66
995.676	3422.78
995.972	3374.64
996.268	3293.97
996.565	3362.21
996.861	3322.44
997.157	3249.9
997.453	3239.28
997.749	3243.35
998.044	3236.34
998.34	3215.78
998.636	3147.98
998.932	3140.75
999.227	3116.34
999.523	3133.29
999.818	3086.74
1000.114	3041.54
1000.409	3061.2
1000.704	3011.26
1001	3027.31
1001.295	3013.07
1001.59	2991.83
1001.885	2985.95
1002.18	2930.59
1002.475	2924.49
1002.77	2916.12
1003.065	2877.03
1003.359	2867.31
1003.654	2885.84
1003.949	2865.73
1004.243	2829.12
1004.538	2795.22
1004.832	2791.61
1005.127	2810.59
1005.421	2779.63
1005.715	2741.44
1006.009	2766.07
1006.304	2735.34
1006.598	2710.03
1006.892	2687.88
1007.186	2670.03
1007.48	2700.08
1007.773	2651.72
1008.067	2657.37
1008.361	2609.69
1008.655	2627.77
1008.948	2576.47
1009.242	2606.98
1009.535	2597.04
1009.829	2566.75
1010.122	2550.26
1010.415	2512.29
1010.708	2535.12
1011.001	2532.41
1011.295	2504.61
1011.588	2498.73
1011.881	2474.1
1012.173	2467.1
1012.466	2433.88
1012.759	2408.34
1013.052	2468.23
1013.344	2421.45
1013.637	2430.26
1013.93	2381.67
1014.222	2395.23
1014.514	2390.71
1014.807	2369.02
1015.099	2340.55
1015.391	2325.63
1015.683	2285.41
1015.976	2319.3
1016.268	2273.43
1016.56	2253.99
1016.851	2211.96
1017.143	2217.61
1017.435	2239.98
1017.727	2242.47
1018.018	2190.27
1018.31	2175.58
1018.602	2200.44
1018.893	2174
1019.185	2186.2
1019.476	2156.82
1019.767	2150.04
1020.058	2083.15
1020.35	2080.89
1020.641	2080.21
1020.932	2051.06
1021.223	2079.31
1021.514	2025.53
1021.804	2005.19
1022.095	2031.85
1022.386	1978.97
1022.677	1955.25
1022.967	1958.41
1023.258	1925.87
1023.548	1925.87
1023.839	1913.44
1024.129	1907.79
1024.419	1889.26
1024.709	1887.9
1025	1853.78
1025.29	1840.67
1025.58	1824.18
1025.87	1802.48
1026.16	1792.31
1026.449	1795.93
1026.739	1747.12
1027.029	1764.52
1027.319	1755.7
1027.608	1755.02
1027.898	1741.69
1028.187	1703.95
1028.477	1711.86
1028.766	1707.34
1029.055	1656.04
1029.344	1631.64
1029.634	1623.05
1029.923	1630.06
1030.212	1619.43
1030.501	1581.7
1030.79	1571.3
1031.078	1607.23
1031.367	1575.14
1031.656	1552.54
1031.945	1566.78
1032.233	1559.78
1032.522	1522.49
1032.81	1511.87
1033.099	1540.79
1033.387	1492.88
1033.675	1507.57
1033.963	1487.01
1034.251	1491.08
1034.54	1453.11
1034.828	1443.17
1035.116	1437.52
1035.403	1433.9
1035.691	1454.92
1035.979	1435.03
1036.267	1404.75
1036.554	1395.03
1036.842	1375.37
1037.129	1372.44
1037.417	1351.65
1037.704	1349.61
1037.992	1351.87
1038.279	1326.56
1038.566	1351.19
1038.853	1351.19
1039.14	1351.19
