Data from blue_shiny_book_FLMS001491_00076.txt Node
Date: Wed Feb 08 15:27:31 GMT 2017
User: dcchb
Spectrometer: FLMS00149
Trigger mode: 0
Integration Time (sec): 2.000000E-2
Scans to average: 10
Electric dark correction enabled: true
Nonlinearity correction enabled: false
Boxcar width: 0
XAxis mode: Wavelengths
Number of Pixels in Spectrum: 2048
>>>>>Begin Spectral Data<<<<<
341.393	-0.83
341.776	-0.83
342.16	-0.83
342.543	-44.67
342.927	-50.78
343.31	-63.2
343.693	-72.24
344.077	-54.39
344.46	-76.54
344.843	-31.57
345.226	-43.54
345.61	-30.89
345.993	-22.75
346.376	-15.75
346.759	10.92
347.142	17.25
347.525	48.2
347.908	68.09
348.291	86.17
348.674	79.39
349.057	100.86
349.44	134.53
349.823	156.68
350.206	145.15
350.588	198.94
350.971	244.58
351.354	253.85
351.737	243.68
352.119	277.58
352.502	277.13
352.884	265.6
353.267	303.79
353.65	308.76
354.032	298.37
354.414	317.58
354.797	328.88
355.179	341.08
355.562	345.15
355.944	355.54
356.326	341.98
356.709	356.45
357.091	353.51
357.473	373.17
357.855	363.9
358.238	341.76
358.62	362.55
359.002	349.21
359.384	359.16
359.766	355.99
360.148	333.17
360.53	332.72
360.912	338.82
361.294	346.95
361.676	344.47
362.057	367.07
362.439	348.31
362.821	321.19
363.203	323.45
363.584	342.43
363.966	314.64
364.348	351.7
364.729	332.72
365.111	328.2
365.493	326.62
365.874	327.29
366.256	310.8
366.637	318.25
367.019	358.71
367.4	312.6
367.781	341.08
368.163	333.85
368.544	349.21
368.925	337.46
369.306	341.76
369.688	341.98
370.069	330.46
370.45	341.53
370.831	325.49
371.212	327.52
371.593	345.6
371.974	333.62
372.355	326.16
372.736	344.24
373.117	335.66
373.498	323.23
373.879	337.46
374.26	316.45
374.641	360.06
375.021	329.33
375.402	332.94
375.783	343.11
376.163	355.09
376.544	366.61
376.925	346.28
377.305	333.17
377.686	345.6
378.066	364.35
378.447	346.5
378.827	380.4
379.208	375.88
379.588	373.62
379.968	343.11
380.349	361.19
380.729	343.11
381.109	379.27
381.489	360.51
381.87	359.16
382.25	361.64
382.63	388.53
383.01	389.44
383.39	382.89
383.77	388.08
384.15	384.92
384.53	390.57
384.91	406.61
385.29	394.18
385.67	388.53
386.049	421.53
386.429	424.47
386.809	408.87
387.189	414.07
387.568	433.28
387.948	407.29
388.328	415.2
388.707	425.6
389.087	425.6
389.466	426.73
389.846	436.9
390.225	452.71
390.605	421.75
390.984	436.67
391.363	441.64
391.743	454.75
392.122	461.53
392.501	438.48
392.881	466.95
393.26	478.25
393.639	461.3
394.018	490.23
394.397	498.14
394.776	496.78
395.155	483.67
395.534	501.53
395.913	472.6
396.292	487.52
396.671	500.17
397.05	485.93
397.429	510.57
397.808	506.05
398.186	488.19
398.565	533.84
398.944	516.22
399.323	537.23
399.701	542.66
400.08	558.25
400.458	542.88
400.837	521.64
401.215	550.56
401.594	555.08
401.972	553.5
402.351	563.45
402.729	575.42
403.107	595.08
403.486	579.26
403.864	610
404.242	607.74
404.62	589.21
404.999	619.72
405.377	622.2
405.755	652.26
406.133	634.63
406.511	630.11
406.889	653.84
407.267	661.07
407.645	636.21
408.023	675.53
408.401	672.14
408.779	680.5
409.156	690.45
409.534	720.96
409.912	708.75
410.29	703.55
410.667	736.55
411.045	749.88
411.422	742.2
411.8	753.05
412.178	760.5
412.555	762.99
412.933	781.07
413.31	800.28
413.687	803.67
414.065	840.95
414.442	841.63
414.819	814.29
415.197	824.23
415.574	867.62
415.951	864
416.328	877.34
416.705	875.75
417.082	873.72
417.46	891.8
417.837	887.28
418.214	936.77
418.591	916.2
418.967	913.72
419.344	916.2
419.721	966.15
420.098	958.92
420.475	977.9
420.852	963.66
421.228	1011.12
421.605	1006.6
421.982	1020.16
422.358	1038.01
422.735	1022.64
423.111	1038.01
423.488	1069.42
423.864	1090.44
424.241	1076.2
424.617	1110.78
424.994	1092.02
425.37	1097.22
425.746	1133.15
426.123	1136.54
426.499	1148.74
426.875	1152.58
427.251	1204.33
427.627	1229.19
428.003	1232.35
428.379	1210.89
428.756	1278
429.132	1317.32
429.507	1259.47
429.883	1296.53
430.259	1314.84
430.635	1364.78
431.011	1355.74
431.387	1410.43
431.763	1412.69
432.138	1415.63
432.514	1449.75
432.89	1463.31
433.265	1491.78
433.641	1490.88
434.016	1529.75
434.392	1561.84
434.767	1557.54
435.143	1573.36
435.518	1573.81
435.894	1598.67
436.269	1649.97
436.644	1693.36
437.02	1684.55
437.395	1733.81
437.77	1741.27
438.145	1749.63
438.52	1766.13
438.895	1753.24
439.271	1789.85
439.646	1820.81
440.021	1857.65
440.395	1848.84
440.77	1820.59
441.145	1868.04
441.52	1920.7
441.895	1963.86
442.27	1939.45
442.645	1973.35
443.019	2007.02
443.394	1986.23
443.769	2002.96
444.143	1993.24
444.518	2062.16
444.892	2031.88
445.267	2080.02
445.641	2115.95
446.016	2120.24
446.39	2118.88
446.764	2174.7
447.139	2163.4
447.513	2163.63
447.887	2161.82
448.262	2218.32
448.636	2213.57
449.01	2223.06
449.384	2256.73
449.758	2262.16
450.132	2337.18
450.506	2332.66
450.88	2340.12
451.254	2377.64
451.628	2393.91
452.002	2451.76
452.376	2461.25
452.75	2487.24
453.123	2498.08
453.497	2554.58
453.871	2540.12
454.244	2594.58
454.618	2613.34
454.992	2631.87
455.365	2689.49
455.739	2758.42
456.112	2782.6
456.486	2799.32
456.859	2826.89
457.232	2901.01
457.606	2894.91
457.979	2913.21
458.352	2996.83
458.725	3031.4
459.099	3056.04
459.472	3108.46
459.845	3132.87
460.218	3183.72
460.591	3163.38
460.964	3235.92
461.337	3286.99
461.71	3348.01
462.083	3421.45
462.456	3420.32
462.829	3465.29
463.201	3467.1
463.574	3534.44
463.947	3606.3
464.32	3657.6
464.692	3739.63
465.065	3729.46
465.438	3771.27
465.81	3814.43
466.183	3871.16
466.555	3940.76
466.928	3971.04
467.3	4023.92
467.672	4077.25
468.045	4193.18
468.417	4181.43
468.789	4221.2
469.161	4323.57
469.534	4372.16
469.906	4435.43
470.278	4443.12
470.65	4515.66
471.022	4593.17
471.394	4679.27
471.766	4724.24
472.138	4792.26
472.51	4886.95
472.882	4983.89
473.253	5004.01
473.625	5125.59
473.997	5271.12
474.369	5272.93
474.74	5369.42
475.112	5437.44
475.484	5544.33
475.855	5591.79
476.227	5629.98
476.598	5786.81
476.97	5848.73
477.341	5959.46
477.713	6007.6
478.084	6125.11
478.455	6249.62
478.827	6352.22
479.198	6519.67
479.569	6523.97
479.94	6730.97
480.311	6785.2
480.682	6901.81
481.053	7126.44
481.424	7215.47
481.795	7290.73
482.166	7400.33
482.537	7505.41
482.908	7648.91
483.279	7762.58
483.65	7880.77
484.021	8092.97
484.391	8128.67
484.762	8241.44
485.133	8334.09
485.503	8491.6
485.874	8667.19
486.244	8746.28
486.615	8911.02
486.985	8948.76
487.356	9211.13
487.726	9207.06
488.097	9440.27
488.467	9437.79
488.837	9654.05
489.207	9823.09
489.578	9957.32
489.948	10020.82
490.318	10240.71
490.688	10270.31
491.058	10498.1
491.428	10640.92
491.798	10702.39
492.168	10937.41
492.538	10903.29
492.908	11071.42
493.278	11271.41
493.648	11211.08
494.017	11399.54
494.387	11521.58
494.757	11662.59
495.126	11831.17
495.496	11893.77
495.866	11959.53
496.235	12116.59
496.605	12150.49
496.974	12302.12
497.344	12443.59
497.713	12534.2
498.082	12612.39
498.452	12835.89
498.821	12903.01
499.19	12959.28
499.559	13062.1
499.928	13078.6
500.298	13183.9
500.667	13361.3
501.036	13379.38
501.405	13559.49
501.774	13489.43
502.143	13709.54
502.512	13819.59
502.88	13960.38
503.249	13940.04
503.618	14140.04
503.987	14108.17
504.356	14232.69
504.724	14351.33
505.093	14460.26
505.462	14574.83
505.83	14672.68
506.199	14699.57
506.567	14911.77
506.936	14835.84
507.304	15082.39
507.672	15151.99
508.041	15171.88
508.409	15371.42
508.777	15505.2
509.145	15687.12
509.514	15649.83
509.882	15856.15
510.25	15908.58
510.618	16069.03
510.986	16156.03
511.354	16395.57
511.722	16429.92
512.09	16577.26
512.458	16563.48
512.826	16704.49
513.193	16824.04
513.561	16840.76
513.929	16888.67
514.297	17049.34
514.664	17172.73
515.032	17255.66
515.4	17435.09
515.767	17526.62
516.135	17667.63
516.502	17674.86
516.869	18020.16
517.237	18151.46
517.604	18123.89
517.972	18356.88
518.339	18498.57
518.706	18390.32
519.073	18554.84
519.44	18619.92
519.808	18882.06
520.175	18817.2
520.542	19074.6
520.909	19263.07
521.276	19242.05
521.643	19511.2
522.009	19566.79
522.376	19687.91
522.743	19861.02
523.11	20063.72
523.477	20227.56
523.843	20444.73
524.21	20729.24
524.577	20952.97
524.943	20963.59
525.31	21105.28
525.676	21343.92
526.043	21523.12
526.409	21565.15
526.776	21733.51
527.142	21787.52
527.508	21889.89
527.874	21997.23
528.241	22127.17
528.607	22145.93
528.973	22322.2
529.339	22335.75
529.705	22733.03
530.071	22891.22
530.437	23093.47
530.803	23240.59
531.169	23372.79
531.535	23490.07
531.901	23596.06
532.267	23767.81
532.632	23838.99
532.998	24031.98
533.364	24082.6
533.73	24199.66
534.095	24279.66
534.461	24383.38
534.826	24412.08
535.192	24550.84
535.557	24680.78
535.923	24504.96
536.288	24690.27
536.653	24722.81
537.019	24808.91
537.384	25017.94
537.749	25119.41
538.114	25287.99
538.479	25418.84
538.845	25455.22
539.21	25545.39
539.575	25765.04
539.94	25976.56
540.305	25963.68
540.67	26093.4
541.034	26146.5
541.399	26111.7
541.764	26099.27
542.129	26246.61
542.494	26203
542.858	26296.78
543.223	26286.84
543.587	26402.09
543.952	26474.18
544.316	26459.26
544.681	26508.3
545.045	26712.81
545.41	26893.83
545.774	26902.64
546.138	26921.85
546.503	27056.99
546.867	27151.9
547.231	27492
547.595	27567.71
547.959	27746.46
548.324	27745.1
548.688	27839.11
549.052	27838.89
549.416	27881.15
549.779	27820.81
550.143	27812.9
550.507	27922.95
550.871	27926.57
551.235	27784.2
551.599	28022.61
551.962	27929.05
552.326	28070.52
552.689	28203.17
553.053	28122.72
553.417	28187.58
553.78	28693.33
554.143	28493.11
554.507	28734.23
554.87	28928.35
555.234	29343.25
555.597	29131.96
555.96	29402.91
556.323	29389.58
556.686	29427.32
557.05	29694.88
557.413	29590.25
557.776	29717.48
558.139	29753.64
558.502	29665.05
558.865	29605.62
559.228	29693.08
559.59	29782.11
559.953	29732.85
560.316	30082.22
560.679	30182.55
561.041	30328.99
561.404	30456.67
561.767	30722.2
562.129	30545.93
562.492	30879.48
562.854	30867.96
563.217	30937.11
563.579	31326.25
563.941	31570.31
564.304	31677.2
564.666	31805.11
565.028	31826.13
565.39	31970.3
565.753	32059.34
566.115	32091.43
566.477	32311.31
566.839	32250.75
567.201	32312.89
567.563	32396.05
567.925	32409.84
568.287	32376.17
568.648	32336.85
569.01	32518.09
569.372	32705.88
569.734	32596.28
570.095	32874.69
570.457	33057.51
570.819	33028.58
571.18	33317.84
571.542	33436.25
571.903	33538.17
572.265	33874.66
572.626	33901.78
572.987	34184.03
573.349	34146.29
573.71	34451.82
574.071	34540.18
574.432	34352.84
574.794	34657.46
575.155	34377.47
575.516	34341.54
575.877	34475.55
576.238	34405.95
576.599	34521.65
576.96	34544.93
577.32	34475.32
577.681	34566.39
578.042	34625.15
578.403	34665.83
578.763	34533.63
579.124	34778.59
579.485	34946.5
579.845	35035.76
580.206	34991.69
580.566	35209.09
580.927	35268.75
581.287	35526.37
581.648	35365.02
582.008	35733.82
582.368	35627.61
582.728	35766.81
583.089	35821.95
583.449	35749.19
583.809	35651.79
584.169	35685.46
584.529	35527.05
584.889	35691.56
585.249	35599.81
585.609	35398.01
585.969	35517.1
586.329	35277.56
586.688	35291.57
587.048	35382.42
587.408	35388.97
587.768	35385.81
588.127	35394.17
588.487	35404.79
588.846	35785.57
589.206	35388.97
589.565	35523.2
589.925	35860.82
590.284	35685.91
590.643	35856.75
591.003	36088.16
591.362	36190.76
591.721	36202.73
592.08	36129.74
592.44	36345.1
592.799	36318.66
593.158	36363.18
593.517	36214.03
593.876	36240.02
594.235	36230.08
594.593	36186.92
594.952	36069.18
595.311	35865.57
595.67	35869.18
596.029	36029.86
596.387	36076.86
596.746	35911.67
597.104	35756.19
597.463	35776.31
597.822	36041.38
598.18	36061.95
598.538	35989.63
598.897	36212.45
599.255	36046.13
599.613	36548.94
599.972	36257.2
600.33	36486.12
600.688	36406.12
601.046	36698.99
601.404	36871.87
601.762	36794.58
602.12	36932.66
602.478	36865.09
602.836	36796.39
603.194	36685.89
603.552	36698.31
603.91	36550.07
604.268	36697.64
604.625	36401.83
604.983	36658.77
605.341	36343.52
605.698	36387.81
606.056	36441.82
606.413	36456.06
606.771	36668.71
607.128	36630.97
607.485	36462.16
607.843	36480.47
608.2	36908.7
608.557	36963.17
608.914	36849.5
609.272	37159.09
609.629	37183.95
609.986	37249.26
610.343	37118.64
610.7	37459.88
611.057	37429.59
611.414	37388.92
611.771	37642.92
612.127	37802.92
612.484	37616.71
612.841	37891.73
613.198	37763.37
613.554	37813.31
613.911	37888.34
614.267	37713.43
614.624	37716.37
614.98	37795.01
615.337	37812.64
615.693	37630.49
616.05	37505.3
616.406	37623.26
616.762	37497.62
617.118	37557.95
617.475	37604.73
617.831	37752.98
618.187	37812.64
618.543	37884.05
618.899	37992.29
619.255	37962.01
619.611	38032.06
619.967	38215.56
620.323	38356.58
620.678	38256.01
621.034	38342.79
621.39	38555.89
621.746	38428.21
622.101	38892.38
622.457	38512.73
622.812	38611.26
623.168	38784.81
623.523	38627.76
623.879	38762.89
624.234	38506.18
624.589	38741.65
624.945	38656.91
625.3	38569.9
625.655	38523.35
626.01	38482.9
626.365	38399.96
626.72	38221.66
627.075	38188.67
627.43	38247.43
627.785	38052.4
628.14	38108.9
628.495	38173.3
628.85	38056.25
629.205	38020.77
629.559	38221.44
629.914	38056.47
630.269	38054.89
630.623	38178.95
630.978	38159.52
631.332	38397.03
631.687	38529
632.041	38360.42
632.396	38464.14
632.75	38202.23
633.104	38326.29
633.459	38225.51
633.813	38149.12
634.167	38154.55
634.521	37988
634.875	38145.51
635.229	37932.41
635.583	37794.56
635.937	37866.87
636.291	37712.07
636.645	37693.32
636.999	37571.06
637.352	37660.78
637.706	37528.35
638.06	37467.79
638.413	37446.77
638.767	37140.34
639.121	37241.58
639.474	36918.65
639.828	36830.06
640.181	36924.52
640.534	36850.63
640.888	36817.41
641.241	36962.71
641.594	37001.36
641.947	37109.6
642.301	36966.56
642.654	37126.33
643.007	37066.89
643.36	37156.61
643.713	37062.82
644.066	37112.54
644.419	37140.34
644.771	37107.57
645.124	37006.33
645.477	37091.07
645.83	36784.41
646.182	36614.48
646.535	36145.79
646.888	35999.35
647.24	35655.4
647.593	35717.32
647.945	35513.49
648.298	35513.49
648.65	35332.02
649.002	35257.22
649.355	35378.35
649.707	35543.32
650.059	35616.99
650.411	36092.91
650.763	36132.68
651.115	36454.93
651.467	36146.24
651.819	36231.89
652.171	36192.11
652.523	36057.88
652.875	36003.19
653.227	35998.67
653.578	36375.61
653.93	36258.55
654.282	36111.89
654.633	35977.88
654.985	36148.27
655.337	36165.9
655.688	36306.46
656.039	36442.05
656.391	36172.9
656.742	36359.34
657.094	36136.07
657.445	36421.94
657.796	36268.5
658.147	36255.84
658.498	36263.98
658.849	36230.98
659.2	36235.5
659.551	36073.92
659.902	36152.11
660.253	36164.32
660.604	36184.88
660.955	35910.99
661.306	35873.03
661.656	35881.16
662.007	35762.07
662.358	35659.25
662.708	35673.71
663.059	35773.37
663.409	35505.58
663.76	35655.63
664.11	35634.16
664.461	35511.91
664.811	35542.19
665.161	35442.3
665.511	35457.22
665.862	35482.98
666.212	35657.66
666.562	35602.75
666.912	35639.81
667.262	35683.43
667.612	35819.47
667.962	36021.5
668.312	35880.94
668.662	36044.09
669.011	35977.66
669.361	35895.62
669.711	36057.65
670.06	35854.5
670.41	35935.4
670.76	35812.46
671.109	35870.77
671.459	35792.58
671.808	35580.6
672.157	35656.53
672.507	35426.03
672.856	35424.45
673.205	35475.75
673.554	35473.49
673.904	35272.14
674.253	35399.37
674.602	35076.21
674.951	34565.94
675.3	34473.51
675.649	34962.54
675.998	34864.24
676.346	34806.84
676.695	34982.65
677.044	34624.47
677.393	34662.21
677.741	34850
678.09	34658.14
678.438	34636.22
678.787	34672.15
679.135	34708.76
679.484	34508.09
679.832	34732.72
680.181	34663.11
680.529	34819.27
680.877	34836.67
681.225	34993.95
681.573	35035.99
681.922	34852.04
682.27	34717.35
682.618	34779.04
682.966	34553.06
683.314	34622.66
683.661	34467.41
684.009	34134.54
684.357	34256.12
684.705	34206.85
685.053	34174.99
685.4	34068.55
685.748	33833.53
686.095	33798.73
686.443	33389.25
686.79	33408.01
687.138	33465.63
687.485	33434.22
687.832	33271.06
688.18	33163.72
688.527	32978.19
688.874	32846.66
689.221	32806.21
689.568	32683.51
689.915	32592.21
690.262	32685.09
690.609	32565.77
690.956	32393.57
691.303	32411.2
691.65	32300.24
691.997	32279.45
692.344	32115.61
692.69	32017.99
693.037	32106.35
693.383	31902.96
693.73	32133.24
694.077	32006.46
694.423	32021.15
694.769	31859.12
695.116	31711.1
695.462	31663.42
695.808	31719.46
696.155	31766.02
696.501	31552.24
696.847	31616.41
697.193	31179.82
697.539	31329.42
697.885	31025.24
698.231	30784.12
698.577	30913.38
698.923	30661.86
699.269	30536.44
699.614	30315.43
699.96	30283.12
700.306	30282.89
700.651	30122.67
700.997	29805.16
701.342	29845.61
701.688	29704.6
702.033	29494.21
702.379	29463.02
702.724	29362.69
703.069	29449.92
703.415	29205.63
703.76	29023.26
704.105	29079.08
704.45	29019.42
704.795	28891.51
705.14	28798.41
705.485	28873.44
705.83	28722.25
706.175	28880.89
706.52	28878.41
706.865	28719.32
707.209	28808.8
707.554	28876.6
707.899	28764.51
708.243	28632.76
708.588	28601.58
708.932	28479.55
709.277	28443.62
709.621	28626.21
709.966	28318.65
710.31	28461.02
710.654	28134.02
710.998	28193.45
711.342	28180.12
711.687	27962.05
712.031	27778.78
712.375	27787.59
712.719	27765.67
713.063	27724.99
713.407	27699
713.75	27445.9
714.094	27371.55
714.438	27259.69
714.782	27290.88
715.125	26978.34
715.469	26972.92
715.812	26800.04
716.156	26730.44
716.499	26642.76
716.843	26701.06
717.186	26561.41
717.53	26631.69
717.873	26747.62
718.216	26558.92
718.559	26419.71
718.902	26457.45
719.246	26643.66
719.589	26570.9
719.932	26492.26
720.275	26568.64
720.617	26525.02
720.96	26463.1
721.303	26465.59
721.646	26484.35
721.989	26475.76
722.331	26586.49
722.674	26510.56
723.016	26572.25
723.359	26441.41
723.701	26666.71
724.044	26424.46
724.386	26236.67
724.729	26413.84
725.071	26267.63
725.413	26368.19
725.755	26224.69
726.097	26150.8
726.439	26082.55
726.782	25952.16
727.124	26005.04
727.465	25852.5
727.807	25660.86
728.149	25716.23
728.491	25622.67
728.833	25699.73
729.175	25584.48
729.516	25436.24
729.858	25567.99
730.199	25597.14
730.541	25365.05
730.882	25372.51
731.224	25443.24
731.565	25161.44
731.906	25217.03
732.248	25318.5
732.589	25215.23
732.93	25078.28
733.271	25267.43
733.612	25236.24
733.953	25194.89
734.294	25182.69
734.635	25119.64
734.976	25229.69
735.317	25082.12
735.658	25284.83
735.999	25297.71
736.339	25339.07
736.68	25466.29
737.021	25372.28
737.361	25300.42
737.702	25490.47
738.042	25410.25
738.383	25442.34
738.723	25563.47
739.063	25387.65
739.404	25654.54
739.744	25565.95
740.084	25594.88
740.424	25529.79
740.764	25477.82
741.104	25620.41
741.444	25441.66
741.784	25233.53
742.124	25277.6
742.464	25171.84
742.804	25282.34
743.143	25067.21
743.483	25285.96
743.823	24967.78
744.162	25142.69
744.502	25095.91
744.841	25021.11
745.181	24961
745.52	25059.3
745.86	25008.68
746.199	24968.68
746.538	24918.74
746.877	25097.04
747.216	24993.54
747.556	24911.28
747.895	24921.9
748.234	25063.37
748.573	25035.57
748.911	24926.42
749.25	25139.52
749.589	24988.57
749.928	25088.68
750.267	25217.03
750.605	25252.06
750.944	25243.02
751.283	25374.77
751.621	25491.38
751.96	25446.86
752.298	25425.39
752.636	25529.79
752.975	25529.79
753.313	25518.72
753.651	25581.32
753.989	25566.4
754.327	25610.02
754.666	25527.08
755.004	25818.83
755.342	25791.71
755.679	25803.91
756.017	25697.02
756.355	25706.06
756.693	25610.02
757.031	25713.29
757.368	25666.29
757.706	25585.61
758.044	25571.38
758.381	25604.6
758.719	25624.71
759.056	25494.32
759.394	25565.5
759.731	25365.28
760.068	25389.69
760.405	25429.68
760.743	25248.9
761.08	25315.11
761.417	25231.5
761.754	25358.05
762.091	25232.4
762.428	25174.78
762.765	25055.23
763.102	25038.73
763.438	24996.7
763.775	24960.54
764.112	25057.94
764.449	25100.88
764.785	24987.89
765.122	24856.37
765.458	25041.67
765.795	24876.03
766.131	24963.71
766.467	25011.62
766.804	24953.31
767.14	24952.63
767.476	25091.61
767.812	24898.62
768.148	24909.47
768.485	24814.33
768.821	24673.09
769.157	24645.07
769.492	24697.73
769.828	24688.91
770.164	24472.65
770.5	24632.87
770.836	24553.1
771.171	24504.06
771.507	24391.97
771.842	24243.27
772.178	24255.93
772.513	24268.36
772.849	24271.52
773.184	24270.84
773.519	24029.95
773.855	24005.54
774.19	23813.68
774.525	23813.91
774.86	23772.55
775.195	23669.96
775.53	23632.22
775.865	23431.54
776.2	23360.81
776.535	23133.02
776.87	23167.82
777.205	23076.98
777.539	22967.83
777.874	23099.35
778.209	22845.35
778.543	22667.72
778.878	22563.09
779.212	22586.37
779.547	22481.29
779.881	22466.15
780.215	22422.76
780.55	22301.41
780.884	22305.25
781.218	22113.16
781.552	22078.81
781.886	21992.71
782.22	22002.88
782.554	21874.75
782.888	21724.7
783.222	21700.52
783.556	21723.79
783.889	21599.28
784.223	21406.29
784.557	21502.33
784.89	21409
785.224	21370.58
785.557	21359.28
785.891	21228.44
786.224	21249
786.558	21205.84
786.891	20947.09
787.224	20935.79
787.557	20785.51
787.891	20906.64
788.224	20843.82
788.557	20841.1
788.89	20688.11
789.223	20788.9
789.556	20682.92
789.888	20644.27
790.221	20610.6
790.554	20468.68
790.887	20328.12
791.219	20295.81
791.552	20263.94
791.884	20077.73
792.217	19969.26
792.549	19856.72
792.882	19845.65
793.214	19783.28
793.546	19843.62
793.879	19741.25
794.211	19605.2
794.543	19555.71
794.875	19367.7
795.207	19432.1
795.539	19295.61
795.871	19226.68
796.203	19028.5
796.535	19092.22
796.867	19006.58
797.198	18944.21
797.53	18956.18
797.862	18854.72
798.193	18953.02
798.525	18680.03
798.856	18744.44
799.188	18615.63
799.519	18542.63
799.85	18378.34
800.182	18503.31
800.513	18420.15
800.844	18362.53
801.175	18370.21
801.506	18388.74
801.837	18325.46
802.168	18280.49
802.499	18173.6
802.83	18115.07
803.161	18062.42
803.491	18087.28
803.822	18061.52
804.153	18023.1
804.483	17872.82
804.814	17908.3
805.145	17832.37
805.475	17829.43
805.805	17833.27
806.136	17770.45
806.466	17797.34
806.796	17772.71
807.126	17531.81
807.457	17639.61
807.787	17590.57
808.117	17547.63
808.447	17417.69
808.777	17580.4
809.107	17315.32
809.436	17280.75
809.766	17266.06
810.096	17158.72
810.426	17155.1
810.755	17203.23
811.085	17064.71
811.414	17126.4
811.744	16886.18
812.073	16921.21
812.403	16877.37
812.732	16731.83
813.061	16694.77
813.39	16588.56
813.719	16531.61
814.049	16595.79
814.378	16569.58
814.707	16476.02
815.036	16461.56
815.365	16365.29
815.693	16305.18
816.022	16209.59
816.351	16301.56
816.68	16157.39
817.008	16143.15
817.337	16018.86
817.665	15983.38
817.994	16013.66
818.322	15939.54
818.651	15865.64
818.979	15783.84
819.307	15908.13
819.636	15737.96
819.964	15737.74
820.292	15850.05
820.62	15770.05
820.948	15742.48
821.276	15806.21
821.604	15798.07
821.932	15897.05
822.259	15885.3
822.587	15789.49
822.915	15791.29
823.243	15834.46
823.57	15870.39
823.898	15792.2
824.225	15820.22
824.553	15748.58
824.88	15779.99
825.207	15871.97
825.535	15848.02
825.862	15966.43
826.189	15920.33
826.516	16007.56
826.843	15971.85
827.17	15960.33
827.497	15969.59
827.824	15968.46
828.151	15975.47
828.478	15905.19
828.805	15975.24
829.131	15858.18
829.458	15791.29
829.785	15760.56
830.111	15807.11
830.438	15910.39
830.764	15768.7
831.09	15736.61
831.417	15661.81
831.743	15696.61
832.069	15655.25
832.395	15590.4
832.722	15725.76
833.048	15557.4
833.374	15585.2
833.7	15443.28
834.026	15470.85
834.351	15498.65
834.677	15463.17
835.003	15533
835.329	15342.72
835.654	15477.4
835.98	15236.28
836.306	15367.58
836.631	15340.23
836.956	15332.55
837.282	15295.49
837.607	15253.23
837.932	15253
838.258	15170.75
838.583	15154.47
838.908	15050.75
839.233	15166.23
839.558	15176.62
839.883	14957.19
840.208	14963.52
840.533	15055.72
840.858	15081.71
841.182	15085.1
841.507	15128.03
841.832	14994.03
842.156	15080.13
842.481	15033.8
842.805	15008.26
843.13	14864.09
843.454	14918.55
843.778	14864.09
844.103	14772.56
844.427	14859.11
844.751	14775.05
845.075	14697.09
845.399	14756.74
845.723	14581.61
846.047	14657.09
846.371	14586.81
846.695	14604.43
847.019	14453.48
847.343	14409.41
847.666	14361.05
847.99	14287.38
848.313	14332.35
848.637	14231.56
848.96	14122.19
849.284	14119.93
849.607	14027.05
849.931	13948.86
850.254	13885.81
850.577	13752.03
850.9	13716.77
851.223	13644.23
851.546	13579.15
851.869	13454.63
852.192	13500.73
852.515	13345.03
852.838	13337.12
853.161	13207.63
853.483	13208.76
853.806	13124.02
854.129	13114.53
854.451	13060.29
854.774	13019.16
855.096	12988.88
855.419	12884.03
855.741	12896.68
856.063	12776.01
856.385	12745.95
856.708	12677.48
857.03	12669.34
857.352	12689.91
857.674	12726.29
857.996	12671.6
858.318	12532.4
858.64	12531.94
858.961	12507.31
859.283	12375.11
859.605	12385.73
859.926	12425.96
860.248	12448.78
860.57	12356.13
860.891	12323.59
861.212	12337.37
861.534	12379.63
861.855	12212.63
862.176	12312.52
862.498	12243.82
862.819	12244.27
863.14	12282.69
863.461	12206.08
863.782	12298.5
864.103	12252.4
864.424	12171.95
864.745	12207.66
865.065	12204.5
865.386	12179.41
865.707	12063.48
866.027	12082.24
866.348	12020.55
866.668	12037.49
866.989	12058.06
867.309	11882.24
867.63	11959.3
867.95	11974.22
868.27	11949.81
868.59	11853.77
868.91	11868.46
869.23	11911.62
869.55	11923.6
869.87	11907.55
870.19	11824.39
870.51	11883.37
870.83	11849.7
871.15	11780.55
871.469	11710.27
871.789	11743.94
872.109	11618.75
872.428	11642.93
872.748	11585.3
873.067	11647.45
873.386	11514.57
873.706	11537.62
874.025	11551.18
874.344	11392.77
874.663	11414.91
874.982	11329.72
875.301	11365.87
875.62	11269.6
875.939	11294.24
876.258	11261.02
876.577	11147.12
876.896	11209.49
877.214	11235.93
877.533	11205.65
877.852	11094.47
878.17	11112.09
878.489	11183.51
878.807	11130.17
879.125	11094.92
879.444	11018.54
879.762	11067.35
880.08	10982.15
880.398	10972.89
880.716	11019.22
881.034	10876.17
881.352	10868.71
881.67	10861.93
881.988	10853.57
882.306	10832.1
882.624	10875.49
882.941	10896.28
883.259	10816.51
883.577	10844.53
883.894	10788.71
884.212	10719.11
884.529	10829.39
884.846	10736.74
885.164	10702.16
885.481	10709.39
885.798	10788.04
886.115	10668.26
886.432	10686.34
886.75	10647.02
887.067	10586.68
887.383	10642.95
887.7	10644.99
888.017	10670.3
888.334	10532
888.651	10529.51
888.967	10559.79
889.284	10530.42
889.6	10569.74
889.917	10457.87
890.233	10483.64
890.55	10410.87
890.866	10418.78
891.182	10431.21
891.498	10370.19
891.815	10311.66
892.131	10302.4
892.447	10189.41
892.763	10135.62
893.079	10183.76
893.395	10070.31
893.71	10031.9
894.026	9925.91
894.342	10028.73
894.657	9908.28
894.973	9905.35
895.289	9801.17
895.604	9814.28
895.92	9677.33
896.235	9714.84
896.55	9763.88
896.865	9673.26
897.181	9534.06
897.496	9632.13
897.811	9495.19
898.126	9531.12
898.441	9424
898.756	9415.87
899.071	9358.47
899.386	9348.53
899.7	9274.18
900.015	9242.54
900.33	9196.89
900.644	9181.07
900.959	9207.74
901.273	9132.49
901.588	9097.01
901.902	9044.13
902.216	9051.81
902.531	9009.1
902.845	8948.76
903.159	8902.89
903.473	8948.31
903.787	8891.14
904.101	8902.89
904.415	8861.08
904.729	8798.03
905.042	8757.58
905.356	8779.73
905.67	8768.43
905.984	8794.42
906.297	8735.21
906.611	8670.35
906.924	8767.07
907.237	8641.43
907.551	8581.99
907.864	8599.17
908.177	8600.75
908.491	8560.3
908.804	8482.11
909.117	8377.48
909.43	8346.29
909.743	8376.35
910.056	8405.05
910.368	8437.14
910.681	8351.26
910.994	8285.5
911.307	8374.99
911.619	8238.95
911.932	8246.41
912.244	8202.79
912.557	8170.03
912.869	8147.43
913.181	8148.78
913.494	8106.98
913.806	8051.16
914.118	7990.59
914.43	7936.81
914.742	7960.77
915.054	7877.83
915.366	7791.5
915.678	7785.18
915.99	7743.6
916.302	7722.13
916.613	7649.59
916.925	7671.73
917.236	7565.07
917.548	7533.66
917.859	7555.35
918.171	7459.08
918.482	7445.07
918.794	7394.45
919.105	7426.77
919.416	7295.47
919.727	7269.48
920.038	7262.48
920.349	7201.01
920.66	7139.77
920.971	7194.91
921.282	7177.51
921.593	7109.49
921.903	7047.34
922.214	7004.86
922.525	6973.22
922.835	7038.53
923.146	6932.09
923.456	6913.79
923.767	6889.83
924.077	6818.2
924.387	6881.02
924.697	6777.52
925.008	6754.47
925.318	6718.54
925.628	6746.11
925.938	6669.05
926.248	6628.6
926.558	6645.09
926.867	6584.08
927.177	6564.42
927.487	6557.19
927.796	6492.78
928.106	6478.09
928.416	6432.44
928.725	6506.34
929.034	6443.74
929.344	6392.44
929.653	6428.15
929.962	6361.49
930.271	6344.08
930.581	6331.2
930.89	6292.79
931.199	6270.41
931.508	6279.91
931.817	6246.69
932.125	6157.42
932.434	6267.7
932.743	6159
933.051	6168.5
933.36	6145.22
933.669	6113.81
933.977	6131.43
934.286	6126.69
934.594	6046.92
934.902	6008.05
935.21	5988.61
935.519	6024.32
935.827	5980.03
936.135	5924.66
936.443	5924.89
936.751	5881.05
937.059	5903.64
937.367	5846.47
937.674	5876.07
937.982	5831.33
938.29	5743.87
938.597	5757.21
938.905	5682.18
939.213	5680.37
939.52	5614.84
939.827	5590.21
940.135	5593.6
940.442	5553.82
940.749	5524.45
941.056	5517.67
941.363	5494.16
941.67	5500.04
941.977	5469.98
942.284	5387.95
942.591	5387.5
942.898	5363.32
943.205	5316.09
943.511	5282.19
943.818	5277.9
944.125	5267.5
944.431	5171.91
944.738	5199.48
945.044	5153.38
945.35	5167.84
945.657	5070.22
945.963	5034.74
946.269	5073.38
946.575	5032.48
946.881	4990.22
947.187	4959.94
947.493	4942.54
947.799	4915.2
948.105	4856.89
948.41	4860.06
948.716	4888.3
949.022	4870.9
949.327	4789.1
949.633	4779.61
949.938	4819.38
950.244	4763.79
950.549	4722.21
950.854	4731.92
951.16	4703.68
951.465	4712.94
951.77	4648.76
952.075	4644.02
952.38	4648.99
952.685	4642.89
952.99	4586.62
953.294	4609.89
953.599	4567.41
953.904	4544.13
954.209	4512.49
954.513	4534.64
954.818	4520.18
955.122	4500.97
955.426	4513.62
955.731	4488.54
956.035	4475.89
956.339	4427.3
956.643	4482.21
956.948	4456
957.252	4403.57
957.556	4439.5
957.86	4334.42
958.163	4345.49
958.467	4341.2
958.771	4350.24
959.075	4321.54
959.378	4276.12
959.682	4281.09
959.985	4247.87
960.289	4230.92
960.592	4213.29
960.896	4241.54
961.199	4154.76
961.502	4176.23
961.805	4158.38
962.108	4183.69
962.411	4109.34
962.714	4100.08
963.017	4069.57
963.32	4061.88
963.623	4046.97
963.926	4041.77
964.228	4013.75
964.531	3938.5
964.833	4007.87
965.136	3944.15
965.438	3910.48
965.741	3879.74
966.043	3849.46
966.345	3832.29
966.648	3830.03
966.95	3801.55
967.252	3820.54
967.554	3796.58
967.856	3722.23
968.158	3750.93
968.46	3684.95
968.761	3715.68
969.063	3699.86
969.365	3651.95
969.666	3630.94
969.968	3599.52
970.269	3644.49
970.571	3583.48
970.872	3586.64
971.174	3559.75
971.475	3531.28
971.776	3560.2
972.077	3508.68
972.378	3511.62
972.679	3465.52
972.98	3519.53
973.281	3460.32
973.582	3446.31
973.883	3384.39
974.183	3362.69
974.484	3372.41
974.785	3349.59
975.085	3339.19
975.386	3357.5
975.686	3316.59
975.986	3325.63
976.287	3330.83
976.587	3302.58
976.887	3246.31
977.187	3255.58
977.487	3274.33
977.787	3285.63
978.087	3203.38
978.387	3208.8
978.687	3218.07
978.987	3192.08
979.286	3201.12
979.586	3168.8
979.885	3207.9
980.185	3152.76
980.484	3152.98
980.784	3137.16
981.083	3140.55
981.382	3132.19
981.682	3126.77
981.981	3060.33
982.28	3067.56
982.579	3063.94
982.878	3042.7
983.177	3046.32
983.475	3054.23
983.774	2999.99
984.073	3007.68
984.372	3015.58
984.67	2984.62
984.969	3007.9
985.267	2977.39
985.566	2957.28
985.864	2959.99
986.162	2958.18
986.461	2908.47
986.759	2904.4
987.057	2879.54
987.355	2888.36
987.653	2868.24
987.951	2871.86
988.249	2847
988.547	2849.49
988.844	2809.94
989.142	2788.25
989.44	2776.04
989.737	2768.81
990.035	2770.39
990.332	2742.82
990.63	2758.19
990.927	2734.69
991.224	2720
991.521	2724.74
991.819	2703.95
992.116	2665.99
992.413	2658.08
992.71	2646.1
993.006	2664.86
993.303	2616.05
993.6	2595.71
993.897	2603.17
994.193	2565.88
994.49	2562.72
994.787	2523.17
995.083	2495.6
995.379	2489.5
995.676	2479.55
995.972	2490.63
996.268	2462.83
996.565	2461.7
996.861	2450.85
997.157	2398.43
997.453	2418.54
997.749	2369.5
998.044	2386
998.34	2369.27
998.636	2347.35
998.932	2341.03
999.227	2301.48
999.523	2328.37
999.818	2296.96
1000.114	2292.21
1000.409	2294.47
1000.704	2268.49
1001	2289.28
1001.295	2233.68
1001.59	2245.66
1001.885	2244.98
1002.18	2209.96
1002.475	2216.96
1002.77	2171.31
1003.065	2169.73
1003.359	2203.85
1003.654	2160.24
1003.949	2145.78
1004.243	2118.88
1004.538	2106
1004.832	2130.64
1005.127	2110.75
1005.421	2099.22
1005.715	2089.51
1006.009	2075.04
1006.304	2049.06
1006.598	2054.03
1006.892	2040.69
1007.186	2042.95
1007.48	2016.51
1007.773	2009.28
1008.067	2023.75
1008.361	1993.69
1008.655	1995.72
1008.948	1957.76
1009.242	1976.52
1009.535	1968.83
1009.829	1963.41
1010.122	1949.17
1010.415	1933.13
1010.708	1921.38
1011.001	1910.98
1011.295	1929.29
1011.588	1896.07
1011.881	1886.57
1012.173	1890.64
1012.466	1860.81
1012.759	1853.58
1013.052	1882.73
1013.344	1857.65
1013.637	1833.02
1013.93	1846.35
1014.222	1814.49
1014.514	1800.48
1014.807	1778.33
1015.099	1796.18
1015.391	1788.95
1015.683	1764.09
1015.976	1786.92
1016.268	1739.01
1016.56	1724.09
1016.851	1727.93
1017.143	1715.73
1017.435	1685.22
1017.727	1654.49
1018.018	1652.46
1018.31	1659.24
1018.602	1659.01
1018.893	1647.94
1019.185	1644.77
1019.476	1631.44
1019.767	1626.24
1020.058	1627.82
1020.35	1607.94
1020.641	1583.53
1020.932	1581.05
1021.223	1535.17
1021.514	1567.71
1021.804	1498.11
1022.095	1522.52
1022.386	1549.63
1022.677	1508.05
1022.967	1496.75
1023.258	1470.09
1023.548	1458.34
1023.839	1485.23
1024.129	1441.61
1024.419	1465.34
1024.709	1420.82
1025	1447.72
1025.29	1418.34
1025.58	1427.83
1025.87	1385.8
1026.16	1407.04
1026.449	1384.22
1026.739	1371.79
1027.029	1354.84
1027.319	1341.73
1027.608	1331.56
1027.898	1337.44
1028.187	1333.59
1028.477	1294.5
1028.766	1291.34
1029.055	1280.49
1029.344	1295.4
1029.634	1246.59
1029.923	1274.61
1030.212	1261.73
1030.501	1229.42
1030.79	1246.37
1031.078	1196.2
1031.367	1199.81
1031.656	1200.04
1031.945	1235.07
1032.233	1212.24
1032.522	1206.37
1032.81	1185.8
1033.099	1170.21
1033.387	1194.39
1033.675	1169.76
1033.963	1176.54
1034.251	1174.95
1034.54	1144.9
1034.828	1149.42
1035.116	1139.48
1035.403	1118.46
1035.691	1173.37
1035.979	1119.59
1036.267	1129.08
1036.554	1122.98
1036.842	1079.36
1037.129	1101.74
1037.417	1090.66
1037.704	1077.33
1037.992	1085.92
1038.279	1081.17
1038.566	1054.73
1038.853	1054.73
1039.14	1054.73
