Data from blue_shiny_book_FLMS001491_00025.txt Node
Date: Wed Feb 08 15:26:44 GMT 2017
User: dcchb
Spectrometer: FLMS00149
Trigger mode: 0
Integration Time (sec): 2.000000E-2
Scans to average: 10
Electric dark correction enabled: true
Nonlinearity correction enabled: false
Boxcar width: 0
XAxis mode: Wavelengths
Number of Pixels in Spectrum: 2048
>>>>>Begin Spectral Data<<<<<
341.393	-11.03
341.776	-11.03
342.16	-11.03
342.543	-65.49
342.927	-78.6
343.31	-61.2
343.693	-55.32
344.077	-88.09
344.46	-64.59
344.843	-42.22
345.226	-45.15
345.61	-29.56
345.993	-7.19
346.376	-10.13
346.759	1.62
347.142	21.51
347.525	55.18
347.908	68.74
348.291	69.65
348.674	89.98
349.057	96.76
349.44	142.41
349.823	142.64
350.206	169.76
350.588	188.96
350.971	212.92
351.354	241.17
351.737	261.96
352.119	271.67
352.502	243.88
352.884	278
353.267	308.96
353.65	310.32
354.032	302.86
354.414	317.77
354.797	310.99
355.179	322.07
355.562	339.92
355.944	330.88
356.326	328.17
356.709	317.32
357.091	342.41
357.473	367.72
357.855	361.84
358.238	363.42
358.62	357.55
359.002	353.71
359.384	368.39
359.766	340.6
360.148	357.55
360.53	368.62
360.912	362.74
361.294	377.43
361.676	364.78
362.057	345.57
362.439	342.86
362.821	345.34
363.203	331.79
363.584	334.04
363.966	362.29
364.348	344.67
364.729	343.08
365.111	327.04
365.493	362.52
365.874	329.07
366.256	338.11
366.637	360.26
367.019	342.63
367.4	326.59
367.781	326.14
368.163	348.06
368.544	332.24
368.925	352.58
369.306	351.45
369.688	337.43
370.069	331.33
370.45	329.3
370.831	359.35
371.212	346.93
371.593	378.34
371.974	343.54
372.355	334.5
372.736	362.07
373.117	371.78
373.498	350.99
373.879	353.93
374.26	344.67
374.641	360.71
375.021	357.32
375.402	368.17
375.783	369.75
376.163	362.07
376.544	381.28
376.925	376.53
377.305	376.98
377.686	395.06
378.066	381.05
378.447	378.11
378.827	384.89
379.208	384.67
379.588	380.6
379.968	395.06
380.349	380.82
380.729	407.26
381.109	388.96
381.489	415.4
381.87	395.96
382.25	405.23
382.63	434.16
383.01	401.84
383.39	417.66
383.77	433.25
384.15	444.55
384.53	422.63
384.91	414.27
385.29	442.74
385.67	432.35
386.049	436.19
386.429	473.02
386.809	454.27
387.189	468.73
387.568	462.18
387.948	459.24
388.328	457.88
388.707	465.57
389.087	452.69
389.466	477.32
389.846	503.53
390.225	479.35
390.605	475.28
390.984	511.22
391.363	512.8
391.743	526.13
392.122	510.99
392.501	494.94
392.881	524.1
393.26	529.07
393.639	540.82
394.018	535.62
394.397	520.25
394.776	538.56
395.155	558.22
395.534	551.67
395.913	529.97
396.292	564.32
396.671	591.89
397.05	556.41
397.429	593.47
397.808	591.89
398.186	605.45
398.565	608.61
398.944	617.43
399.323	610.42
399.701	611.33
400.08	623.3
400.458	618.33
400.837	633.25
401.215	646.81
401.594	647.03
401.972	657.2
402.351	667.14
402.729	678.89
403.107	663.3
403.486	656.52
403.864	697.88
404.242	700.36
404.62	716.86
404.999	737.42
405.377	723.64
405.755	714.6
406.133	739.68
406.511	767.03
406.889	763.86
407.267	755.28
407.645	792.11
408.023	804.77
408.401	809.74
408.779	829.85
409.156	820.36
409.534	820.13
409.912	847.93
410.29	886.12
410.667	859.91
411.045	912.11
411.422	911.66
411.8	906.23
412.178	938.1
412.555	936.74
412.933	984.42
413.31	978.55
413.687	1005.21
414.065	1018.09
414.442	1006.34
414.819	1013.12
415.197	1030.75
415.574	1044.99
415.951	1029.62
416.328	1066.68
416.705	1086.57
417.082	1106.45
417.46	1108.26
417.837	1127.92
418.214	1112.1
418.591	1159.33
418.967	1150.07
419.344	1181.25
419.721	1166.57
420.098	1171.54
420.475	1203.17
420.852	1229.84
421.228	1242.72
421.605	1254.25
421.982	1272.33
422.358	1281.36
422.735	1315.26
423.111	1302.61
423.488	1327.24
423.864	1340.12
424.241	1369.5
424.617	1381.25
424.994	1371.08
425.37	1398.2
425.746	1412.21
426.123	1449.5
426.499	1457.63
426.875	1472.77
427.251	1512.54
427.627	1503.96
428.003	1525.65
428.379	1557.52
428.756	1576.5
429.132	1613.33
429.507	1626.67
429.883	1654.01
430.259	1691.07
430.635	1693.11
431.011	1711.41
431.387	1770.17
431.763	1813.78
432.138	1825.76
432.514	1834.34
432.89	1827.79
433.265	1896.49
433.641	1892.87
434.016	1916.38
434.392	1966.54
434.767	2023.49
435.143	1997.96
435.518	2051.51
435.894	2088.12
436.269	2112.3
436.644	2139.65
437.02	2156.82
437.395	2154.34
437.77	2179.19
438.145	2222.36
438.52	2224.84
438.895	2280.43
439.271	2304.39
439.646	2373.54
440.021	2390.71
440.395	2376.7
440.77	2379.87
441.145	2429.58
441.52	2462.8
441.895	2466.87
442.27	2500.09
442.645	2487.89
443.019	2543.03
443.394	2518.85
443.769	2578.28
444.143	2550.26
444.518	2640.2
444.892	2637.94
445.267	2649.24
445.641	2710.71
446.016	2697.37
446.39	2764.49
446.764	2770.82
447.139	2755
447.513	2819.86
447.887	2794.77
448.262	2780.31
448.636	2845.39
449.01	2864.83
449.384	2879.29
449.758	2938.27
450.132	3009.23
450.506	2994.99
450.88	3040.41
451.254	3034.09
451.628	3099.17
452.002	3173.97
452.376	3135.55
452.75	3202.22
453.123	3207.42
453.497	3251.26
453.871	3291.48
454.244	3344.59
454.618	3347.07
454.992	3425.72
455.365	3437.24
455.739	3570.12
456.112	3595.2
456.486	3590.68
456.859	3670.45
457.232	3733.05
457.606	3760.62
457.979	3791.13
458.352	3845.82
458.725	3931.92
459.099	3926.04
459.472	3992.93
459.845	4051.46
460.218	4100.27
460.591	4128.75
460.964	4156.09
461.337	4312.47
461.71	4366.26
462.083	4412.58
462.456	4465.01
462.829	4456.2
463.201	4541.17
463.574	4567.38
463.947	4669.75
464.32	4777.54
464.692	4788.62
465.065	4847.15
465.438	4872.91
465.81	4927.14
466.183	5007.14
466.555	5142.96
466.928	5210.07
467.3	5199.91
467.672	5328.26
468.045	5434.93
468.417	5485.1
468.789	5543.85
469.161	5603.96
469.534	5694.36
469.906	5805.09
470.278	5835.37
470.65	5896.84
471.022	5974.8
471.394	6116.94
471.766	6154.91
472.138	6272.87
472.51	6441.68
472.882	6513.77
473.253	6559.87
473.625	6665.86
473.997	6865.4
474.369	6843.93
474.74	6971.61
475.112	7090.7
475.484	7236.91
475.855	7266.07
476.227	7355.33
476.598	7624.93
476.97	7594.64
477.341	7864.02
477.713	7986.5
478.084	8098.59
478.455	8324.57
478.827	8344.46
479.198	8606.37
479.569	8710.1
479.94	8895.4
480.311	8929.98
480.682	9221.49
481.053	9356.41
481.424	9509.17
481.795	9646.57
482.166	9733.35
482.537	9930.63
482.908	10101.92
483.279	10186.89
483.65	10404.74
484.021	10656.03
484.391	10771.74
484.762	10810.15
485.133	10963.14
485.503	11137.83
485.874	11402.45
486.244	11590.02
486.615	11760.41
486.985	11893.29
487.356	12104.13
487.726	12237.69
488.097	12532.37
488.467	12619.6
488.837	12900.95
489.207	12921.06
489.578	13121.96
489.948	13334.38
490.318	13518.56
490.688	13612.34
491.058	13878.55
491.428	14028.6
491.798	14236.28
492.168	14463.16
492.538	14560.34
492.908	14689.6
493.278	14878.3
493.648	14903.38
494.017	15126.42
494.387	15361.67
494.757	15473.53
495.126	15574.55
495.496	15719.86
495.866	15807.31
496.235	15992.16
496.605	16222.44
496.974	16367.07
497.344	16510.57
497.713	16619.72
498.082	16740.62
498.452	17003.66
498.821	17010.44
499.19	17118.01
499.559	17350.55
499.928	17359.13
500.298	17626.25
500.667	17756.41
501.036	17671.67
501.405	18020.81
501.774	17978.1
502.143	18170.86
502.512	18325.44
502.88	18618.31
503.249	18543.28
503.618	18719.1
503.987	18827.57
504.356	18970.17
504.724	18986.44
505.093	19127.22
505.462	19203.38
505.83	19381.45
506.199	19435.01
506.567	19719.52
506.936	19740.09
507.304	20017.82
507.672	20150.47
508.041	20153.18
508.409	20545.49
508.777	20665.94
509.145	20728.08
509.514	20801.98
509.882	21031.81
510.25	21197.23
510.618	21297.34
510.986	21364
511.354	21575.29
511.722	21802.63
512.09	21953.14
512.458	21845.8
512.826	22086.24
513.193	22189.97
513.561	22286.24
513.929	22463.86
514.297	22547.47
514.664	22857.97
515.032	22908.82
515.4	23269.49
515.767	23315.59
516.135	23546.77
516.502	23425.42
516.869	23962.8
517.237	24143.81
517.604	24007.09
517.972	24298.16
518.339	24393.3
518.706	24449.79
519.073	24596.68
519.44	24792.16
519.808	25011.59
520.175	25022.66
520.542	25430.79
520.909	25538.35
521.276	25597.79
521.643	25861.51
522.009	26115.06
522.376	26305.11
522.743	26425.79
523.11	26719.34
523.477	27034.81
523.843	27198.42
524.21	27613.78
524.577	27725.64
524.943	27863.04
525.31	27885.64
525.676	28217.38
526.043	28455.57
526.409	28446.07
526.776	28726.52
527.142	28802.9
527.508	29024.82
527.874	29271.36
528.241	29352.04
528.607	29549.77
528.973	29826.6
529.339	29937.33
529.705	30200.15
530.071	30488.51
530.437	30700.48
530.803	31107.92
531.169	31234.25
531.535	31200.58
531.901	31305.43
532.267	31548.82
532.632	31856.38
532.998	31915.14
533.364	32014.12
533.73	32026.54
534.095	32316.71
534.461	32272.41
534.826	32428.12
535.192	32545.18
535.557	32835.34
535.923	32796.02
536.288	32963.47
536.653	33158.04
537.019	33097.48
537.384	33416.79
537.749	33737.69
538.114	33830.11
538.479	33960.73
538.845	34099.94
539.21	34077.11
539.575	34286.15
539.94	34357.78
540.305	34591
540.67	34628.06
541.034	34699.02
541.399	34665.8
541.764	34660.37
542.129	34825.34
542.494	34867.37
542.858	35033.7
543.223	35054.04
543.587	35253.35
543.952	35317.31
544.316	35482.5
544.681	35492.67
545.045	35686.11
545.41	36168.81
545.774	36123.39
546.138	36136.72
546.503	36230.95
546.867	36478.63
547.231	36630.94
547.595	36779.41
547.959	37045.85
548.324	36864.38
548.688	37020.99
549.052	37131.5
549.416	37025.06
549.779	37190.02
550.143	37092.85
550.507	37353.41
550.871	37334.88
551.235	37288.33
551.599	37510.24
551.962	37597.7
552.326	37825.26
552.689	37887.41
553.053	37942.77
553.417	38088.08
553.78	38760.15
554.143	38664.11
554.507	38841.51
554.87	38909.53
555.234	39330.99
555.597	39203.53
555.96	39356.97
556.323	39469.74
556.686	39525.78
557.05	39733.23
557.413	39634.25
557.776	39745.21
558.139	39829.5
558.502	39803.74
558.865	39904.53
559.228	40032.89
559.59	40264.97
559.953	40201.02
560.316	40569.15
560.679	40643.49
561.041	41088.68
561.404	41080.09
561.767	41461.78
562.129	41324.83
562.492	41931.82
562.854	41917.58
563.217	42029.67
563.579	42321.42
563.941	42439.83
564.304	42621.07
564.666	42824.45
565.028	42776.77
565.39	42865.58
565.753	43120.26
566.115	43063.09
566.477	43233.93
566.839	43225.12
567.201	43274.61
567.563	43200.71
567.925	43446.81
568.287	43536.98
568.648	43634.15
569.01	43887.48
569.372	44157.07
569.734	44081.14
570.095	44440
570.457	44749.6
570.819	44729.71
571.18	44854.46
571.542	45134
571.903	45285.63
572.265	45521.56
572.626	45662.8
572.987	45706.41
573.349	45892.85
573.71	46098.72
574.071	46047.65
574.432	46101.66
574.794	46331.25
575.155	46153.18
575.516	45883.13
575.877	46094.65
576.238	46061.2
576.599	46100.3
576.96	46249
577.32	46200.18
577.681	46447.41
578.042	46519.05
578.403	46623.68
578.763	46654.86
579.124	46716.33
579.485	46965.59
579.845	47103.21
580.206	47124.45
580.566	47269.99
580.927	47459.81
581.287	47654.38
581.648	47491.22
582.008	47770.76
582.368	47680.82
582.728	47705.45
583.089	47726.7
583.449	47553.14
583.809	47479.47
584.169	47493.48
584.529	47549.98
584.889	47714.95
585.249	47301.85
585.609	47185.47
585.969	47514.73
586.329	47254.17
586.688	47326.48
587.048	47296.88
587.408	47382.3
587.768	47368.51
588.127	47279.48
588.487	47472.24
588.846	47864.32
589.206	47602.41
589.565	47790.42
589.925	47967.37
590.284	47931.44
590.643	48031.55
591.003	48166.46
591.362	48399.67
591.721	48012.57
592.08	48037.88
592.44	48256.17
592.799	48094.37
593.158	48069.51
593.517	48053.02
593.876	48032.9
594.235	47877.2
594.593	47906.81
594.952	48003.98
595.311	47826.13
595.67	47825
596.029	48044.43
596.387	47890.99
596.746	47984.09
597.104	47756.98
597.463	47795.17
597.822	48168.04
598.18	48006.69
598.538	48178.21
598.897	48413.23
599.255	48194.71
599.613	48647.58
599.972	48557.41
600.33	48714.24
600.688	48638.09
601.046	48734.81
601.404	48994.91
601.762	48665.66
602.12	48892.32
602.478	48759.44
602.836	48858.19
603.194	48599.22
603.552	48641.25
603.91	48528.03
604.268	48593.11
604.625	48401.71
604.983	48402.16
605.341	48222.73
605.698	48433.8
606.056	48476.06
606.413	48458.43
606.771	48577.3
607.128	48717.63
607.485	48507.69
607.843	48758.31
608.2	48963.27
608.557	49104.51
608.914	48935.25
609.272	49328.24
609.629	49329.14
609.986	49427.44
610.343	49411.85
610.7	49699.75
611.057	49649.81
611.414	49530.94
611.771	49706.31
612.127	49879.86
612.484	49842.12
612.841	49896.13
613.198	49708.57
613.554	49650.49
613.911	49797.6
614.267	49706.76
614.624	49511.96
614.98	49606.42
615.337	49885.96
615.693	49707.21
616.05	49422.92
616.406	49759.64
616.762	49667.89
617.118	49585.63
617.475	49601.68
617.831	49683.03
618.187	49748.56
618.543	49865.62
618.899	50146.75
619.255	50054.32
619.611	50164.15
619.967	50238.5
620.323	50393.29
620.678	50390.81
621.034	50408.89
621.39	50447.3
621.746	50439.62
622.101	50646.62
622.457	50548.77
622.812	50629.45
623.168	50669.44
623.523	50582.89
623.879	50664.7
624.234	50365.72
624.589	50401.65
624.945	50428.77
625.3	50342.67
625.655	50233.75
626.01	50238.72
626.365	50208.21
626.72	50172.51
627.075	50058.84
627.43	50055.22
627.785	50015.22
628.14	49971.38
628.495	50073.3
628.85	49992.63
629.205	49955.34
629.559	50199.17
629.914	49987.2
630.269	50197.14
630.623	50238.5
630.978	50138.84
631.332	50417.7
631.687	50534.08
632.041	50389
632.396	50499.73
632.75	50335.22
633.104	50376.34
633.459	50236.01
633.813	50165.5
634.167	50150.59
634.521	49945.85
634.875	50095.22
635.229	49906.53
635.583	49709.7
635.937	49792.18
636.291	49698.85
636.645	49652.75
636.999	49550.83
637.352	49510.15
637.706	49346.77
638.06	49357.16
638.413	49119.88
638.767	49116.94
639.121	48980.68
639.474	48829.72
639.828	48893.22
640.181	48853
640.534	48939.55
640.888	48888.47
641.241	48966.89
641.594	49034.69
641.947	49140.9
642.301	49250.95
642.654	49223.61
643.007	49178.18
643.36	49208.69
643.713	49187.9
644.066	49404.39
644.419	49253.66
644.771	49113.55
645.124	49037.4
645.477	49026.78
645.83	48716.05
646.182	48321.94
646.535	47934.6
646.888	47830.42
647.24	47370.77
647.593	47463.43
647.945	47164.45
648.298	47021.86
648.65	46987.28
649.002	46943.21
649.355	46953.84
649.707	47033.38
650.059	47228.63
650.411	47762.18
650.763	47794.94
651.115	48170.08
651.467	47903.64
651.819	47872.23
652.171	47885.79
652.523	47889.86
652.875	47820.48
653.227	47876.98
653.578	48156.52
653.93	48166.23
654.282	48018.67
654.633	47887.6
654.985	48038.1
655.337	48027.25
655.688	48021.38
656.039	48253.91
656.391	47945.9
656.742	48039.91
657.094	48012.34
657.445	48075.84
657.796	47970.31
658.147	47913.81
658.498	47966.46
658.849	47881.95
659.2	47718.34
659.551	47630.2
659.902	47668.17
660.253	47521.96
660.604	47619.58
660.955	47358.35
661.306	47449.42
661.656	47320.61
662.007	47241.74
662.358	47144.34
662.708	47155.41
663.059	47265.47
663.409	46897.57
663.76	47366.03
664.11	47040.84
664.461	47172.36
664.811	47224.11
665.161	47234.51
665.511	47232.47
665.862	47464.78
666.212	47576.42
666.562	47618.23
666.912	47455.52
667.262	47646.93
667.612	47589.98
667.962	47794.49
668.312	47631.33
668.662	47843.3
669.011	47795.85
669.361	47709.52
669.711	47758.11
670.06	47547.04
670.41	47484.9
670.76	47302.75
671.109	47552.92
671.459	47267.27
671.808	47146.6
672.157	47246.94
672.507	46905.25
672.856	46823.22
673.205	47016.89
673.554	46874.74
673.904	46800.17
674.253	46838.58
674.602	46681.3
674.951	45965.16
675.3	45833.87
675.649	46519.72
675.998	46434.53
676.346	46342.78
676.695	46466.39
677.044	46302.33
677.393	46290.8
677.741	46530.8
678.09	46334.42
678.438	46423.68
678.787	46442.89
679.135	46420.06
679.484	46306.17
679.832	46680.62
680.181	46371.48
680.529	46612.15
680.877	46532.38
681.225	46398.37
681.573	46531.47
681.922	46294.42
682.27	46253.97
682.618	46298.49
682.966	46154.54
683.314	46286.73
683.661	45934.2
684.009	45794.32
684.357	45626.64
684.705	45460.09
685.053	45413.31
685.4	45315.46
685.748	45115.01
686.095	44961.8
686.443	44759.54
686.79	44820.11
687.138	44600.68
687.485	44446.11
687.832	44449.04
688.18	44413.56
688.527	44202.95
688.874	43961.37
689.221	43836.18
689.568	43964.08
689.915	43832.56
690.262	43847.48
690.609	43768.84
690.956	43754.82
691.303	43666.92
691.65	43583.3
691.997	43533.81
692.344	43342.41
692.69	43417.43
693.037	43563.19
693.383	43330.88
693.73	43489.29
694.077	43297.66
694.423	43254.5
694.769	43077.55
695.116	42944.45
695.462	42931.12
695.808	42786.49
696.155	42904.45
696.501	42461.07
696.847	42390.79
697.193	42171.14
697.539	42182.21
697.885	42057.02
698.231	41661.55
698.577	41779.06
698.923	41529.35
699.269	41251.39
699.614	40907.67
699.96	40857.5
700.306	40882.36
700.651	40571.86
700.997	40495.7
701.342	40259.1
701.688	40089.38
702.033	39952.66
702.379	40020.01
702.724	39972.32
703.069	40147.69
703.415	39597.87
703.76	39760.8
704.105	39770.07
704.45	39710.18
704.795	39330.99
705.14	39429.29
705.485	39335.96
705.83	39174.15
706.175	39245.79
706.52	39246.92
706.865	39157.43
707.209	39258.9
707.554	39207.15
707.899	39298.44
708.243	38994.95
708.588	38956.76
708.932	38816.87
709.277	38799.93
709.621	38827.95
709.966	38661.85
710.31	38656.88
710.654	38198.36
710.998	38167.85
711.342	38235.2
711.687	38104.8
712.031	37763.57
712.375	37603.8
712.719	37721.76
713.063	37504.37
713.407	37532.84
713.75	37278.84
714.094	37159.52
714.438	37019.41
714.782	37021.22
715.125	36826.42
715.469	36803.82
715.812	36510.49
716.156	36417.39
716.499	36336.71
716.843	36231.86
717.186	36015.59
717.53	36167
717.873	36246.77
718.216	36192.31
718.559	36170.62
718.902	36008.81
719.246	36184.18
719.589	36235.02
719.932	36172.42
720.275	36090.39
720.617	36007.68
720.96	36017.4
721.303	36078.87
721.646	36238.41
721.989	36080.68
722.331	36251.97
722.674	36080.68
723.016	36054.46
723.359	36090.62
723.701	36123.61
724.044	35927.69
724.386	35788.93
724.729	35921.58
725.071	35721.59
725.413	35691.08
725.755	35601.14
726.097	35475.04
726.439	35251.09
726.782	35210.64
727.124	35186.01
727.465	34793.03
727.807	34779.69
728.149	34648.4
728.491	34631.67
728.833	34684.33
729.175	34489.53
729.516	34398.46
729.858	34519.13
730.199	34507.38
730.541	34341.06
730.882	34361.85
731.224	34502.41
731.565	34096.77
731.906	34102.2
732.248	34185.58
732.589	34228.07
732.93	34137.9
733.271	34153.04
733.612	34254.06
733.953	34401.4
734.294	34276.43
734.635	34295.19
734.976	34363.43
735.317	34294.28
735.658	34248.18
735.999	34416.54
736.339	34364.11
736.68	34569.98
737.021	34580.15
737.361	34352.59
737.702	34571.79
738.042	34492.47
738.383	34415.18
738.723	34468.97
739.063	34475.07
739.404	34520.26
739.744	34396.2
740.084	34225.13
740.424	34286.37
740.764	34275.07
741.104	34360.27
741.444	34043.22
741.784	34033.27
742.124	33931.58
742.464	33794.18
742.804	33707.63
743.143	33666.73
743.483	33702.21
743.823	33567.52
744.162	33504.47
744.502	33585.37
744.841	33437.81
745.181	33560.52
745.52	33344.93
745.86	33399.39
746.199	33473.51
746.538	33447.3
746.877	33525.04
747.216	33463.8
747.556	33474.64
747.895	33609.55
748.234	33290.69
748.573	33498.14
748.911	33518.03
749.25	33601.64
749.589	33484.36
749.928	33620.63
750.267	33783.11
750.605	33631.47
750.944	33762.77
751.283	33745.82
751.621	33849.77
751.96	33706.27
752.298	33961.41
752.636	33892.26
752.975	33925.25
753.313	33834.41
753.651	34070.11
753.989	33978.36
754.327	33969.09
754.666	33868.53
755.004	33989.66
755.342	33887.74
755.679	34065.81
756.017	33931.13
756.355	33785.37
756.693	33598.03
757.031	33793.96
757.368	33588.09
757.706	33531.36
758.044	33484.81
758.381	33525.04
758.719	33314.87
759.056	33297.02
759.394	33166.85
759.731	33080.53
760.068	32902.45
760.405	32914.88
760.743	32900.19
761.08	32998.04
761.417	32673.08
761.754	32728
762.091	32815.22
762.428	32646.64
762.765	32463.14
763.102	32714.21
763.438	32577.72
763.775	32554.21
764.112	32586.98
764.449	32580.88
764.785	32406.42
765.122	32438.51
765.458	32326.65
765.795	32425.4
766.131	32504.72
766.467	32294.33
766.804	32296.14
767.14	32338.18
767.476	32371.85
767.812	32366.2
768.148	32399.87
768.485	32143.83
768.821	32122.81
769.157	32065.41
769.492	31999.65
769.828	32092.76
770.164	31686.67
770.5	31736.61
770.836	31805.31
771.171	31639.44
771.507	31508.82
771.842	31435.83
772.178	31525.77
772.513	31313.57
772.849	31260.69
773.184	31071.54
773.519	30972.34
773.855	30750.42
774.19	30741.61
774.525	30603.08
774.86	30637.43
775.195	30476.76
775.53	30297.1
775.865	30208.97
776.2	29979.82
776.535	29834.96
776.87	29796.1
777.205	29768.75
777.539	29548.42
777.874	29430
778.209	29119.05
778.543	29139.62
778.878	28955.44
779.212	28943.46
779.547	28882.9
779.881	28943.24
780.215	28705.28
780.55	28778.72
780.884	28523.36
781.218	28519.29
781.552	28543.25
781.886	28413.08
782.22	28241.79
782.554	28136.93
782.888	27999.98
783.222	27947.1
783.556	27853.32
783.889	27870.04
784.223	27760.67
784.557	27760.89
784.89	27761.35
785.224	27578.75
785.557	27460.56
785.891	27424.41
786.224	27471.18
786.558	27286.56
786.891	27265.09
787.224	27111.42
787.557	27028.26
787.891	26910.52
788.224	26980.8
788.557	27006.79
788.89	26783.29
789.223	26716.85
789.556	26509.4
789.888	26440.7
790.221	26458.33
790.554	26210.2
790.887	26151.67
791.219	26137.66
791.552	26062.63
791.884	25826.71
792.217	25617
792.549	25538.35
792.882	25481.86
793.214	25402.31
793.546	25316.66
793.879	25222.2
794.211	25022.66
794.543	25072.15
794.875	24912.83
795.207	24996
795.539	24738.15
795.871	24693.63
796.203	24422.45
796.535	24378.38
796.867	24377.25
797.198	24306.97
797.53	24209.8
797.862	24066.98
798.193	24154.44
798.525	23921.22
798.856	24009.35
799.188	23779.08
799.519	23671.06
799.85	23537.28
800.182	23533.21
800.513	23742.47
800.844	23544.28
801.175	23737.27
801.506	23511.97
801.837	23509.25
802.168	23561.91
802.499	23394.91
802.83	23267.45
803.161	23358.75
803.491	23311.75
803.822	23266.1
804.153	23177.51
804.483	22979.78
804.814	22980.91
805.145	22888.93
805.475	22963.96
805.805	22892.1
806.136	22870.85
806.466	22832.89
806.796	22828.37
807.126	22621.82
807.457	22568.26
807.787	22608.49
808.117	22424.76
808.447	22368.72
808.777	22424.54
809.107	22290.08
809.436	22149.29
809.766	22078.33
810.096	22030.88
810.426	21842.63
810.755	21862.29
811.085	21739.36
811.414	21723.99
811.744	21531.23
812.073	21467.27
812.403	21532.13
812.732	21278.8
813.061	21168.75
813.39	21177.11
813.719	21026.61
814.049	21310.44
814.378	20993.16
814.707	20938.25
815.036	20900.74
815.365	20891.02
815.693	20695.09
816.022	20679.5
816.351	20632.04
816.68	20628.65
817.008	20701.64
817.337	20418.49
817.665	20462.78
817.994	20428.66
818.322	20420.97
818.651	20411.71
818.979	20330.81
819.307	20439.96
819.636	20294.65
819.964	20189.79
820.292	20369.22
820.62	20206.52
820.948	20235.67
821.276	20343.01
821.604	20242
821.932	20404.48
822.259	20381.88
822.587	20290.36
822.915	20287.64
823.243	20359.28
823.57	20398.83
823.898	20337.36
824.225	20299.85
824.553	20300.53
824.88	20375.33
825.207	20397.92
825.535	20324.03
825.862	20382.11
826.189	20281.99
826.516	20522.21
826.843	20563.8
827.17	20411.94
827.497	20412.16
827.824	20358.15
828.151	20315.89
828.478	20314.31
828.805	20319.96
829.131	20284.71
829.458	20222.56
829.785	20091.04
830.111	20004.49
830.438	20251.94
830.764	20028.67
831.09	20152.51
831.417	19957.48
831.743	20023.02
832.069	19940.54
832.395	19918.84
832.722	19845.17
833.048	19785.06
833.374	19886.07
833.7	19686.76
834.026	19817.6
834.351	19775.34
834.677	19697.15
835.003	19831.16
835.329	19603.14
835.654	19626.19
835.98	19545.29
836.306	19560.43
836.631	19483.6
836.956	19570.15
837.282	19529.25
837.607	19485.41
837.932	19401.79
838.258	19524.95
838.583	19569.25
838.908	19408.35
839.233	19396.37
839.558	19477.04
839.883	19392.98
840.208	19221.01
840.533	19366.76
840.858	19406.09
841.182	19395.46
841.507	19323.6
841.832	19302.81
842.156	19158.63
842.481	19248.12
842.805	19219.65
843.13	19158.86
843.454	19244.28
843.778	19059.88
844.103	19064.17
844.427	19001.8
844.751	18923.16
845.075	18849.72
845.399	19003.38
845.723	18840.68
846.047	18815.82
846.371	18662.15
846.695	18682.71
847.019	18625.32
847.343	18451.31
847.666	18347.36
847.99	18254.25
848.313	18221.26
848.637	18155.5
848.96	18104.43
849.284	17976.74
849.607	17813.13
849.931	17818.56
850.254	17613.59
850.577	17520.03
850.9	17414.73
851.223	17376.76
851.546	17289.98
851.869	17288.63
852.192	17322.98
852.515	17044.57
852.838	16953.27
853.161	17012.7
853.483	16754.63
853.806	16670.79
854.129	16624.69
854.451	16648.64
854.774	16563
855.096	16408.88
855.419	16469.44
855.741	16345.83
856.063	16333.17
856.385	16228.09
856.708	16158.26
857.03	16119.84
857.352	16169.56
857.674	16081.88
857.996	16089.56
858.318	15969.57
858.64	15969.11
858.961	16064.48
859.283	15952.84
859.605	15817.25
859.926	15917.14
860.248	15916.91
860.57	15803.92
860.891	15788.78
861.212	15825.61
861.534	15874.43
861.855	15807.99
862.176	15777.25
862.498	15804.37
862.819	15811.6
863.14	15707.65
863.461	15679.4
863.782	15667.65
864.103	15726.41
864.424	15623.13
864.745	15720.53
865.065	15616.58
865.386	15520.54
865.707	15563.47
866.027	15478.96
866.348	15487.77
866.668	15482.35
866.989	15392.41
867.309	15299.98
867.63	15284.61
867.95	15255.01
868.27	15146.99
868.59	15231.05
868.91	15109.7
869.23	15145.63
869.55	15017.73
869.87	15139.31
870.19	14986.99
870.51	15031.06
870.83	14964.62
871.15	14958.29
871.469	14836.71
871.789	14877.17
872.109	14688.24
872.428	14660.22
872.748	14668.58
873.067	14580.45
873.386	14592.2
873.706	14526.21
874.025	14428.14
874.344	14424.07
874.663	14527.57
874.982	14352.43
875.301	14395.6
875.62	14325.09
875.939	14241.02
876.258	14343.39
876.577	14309.95
876.896	14304.3
877.214	14275.15
877.533	14135.26
877.852	14261.81
878.17	14237.86
878.489	14202.83
878.807	14236.96
879.125	14201.25
879.444	14213
879.762	14184.53
880.08	14128.03
880.398	13979.34
880.716	14201.93
881.034	14013.01
881.352	14062.72
881.67	13947.47
881.988	14041.71
882.306	14013.01
882.624	13943.86
882.941	13978.43
883.259	14004.65
883.577	13926.46
883.894	13971.43
884.212	13914.03
884.529	13832.45
884.846	13839.45
885.164	13772.34
885.481	13894.37
885.798	13881.03
886.115	13716.97
886.432	13734.82
886.75	13692.11
887.067	13667.25
887.383	13637.42
887.7	13685.56
888.017	13555.84
888.334	13655.28
888.651	13476.07
888.967	13483.98
889.284	13403.76
889.6	13416.41
889.917	13218.45
890.233	13345.23
890.55	13256.64
890.866	13230.88
891.182	13082.18
891.498	13171.9
891.815	13030.89
892.131	13033.37
892.447	12996.54
892.763	12936.88
893.079	12765.81
893.395	12794.06
893.71	12729.43
894.026	12635.87
894.342	12697.56
894.657	12508.64
894.973	12531.69
895.289	12407.4
895.604	12429.55
895.92	12347.06
896.235	12232.49
896.55	12284.24
896.865	12260.06
897.181	12206.73
897.496	12126.28
897.811	12051.7
898.126	12052.83
898.441	11982.1
898.756	11939.16
899.071	11925.83
899.386	11975.09
899.7	11779.85
900.015	11726.06
900.33	11652.84
900.644	11701.2
900.959	11738.04
901.273	11681.09
901.588	11665.72
901.902	11545.05
902.216	11663.24
902.531	11584.14
902.845	11481.32
903.159	11488.78
903.473	11427.09
903.787	11364.26
904.101	11395.22
904.415	11388.67
904.729	11287.66
905.042	11242.23
905.356	11303.47
905.67	11278.16
905.984	11233.87
906.297	11131.05
906.611	11117.49
906.924	11130.82
907.237	11115.91
907.551	11027.78
907.864	10972.41
908.177	11004.5
908.491	10927.66
908.804	10863.71
909.117	10842.24
909.43	10792.53
909.743	10692.87
910.056	10790.95
910.368	10723.38
910.681	10592.98
910.994	10578.97
911.307	10612.42
911.619	10416.94
911.932	10494.68
912.244	10384.85
912.557	10436.15
912.869	10283.16
913.181	10237.06
913.494	10282.26
913.806	10133.34
914.118	10075.71
914.43	10025.99
914.742	9984.41
915.054	9914.36
915.366	9876.84
915.678	9836.62
915.99	9815.6
916.302	9766.34
916.613	9710.3
916.925	9710.97
917.236	9641.14
917.548	9536.29
917.859	9612.22
918.171	9434.37
918.482	9388.72
918.794	9294.26
919.105	9350.76
919.416	9275.73
919.727	9241.16
920.038	9201.83
920.349	9067.83
920.66	9083.65
920.971	9070.76
921.282	9034.16
921.593	8931.33
921.903	8932.01
922.214	8891.33
922.525	8880.49
922.835	8773.6
923.146	8780.38
923.456	8748.74
923.767	8746.93
924.077	8754.39
924.387	8654.5
924.697	8636.2
925.008	8653.37
925.318	8633.94
925.628	8562.98
925.938	8518.46
926.248	8487.73
926.558	8444.11
926.867	8429.65
927.177	8385.58
927.487	8385.36
927.796	8361.18
928.106	8322.08
928.416	8323.21
928.725	8229.66
929.034	8141.07
929.344	8172.03
929.653	8151.24
929.962	8115.54
930.271	8091.13
930.581	8080.96
930.89	8093.39
931.199	8017.46
931.508	8046.61
931.817	8068.08
932.125	7947.4
932.434	7968.42
932.743	7874.64
933.051	7927.52
933.36	7850.91
933.669	7785.6
933.977	7734.3
934.286	7740.18
934.594	7635.1
934.902	7591.26
935.21	7596.68
935.519	7614.98
935.827	7578.15
936.135	7498.15
936.443	7471.48
936.751	7492.73
937.059	7430.58
937.367	7390.13
937.674	7396.68
937.982	7367.31
938.29	7252.06
938.597	7242.11
938.905	7097.48
939.213	7141.32
939.52	7126.41
939.827	7037.82
940.135	7060.42
940.442	6970.93
940.749	7002.34
941.056	6929.35
941.363	6904.49
941.67	6847.32
941.977	6836.47
942.284	6706.31
942.591	6727.78
942.898	6714.22
943.205	6686.87
943.511	6671.73
943.818	6599.19
944.125	6570.49
944.431	6538.18
944.738	6493.66
945.044	6493.88
945.35	6389.25
945.657	6403.72
945.963	6332.31
946.269	6321.46
946.575	6293.44
946.881	6279.43
947.187	6265.87
947.493	6255.7
947.799	6225.19
948.105	6221.12
948.41	6173.67
948.716	6149.49
949.022	6150.39
949.327	6099.32
949.633	6031.07
949.938	6016.83
950.244	6011.86
950.549	5973.67
950.854	5966.89
951.16	6012.54
951.465	6010.28
951.77	5897.74
952.075	5910.4
952.38	5866.33
952.685	5882.37
952.99	5812.09
953.294	5822.94
953.599	5871.3
953.904	5790.85
954.209	5734.13
954.513	5783.17
954.818	5728.93
955.122	5727.8
955.426	5730.06
955.731	5690.74
956.035	5664.07
956.339	5626.79
956.643	5607.58
956.948	5584.53
957.252	5580.23
957.556	5590.4
957.86	5509.05
958.163	5522.84
958.467	5473.12
958.771	5468.15
959.075	5453.91
959.378	5412.56
959.682	5416.85
959.985	5336.17
960.289	5313.35
960.592	5259.79
960.896	5269.06
961.199	5258.44
961.502	5235.84
961.805	5236.29
962.108	5201.26
962.411	5139.79
962.714	5135.05
963.017	5086.91
963.32	5088.5
963.623	5085.33
963.926	5020.25
964.228	5008.05
964.531	4970.53
964.833	4986.35
965.136	4903.42
965.438	4955.84
965.741	4872.68
966.043	4850.76
966.345	4831.1
966.648	4769.63
966.95	4755.17
967.252	4756.53
967.554	4694.16
967.856	4703.65
968.158	4653.25
968.46	4647.15
968.761	4563.54
969.063	4622.29
969.365	4530.77
969.666	4545.69
969.968	4514.27
970.269	4471.11
970.571	4493.03
970.872	4450.77
971.174	4415.52
971.475	4481.96
971.776	4460.94
972.077	4465.01
972.378	4414.39
972.679	4411.23
972.98	4356.76
973.281	4321.51
973.582	4289.2
973.883	4323.77
974.183	4273.6
974.484	4291.68
974.785	4228.63
975.085	4169.2
975.386	4215.75
975.686	4203.77
975.986	4170.33
976.287	4211.01
976.587	4137.56
976.887	4180.5
977.187	4125.13
977.487	4088.07
977.787	4062.08
978.087	4031.12
978.387	4077.22
978.687	4029.77
978.987	4044.68
979.286	3992.93
979.586	4035.64
979.885	4025.25
980.185	3976.66
980.484	3917.91
980.784	3910.67
981.083	3940.73
981.382	3957
981.682	3935.08
981.981	3881.75
982.28	3883.1
982.579	3879.26
982.878	3852.14
983.177	3824.57
983.475	3837.68
983.774	3789.1
984.073	3765.82
984.372	3788.64
984.67	3759.27
984.969	3750.23
985.267	3690.34
985.566	3703.22
985.864	3697.57
986.162	3656.22
986.461	3650.34
986.759	3632.26
987.057	3593.17
987.355	3608.99
987.653	3566.5
987.951	3532.15
988.249	3545.03
988.547	3566.95
988.844	3473.85
989.142	3485.6
989.44	3447.18
989.737	3437.69
990.035	3382.78
990.332	3431.82
990.63	3389.11
990.927	3385.26
991.224	3350.69
991.521	3321.08
991.819	3312.5
992.116	3294.19
992.413	3247.41
992.71	3285.83
993.006	3268.43
993.303	3244.7
993.6	3188.21
993.897	3153.41
994.193	3169.68
994.49	3126.06
994.787	3103.24
995.083	3075.44
995.379	3073.18
995.676	3013.75
995.972	3036.12
996.268	3058.27
996.565	3015.1
996.861	3002.68
997.157	3025.5
997.453	2962.68
997.749	2972.17
998.044	2940.98
998.34	2938.95
998.636	2912.73
998.932	2908.21
999.227	2893.75
999.523	2865.28
999.818	2849.91
1000.114	2839.52
1000.409	2795.9
1000.704	2806.97
1001	2809.91
1001.295	2778.5
1001.59	2790.93
1001.885	2756.81
1002.18	2745.96
1002.475	2717.49
1002.77	2697.6
1003.065	2696.69
1003.359	2706.64
1003.654	2689.24
1003.949	2699.86
1004.243	2676.58
1004.538	2642.01
1004.832	2611.5
1005.127	2621.89
1005.421	2636.36
1005.715	2583.7
1006.009	2566.53
1006.304	2565.62
1006.598	2556.13
1006.892	2549.58
1007.186	2513.65
1007.48	2534.21
1007.773	2476.81
1008.067	2476.36
1008.361	2483.14
1008.655	2431.39
1008.948	2427.1
1009.242	2426.42
1009.535	2395.23
1009.829	2403.37
1010.122	2357.04
1010.415	2372.18
1010.708	2394.56
1011.001	2339.87
1011.295	2348.91
1011.588	2359.98
1011.881	2316.82
1012.173	2313.2
1012.466	2310.04
1012.759	2275.69
1013.052	2267.33
1013.344	2240.44
1013.637	2267.78
1013.93	2243.15
1014.222	2226.65
1014.514	2225.07
1014.807	2171.96
1015.099	2188.91
1015.391	2159.76
1015.683	2158.18
1015.976	2121.34
1016.268	2123.83
1016.56	2115.69
1016.851	2067.56
1017.143	2089.03
1017.435	2070.27
1017.727	2036.15
1018.018	2039.76
1018.31	2034.57
1018.602	1981.23
1018.893	1979.2
1019.185	1979.88
1019.476	1961.57
1019.767	1955.02
1020.058	1928.13
1020.35	1943.04
1020.641	1919.54
1020.932	1918.18
1021.223	1892.42
1021.514	1843.61
1021.804	1881.12
1022.095	1792.09
1022.386	1835.93
1022.677	1838.19
1022.967	1797.28
1023.258	1800.45
1023.548	1752.09
1023.839	1752.76
1024.129	1755.02
1024.419	1764.74
1024.709	1724.52
1025	1684.52
1025.29	1728.13
1025.58	1706.89
1025.87	1689.49
1026.16	1652.43
1026.449	1673.22
1026.739	1625.99
1027.029	1655.59
1027.319	1631.41
1027.608	1593.45
1027.898	1583.05
1028.187	1606.1
1028.477	1590.74
1028.766	1581.7
1029.055	1599.77
1029.344	1553.45
1029.634	1541.7
1029.923	1542.6
1030.212	1498.76
1030.501	1502.38
1030.79	1489.04
1031.078	1488.36
1031.367	1479.55
1031.656	1466.44
1031.945	1460.57
1032.233	1468.25
1032.522	1432.32
1032.81	1432.77
1033.099	1454.47
1033.387	1424.86
1033.675	1440.46
1033.963	1388.71
1034.251	1402.94
1034.54	1372.89
1034.828	1374.24
1035.116	1382.83
1035.403	1369.27
1035.691	1334.7
1035.979	1336.96
1036.267	1349.16
1036.554	1351.19
1036.842	1303.74
1037.129	1322.95
1037.417	1296.51
1037.704	1289.05
1037.992	1265.32
1038.279	1281.82
1038.566	1263.96
1038.853	1263.96
1039.14	1263.96
