Data from blue_clamp_base_FLMS001491_00031.txt Node
Date: Wed Feb 08 15:15:54 GMT 2017
User: dcchb
Spectrometer: FLMS00149
Trigger mode: 0
Integration Time (sec): 2.000000E-2
Scans to average: 10
Electric dark correction enabled: true
Nonlinearity correction enabled: false
Boxcar width: 0
XAxis mode: Wavelengths
Number of Pixels in Spectrum: 2048
>>>>>Begin Spectral Data<<<<<
341.393	-6.38
341.776	-6.38
342.16	-6.38
342.543	-82.99
342.927	-66.27
343.31	-64.46
343.693	-76.89
344.077	-47.06
344.46	-33.73
344.843	-56.1
345.226	-44.12
345.61	-34.18
345.993	-39.83
346.376	-12.26
346.759	6.72
347.142	46.04
347.525	39.72
347.908	42.65
348.291	76.55
348.674	85.59
349.057	111.35
349.44	126.72
349.823	134.4
350.206	172.59
350.588	188.64
350.971	207.62
351.354	222.08
351.737	236.1
352.119	235.64
352.502	246.04
352.884	260.73
353.267	254.4
353.65	291.24
354.032	295.08
354.414	296.43
354.797	309.77
355.179	303.89
355.562	331.23
355.944	331.69
356.326	351.35
356.709	338.69
357.091	325.58
357.473	352.48
357.855	348.41
358.238	339.82
358.62	336.88
359.002	347.96
359.384	348.86
359.766	321.97
360.148	330.78
360.53	338.47
360.912	335.3
361.294	316.09
361.676	326.04
362.057	332.59
362.439	345.25
362.821	341.18
363.203	335.3
363.584	336.43
363.966	316.77
364.348	309.77
364.729	309.54
365.111	321.07
365.493	313.83
365.874	321.52
366.256	300.27
366.637	313.83
367.019	299.37
367.4	328.07
367.781	311.8
368.163	340.73
368.544	313.61
368.925	317.22
369.306	331.01
369.688	308.41
370.069	331.91
370.45	324.91
370.831	303.89
371.212	312.03
371.593	291.91
371.974	322.87
372.355	330.78
372.736	321.07
373.117	315.64
373.498	327.84
373.879	317.22
374.26	326.94
374.641	298.69
375.021	309.54
375.402	328.07
375.783	336.43
376.163	331.01
376.544	349.09
376.925	346.15
377.305	366.94
377.686	350.89
378.066	346.38
378.447	362.19
378.827	339.14
379.208	349.76
379.588	366.04
379.968	340.27
380.349	358.35
380.729	355.41
381.109	342.31
381.489	336.21
381.87	362.65
382.25	353.61
382.63	354.74
383.01	385.24
383.39	359.71
383.77	350.44
384.15	351.35
384.53	359.48
384.91	352.7
385.29	380.72
385.67	378.46
386.049	367.39
386.429	378.01
386.809	361.74
387.189	376.43
387.568	372.14
387.948	387.05
388.328	399.26
388.707	387.28
389.087	406.03
389.466	384.79
389.846	402.64
390.225	408.52
390.605	390.44
390.984	396.32
391.363	435.64
391.743	401.06
392.122	407.39
392.501	416.2
392.881	408.75
393.26	421.18
393.639	429.76
394.018	423.44
394.397	432.25
394.776	421.63
395.155	460.5
395.534	436.09
395.913	445.58
396.292	461.85
396.671	454.85
397.05	458.46
397.429	460.04
397.808	483.09
398.186	466.37
398.565	478.8
398.944	478.8
399.323	484
399.701	482.64
400.08	498.69
400.458	475.19
400.837	505.69
401.215	521.51
401.594	532.58
401.972	517.44
402.351	525.81
402.729	515.41
403.107	547.27
403.486	526.94
403.864	573.71
404.242	544.56
404.62	559.48
404.999	551.12
405.377	554.73
405.755	554.96
406.133	583.66
406.511	594.96
406.889	582.75
407.267	592.24
407.645	608.74
408.023	594.96
408.401	634.5
408.779	636.99
409.156	640.83
409.534	647.38
409.912	643.09
410.29	645.35
410.667	661.4
411.045	659.36
411.422	683.32
411.8	693.48
412.178	696.87
412.555	711.34
412.933	730.77
413.31	703.65
413.687	747.72
414.065	723.09
414.442	740.71
414.819	752.01
415.197	768.06
415.574	794.5
415.951	773.48
416.328	787.72
416.705	791.56
417.082	792.92
417.46	785.69
417.837	816.42
418.214	810.09
418.591	824.78
418.967	824.78
419.344	843.76
419.721	840.15
420.098	844.22
420.475	861.84
420.852	878.56
421.228	885.12
421.605	893.03
421.982	902.29
422.358	891.22
422.735	916.98
423.111	906.36
423.488	942.97
423.864	940.03
424.241	954.27
424.617	941.61
424.994	952.46
425.37	963.08
425.746	989.52
426.123	991.1
426.499	1025
426.875	996.3
427.251	1051.89
427.627	1042.85
428.003	1062.97
428.379	1087.37
428.756	1075.62
429.132	1082.4
429.507	1105.68
429.883	1105.9
430.259	1170.76
430.635	1145.9
431.011	1197.2
431.387	1190.87
431.763	1196.07
432.138	1199.91
432.514	1221.61
432.89	1229.74
433.265	1266.12
433.641	1260.7
434.016	1265.9
434.392	1317.65
434.767	1355.39
435.143	1321.49
435.518	1329.4
435.894	1342.06
436.269	1354.26
436.644	1385.44
437.02	1368.27
437.395	1435.39
437.77	1436.52
438.145	1443.97
438.52	1495.72
438.895	1494.14
439.271	1490.53
439.646	1528.26
440.021	1539.34
440.395	1551.54
440.77	1570.07
441.145	1549.06
441.52	1581.6
441.895	1575.27
442.27	1584.53
442.645	1603.07
443.019	1605.55
443.394	1662.27
443.769	1646
444.143	1643.06
444.518	1655.72
444.892	1684.87
445.267	1729.16
445.641	1721.71
446.016	1718.32
446.39	1714.02
446.764	1735.27
447.139	1735.27
447.513	1782.95
447.887	1764.42
448.262	1790.63
448.636	1796.51
449.01	1824.75
449.384	1850.06
449.758	1853.23
450.132	1871.76
450.506	1897.07
450.88	1869.05
451.254	1905.43
451.628	1930.74
452.002	1933
452.376	1987.69
452.75	1995.15
453.123	1990.85
453.497	2036.27
453.871	2055.03
454.244	2086.22
454.618	2102.71
454.992	2100.23
455.365	2107.23
455.739	2180
456.112	2204.41
456.486	2227
456.859	2251.18
457.232	2259.09
457.606	2252.31
457.979	2286.21
458.352	2331.63
458.725	2371.41
459.099	2381.8
459.472	2426.77
459.845	2447.56
460.218	2481.01
460.591	2483.95
460.964	2530.72
461.337	2582.93
461.71	2589.93
462.083	2611.63
462.456	2615.47
462.829	2571.18
463.201	2676.94
463.574	2685.75
463.947	2723.49
464.32	2780.66
464.692	2815.24
465.065	2786.08
465.438	2856.82
465.81	2909.7
466.183	2899.98
466.555	2951.05
466.928	2994.44
467.3	2961.45
467.672	3001.67
468.045	3075.79
468.417	3079.41
468.789	3116.47
469.161	3144.27
469.534	3183.36
469.906	3264.72
470.278	3245.96
470.65	3263.59
471.022	3361.44
471.394	3404.83
471.766	3453.64
472.138	3487.76
472.51	3539.06
472.882	3570.25
473.253	3615.44
473.625	3610.47
473.997	3703.8
474.369	3751.26
474.74	3779.51
475.112	3815.66
475.484	3895.43
475.855	3951.93
476.227	3954.64
476.598	4023.79
476.97	4068.09
477.341	4177.69
477.713	4210
478.084	4247.06
478.455	4348.76
478.827	4378.36
479.198	4421.07
479.569	4465.59
479.94	4548.75
480.311	4579.48
480.682	4718.01
481.053	4735.64
481.424	4825.35
481.795	4898.8
482.166	4862.87
482.537	5011.11
482.908	5041.17
483.279	5097.89
483.65	5131.11
484.021	5264.21
484.391	5246.13
484.762	5306.02
485.133	5362.51
485.503	5393.93
485.874	5499.91
486.244	5553.7
486.615	5617.65
486.985	5689.51
487.356	5783.75
487.726	5766.35
488.097	5795.05
488.467	5860.35
488.837	5934.48
489.207	5973.35
489.578	6030.07
489.948	6070.29
490.318	6128.82
490.688	6179.67
491.058	6241.59
491.428	6311.64
491.798	6360.23
492.168	6447.46
492.538	6435.03
492.908	6491.07
493.278	6571.75
493.648	6600.9
494.017	6557.96
494.387	6648.81
494.757	6687.68
495.126	6734.91
495.496	6706.21
495.866	6727.45
496.235	6788.24
496.605	6823.04
496.974	6827.33
497.344	6936.94
497.713	6944.17
498.082	6941.91
498.452	7024.84
498.821	7013.54
499.19	7093.54
499.559	7074.79
499.928	7079.76
500.298	7102.36
500.667	7182.13
501.036	7171.05
501.405	7180.77
501.774	7234.56
502.143	7220.54
502.512	7272.75
502.88	7296.02
503.249	7322.01
503.618	7335.8
503.987	7413.08
504.356	7390.03
504.724	7386.19
505.093	7444.72
505.462	7478.16
505.83	7531.95
506.199	7562.91
506.567	7677.26
506.936	7568.78
507.304	7610.36
507.672	7640.19
508.041	7654.21
508.409	7699.85
508.777	7750.93
509.145	7825.27
509.514	7802.9
509.882	7823.47
510.25	7812.39
510.618	7899.17
510.986	7882.22
511.354	7944.82
511.722	7982.33
512.09	8034.53
512.458	8039.28
512.826	8112.95
513.193	8093.74
513.561	8086.96
513.929	8158.15
514.297	8177.13
514.664	8265.26
515.032	8291.48
515.4	8342.77
515.767	8331.48
516.135	8368.99
516.502	8257.81
516.869	8431.36
517.237	8454.18
517.604	8411.02
517.972	8452.83
518.339	8507.97
518.706	8529.44
519.073	8496.9
519.44	8582.77
519.808	8580.96
520.175	8613.05
520.542	8725.59
520.909	8704.8
521.276	8637
521.643	8761.07
522.009	8833.61
522.376	8842.42
522.743	8871.35
523.11	8979.14
523.477	9043.1
523.843	9141.62
524.21	9098.69
524.577	9206.93
524.943	9192.47
525.31	9196.31
525.676	9296.87
526.043	9328.74
526.409	9324.44
526.776	9370.54
527.142	9398.34
527.508	9490.09
527.874	9521.5
528.241	9481.73
528.607	9552.23
528.973	9626.81
529.339	9605.11
529.705	9707.03
530.071	9726.69
530.437	9740.03
530.803	9911.1
531.169	9917.42
531.535	9860.93
531.901	9953.58
532.267	9956.07
532.632	10063.63
532.998	10027.93
533.364	10128.04
533.73	10057.08
534.095	10224.99
534.461	10182.5
534.826	10242.84
535.192	10238.32
535.557	10333.46
535.923	10256.4
536.288	10369.16
536.653	10383.17
537.019	10375.26
537.384	10410.52
537.749	10450.06
538.114	10517.18
538.479	10502.04
538.845	10596.5
539.21	10559.67
539.575	10607.35
539.94	10608.03
540.305	10639.44
540.67	10657.06
541.034	10657.97
541.399	10709.04
541.764	10780.45
542.129	10774.35
542.494	10815.25
542.858	10839.88
543.223	10797.17
543.587	10937.06
543.952	10922.14
544.316	10935.02
544.681	11013.89
545.045	11042.37
545.41	11060.22
545.774	11059.99
546.138	11065.42
546.503	11119.88
546.867	11122.36
547.231	11176.15
547.595	11148.12
547.959	11209.82
548.324	11246.88
548.688	11249.37
549.052	11280.32
549.416	11289.59
549.779	11296.37
550.143	11346.31
550.507	11474.44
550.871	11433.54
551.235	11425.41
551.599	11566.42
551.962	11530.49
552.326	11529.58
552.689	11603.25
553.053	11525.97
553.417	11559.87
553.78	11735.23
554.143	11658.85
554.507	11754.66
554.87	11793.08
555.234	11856.35
555.597	11747.21
555.96	11926.18
556.323	11869.69
556.686	11832.4
557.05	11899.29
557.413	11949.69
557.776	12015.45
558.139	12080.53
558.502	11994.66
558.865	12134.54
559.228	12161.88
559.59	12206.4
559.953	12249.79
560.316	12371.82
560.679	12296.8
561.041	12374.76
561.404	12399.62
561.767	12433.97
562.129	12442.1
562.492	12615.21
562.854	12530.69
563.217	12557.81
563.579	12672.83
563.941	12710.8
564.304	12784.01
564.666	12790.34
565.028	12812.49
565.39	12834.86
565.753	12894.52
566.115	12919.38
566.477	12962.09
566.839	13033.5
567.201	13145.36
567.563	13093.61
567.925	13150.78
568.287	13260.84
568.648	13263.78
569.01	13282.98
569.372	13364.79
569.734	13315.53
570.095	13482.07
570.457	13454.05
570.819	13512.81
571.18	13508.29
571.542	13544.67
571.903	13681.17
572.265	13697.44
572.626	13727.94
572.987	13745.57
573.349	13758.9
573.71	13843.87
574.071	13882.74
574.432	13961.38
574.794	14030.54
575.155	14017.2
575.516	13906.47
575.877	14083.42
576.238	14067.14
576.599	14101.49
576.96	14061.27
577.32	14082.74
577.681	14228.95
578.042	14195.05
578.403	14204.54
578.763	14200.93
579.124	14217.87
579.485	14361.37
579.845	14353.24
580.206	14264.2
580.566	14269.62
580.927	14463.97
581.287	14468.26
581.648	14377.19
582.008	14526.34
582.368	14406.8
582.728	14552.33
583.089	14490.18
583.449	14506.45
583.809	14533.35
584.169	14532.67
584.529	14532.22
584.889	14716.84
585.249	14576.06
585.609	14510.75
585.969	14706.9
586.329	14613.12
586.688	14654.47
587.048	14566.11
587.408	14617.86
587.768	14617.41
588.127	14564.31
588.487	14654.02
588.846	14622.84
589.206	14655.15
589.565	14658.54
589.925	14796.84
590.284	14661.7
590.643	14553.91
591.003	14743.06
591.362	14754.13
591.721	14758.43
592.08	14800.91
592.44	14748.48
592.799	14715.94
593.158	14794.13
593.517	14788.03
593.876	14839.78
594.235	14762.04
594.593	14847.01
594.952	14886.11
595.311	14800.23
595.67	14863.28
596.029	14863.28
596.387	14961.36
596.746	14951.41
597.104	14814.92
597.463	14849.27
597.822	14927.01
598.18	14828.25
598.538	14841.81
598.897	14878.2
599.255	14790.29
599.613	14967.46
599.972	14884.98
600.33	14990.96
600.688	14950.06
601.046	14952.32
601.404	15014.01
601.762	15054.91
602.12	14996.61
602.478	15107.12
602.836	14938.53
603.194	15013.11
603.552	14951.41
603.91	14970.62
604.268	15065.08
604.625	14992.54
604.983	15059.89
605.341	15034.12
605.698	15119.55
606.056	15129.72
606.413	15082.71
606.771	15223.5
607.128	15112.77
607.485	15195.93
607.843	15213.55
608.2	15259.2
608.557	15305.08
608.914	15226.66
609.272	15229.37
609.629	15333.78
609.986	15372.19
610.343	15268.24
610.7	15348.92
611.057	15375.13
611.414	15366.55
611.771	15416.04
612.127	15456.26
612.484	15439.99
612.841	15440.22
613.198	15455.13
613.554	15383.95
613.911	15514.34
614.267	15435.7
614.624	15482.47
614.98	15464.17
615.337	15665.75
615.693	15519.99
616.05	15510.95
616.406	15667.55
616.762	15581.91
617.118	15593.66
617.475	15606.99
617.831	15685.86
618.187	15702.58
618.543	15727.21
618.899	15718.17
619.255	15738.96
619.611	15747.1
619.967	15796.36
620.323	15868.68
620.678	15828.45
621.034	15672.07
621.39	15778.51
621.746	15787.1
622.101	16007.66
622.457	15811.05
622.812	15832.3
623.168	15902.35
623.523	15905.51
623.879	15872.75
624.234	15824.61
624.589	15923.14
624.945	15928.11
625.3	16025.74
625.655	16018.05
626.01	15959.75
626.365	15953.87
626.72	15979.86
627.075	15978.96
627.43	16044.72
627.785	16027.09
628.14	15985.06
628.495	16054.21
628.85	16026.19
629.205	15946.42
629.559	16152.06
629.914	15975.79
630.269	15957.94
630.623	16105.28
630.978	16102.57
631.332	16026.19
631.687	16153.42
632.041	16198.84
632.396	16079.97
632.75	16056.24
633.104	16115.68
633.459	16017.6
633.813	16122.01
634.167	16206.97
634.521	16144.38
634.875	16111.84
635.229	16197.03
635.583	16062.57
635.937	16126.3
636.291	16169.01
636.645	16138.28
636.999	16097.83
637.352	16197.26
637.706	15978.51
638.06	16134.43
638.413	16132.63
638.767	16129.46
639.121	16195.22
639.474	16042.69
639.828	16114.77
640.181	16149.58
640.534	16149.12
640.888	16075
641.241	16093.53
641.594	16077.03
641.947	16221.44
642.301	16115
642.654	16202.68
643.007	16220.08
643.36	16155
643.713	16099.41
644.066	16249.91
644.419	16240.19
644.771	16170.37
645.124	16061.67
645.477	15923.82
645.83	15821.45
646.182	15809.25
646.535	15754.56
646.888	15853.76
647.24	15880.2
647.593	15923.37
647.945	15930.82
648.298	15892.18
648.65	15851.73
649.002	15838.62
649.355	15912.52
649.707	15865.74
650.059	15923.37
650.411	16175.34
650.763	16277.93
651.115	16383.47
651.467	16380.3
651.819	16327.2
652.171	16345.05
652.523	16286.52
652.875	16371.72
653.227	16323.13
653.578	16438.83
653.93	16420.53
654.282	16343.24
654.633	16393.86
654.985	16375.11
655.337	16416.01
655.688	16439.51
656.039	16554.76
656.391	16381.66
656.742	16360.19
657.094	16423.47
657.445	16524.71
657.796	16522.22
658.147	16507.31
658.498	16447.87
658.849	16487.19
659.2	16425.95
659.551	16530.13
659.902	16528.77
660.253	16510.02
660.604	16580.52
660.955	16502.79
661.306	16502.11
661.656	16561.32
662.007	16575.1
662.358	16508.21
662.708	16618.94
663.059	16560.86
663.409	16394.09
663.76	16566.06
664.11	16602.44
664.461	16499.17
664.811	16613.07
665.161	16597.25
665.511	16537.59
665.862	16562.9
666.212	16563.58
666.562	16577.81
666.912	16564.48
667.262	16577.13
667.612	16491.71
667.962	16535.1
668.312	16605.38
668.662	16564.71
669.011	16517.7
669.361	16491.94
669.711	16463.24
670.06	16440.87
670.41	16436.8
670.76	16411.04
671.109	16476.12
671.459	16314.54
671.808	16400.87
672.157	16402.9
672.507	16181.66
672.856	16264.15
673.205	16279.29
673.554	16278.84
673.904	16146.19
674.253	16244.49
674.602	16206.3
674.951	15963.82
675.3	15927.43
675.649	16079.07
675.998	16130.37
676.346	16020.09
676.695	16074.32
677.044	15975.12
677.393	16033.19
677.741	15975.57
678.09	15936.25
678.438	15952.29
678.787	15929.02
679.135	15879.07
679.484	15855.12
679.832	15867.55
680.181	15712.07
680.529	15791.84
680.877	15757.04
681.225	15713.88
681.573	15786.65
681.922	15675.01
682.27	15625.52
682.618	15560.44
682.966	15596.14
683.314	15647.22
683.661	15450.61
684.009	15526.77
684.357	15405.87
684.705	15468.69
685.053	15421.46
685.4	15329.03
685.748	15331.07
686.095	15445.41
686.443	15322.93
686.79	15278.86
687.138	15283.16
687.485	15191.41
687.832	15178.98
688.18	15173.78
688.527	15136.95
688.874	15116.38
689.221	15082.26
689.568	15011.3
689.915	15039.77
690.262	15076.38
690.609	14942.15
690.956	14875.03
691.303	14936.5
691.65	14918.65
691.997	14880
692.344	14818.08
692.69	14825.77
693.037	14820.8
693.383	14695.38
693.73	14837.52
694.077	14717.97
694.423	14733.79
694.769	14718.65
695.116	14686.11
695.462	14616.96
695.808	14609.73
696.155	14589.16
696.501	14542.61
696.847	14480.24
697.193	14400.92
697.539	14500.58
697.885	14432.56
698.231	14402.28
698.577	14351.43
698.923	14368.15
699.269	14354.82
699.614	14273.01
699.96	14283.41
700.306	14347.81
700.651	14251.77
700.997	14191.43
701.342	14247.7
701.688	14181.04
702.033	14245.44
702.379	14169.51
702.724	14181.49
703.069	14210.87
703.415	14033.47
703.76	14060.82
704.105	14106.01
704.45	14031.44
704.795	13917.09
705.14	13910.99
705.485	13964.1
705.83	13923.19
706.175	13959.35
706.52	13911.22
706.865	13815.63
707.209	13856.98
707.554	13866.47
707.899	13873.7
708.243	13779.47
708.588	13827.15
708.932	13712.35
709.277	13816.76
709.621	13736.31
709.966	13675.06
710.31	13737.44
710.654	13620.6
710.998	13722.97
711.342	13750.09
711.687	13728.85
712.031	13702.86
712.375	13612.69
712.719	13682.52
713.063	13664.67
713.407	13692.92
713.75	13613.6
714.094	13620.83
714.438	13593.71
714.782	13551.9
715.125	13587.83
715.469	13582.19
715.812	13499.93
716.156	13489.76
716.499	13501.51
716.843	13508.51
717.186	13400.72
717.53	13532.47
717.873	13477.33
718.216	13501.06
718.559	13353.26
718.902	13478.46
719.246	13463.32
719.589	13362.98
719.932	13374.51
720.275	13365.69
720.617	13359.82
720.96	13324.11
721.303	13262.65
721.646	13313.94
721.989	13354.85
722.331	13324.56
722.674	13285.02
723.016	13253.61
723.359	13334.73
723.701	13332.02
724.044	13339.48
724.386	13270.56
724.729	13261.06
725.071	13219.26
725.413	13224
725.755	13257.9
726.097	13144.68
726.439	13075.98
726.782	13094.51
727.124	13233.72
727.465	13237.11
727.807	13250.67
728.149	13077.57
728.491	13135.19
728.833	13195.53
729.175	13169.54
729.516	13144
729.858	13160.73
730.199	13160.73
730.541	13141.74
730.882	13168.64
731.224	13115.08
731.565	13132.71
731.906	13115.98
732.248	13084.35
732.589	13133.61
732.93	13072.14
733.271	13099.26
733.612	13185.59
733.953	13166.83
734.294	13119.37
734.635	13135.42
734.976	13180.39
735.317	13133.84
735.658	13197.56
735.999	13171.8
736.339	13149.88
736.68	13284.79
737.021	13240.5
737.361	13157.56
737.702	13264.91
738.042	13208.64
738.383	13257.22
738.723	13274.17
739.063	13279.14
739.404	13373.83
739.744	13306.71
740.084	13273.27
740.424	13267.39
740.764	13383.09
741.104	13399.37
741.444	13358.46
741.784	13352.13
742.124	13467.61
742.464	13480.72
742.804	13479.36
743.143	13458.35
743.483	13580.6
743.823	13525.24
744.162	13599.13
744.502	13555.75
744.841	13453.15
745.181	13535.86
745.52	13571.79
745.86	13623.31
746.199	13616.08
746.538	13640.71
746.877	13661.96
747.216	13738.79
747.556	13718.9
747.895	13788.73
748.234	13696.76
748.573	13737.44
748.911	13698.79
749.25	13819.02
749.589	13708.51
749.928	13820.37
750.267	13894.95
750.605	13914.83
750.944	13871.22
751.283	13946.47
751.621	14002.06
751.96	13906.47
752.298	13942.85
752.636	13992.34
752.975	13932.01
753.313	13957.32
753.651	14091.55
753.989	14024.66
754.327	14018.33
754.666	14005.68
755.004	14124.32
755.342	14109.18
755.679	14119.35
756.017	14107.6
756.355	14188.95
756.693	14188.27
757.031	14189.85
757.368	14239.12
757.706	14305.1
758.044	14230.3
758.381	14328.83
758.719	14262.17
759.056	14361.6
759.394	14257.65
759.731	14317.31
760.068	14249.74
760.405	14293.58
760.743	14324.54
761.08	14415.61
761.417	14310.08
761.754	14289.29
762.091	14329.96
762.428	14361.37
762.765	14364.76
763.102	14430.07
763.438	14376.97
763.775	14341.49
764.112	14404.76
764.449	14396.85
764.785	14440.69
765.122	14366.8
765.458	14338.32
765.795	14440.92
766.131	14462.39
766.467	14401.6
766.804	14335.61
767.14	14407.7
767.476	14417.87
767.812	14322.05
768.148	14412.22
768.485	14419.9
768.821	14332.9
769.157	14296.52
769.492	14397.53
769.828	14397.53
770.164	14306.91
770.5	14309.85
770.836	14411.54
771.171	14371.32
771.507	14235.95
771.842	14205.67
772.178	14260.13
772.513	14284.31
772.849	14370.41
773.184	14239.8
773.519	14327.48
773.855	14305.1
774.19	14255.84
774.525	14207.03
774.86	14196.63
775.195	14221.49
775.53	14273.47
775.865	14180.14
776.2	14113.47
776.535	14066.01
776.87	14088.39
777.205	14045.68
777.539	14049.29
777.874	14113.92
778.209	14070.99
778.543	13993.47
778.878	13988.5
779.212	14048.16
779.547	13966.13
779.881	14048.39
780.215	13995.28
780.55	13991.89
780.884	13955.51
781.218	13878.67
781.552	13996.64
781.886	13989.86
782.22	13866.25
782.554	13827.38
782.888	13794.84
783.222	13770.2
783.556	13765.91
783.889	13750.09
784.223	13795.29
784.557	13739.24
784.89	13680.94
785.224	13730.43
785.557	13629.42
785.891	13710.54
786.224	13636.87
786.558	13628.74
786.891	13611.11
787.224	13532.02
787.557	13617.21
787.891	13584.22
788.224	13560.04
788.557	13564.33
788.89	13475.52
789.223	13594.61
789.556	13507.61
789.888	13510.32
790.221	13489.53
790.554	13467.84
790.887	13429.65
791.219	13393.49
791.552	13391.91
791.884	13400.27
792.217	13330.67
792.549	13297
792.882	13321.18
793.214	13275.75
793.546	13362.3
793.879	13213.38
794.211	13151.69
794.543	13331.57
794.875	13180.39
795.207	13203.89
795.539	13219.48
795.871	13172.93
796.203	13100.84
796.535	13022.65
796.867	13068.75
797.198	13026.49
797.53	12998.25
797.862	12982.2
798.193	13062.42
798.525	12901.98
798.856	12960.05
799.188	12834.86
799.519	12838.02
799.85	12812.71
800.182	12819.04
800.513	12777.69
800.844	12763.22
801.175	12722.09
801.506	12803.9
801.837	12795.09
802.168	12725.94
802.499	12655.66
802.83	12688.42
803.161	12668.31
803.491	12663.11
803.822	12662.44
804.153	12608.65
804.483	12545.38
804.814	12473.74
805.145	12507.41
805.475	12572.04
805.805	12519.84
806.136	12423.12
806.466	12493.85
806.796	12465.83
807.126	12344.48
807.457	12326.4
807.787	12424.25
808.117	12368.66
808.447	12316.68
808.777	12287.08
809.107	12332.95
809.436	12259.73
809.766	12311.94
810.096	12264.93
810.426	12161.21
810.755	12191.49
811.085	12225.38
811.414	12127.53
811.744	12011.15
812.073	12092.96
812.403	12122.56
812.732	12083.69
813.061	12025.84
813.39	11961.89
813.719	11991.04
814.049	12013.86
814.378	11963.92
814.707	11917.6
815.036	11901.1
815.365	11885.51
815.693	11776.58
816.022	11813.19
816.351	11798.05
816.68	11747.43
817.008	11846.86
817.337	11668.11
817.665	11678.73
817.994	11688.45
818.322	11785.62
818.651	11679.86
818.979	11719.86
819.307	11681.44
819.636	11603.71
819.964	11652.29
820.292	11702.46
820.62	11667.66
820.948	11709.47
821.276	11621.56
821.604	11615.23
821.932	11648.68
822.259	11612.52
822.587	11606.19
822.915	11577.49
823.243	11669.92
823.57	11637.38
823.898	11720.54
824.225	11612.52
824.553	11651.84
824.88	11639.86
825.207	11706.08
825.535	11558.06
825.862	11748.56
826.189	11689.35
826.516	11786.07
826.843	11750.37
827.17	11715.57
827.497	11810.48
827.824	11742.23
828.151	11769.8
828.478	11794.89
828.805	11746.08
829.131	11782.01
829.458	11728.9
829.785	11760.09
830.111	11725.96
830.438	11750.14
830.764	11748.79
831.09	11844.83
831.417	11775
831.743	11771.84
832.069	11797.37
832.395	11726.64
832.722	11823.14
833.048	11729.58
833.374	11745.17
833.7	11641.45
834.026	11676.47
834.351	11723.93
834.677	11724.38
835.003	11784.04
835.329	11694.55
835.654	11639.64
835.98	11710.6
836.306	11647.09
836.631	11645.29
836.956	11691.39
837.282	11652.52
837.607	11571.16
837.932	11606.87
838.258	11578.4
838.583	11574.78
838.908	11504.73
839.233	11542.24
839.558	11510.15
839.883	11518.51
840.208	11421.56
840.533	11461.79
840.858	11462.69
841.182	11498.62
841.507	11455.01
841.832	11461.11
842.156	11384.95
842.481	11394.9
842.805	11357.16
843.13	11268.12
843.454	11258.86
843.778	11301.12
844.103	11288.91
844.427	11273.32
844.751	11258.86
845.075	11199.65
845.399	11148.58
845.723	11193.32
846.047	11201.91
846.371	11026.09
846.695	11077.62
847.019	11011.86
847.343	10966.89
847.666	10895.93
847.99	10850.96
848.313	10858.64
848.637	10825.87
848.96	10823.39
849.284	10775.48
849.607	10693.45
849.931	10631.98
850.254	10612.32
850.577	10580.46
850.9	10559.67
851.223	10522.15
851.546	10422.72
851.869	10374.59
852.192	10450.52
852.515	10335.94
852.838	10322.38
853.161	10224.31
853.483	10251.88
853.806	10208.49
854.129	10127.36
854.451	10156.51
854.774	10133.46
855.096	10116.29
855.419	10104.76
855.741	9996.06
856.063	9879.91
856.385	9997.42
856.708	9961.26
857.03	9889.18
857.352	9888.95
857.674	9820.25
857.996	9876.75
858.318	9757.65
858.64	9749.74
858.961	9813.7
859.283	9744.55
859.605	9709.97
859.926	9756.3
860.248	9713.81
860.57	9645.34
860.891	9717.2
861.212	9596.3
861.534	9639.92
861.855	9560.82
862.176	9611.67
862.498	9585.91
862.819	9589.3
863.14	9507.94
863.461	9490.54
863.782	9484.89
864.103	9517.66
864.424	9474.95
864.745	9450.09
865.065	9407.38
865.386	9366.7
865.707	9324.44
866.027	9379.36
866.348	9358.79
866.668	9408.96
866.989	9377.78
867.309	9225.46
867.63	9285.12
867.95	9233.83
868.27	9201.51
868.59	9124.68
868.91	9258.91
869.23	9240.83
869.55	9231.11
869.87	9229.08
870.19	9194.5
870.51	9187.5
870.83	9191.11
871.15	9053.94
871.469	9177.78
871.789	9109.76
872.109	9094.39
872.428	9047.62
872.748	9084.9
873.067	9122.87
873.386	9051.68
873.706	9078.12
874.025	9068.86
874.344	9018.01
874.663	9011.68
874.982	9020.95
875.301	8990.44
875.62	8881.97
875.939	8957.22
876.258	8957
876.577	8884.91
876.896	8963.78
877.214	8970.78
877.533	8904.79
877.852	8901.86
878.17	8902.31
878.489	8848.3
878.807	8874.74
879.125	8832.48
879.444	8862.99
879.762	8822.76
880.08	8801.07
880.398	8816.89
880.716	8772.14
881.034	8700.51
881.352	8766.49
881.67	8731.01
881.988	8684.01
882.306	8693.05
882.624	8674.07
882.941	8658.7
883.259	8632.03
883.577	8575.31
883.894	8547.29
884.212	8581.19
884.529	8582.77
884.846	8508.65
885.164	8531.02
885.481	8523.56
885.798	8506.84
886.115	8451.92
886.432	8407.63
886.75	8371.7
887.067	8324.02
887.383	8372.6
887.7	8429.55
888.017	8336.22
888.334	8336.22
888.651	8288.99
888.967	8335.32
889.284	8258.94
889.6	8201.76
889.917	8227.98
890.233	8257.35
890.55	8183.91
890.866	8167.64
891.182	8164.93
891.498	8144.14
891.815	8120.63
892.131	8038.6
892.447	8041.77
892.763	7940.53
893.079	7970.81
893.395	7898.72
893.71	8009.22
894.026	7955.44
894.342	7928.55
894.657	7872.73
894.973	7842.45
895.289	7896.46
895.604	7859.62
895.92	7805.84
896.235	7763.81
896.55	7779.63
896.865	7702.57
897.181	7721.55
897.496	7636.13
897.811	7658.27
898.126	7562.46
898.441	7551.84
898.756	7549.58
899.071	7510.03
899.386	7519.97
899.7	7458.96
900.015	7481.33
900.33	7458.05
900.644	7443.36
900.959	7428
901.273	7329.02
901.588	7281.56
901.902	7312.29
902.216	7308.23
902.531	7240.88
902.845	7208.79
903.159	7141.22
903.473	7131.51
903.787	7158.4
904.101	7105.52
904.415	7097.84
904.729	7065.52
905.042	7048.35
905.356	7036.37
905.67	7043.6
905.984	7027.56
906.297	7005.64
906.611	6943.72
906.924	6897.62
907.237	6889.25
907.551	6900.33
907.864	6823.27
908.177	6848.35
908.491	6797.05
908.804	6768.13
909.117	6754.12
909.43	6681.35
909.743	6686.77
910.056	6630.96
910.368	6590.5
910.681	6552.31
910.994	6537.62
911.307	6519.32
911.619	6528.81
911.932	6529.72
912.244	6454.46
912.557	6458.3
912.869	6401.58
913.181	6394.8
913.494	6418.76
913.806	6301.02
914.118	6353.9
914.43	6261.02
914.742	6296.95
915.054	6234.13
915.366	6225.99
915.678	6141.25
915.99	6165.43
916.302	6134.47
916.613	6080.24
916.925	6106.68
917.236	6104.64
917.548	6031.65
917.859	6052.89
918.171	5982.84
918.482	5963.63
918.794	5948.49
919.105	5921.82
919.416	5917.98
919.727	5845.89
920.038	5887.7
920.349	5873.46
920.66	5845.89
920.971	5758.66
921.282	5833.91
921.593	5743.52
921.903	5712.79
922.214	5708.95
922.525	5688.61
922.835	5632.34
923.146	5603.64
923.456	5619.23
923.767	5620.13
924.077	5549.18
924.387	5535.84
924.697	5498.56
925.008	5442.29
925.318	5417.43
925.628	5419.91
925.938	5397.32
926.248	5423.98
926.558	5350.76
926.867	5350.54
927.177	5309.41
927.487	5304.66
927.796	5248.85
928.106	5298.11
928.416	5247.49
928.725	5202.29
929.034	5181.95
929.344	5208.17
929.653	5204.78
929.962	5135.18
930.271	5104.22
930.581	5088.62
930.89	5070.77
931.199	5080.26
931.508	5031.22
931.817	5037.78
932.125	4995.07
932.434	5004.56
932.743	5000.26
933.051	4902.19
933.36	4934.5
933.669	4891.34
933.977	4890.89
934.286	4803.43
934.594	4872.13
934.902	4789.87
935.21	4763.89
935.519	4774.96
935.827	4721.18
936.135	4760.5
936.443	4709.65
936.751	4734.06
937.059	4746.03
937.367	4586.04
937.674	4634.17
937.982	4635.3
938.29	4568.86
938.597	4586.94
938.905	4531.12
939.213	4570.22
939.52	4525.02
939.827	4522.08
940.135	4493.84
940.442	4437.79
940.749	4449.54
941.056	4466.72
941.363	4405.03
941.67	4398.25
941.977	4353.05
942.284	4385.82
942.591	4327.97
942.898	4355.76
943.205	4304.69
943.511	4266.72
943.818	4261.07
944.125	4210.23
944.431	4245.71
944.738	4244.35
945.044	4173.85
945.35	4166.84
945.657	4162.77
945.963	4117.8
946.269	4071.25
946.575	4103.34
946.881	4092.49
947.187	4083
947.493	4075.54
947.799	4054.98
948.105	4041.19
948.41	3977.47
948.716	4027.63
949.022	3989.67
949.327	3925.94
949.633	3914.87
949.938	3894.76
950.244	3934.53
950.549	3904.25
950.854	3857.92
951.16	3822.89
951.465	3837.13
951.77	3822.44
952.075	3828.77
952.38	3789.45
952.685	3782.44
952.99	3746.96
953.294	3752.39
953.599	3728.66
953.904	3725.5
954.209	3648.44
954.513	3673.97
954.818	3703.57
955.122	3637.81
955.426	3608.21
955.731	3610.7
956.035	3600.75
956.339	3600.53
956.643	3590.36
956.948	3551.49
957.252	3530.02
957.556	3533.18
957.86	3502.22
958.163	3498.83
958.467	3465.39
958.771	3479.63
959.075	3455.9
959.378	3438.27
959.682	3431.27
959.985	3426.75
960.289	3389.68
960.592	3391.72
960.896	3359.86
961.199	3322.34
961.502	3321.21
961.805	3302.23
962.108	3313.98
962.411	3278.73
962.714	3267.65
963.017	3231.04
963.32	3289.8
963.623	3225.17
963.926	3238.28
964.228	3227.2
964.531	3191.72
964.833	3170.03
965.136	3183.14
965.438	3151.05
965.741	3112.63
966.043	3094.55
966.345	3076.92
966.648	3098.85
966.95	3085.74
967.252	3071.28
967.554	3023.59
967.856	3034.89
968.158	3040.32
968.46	3011.16
968.761	3038.28
969.063	3000.99
969.365	2998.96
969.666	2966.42
969.968	2903.6
970.269	2978.4
970.571	2942.69
970.872	2897.72
971.174	2934.1
971.475	2892.07
971.776	2885.52
972.077	2841
972.378	2857.27
972.679	2841
972.98	2802.13
973.281	2801.9
973.582	2818.17
973.883	2826.76
974.183	2786.08
974.484	2779.76
974.785	2761.23
975.085	2766.2
975.386	2771.62
975.686	2709.02
975.986	2721.23
976.287	2732.08
976.587	2697.5
976.887	2688.91
977.187	2669.03
977.487	2670.16
977.787	2662.47
978.087	2648.91
978.387	2651.17
978.687	2619.99
978.987	2576.6
979.286	2598.07
979.586	2585.19
979.885	2570.95
980.185	2549.26
980.484	2551.06
980.784	2510.61
981.083	2536.83
981.382	2544.51
981.682	2496.15
981.981	2505.64
982.28	2471.97
982.579	2469.26
982.878	2466.55
983.177	2447.11
983.475	2421.35
983.774	2452.08
984.073	2457.96
984.372	2398.3
984.67	2407.34
984.969	2412.99
985.267	2414.34
985.566	2384.51
985.864	2380.22
986.162	2356.49
986.461	2339.54
986.759	2349.71
987.057	2345.42
987.355	2302.48
987.653	2306.55
987.951	2285.31
988.249	2267.45
988.547	2290.96
988.844	2280.79
989.142	2256.38
989.44	2246.89
989.737	2246.21
990.035	2243.95
990.332	2215.03
990.63	2218.19
990.927	2194.69
991.224	2168.02
991.521	2170.51
991.819	2166.44
992.116	2143.84
992.413	2151.07
992.71	2159.89
993.006	2117.18
993.303	2088.25
993.6	2119.44
993.897	2080.79
994.193	2076.05
994.49	2076.27
994.787	2057.52
995.083	2085.54
995.379	2070.85
995.676	2054.35
995.972	2038.99
996.268	2034.47
996.565	1996.95
996.861	2006.9
997.157	2013
997.453	1964.64
997.749	1973.68
998.044	1943.62
998.34	1997.86
998.636	1956.73
998.932	1939.78
999.227	1930.97
999.523	1919.89
999.818	1904.98
1000.114	1925.99
1000.409	1896.62
1000.704	1884.64
1001	1921.93
1001.295	1861.82
1001.59	1818.2
1001.885	1861.59
1002.18	1829.05
1002.475	1792.89
1002.77	1844.19
1003.065	1812.78
1003.359	1814.13
1003.654	1791.76
1003.949	1765.09
1004.243	1743.85
1004.538	1763.29
1004.832	1747.02
1005.127	1724.87
1005.421	1719.9
1005.715	1699.33
1006.009	1709.96
1006.304	1706.11
1006.598	1684.42
1006.892	1654.36
1007.186	1663.18
1007.48	1679.9
1007.773	1645.1
1008.067	1640.58
1008.361	1662.95
1008.655	1624.99
1008.948	1602.16
1009.242	1615.04
1009.535	1594.93
1009.829	1587.25
1010.122	1556.96
1010.415	1568.94
1010.708	1563.07
1011.001	1575.95
1011.295	1536.17
1011.588	1520.36
1011.881	1535.27
1012.173	1486.68
1012.466	1478.77
1012.759	1508.38
1013.052	1495.95
1013.344	1478.32
1013.637	1500.47
1013.93	1470.19
1014.222	1443.3
1014.514	1454.37
1014.807	1450.98
1015.099	1450.98
1015.391	1421.83
1015.683	1429.06
1015.976	1417.99
1016.268	1390.64
1016.56	1397.19
1016.851	1398.1
1017.143	1366.01
1017.435	1352.22
1017.727	1379.12
1018.018	1367.37
1018.31	1342.28
1018.602	1343.41
1018.893	1328.27
1019.185	1319.46
1019.476	1314.94
1019.767	1308.84
1020.058	1282.85
1020.35	1278.55
1020.641	1275.62
1020.932	1270.42
1021.223	1268.38
1021.514	1233.36
1021.804	1257.31
1022.095	1246.24
1022.386	1245.56
1022.677	1267.25
1022.967	1253.47
1023.258	1211.66
1023.548	1228.16
1023.839	1177.54
1024.129	1194.04
1024.419	1163.3
1024.709	1169.63
1025	1161.04
1025.29	1158.56
1025.58	1159.91
1025.87	1138.9
1026.16	1124.43
1026.449	1133.02
1026.739	1129.63
1027.029	1107.03
1027.319	1123.3
1027.608	1103.87
1027.898	1097.09
1028.187	1108.16
1028.477	1085.11
1028.766	1067.49
1029.055	1064.77
1029.344	1076.07
1029.634	1051.22
1029.923	1018.9
1030.212	1050.31
1030.501	1030.88
1030.79	1020.71
1031.078	1029.29
1031.367	1018.67
1031.656	1025.23
1031.945	1009.41
1032.233	987.94
1032.522	994.95
1032.81	977.77
1033.099	1002.18
1033.387	960.6
1033.675	972.8
1033.963	961.73
1034.251	966.7
1034.54	935.29
1034.828	944.33
1035.116	926.25
1035.403	926.47
1035.691	943.65
1035.979	935.06
1036.267	900.03
1036.554	893.03
1036.842	911.56
1037.129	903.87
1037.417	878.34
1037.704	890.77
1037.992	873.59
1038.279	876.76
1038.566	873.14
1038.853	873.14
1039.14	873.14
