Data from blue_surface_keyboard_FLMS001491_066.txt Node
Date: Tue Feb 07 11:13:29 GMT 2017
User: dcchb
Spectrometer: FLMS00149
Trigger mode: 0
Integration Time (sec): 2.000000E-2
Scans to average: 10
Electric dark correction enabled: true
Nonlinearity correction enabled: false
Boxcar width: 0
XAxis mode: Wavelengths
Number of Pixels in Spectrum: 2048
>>>>>Begin Spectral Data<<<<<
341.393	-24.04
341.776	-24.04
342.16	-24.04
342.543	-67.43
342.927	-62.68
343.31	-48.67
343.693	-65.62
344.077	-90.48
344.46	-43.93
344.843	-50.93
345.226	-47.99
345.61	-23.13
345.993	-43.25
346.376	-16.58
346.759	23.19
347.142	24.1
347.525	44.43
347.908	56.86
348.291	74.94
348.674	101.61
349.057	105.45
349.44	126.24
349.823	138.22
350.206	151.1
350.588	185.67
350.971	166.92
351.354	203.98
351.737	225.9
352.119	230.19
352.502	251.21
352.884	249.4
353.267	244.43
353.65	286.24
354.032	280.81
354.414	282.17
354.797	279.23
355.179	299.57
355.562	306.57
355.944	302.05
356.326	310.87
356.709	315.39
357.091	307.7
357.473	307.25
357.855	314.48
358.238	321.94
358.62	335.95
359.002	321.26
359.384	317.2
359.766	318.32
360.148	302.51
360.53	326.01
360.912	304.99
361.294	301.15
361.676	302.28
362.057	305.44
362.439	323.52
362.821	333.47
363.203	308.61
363.584	289.63
363.966	312.45
364.348	267.48
364.729	300.7
365.111	285.11
365.493	295.5
365.874	306.12
366.256	295.27
366.637	290.98
367.019	251.21
367.4	292.11
367.781	297.76
368.163	285.33
368.544	298.21
368.925	276.97
369.306	289.17
369.688	307.48
370.069	295.05
370.45	268.61
370.831	270.64
371.212	260.02
371.593	295.73
371.974	294.82
372.355	282.85
372.736	297.08
373.117	278.33
373.498	279.68
373.879	310.19
374.26	287.14
374.641	284.65
375.021	290.3
375.402	301.38
375.783	293.01
376.163	299.79
376.544	295.95
376.925	306.8
377.305	304.77
377.686	299.12
378.066	284.65
378.447	282.62
378.827	296.4
379.208	289.17
379.588	306.35
379.968	288.95
380.349	305.9
380.729	309.06
381.109	284.43
381.489	301.38
381.87	295.73
382.25	303.41
382.63	293.69
383.01	298.44
383.39	308.83
383.77	292.34
384.15	295.95
384.53	303.41
384.91	302.51
385.29	315.84
385.67	309.74
386.049	316.97
386.429	308.83
386.809	290.76
387.189	308.38
387.568	315.16
387.948	281.49
388.328	299.57
388.707	309.29
389.087	332.34
389.466	320.13
389.846	298.89
390.225	315.39
390.605	315.16
390.984	316.52
391.363	300.7
391.743	313.81
392.122	325.1
392.501	312.68
392.881	321.49
393.26	325.78
393.639	321.04
394.018	322.84
394.397	316.97
394.776	340.25
395.155	332.34
395.534	326.01
395.913	311.55
396.292	330.75
396.671	323.97
397.05	319.68
397.429	328.04
397.808	337.53
398.186	317.87
398.565	328.95
398.944	330.08
399.323	330.98
399.701	334.82
400.08	342.28
400.458	351.77
400.837	332.56
401.215	333.69
401.594	332.11
401.972	314.03
402.351	361.26
402.729	347.48
403.107	331.21
403.486	372.11
403.864	334.14
404.242	367.36
404.62	347.02
404.999	347.48
405.377	355.84
405.755	342.73
406.133	351.77
406.511	354.48
406.889	368.04
407.267	347.93
407.645	365.33
408.023	344.99
408.401	368.49
408.779	365.33
409.156	368.49
409.534	348.61
409.912	368.72
410.29	361.26
410.667	368.95
411.045	362.62
411.422	362.62
411.8	366.69
412.178	361.49
412.555	384.31
412.933	367.82
413.31	362.39
413.687	379.57
414.065	393.58
414.442	375.5
414.819	388.83
415.197	394.26
415.574	370.53
415.951	404.65
416.328	396.06
416.705	388.15
417.082	399.23
417.46	384.31
417.837	392
418.214	390.41
418.591	382.5
418.967	392
419.344	399.9
419.721	397.42
420.098	387.02
420.475	395.84
420.852	397.87
421.228	398.55
421.605	405.55
421.982	390.41
422.358	414.59
422.735	401.94
423.111	411.2
423.488	426.57
423.864	434.03
424.241	433.58
424.617	425.44
424.994	418.66
425.37	410.98
425.746	427.7
426.123	430.64
426.499	414.82
426.875	439.9
427.251	429.51
427.627	442.16
428.003	420.47
428.379	420.02
428.756	430.86
429.132	447.59
429.507	446.46
429.883	440.58
430.259	428.38
430.635	462.28
431.011	447.14
431.387	453.01
431.763	453.24
432.138	455.72
432.514	452.78
432.89	461.82
433.265	464.31
433.641	452.11
434.016	481.48
434.392	461.82
434.767	469.96
435.143	481.48
435.518	488.49
435.894	485.33
436.269	486.91
436.644	508.6
437.02	488.26
437.395	492.78
437.77	497.53
438.145	483.07
438.52	503.4
438.895	505.89
439.271	518.77
439.646	527.36
440.021	506.34
440.395	505.89
440.77	508.38
441.145	506.34
441.52	506.34
441.895	516.51
442.27	525.55
442.645	507.92
443.019	536.4
443.394	506.79
443.769	525.33
444.143	538.88
444.518	549.73
444.892	531.88
445.267	554.93
445.641	546.12
446.016	552.22
446.39	549.51
446.764	573.46
447.139	545.44
447.513	551.09
447.887	551.99
448.262	519.45
448.636	545.89
449.01	552.9
449.384	556.96
449.758	568.71
450.132	545.66
450.506	572.1
450.88	561.26
451.254	584.98
451.628	563.06
452.002	584.76
452.376	583.4
452.75	586.34
453.123	580.69
453.497	582.05
453.871	579.11
454.244	595.38
454.618	586.79
454.992	615.49
455.365	593.57
455.739	614.14
456.112	615.94
456.486	621.37
456.859	635.38
457.232	605.78
457.606	617.98
457.979	641.25
458.352	631.54
458.725	644.42
459.099	649.39
459.472	652.33
459.845	638.77
460.218	651.88
460.591	650.75
460.964	637.19
461.337	640.12
461.71	650.52
462.083	669.95
462.456	663.85
462.829	697.75
463.201	678.32
463.574	690.74
463.947	683.29
464.32	717.41
464.692	698.65
465.065	724.64
465.438	702.27
465.81	708.6
466.183	727.35
466.555	730.52
466.928	723.51
467.3	736.85
467.672	744.98
468.045	720.35
468.417	755.15
468.789	759.67
469.161	750.18
469.534	770.74
469.906	755.6
470.278	793.11
470.65	777.3
471.022	763.29
471.394	789.5
471.766	775.49
472.138	801.02
472.51	797.18
472.882	818.88
473.253	820.23
473.625	829.27
473.997	815.94
474.369	841.25
474.74	855.94
475.112	840.8
475.484	868.82
475.855	870.17
476.227	884.19
476.598	884.86
476.97	874.47
477.341	907.24
477.713	895.71
478.084	936.16
478.455	935.26
478.827	930.96
479.198	958.76
479.569	970.06
479.94	993.11
480.311	988.82
480.682	968.25
481.053	1007.12
481.424	1001.92
481.795	1026.1
482.166	1044.86
482.537	1006.44
482.908	1048.25
483.279	1060.45
483.65	1049.61
484.021	1076.05
484.391	1072.2
484.762	1090.06
485.133	1083.28
485.503	1064.52
485.874	1129.6
486.244	1129.38
486.615	1130.51
486.985	1130.06
487.356	1168.47
487.726	1163.95
488.097	1163.73
488.467	1184.97
488.837	1189.26
489.207	1185.65
489.578	1215.93
489.948	1194.69
490.318	1213.44
490.688	1243.05
491.058	1204.63
491.428	1226.1
491.798	1242.37
492.168	1238.75
492.538	1258.41
492.908	1244.63
493.278	1287.34
493.648	1265.19
494.017	1266.77
494.387	1301.35
494.757	1285.08
495.126	1332.54
495.496	1288.92
495.866	1318.07
496.235	1335.47
496.605	1338.19
496.974	1317.17
497.344	1324.63
497.713	1329.15
498.082	1337.51
498.452	1354
498.821	1353.78
499.19	1362.82
499.559	1348.35
499.928	1339.09
500.298	1325.53
500.667	1355.81
501.036	1373.21
501.405	1356.72
501.774	1372.76
502.143	1365.53
502.512	1381.35
502.88	1382.25
503.249	1364.4
503.618	1383.38
503.987	1385.42
504.356	1404.17
504.724	1379.99
505.093	1390.39
505.462	1432.87
505.83	1412.99
506.199	1388.13
506.567	1421.12
506.936	1413.66
507.304	1440.56
507.672	1415.92
508.041	1443.49
508.409	1424.96
508.777	1441.69
509.145	1426.32
509.514	1447.79
509.882	1444.85
510.25	1446.43
510.618	1436.26
510.986	1445.53
511.354	1444.85
511.722	1448.01
512.09	1465.41
512.458	1457.28
512.826	1466.09
513.193	1470.84
513.561	1467
513.929	1453.21
514.297	1478.97
514.664	1485.75
515.032	1454.34
515.4	1459.54
515.767	1504.51
516.135	1509.71
516.502	1451.63
516.869	1464.06
517.237	1486.66
517.604	1492.76
517.972	1497.05
518.339	1485.53
518.706	1507.67
519.073	1508.12
519.44	1520.33
519.808	1513.77
520.175	1512.42
520.542	1557.84
520.909	1531.85
521.276	1506.09
521.643	1523.49
522.009	1524.39
522.376	1562.59
522.743	1548.35
523.11	1545.64
523.477	1563.94
523.843	1569.14
524.21	1579.08
524.577	1551.06
524.943	1574.11
525.31	1593.32
525.676	1580.66
526.043	1576.14
526.409	1577.27
526.776	1602.81
527.142	1562.36
527.508	1597.39
527.874	1621.57
528.241	1603.49
528.607	1605.52
528.973	1596.03
529.339	1582.47
529.705	1630.38
530.071	1606.65
530.437	1599.2
530.803	1619.08
531.169	1615.47
531.535	1617.73
531.901	1616.82
532.267	1626.31
532.632	1613.88
532.998	1634.9
533.364	1648.69
533.73	1594
534.095	1615.24
534.461	1645.07
534.826	1670.15
535.192	1659.08
535.557	1653.66
535.923	1630.61
536.288	1657.5
536.653	1649.82
537.019	1681.68
537.384	1637.84
537.749	1646.65
538.114	1632.41
538.479	1639.87
538.845	1674.22
539.21	1617.5
539.575	1649.82
539.94	1643.04
540.305	1665.18
540.67	1631.96
541.034	1647.1
541.399	1656.37
541.764	1628.12
542.129	1674.45
542.494	1666.09
542.858	1637.84
543.223	1658.85
543.587	1677.84
543.952	1661.34
544.316	1663.6
544.681	1667.22
545.045	1653.88
545.41	1651.4
545.774	1663.37
546.138	1688.23
546.503	1672.19
546.867	1674.22
547.231	1671.96
547.595	1674.22
547.959	1683.71
548.324	1664.96
548.688	1644.62
549.052	1655.69
549.416	1638.29
549.779	1648.23
550.143	1676.71
550.507	1678.97
550.871	1702.02
551.235	1661.79
551.599	1701.34
551.962	1688.68
552.326	1651.4
552.689	1678.97
553.053	1703.83
553.417	1699.08
553.78	1670.83
554.143	1676.48
554.507	1697.72
554.87	1694.11
555.234	1717.61
555.597	1667.67
555.96	1680.1
556.323	1692.98
556.686	1702.92
557.05	1708.57
557.413	1682.36
557.776	1687.78
558.139	1709.7
558.502	1681.45
558.865	1735.69
559.228	1684.16
559.59	1728.68
559.953	1732.75
560.316	1716.71
560.679	1748.12
561.041	1693.43
561.404	1725.97
561.767	1729.36
562.129	1736.37
562.492	1758.74
562.854	1715.58
563.217	1736.14
563.579	1722.81
563.941	1749.25
564.304	1754.9
564.666	1755.12
565.028	1766.42
565.39	1789.25
565.753	1745.41
566.115	1735.01
566.477	1788.57
566.839	1751.06
567.201	1738.17
567.563	1776.14
567.925	1767.55
568.287	1800.32
568.648	1772.3
569.01	1773.65
569.372	1818.17
569.734	1792.41
570.095	1813.88
570.457	1803.26
570.819	1795.57
571.18	1820.43
571.542	1802.81
571.903	1805.97
572.265	1801.45
572.626	1784.28
572.987	1801.68
573.349	1828.34
573.71	1849.36
574.071	1810.94
574.432	1816.36
574.794	1788.79
575.155	1829.7
575.516	1819.53
575.877	1838.96
576.238	1819.08
576.599	1839.87
576.96	1850.71
577.32	1823.6
577.681	1855.23
578.042	1851.84
578.403	1863.14
578.763	1850.49
579.124	1852.52
579.485	1883.93
579.845	1864.5
580.206	1883.93
580.566	1840.09
580.927	1875.57
581.287	1850.26
581.648	1870.37
582.008	1847.1
582.368	1864.72
582.728	1878.06
583.089	1874.22
583.449	1857.72
583.809	1855.46
584.169	1849.81
584.529	1873.54
584.889	1834.67
585.249	1853.2
585.609	1842.8
585.969	1885.52
586.329	1858.4
586.688	1866.08
587.048	1859.75
587.408	1851.39
587.768	1897.94
588.127	1871.96
588.487	1859.53
588.846	1864.27
589.206	1845.74
589.565	1863.14
589.925	1917.83
590.284	1925.51
590.643	1903.82
591.003	1869.02
591.362	1899.07
591.721	1901.11
592.08	1895.68
592.44	1874.44
592.799	1879.41
593.158	1891.39
593.517	1885.74
593.876	1875.57
594.235	1880.54
594.593	1890.94
594.952	1903.82
595.311	1916.25
595.67	1882.8
596.029	1905.63
596.387	1928.23
596.746	1908.57
597.104	1874.89
597.463	1894.78
597.822	1896.36
598.18	1887.78
598.538	1921.45
598.897	1885.29
599.255	1911.28
599.613	1908.34
599.972	1900.66
600.33	1935.68
600.688	1906.98
601.046	1915.35
601.404	1922.35
601.762	1899.53
602.12	1953.08
602.478	1941.11
602.836	1930.26
603.194	1917.83
603.552	1959.41
603.91	1935.91
604.268	1950.6
604.625	1932.75
604.983	1944.04
605.341	1921.9
605.698	1973.87
606.056	1937.49
606.413	1937.27
606.771	1966.42
607.128	1952.18
607.485	1950.82
607.843	1967.1
608.2	1956.25
608.557	1957.6
608.914	1962.35
609.272	1981.33
609.629	1986.3
609.986	2011.16
610.343	1969.13
610.7	1989.69
611.057	1978.85
611.414	1977.26
611.771	1978.62
612.127	2004.38
612.484	2006.42
612.841	2013.2
613.198	2014.78
613.554	2037.6
613.911	2029.24
614.267	2002.8
614.624	1987.21
614.98	2025.17
615.337	2045.29
615.693	2040.54
616.05	2004.61
616.406	2050.26
616.762	2044.61
617.118	2061.33
617.475	2047.32
617.831	2049.35
618.187	2048
618.543	2026.08
618.899	2042.35
619.255	2073.31
619.611	2086.19
619.967	2072.18
620.323	2077.15
620.678	2085.28
621.034	2045.74
621.39	2079.18
621.746	2057.26
622.101	2055
622.457	2082.12
622.812	2070.6
623.168	2081.44
623.523	2094.55
623.879	2114.66
624.234	2088.67
624.589	2096.36
624.945	2092.52
625.3	2092.52
625.655	2108.79
626.01	2113.31
626.365	2103.14
626.72	2102.46
627.075	2112.63
627.43	2110.37
627.785	2129.35
628.14	2131.38
628.495	2106.3
628.85	2134.55
629.205	2138.62
629.559	2134.32
629.914	2135.9
630.269	2168.45
630.623	2121.89
630.978	2118.28
631.332	2167.54
631.687	2156.69
632.041	2154.21
632.396	2156.92
632.75	2158.28
633.104	2183.36
633.459	2154.89
633.813	2172.29
634.167	2160.31
634.521	2184.04
634.875	2180.2
635.229	2210.7
635.583	2168.45
635.937	2201.89
636.291	2218.39
636.645	2202.34
636.999	2192.63
637.352	2210.25
637.706	2217.48
638.06	2212.96
638.413	2198.73
638.767	2216.13
639.121	2199.41
639.474	2245.96
639.828	2230.37
640.181	2230.82
640.534	2248.44
640.888	2272.4
641.241	2246.18
641.594	2267.65
641.947	2267.65
642.301	2261.1
642.654	2286.41
643.007	2280.99
643.36	2300.87
643.713	2292.06
644.066	2289.35
644.419	2270.82
644.771	2306.75
645.124	2325.05
645.477	2318.95
645.83	2283.47
646.182	2287.76
646.535	2308.33
646.888	2303.81
647.24	2298.61
647.593	2309.01
647.945	2306.75
648.298	2355.11
648.65	2316.92
649.002	2337.25
649.355	2367.31
649.707	2340.64
650.059	2394.2
650.411	2404.82
650.763	2406.63
651.115	2424.94
651.467	2427.87
651.819	2451.38
652.171	2485.27
652.523	2481.66
652.875	2481.88
653.227	2459.96
653.578	2473.07
653.93	2516.01
654.282	2515.1
654.633	2555.55
654.985	2553.75
655.337	2520.53
655.688	2567.53
656.039	2565.05
656.391	2573.41
656.742	2592.84
657.094	2621.99
657.445	2606.85
657.796	2621.54
658.147	2636
658.498	2667.64
658.849	2674.87
659.2	2672.16
659.551	2671.71
659.902	2688.66
660.253	2673.07
660.604	2694.99
660.955	2724.59
661.306	2739.05
661.656	2719.39
662.007	2735.44
662.358	2743.35
662.708	2812.5
663.059	2781.09
663.409	2761.42
663.76	2831.25
664.11	2828.54
664.461	2876.9
664.811	2844.81
665.161	2885.04
665.511	2875.32
665.862	2922.1
666.212	2953.06
666.562	2925.26
666.912	2989.44
667.262	2938.82
667.612	2954.87
667.962	2983.57
668.312	3004.58
668.662	3052.94
669.011	3022.89
669.361	3041.87
669.711	3109.21
670.06	3053.85
670.41	3097.91
670.76	3065.82
671.109	3129.55
671.459	3132.04
671.808	3119.16
672.157	3128.42
672.507	3134.52
672.856	3167.06
673.205	3165.03
673.554	3172.94
673.904	3202.54
674.253	3209.32
674.602	3234.86
674.951	3211.13
675.3	3207.06
675.649	3241.64
675.998	3253.62
676.346	3288.64
676.695	3257.91
677.044	3275.31
677.393	3355.76
677.741	3360.28
678.09	3355.08
678.438	3360.5
678.787	3409.09
679.135	3380.62
679.484	3360.5
679.832	3364.35
680.181	3387.4
680.529	3422.42
680.877	3445.02
681.225	3468.52
681.573	3461.97
681.922	3435.08
682.27	3460.39
682.618	3493.83
682.966	3497
683.314	3506.04
683.661	3533.61
684.009	3520.27
684.357	3511.46
684.705	3531.35
685.053	3560.05
685.4	3527.96
685.748	3532.03
686.095	3566.83
686.443	3585.13
686.79	3585.36
687.138	3612.7
687.485	3600.5
687.832	3616.77
688.18	3627.16
688.527	3622.87
688.874	3633.72
689.221	3596.66
689.568	3616.32
689.915	3642.08
690.262	3636.88
690.609	3650.21
690.956	3633.04
691.303	3648.86
691.65	3693.83
691.997	3658.8
692.344	3662.87
692.69	3659.25
693.037	3650.44
693.383	3657.67
693.73	3669.2
694.077	3654.96
694.423	3649.31
694.769	3659.03
695.116	3649.76
695.462	3678.01
695.808	3693.6
696.155	3672.14
696.501	3631.46
696.847	3720.95
697.193	3690.67
697.539	3717.78
697.885	3646.6
698.231	3657.45
698.577	3656.99
698.923	3635.53
699.269	3664
699.614	3667.39
699.96	3639.37
700.306	3642.31
700.651	3629.65
700.997	3654.96
701.342	3618.58
701.688	3655.64
702.033	3651.8
702.379	3651.34
702.724	3588.52
703.069	3610.67
703.415	3634.17
703.76	3620.16
704.105	3621.74
704.45	3597.11
704.795	3640.72
705.14	3620.39
705.485	3568.18
705.83	3587.17
706.175	3602.53
706.52	3603.89
706.865	3584
707.209	3608.18
707.554	3591.69
707.899	3596.88
708.243	3540.16
708.588	3625.13
708.932	3585.81
709.277	3588.97
709.621	3555.75
709.966	3561.86
710.31	3578.13
710.654	3548.07
710.998	3573.83
711.342	3504.23
711.687	3549.2
712.031	3526.38
712.375	3553.72
712.719	3546.26
713.063	3530.9
713.407	3545.13
713.75	3512.59
714.094	3581.52
714.438	3507.39
714.782	3503.55
715.125	3495.19
715.469	3563.66
715.812	3542.42
716.156	3524.12
716.499	3514.85
716.843	3515.08
717.186	3518.47
717.53	3542.65
717.873	3506.94
718.216	3488.86
718.559	3511.69
718.902	3499.94
719.246	3503.55
719.589	3525.92
719.932	3502.2
720.275	3493.16
720.617	3506.49
720.96	3496.55
721.303	3533.83
721.646	3524.57
721.989	3507.62
722.331	3540.39
722.674	3507.39
723.016	3577.22
723.359	3505.13
723.701	3518.24
724.044	3540.84
724.386	3505.81
724.729	3502.65
725.071	3471.01
725.413	3511.01
725.755	3515.76
726.097	3533.83
726.439	3483.21
726.782	3520.27
727.124	3544.68
727.465	3497
727.807	3554.85
728.149	3498.81
728.491	3515.76
728.833	3529.54
729.175	3546.26
729.516	3522.08
729.858	3519.82
730.199	3544.45
730.541	3505.59
730.882	3520.5
731.224	3577.9
731.565	3573.15
731.906	3560.05
732.248	3594.85
732.589	3566.38
732.93	3567.73
733.271	3568.86
733.612	3584.68
733.953	3603.89
734.294	3574.28
734.635	3560.27
734.976	3598.92
735.317	3567.28
735.658	3607.05
735.999	3591.69
736.339	3561.63
736.68	3617.67
737.021	3605.92
737.361	3582.19
737.702	3642.53
738.042	3641.85
738.383	3624.68
738.723	3633.04
739.063	3625.13
739.404	3656.32
739.744	3630.55
740.084	3670.55
740.424	3652.02
740.764	3661.74
741.104	3668.52
741.444	3676.88
741.784	3675.07
742.124	3697.22
742.464	3671.46
742.804	3696.99
743.143	3688.86
743.483	3728.86
743.823	3693.83
744.162	3702.42
744.502	3779.7
744.841	3765.24
745.181	3800.72
745.52	3766.6
745.86	3785.8
746.199	3804.33
746.538	3824.22
746.877	3825.58
747.216	3851.11
747.556	3887.72
747.895	3909.87
748.234	3891.56
748.573	3935.63
748.911	3975.63
749.25	3938.79
749.589	4007.04
749.928	3981.51
750.267	3990.32
750.605	4007.95
750.944	4032.13
751.283	4039.81
751.621	4052.01
751.96	4086.59
752.298	4110.32
752.636	4075.74
752.975	4123.87
753.313	4128.62
753.651	4190.77
753.989	4152.12
754.327	4201.16
754.666	4197.32
755.004	4205.45
755.342	4241.16
755.679	4329.74
756.017	4276.19
756.355	4365.9
756.693	4303.53
757.031	4361.16
757.368	4372.91
757.706	4417.2
758.044	4428.95
758.381	4367.48
758.719	4462.62
759.056	4490.64
759.394	4439.12
759.731	4467.37
760.068	4455.84
760.405	4492.45
760.743	4440.93
761.08	4502.85
761.417	4562.51
761.754	4539
762.091	4575.61
762.428	4551.89
762.765	4554.37
763.102	4611.55
763.438	4567.48
763.775	4576.74
764.112	4618.78
764.449	4641.83
764.785	4626.69
765.122	4586.01
765.458	4621.94
765.795	4614.26
766.131	4630.3
766.467	4643.41
766.804	4646.57
767.14	4587.37
767.476	4636.86
767.812	4629.62
768.148	4604.54
768.485	4622.39
768.821	4608.83
769.157	4617.42
769.492	4640.02
769.828	4593.69
770.164	4624.2
770.5	4605.44
770.836	4584.2
771.171	4620.36
771.507	4613.35
771.842	4583.75
772.178	4621.71
772.513	4564.77
772.849	4577.65
773.184	4555.73
773.519	4562.28
773.855	4570.19
774.19	4539
774.525	4542.85
774.86	4522.28
775.195	4565.67
775.53	4539.68
775.865	4513.02
776.2	4498.1
776.535	4497.42
776.87	4491.32
777.205	4454.04
777.539	4444.32
777.874	4456.75
778.209	4477.31
778.543	4418.78
778.878	4413.81
779.212	4386.01
779.547	4362.51
779.881	4376.75
780.215	4381.72
780.55	4397.31
780.884	4369.52
781.218	4334.26
781.552	4365.22
781.886	4364.32
782.22	4331.78
782.554	4340.37
782.888	4296.53
783.222	4246.13
783.556	4274.61
783.889	4283.19
784.223	4229.63
784.557	4187.38
784.89	4245.68
785.224	4214.49
785.557	4194.16
785.891	4174.72
786.224	4192.57
786.558	4172.23
786.891	4153.48
787.224	4115.74
787.557	4118.23
787.891	4123.87
788.224	4100.37
788.557	4089.53
788.89	4078.23
789.223	4129.52
789.556	4058.57
789.888	4074.16
790.221	4058.34
790.554	4019.24
790.887	4024.67
791.219	4030.54
791.552	3988.51
791.884	3950.77
792.217	3969.3
792.549	3992.13
792.882	3937.21
793.214	3953.03
793.546	3943.77
793.879	3913.03
794.211	3872.58
794.543	3937.21
794.875	3865.12
795.207	3852.47
795.539	3852.7
795.871	3851.57
796.203	3831
796.535	3813.15
796.867	3855.63
797.198	3812.02
797.53	3811.34
797.862	3782.19
798.193	3788.74
798.525	3752.58
798.856	3771.34
799.188	3744
799.519	3768.86
799.85	3723.89
800.182	3763.21
800.513	3732.02
800.844	3691.34
801.175	3767.95
801.506	3694.96
801.837	3676.65
802.168	3688.63
802.499	3639.59
802.83	3637.56
803.161	3690.89
803.491	3642.31
803.822	3623.32
804.153	3589.2
804.483	3613.15
804.814	3603.66
805.145	3560.95
805.475	3608.41
805.805	3553.49
806.136	3542.65
806.466	3560.73
806.796	3572.02
807.126	3492.03
807.457	3506.72
807.787	3483.67
808.117	3506.94
808.447	3496.77
808.777	3508.75
809.107	3476.43
809.436	3483.21
809.766	3440.28
810.096	3471.46
810.426	3431.92
810.755	3452.71
811.085	3416.77
811.414	3475.3
811.744	3434.85
812.073	3395.98
812.403	3415.87
812.732	3391.46
813.061	3373.61
813.39	3366.61
813.719	3377
814.049	3407.06
814.378	3364.57
814.707	3367.96
815.036	3364.35
815.365	3361.86
815.693	3315.31
816.022	3341.3
816.351	3307.85
816.68	3232.15
817.008	3289.77
817.337	3236.21
817.665	3258.13
817.994	3330.45
818.322	3268.3
818.651	3251.58
818.979	3251.36
819.307	3313.05
819.636	3267.17
819.964	3219.94
820.292	3228.3
820.62	3276.44
820.948	3250.23
821.276	3213.16
821.604	3254.97
821.932	3255.65
822.259	3222.43
822.587	3187.85
822.915	3226.05
823.243	3251.13
823.57	3207.97
823.898	3205.93
824.225	3204.58
824.553	3181.75
824.88	3190.34
825.207	3217.23
825.535	3261.98
825.862	3238.25
826.189	3238.02
826.516	3191.47
826.843	3254.07
827.17	3244.58
827.497	3250.9
827.824	3204.8
828.151	3225.37
828.478	3203.45
828.805	3265.82
829.131	3241.64
829.458	3224.24
829.785	3227.85
830.111	3195.31
830.438	3186.27
830.764	3197.57
831.09	3185.37
831.417	3145.37
831.743	3219.94
832.069	3204.8
832.395	3173.39
832.722	3213.39
833.048	3217.23
833.374	3208.64
833.7	3183.33
834.026	3164.35
834.351	3202.99
834.677	3189.89
835.003	3179.72
835.329	3220.62
835.654	3176.1
835.98	3191.92
836.306	3181.07
836.631	3140.85
836.956	3158.93
837.282	3177.68
837.607	3181.98
837.932	3127.74
838.258	3155.76
838.583	3170.45
838.908	3129.32
839.233	3170.23
839.558	3108.31
839.883	3124.8
840.208	3101.75
840.533	3087.97
840.858	3093.17
841.182	3108.76
841.507	3097.69
841.832	3039.38
842.156	3047.74
842.481	3071.25
842.805	3084.58
843.13	3063.11
843.454	3057.91
843.778	3083
844.103	3016.11
844.427	3054.75
844.751	3042.77
845.075	3028.76
845.399	3044.35
845.723	3013.62
846.047	3041.19
846.371	2972.72
846.695	3022.66
847.019	3003.45
847.343	2975.66
847.666	2970.01
847.99	2910.8
848.313	2946.28
848.637	2932.72
848.96	2935.21
849.284	2897.69
849.607	2878.94
849.931	2898.14
850.254	2909.9
850.577	2878.03
850.9	2839.16
851.223	2847.52
851.546	2863.34
851.869	2805.04
852.192	2833.06
852.515	2843.91
852.838	2796.68
853.161	2819.28
853.483	2797.58
853.806	2777.02
854.129	2779.96
854.451	2774.53
854.774	2744.7
855.096	2730.01
855.419	2753.97
855.741	2739.28
856.063	2725.49
856.385	2664.25
856.708	2720.52
857.03	2720.07
857.352	2699.28
857.674	2696.57
857.996	2652.05
858.318	2669
858.64	2647.53
858.961	2629.45
859.283	2668.55
859.605	2631.48
859.926	2639.85
860.248	2625.83
860.57	2619.96
860.891	2659.73
861.212	2656.34
861.534	2619.28
861.855	2601.43
862.176	2576.12
862.498	2621.77
862.819	2607.53
863.14	2625.16
863.461	2601.88
863.782	2579.73
864.103	2579.51
864.424	2589.68
864.745	2581.77
865.065	2508.78
865.386	2547.42
865.707	2575.67
866.027	2560.53
866.348	2566.4
866.668	2497.93
866.989	2550.58
867.309	2516.46
867.63	2551.26
867.95	2544.26
868.27	2529.11
868.59	2536.35
868.91	2524.37
869.23	2506.97
869.55	2502.9
869.87	2528.21
870.19	2518.72
870.51	2536.57
870.83	2510.58
871.15	2435.78
871.469	2479.62
871.789	2522.79
872.109	2460.87
872.428	2466.74
872.748	2500.19
873.067	2468.55
873.386	2466.97
873.706	2476.01
874.025	2443.47
874.344	2479.85
874.663	2467.87
874.982	2468.78
875.301	2481.88
875.62	2439.4
875.939	2445.73
876.258	2430.81
876.577	2424.03
876.896	2432.85
877.214	2429.91
877.533	2417.93
877.852	2432.62
878.17	2418.38
878.489	2433.98
878.807	2460.64
879.125	2423.35
879.444	2414.77
879.762	2389.68
880.08	2382
880.398	2384.03
880.716	2399.4
881.034	2415.22
881.352	2377.25
881.67	2362.56
881.988	2400.53
882.306	2387.2
882.624	2372.51
882.941	2369.8
883.259	2367.54
883.577	2352.17
883.894	2356.92
884.212	2337.25
884.529	2331.61
884.846	2341.1
885.164	2318.05
885.481	2358.72
885.798	2303.81
886.115	2357.59
886.432	2299.97
886.75	2326.86
887.067	2324.83
887.383	2283.92
887.7	2309.46
888.017	2290.48
888.334	2278.95
888.651	2315.33
888.967	2268.33
889.284	2248.22
889.6	2269.91
889.917	2267.2
890.233	2287.31
890.55	2251.38
890.866	2289.57
891.182	2254.09
891.498	2250.25
891.815	2230.14
892.131	2204.6
892.447	2221.1
892.763	2204.15
893.079	2236.69
893.395	2204.38
893.71	2179.07
894.026	2182.46
894.342	2200.08
894.657	2166.19
894.973	2204.38
895.289	2169.58
895.604	2161.44
895.92	2129.8
896.235	2124.38
896.55	2138.16
896.865	2129.12
897.181	2149.92
897.496	2154.66
897.811	2135.9
898.126	2121.89
898.441	2139.52
898.756	2133.19
899.071	2150.82
899.386	2092.52
899.7	2078.5
900.015	2083.25
900.33	2087.77
900.644	2045.51
900.959	2064.27
901.273	2057.71
901.588	2033.76
901.902	2045.96
902.216	2050.48
902.531	2029.69
902.845	2040.77
903.159	2014.1
903.473	2028.79
903.787	2045.06
904.101	1996.25
904.415	1987.66
904.729	1974.33
905.042	1985.17
905.356	1962.35
905.67	1986.98
905.984	1984.72
906.297	1963.03
906.611	1948.11
906.924	1963.71
907.237	1968.68
907.551	1926.87
907.864	1929.58
908.177	1938.4
908.491	1907.44
908.804	1931.62
909.117	1889.36
909.43	1867.66
909.743	1881.45
910.056	1920.32
910.368	1893.42
910.681	1875.57
910.994	1845.74
911.307	1845.97
911.619	1877.38
911.932	1853.88
912.244	1831.51
912.557	1860.43
912.869	1830.15
913.181	1813.2
913.494	1815.69
913.806	1838.51
914.118	1829.02
914.43	1783.6
914.742	1801.45
915.054	1808
915.366	1795.8
915.678	1781.11
915.99	1769.81
916.302	1742.47
916.613	1727.55
916.925	1762.13
917.236	1742.92
917.548	1718.97
917.859	1741.11
918.171	1732.53
918.482	1722.13
918.794	1723.49
919.105	1705.86
919.416	1721.9
919.727	1707.89
920.038	1684.84
920.349	1700.89
920.66	1669.02
920.971	1646.65
921.282	1682.36
921.593	1671.51
921.903	1642.36
922.214	1653.88
922.525	1634.45
922.835	1632.87
923.146	1637.16
923.456	1640.55
923.767	1634
924.077	1617.27
924.387	1631.74
924.697	1606.2
925.008	1616.37
925.318	1577.95
925.628	1609.59
925.938	1602.81
926.248	1578.63
926.558	1571.4
926.867	1555.58
927.177	1573.21
927.487	1559.42
927.796	1511.29
928.106	1551.29
928.416	1524.39
928.725	1531.17
929.034	1542.7
929.344	1516.03
929.653	1529.59
929.962	1535.02
930.271	1493.66
930.581	1504.06
930.89	1512.42
931.199	1474.68
931.508	1516.71
931.817	1481.68
932.125	1480.78
932.434	1504.96
932.743	1453.66
933.051	1457.05
933.36	1476.94
933.669	1463.83
933.977	1455.47
934.286	1448.01
934.594	1431.97
934.902	1414.12
935.21	1453.89
935.519	1447.79
935.827	1424.74
936.135	1412.76
936.443	1419.09
936.751	1397.62
937.059	1417.28
937.367	1407.34
937.674	1380.44
937.982	1395.81
938.29	1354.23
938.597	1384.96
938.905	1370.27
939.213	1370.95
939.52	1363.72
939.827	1377.05
940.135	1346.09
940.442	1379.31
940.749	1355.36
941.056	1349.71
941.363	1370.73
941.67	1345.42
941.977	1324.4
942.284	1334.8
942.591	1313.78
942.898	1305.42
943.205	1307.9
943.511	1314.46
943.818	1309.03
944.125	1296.38
944.431	1281.92
944.738	1272.65
945.044	1266.77
945.35	1277.85
945.657	1292.08
945.963	1273.78
946.269	1254.35
946.575	1263.38
946.881	1259.77
947.187	1248.24
947.493	1253.89
947.799	1239.88
948.105	1239.43
948.41	1241.24
948.716	1226.78
949.022	1231.07
949.327	1244.85
949.633	1239.43
949.938	1218.41
950.244	1222.48
950.549	1212.31
950.854	1187.23
951.16	1191.52
951.465	1190.39
951.77	1185.42
952.075	1178.42
952.38	1190.17
952.685	1178.19
952.99	1172.09
953.294	1165.99
953.599	1196.95
953.904	1150.17
954.209	1155.82
954.513	1144.52
954.818	1169.6
955.122	1139.09
955.426	1130.51
955.731	1153.78
956.035	1149.94
956.339	1119.21
956.643	1115.14
956.948	1114.01
957.252	1132.77
957.556	1118.76
957.86	1127.57
958.163	1102.71
958.467	1085.31
958.771	1131.86
959.075	1105.87
959.378	1110.62
959.682	1106.1
959.985	1097.74
960.289	1075.14
960.592	1090.51
960.896	1092.32
961.199	1089.83
961.502	1102.03
961.805	1097.51
962.108	1087.57
962.411	1079.43
962.714	1071.3
963.017	1038.31
963.32	1056.61
963.623	1046.22
963.926	997.63
964.228	1026.55
964.531	1022.04
964.833	1049.38
965.136	1044.63
965.438	1020
965.741	1038.76
966.043	1028.36
966.345	1011.64
966.648	1004.86
966.95	1036.27
967.252	1009.61
967.554	1014.35
967.856	1024.97
968.158	1001.02
968.46	1024.97
968.761	991.75
969.063	1038.31
969.365	973.22
969.666	967.35
969.968	991.08
970.269	974.8
970.571	984.52
970.872	979.78
971.174	960.34
971.475	964.41
971.776	983.17
972.077	987.46
972.378	940.46
972.679	957.86
972.98	953.56
973.281	941.59
973.582	944.52
973.883	965.77
974.183	943.85
974.484	936.61
974.785	947.46
975.085	949.95
975.386	956.73
975.686	942.72
975.986	921.47
976.287	943.39
976.587	891.64
976.887	896.61
977.187	922.6
977.487	914.02
977.787	888.71
978.087	918.31
978.387	903.85
978.687	890.06
978.987	884.64
979.286	916.73
979.586	866.56
979.885	874.92
980.185	897.52
980.484	894.13
980.784	876.95
981.083	890.74
981.382	856.39
981.682	852.32
981.981	888.48
982.28	882.15
982.579	883.73
982.878	867.24
983.177	887.8
983.475	861.59
983.774	852.55
984.073	838.76
984.372	838.31
984.67	862.27
984.969	846.45
985.267	835.37
985.566	840.12
985.864	826.56
986.162	841.25
986.461	827.46
986.759	834.7
987.057	824.98
987.355	822.49
987.653	818.2
987.951	815.26
988.249	807.58
988.547	824.98
988.844	802.38
989.142	802.61
989.44	789.27
989.737	794.92
990.035	802.83
990.332	805.32
990.63	770.97
990.927	788.6
991.224	772.78
991.521	773.45
991.819	807.13
992.116	775.71
992.413	782.49
992.71	774.81
993.006	742.72
993.303	769.39
993.6	781.14
993.897	778.88
994.193	778.65
994.49	741.59
994.787	747.24
995.083	741.82
995.379	724.42
995.676	759.44
995.972	768.48
996.268	746.11
996.565	747.47
996.861	726.22
997.157	740.01
997.453	718.54
997.749	753.57
998.044	733
998.34	729.61
998.636	714.47
998.932	691.2
999.227	724.87
999.523	724.64
999.818	717.86
1000.114	716.51
1000.409	740.01
1000.704	690.52
1001	708.6
1001.295	731.42
1001.59	709.95
1001.885	708.37
1002.18	705.66
1002.475	696.62
1002.77	688.48
1003.065	700.46
1003.359	686.9
1003.654	690.97
1003.949	675.83
1004.243	683.74
1004.538	679.22
1004.832	700.01
1005.127	675.15
1005.421	637.64
1005.715	648.03
1006.009	672.89
1006.304	683.06
1006.598	671.54
1006.892	662.27
1007.186	670.18
1007.48	666.11
1007.773	651.88
1008.067	644.64
1008.361	659.78
1008.655	664.53
1008.948	637.19
1009.242	639.67
1009.535	656.17
1009.829	631.31
1010.122	638.09
1010.415	659.78
1010.708	626.11
1011.001	644.64
1011.295	631.31
1011.588	599.9
1011.881	622.5
1012.173	641.03
1012.466	612.1
1012.759	619.56
1013.052	613.91
1013.344	598.32
1013.637	603.74
1013.93	594.02
1014.222	599
1014.514	624.53
1014.807	595.83
1015.099	593.12
1015.391	594.7
1015.683	602.84
1015.976	590.63
1016.268	592.22
1016.56	581.59
1016.851	597.19
1017.143	599.67
1017.435	581.59
1017.727	584.08
1018.018	580.92
1018.31	594.48
1018.602	590.18
1018.893	584.98
1019.185	567.13
1019.476	567.81
1019.767	586.11
1020.058	560.13
1020.35	578.21
1020.641	561.26
1020.932	575.04
1021.223	573.69
1021.514	546.12
1021.804	541.6
1022.095	542.27
1022.386	550.41
1022.677	535.04
1022.967	563.29
1023.258	545.44
1023.548	522.39
1023.839	565.1
1024.129	557.87
1024.419	533.69
1024.709	555.83
1025	525.55
1025.29	517.64
1025.58	523.29
1025.87	531.88
1026.16	536.4
1026.449	549.51
1026.739	516.74
1027.029	531.2
1027.319	530.75
1027.608	529.84
1027.898	522.39
1028.187	511.77
1028.477	516.06
1028.766	515.16
1029.055	542.73
1029.344	507.47
1029.634	511.31
1029.923	499.56
1030.212	509.05
1030.501	518.77
1030.79	509.96
1031.078	492.56
1031.367	513.35
1031.656	486.68
1031.945	487.36
1032.233	484.65
1032.522	503.86
1032.81	486.46
1033.099	506.57
1033.387	488.49
1033.675	488.04
1033.963	475.61
1034.251	488.04
1034.54	478.32
1034.828	469.06
1035.116	498.21
1035.403	469.06
1035.691	490.52
1035.979	474.48
1036.267	479
1036.554	480.81
1036.842	464.54
1037.129	457.08
1037.417	486.68
1037.704	466.12
1037.992	465.89
1038.279	451.43
1038.566	450.52
1038.853	450.52
1039.14	450.52
