Data from blue_chair_FLMS001491_00085.txt Node
Date: Wed Feb 08 10:31:55 GMT 2017
User: dcchb
Spectrometer: FLMS00149
Trigger mode: 0
Integration Time (sec): 2.000000E-2
Scans to average: 10
Electric dark correction enabled: true
Nonlinearity correction enabled: false
Boxcar width: 0
XAxis mode: Wavelengths
Number of Pixels in Spectrum: 2048
>>>>>Begin Spectral Data<<<<<
341.393	-0.79
341.776	-0.79
342.16	-0.79
342.543	-55.03
342.927	-67.46
343.31	-56.38
343.693	-53.9
344.077	-56.61
344.46	-75.14
344.843	-40.11
345.226	-42.6
345.61	-25.88
345.993	-17.06
346.376	7.8
346.759	9.83
347.142	9.15
347.525	40.34
347.908	57.29
348.291	67.23
348.674	73.11
349.057	102.94
349.44	118.53
349.823	138.41
350.206	161.01
350.588	177.96
350.971	197.17
351.354	209.37
351.737	220.67
352.119	233.55
352.502	242.82
352.884	269.71
353.267	263.83
353.65	268.58
354.032	278.52
354.414	292.53
354.797	299.09
355.179	305.64
355.562	307.45
355.944	311.07
356.326	317.39
356.709	330.27
357.091	323.04
357.473	316.94
357.855	334.34
358.238	326.66
358.62	309.94
359.002	320.78
359.384	317.84
359.766	315.13
360.148	323.49
360.53	324.85
360.912	286.66
361.294	324.4
361.676	322.36
362.057	309.26
362.439	288.69
362.821	324.4
363.203	305.87
363.584	310.61
363.966	277.17
364.348	291.86
364.729	294.34
365.111	286.43
365.493	299.09
365.874	301.57
366.256	304.74
366.637	278.52
367.019	303.61
367.4	306.55
367.781	306.77
368.163	293.66
368.544	271.74
368.925	292.31
369.306	299.77
369.688	281.69
370.069	276.04
370.45	286.66
370.831	280.33
371.212	288.24
371.593	285.08
371.974	275.13
372.355	275.59
372.736	282.14
373.117	291.63
373.498	290.5
373.879	285.3
374.26	290.27
374.641	290.95
375.021	304.06
375.402	303.61
375.783	292.53
376.163	284.63
376.544	294.79
376.925	277.62
377.305	297.05
377.686	319.43
378.066	298.41
378.447	280.33
378.827	298.41
379.208	287.56
379.588	305.64
379.968	299.99
380.349	298.64
380.729	304.74
381.109	302.7
381.489	323.04
381.87	287.56
382.25	286.21
382.63	327.34
383.01	303.38
383.39	301.35
383.77	317.62
384.15	319.88
384.53	315.13
384.91	298.18
385.29	310.61
385.67	315.81
386.049	309.48
386.429	332.76
386.809	316.49
387.189	314.91
387.568	310.61
387.948	303.83
388.328	286.43
388.707	324.4
389.087	322.36
389.466	325.08
389.846	312.87
390.225	320.1
390.605	330.73
390.984	311.29
391.363	330.5
391.743	311.29
392.122	305.87
392.501	326.66
392.881	326.21
393.26	331.86
393.639	314
394.018	329.82
394.397	328.69
394.776	337.73
395.155	334.34
395.534	354.45
395.913	323.27
396.292	339.09
396.671	349.48
397.05	340.22
397.429	335.02
397.808	358.3
398.186	340.67
398.565	334.57
398.944	321.23
399.323	345.64
399.701	333.66
400.08	366.21
400.458	356.71
400.837	379.54
401.215	338.18
401.594	336.15
401.972	348.13
402.351	374.34
402.729	364.4
403.107	355.13
403.486	370.27
403.864	369.37
404.242	360.33
404.62	371.85
404.999	386.09
405.377	394
405.755	354
406.133	384.06
406.511	389.26
406.889	381.12
407.267	410.5
407.645	387
408.023	371.63
408.401	385.87
408.779	370.05
409.156	401.23
409.534	385.64
409.912	408.92
410.29	403.49
410.667	407.79
411.045	402.59
411.422	409.37
411.8	412.76
412.178	420.89
412.555	408.01
412.933	428.8
413.31	428.12
413.687	432.87
414.065	421.12
414.442	421.12
414.819	431.06
415.197	440.33
415.574	422.02
415.951	439.88
416.328	442.14
416.705	431.06
417.082	445.53
417.46	436.94
417.837	441.01
418.214	434.9
418.591	455.69
418.967	443.94
419.344	460.67
419.721	450.72
420.098	440.78
420.475	436.03
420.852	468.35
421.228	474
421.605	483.26
421.982	491.85
422.358	491.4
422.735	486.65
423.111	476.94
423.488	492.53
423.864	479.2
424.241	482.59
424.617	483.26
424.994	502.25
425.37	471.74
425.746	503.83
426.123	526.65
426.499	495.24
426.875	521
427.251	504.73
427.627	533.88
428.003	514.45
428.379	528.01
428.756	565.3
429.132	564.62
429.507	545.41
429.883	548.12
430.259	570.49
430.635	564.84
431.011	576.14
431.387	566.43
431.763	576.6
432.138	586.99
432.514	577.05
432.89	573.43
433.265	587.67
433.641	607.1
434.016	613.66
434.392	597.16
434.767	623.83
435.143	632.41
435.518	630.38
435.894	639.42
436.269	636.25
436.644	643.03
437.02	640.32
437.395	640.55
437.77	676.93
438.145	669.93
438.52	682.13
438.895	696.59
439.271	708.34
439.646	722.35
440.021	721
440.395	709.7
440.77	670.15
441.145	727.33
441.52	734.78
441.895	733.43
442.27	735.01
442.645	734.56
443.019	770.26
443.394	778.17
443.769	746.08
444.143	756.03
444.518	775.91
444.892	767.55
445.267	779.75
445.641	812.52
446.016	811.39
446.39	806.19
446.764	808.23
447.139	796.25
447.513	780.66
447.887	827.66
448.262	817.27
448.636	828.11
449.01	840.99
449.384	825.85
449.758	854.1
450.132	844.38
450.506	882.35
450.88	848.68
451.254	837.83
451.628	885.29
452.002	881.67
452.376	903.82
452.75	909.47
453.123	905.17
453.497	899.75
453.871	898.17
454.244	935.23
454.618	925.06
454.992	938.17
455.365	935
455.739	964.83
456.112	932.97
456.486	938.62
456.859	967.32
457.232	1013.19
457.606	980.88
457.979	990.14
458.352	1004.61
458.725	1035.57
459.099	1004.38
459.472	1026.3
459.845	1048
460.218	1074.44
460.591	1036.92
460.964	1056.13
461.337	1070.82
461.71	1071.72
462.083	1106.52
462.456	1045.74
462.829	1061.33
463.201	1099.07
463.574	1118.95
463.947	1110.14
464.32	1124.83
464.692	1142.68
465.065	1153.75
465.438	1145.17
465.81	1168.67
466.183	1189.01
466.555	1180.65
466.928	1194.21
467.3	1206.18
467.672	1211.38
468.045	1220.19
468.417	1222.68
468.789	1230.14
469.161	1241.66
469.534	1226.3
469.906	1259.74
470.278	1259.06
470.65	1265.39
471.022	1314.43
471.394	1334.54
471.766	1295.9
472.138	1321.21
472.51	1334.32
472.882	1347.2
473.253	1358.04
473.625	1359.17
473.997	1396.01
474.369	1418.83
474.74	1421.77
475.112	1404.14
475.484	1464.93
475.855	1456.35
476.227	1439.4
476.598	1473.29
476.97	1486.4
477.341	1519.85
477.713	1511.03
478.084	1535.67
478.455	1550.58
478.827	1549.68
479.198	1579.28
479.569	1597.81
479.94	1615.21
480.311	1616.79
480.682	1631.03
481.053	1664.48
481.424	1693.85
481.795	1680.52
482.166	1685.04
482.537	1705.6
482.908	1717.36
483.279	1734.76
483.65	1748.32
484.021	1790.57
484.391	1781.31
484.762	1769.33
485.133	1792.38
485.503	1787.64
485.874	1833.96
486.244	1827.86
486.615	1855.88
486.985	1843.91
487.356	1882.32
487.726	1863.79
488.097	1914.64
488.467	1907.86
488.837	1918.48
489.207	1928.2
489.578	1922.55
489.948	1960.51
490.318	1963.23
490.688	1947.63
491.058	1962.77
491.428	1986.95
491.798	1970.91
492.168	2008.2
492.538	2005.03
492.908	1996.22
493.278	2028.53
493.648	1988.76
494.017	2005.48
494.387	1985.82
494.757	1992.83
495.126	2034.41
495.496	2050.45
495.866	2029.21
496.235	2078.02
496.605	2023.79
496.974	2034.41
497.344	2012.26
497.713	2045.93
498.082	2038.93
498.452	2048.65
498.821	2040.96
499.19	2024.01
499.559	2046.39
499.928	2001.64
500.298	2041.42
500.667	2023.56
501.036	2009.55
501.405	2057.01
501.774	2013.62
502.143	2023.79
502.512	2016.11
502.88	2028.08
503.249	1974.75
503.618	2026.27
503.987	2013.39
504.356	2003.45
504.724	2030.34
505.093	2043.22
505.462	2001.19
505.83	2012.72
506.199	1988.76
506.567	2024.24
506.936	2000.96
507.304	2021.3
507.672	2005.94
508.041	2013.17
508.409	1993.51
508.777	2027.86
509.145	2030.57
509.514	2004.81
509.882	1996.9
510.25	1985.82
510.618	1996.67
510.986	2006.39
511.354	1995.31
511.722	1990.8
512.09	2001.19
512.458	1975.43
512.826	2017.24
513.193	1974.75
513.561	1967.97
513.929	1992.83
514.297	1952.83
514.664	1985.15
515.032	1970.68
515.4	1967.07
515.767	1929.33
516.135	1961.19
516.502	1943.34
516.869	1950.57
517.237	1943.79
517.604	1939.5
517.972	1930.23
518.339	1918.25
518.706	1896.56
519.073	1914.64
519.44	1904.7
519.808	1924.58
520.175	1903.11
520.542	1932.27
520.909	1897.69
521.276	1887.3
521.643	1904.92
522.009	1951.7
522.376	1899.5
522.743	1891.59
523.11	1944.92
523.477	1913.06
523.843	1901.76
524.21	1911.02
524.577	1895.43
524.943	1923.23
525.31	1896.33
525.676	1897.69
526.043	1910.12
526.409	1890.46
526.776	1868.99
527.142	1860.63
527.508	1902.44
527.874	1913.28
528.241	1893.17
528.607	1866.73
528.973	1911.7
529.339	1887.97
529.705	1894.98
530.071	1887.75
530.437	1906.05
530.803	1913.96
531.169	1887.07
531.535	1886.62
531.901	1870.57
532.267	1892.04
532.632	1914.19
532.998	1875.09
533.364	1917.12
533.73	1903.79
534.095	1900.18
534.461	1886.62
534.826	1901.76
535.192	1884.13
535.557	1867.41
535.923	1897.92
536.288	1884.81
536.653	1899.72
537.019	1891.81
537.384	1911.7
537.749	1899.05
538.114	1870.8
538.479	1894.75
538.845	1900.63
539.21	1904.02
539.575	1864.92
539.94	1897.01
540.305	1880.29
540.67	1887.97
541.034	1887.52
541.399	1868.76
541.764	1886.62
542.129	1872.83
542.494	1876.45
542.858	1889.55
543.223	1871.93
543.587	1884.58
543.952	1880.52
544.316	1866.05
544.681	1859.27
545.045	1885.04
545.41	1879.61
545.774	1872.83
546.138	1840.29
546.503	1874.19
546.867	1877.35
547.231	1866.5
547.595	1867.18
547.959	1862.21
548.324	1849.78
548.688	1853.62
549.052	1856.79
549.416	1850.69
549.779	1861.76
550.143	1825.83
550.507	1835.09
550.871	1849.78
551.235	1833.74
551.599	1812.95
551.962	1842.32
552.326	1811.59
552.689	1817.92
553.053	1818.82
553.417	1820.18
553.78	1816.11
554.143	1849.1
554.507	1842.32
554.87	1817.01
555.234	1852.27
555.597	1804.59
555.96	1822.21
556.323	1836.45
556.686	1801.2
557.05	1841.42
557.413	1815.66
557.776	1842.32
558.139	1844.81
558.502	1796.45
558.865	1819.05
559.228	1859.73
559.59	1831.48
559.953	1821.31
560.316	1846.39
560.679	1833.29
561.041	1818.37
561.404	1821.53
561.767	1821.53
562.129	1807.98
562.492	1845.04
562.854	1839.61
563.217	1843.23
563.579	1808.65
563.941	1841.19
564.304	1834.64
564.666	1881.87
565.028	1842.55
565.39	1867.18
565.753	1862.21
566.115	1832.16
566.477	1861.08
566.839	1867.41
567.201	1871.25
567.563	1894.53
567.925	1877.58
568.287	1895.88
568.648	1871.25
569.01	1893.62
569.372	1925.49
569.734	1871.7
570.095	1880.74
570.457	1895.66
570.819	1914.64
571.18	1906.96
571.542	1929.33
571.903	1914.86
572.265	1927.29
572.626	1911.93
572.987	1920.06
573.349	1935.43
573.71	1932.49
574.071	1961.19
574.432	1969.55
574.794	1990.34
575.155	1983.56
575.516	1973.39
575.877	1993.05
576.238	1965.03
576.599	2005.26
576.96	1993.96
577.32	1980.85
577.681	2031.7
578.042	2016.11
578.403	2018.59
578.763	2059.27
579.124	2039.38
579.485	2017.46
579.845	2047.74
580.206	2010
580.566	2043.22
580.927	2058.14
581.287	2039.38
581.648	2041.87
582.008	2074.18
582.368	2048.65
582.728	2080.96
583.089	2062.21
583.449	2067.63
583.809	2092.26
584.169	2101.3
584.529	2078.48
584.889	2093.62
585.249	2092.71
585.609	2091.58
585.969	2104.46
586.329	2100.17
586.688	2122.54
587.048	2067.18
587.408	2108.31
587.768	2127.74
588.127	2081.87
588.487	2109.89
588.846	2133.84
589.206	2132.49
589.565	2094.52
589.925	2119.61
590.284	2101.07
590.643	2103.33
591.003	2138.14
591.362	2097.68
591.721	2129.77
592.08	2129.1
592.44	2118.48
592.799	2145.59
593.158	2148.31
593.517	2100.85
593.876	2113.05
594.235	2124.12
594.593	2138.14
594.952	2122.77
595.311	2111.7
595.67	2133.16
596.029	2135.88
596.387	2128.19
596.746	2143.11
597.104	2104.01
597.463	2106.27
597.822	2166.16
598.18	2120.96
598.538	2093.84
598.897	2106.27
599.255	2109.21
599.613	2118.25
599.972	2091.36
600.33	2117.12
600.688	2113.05
601.046	2118.7
601.404	2105.37
601.762	2128.42
602.12	2142.2
602.478	2103.79
602.836	2095.2
603.194	2121.87
603.552	2121.19
603.91	2127.97
604.268	2121.87
604.625	2110.79
604.983	2110.57
605.341	2112.37
605.698	2146.95
606.056	2112.83
606.413	2128.64
606.771	2117.8
607.128	2099.49
607.485	2162.77
607.843	2120.74
608.2	2120.96
608.557	2141.75
608.914	2129.55
609.272	2116.22
609.629	2162.77
609.986	2123.9
610.343	2098.81
610.7	2130.9
611.057	2152.82
611.414	2142.66
611.771	2118.7
612.127	2151.92
612.484	2124.35
612.841	2127.74
613.198	2171.81
613.554	2151.02
613.911	2156.44
614.267	2106.27
614.624	2138.14
614.98	2148.08
615.337	2116.89
615.693	2182.43
616.05	2167.51
616.406	2164.35
616.762	2148.98
617.118	2167.06
617.475	2120.96
617.831	2150.79
618.187	2154.86
618.543	2156.21
618.899	2164.12
619.255	2184.01
619.611	2172.71
619.967	2177.68
620.323	2185.14
620.678	2144.24
621.034	2162.32
621.39	2173.62
621.746	2192.82
622.101	2202.54
622.457	2139.04
622.812	2141.75
623.168	2159.83
623.523	2195.31
623.879	2160.51
624.234	2150.11
624.589	2156.89
624.945	2162.77
625.3	2176.33
625.655	2165.03
626.01	2170.45
626.365	2162.77
626.72	2172.94
627.075	2171.13
627.43	2181.98
627.785	2172.26
628.14	2180.17
628.495	2172.71
628.85	2179.49
629.205	2167.51
629.559	2186.5
629.914	2169.1
630.269	2180.17
630.623	2149.21
630.978	2173.84
631.332	2197.34
631.687	2198.7
632.041	2165.71
632.396	2184.91
632.75	2163.67
633.104	2182.2
633.459	2136.55
633.813	2175.87
634.167	2156.89
634.521	2170.68
634.875	2177.46
635.229	2162.99
635.583	2189.66
635.937	2155.54
636.291	2170.68
636.645	2205.7
636.999	2183.11
637.352	2180.17
637.706	2174.07
638.06	2178.13
638.413	2160.73
638.767	2145.82
639.121	2176.78
639.474	2131.81
639.828	2146.05
640.181	2181.52
640.534	2138.59
640.888	2163.9
641.241	2148.31
641.594	2168.64
641.947	2182.65
642.301	2153.05
642.654	2146.72
643.007	2186.5
643.36	2176.78
643.713	2177
644.066	2184.91
644.419	2154.41
644.771	2134.75
645.124	2090.91
645.477	2139.27
645.83	2100.4
646.182	2113.05
646.535	2152.6
646.888	2155.99
647.24	2108.53
647.593	2136.33
647.945	2153.05
648.298	2133.39
648.65	2114.18
649.002	2133.62
649.355	2158.47
649.707	2149.89
650.059	2148.53
650.411	2173.39
650.763	2179.26
651.115	2195.99
651.467	2181.75
651.819	2187.4
652.171	2221.3
652.523	2229.88
652.875	2230.56
653.227	2237.57
653.578	2221.52
653.93	2235.08
654.282	2185.14
654.633	2221.98
654.985	2221.98
655.337	2238.7
655.688	2257.91
656.039	2198.47
656.391	2223.78
656.742	2225.14
657.094	2215.42
657.445	2255.42
657.796	2229.66
658.147	2212.94
658.498	2250.9
658.849	2270.79
659.2	2227.63
659.551	2225.14
659.902	2213.84
660.253	2255.65
660.604	2224.01
660.955	2239.15
661.306	2253.84
661.656	2203.9
662.007	2238.7
662.358	2259.94
662.708	2260.84
663.059	2273.73
663.409	2248.87
663.76	2261.75
664.11	2259.04
664.461	2282.31
664.811	2279.6
665.161	2272.14
665.511	2266.72
665.862	2292.71
666.212	2278.92
666.562	2281.18
666.912	2240.28
667.262	2247.74
667.612	2249.09
667.962	2284.35
668.312	2248.87
668.662	2248.19
669.011	2264.01
669.361	2245.25
669.711	2234.63
670.06	2271.01
670.41	2254.52
670.76	2266.95
671.109	2276.44
671.459	2245.48
671.808	2239.38
672.157	2215.65
672.507	2208.64
672.856	2205.25
673.205	2207.29
673.554	2217
673.904	2199.83
674.253	2192.15
674.602	2222.88
674.951	2177.23
675.3	2176.33
675.649	2200.96
675.998	2195.08
676.346	2193.05
676.695	2214.74
677.044	2174.07
677.393	2204.35
677.741	2179.26
678.09	2168.42
678.438	2165.71
678.787	2167.74
679.135	2193.5
679.484	2155.99
679.832	2186.5
680.181	2162.09
680.529	2171.58
680.877	2134.52
681.225	2142.2
681.573	2152.82
681.922	2130.9
682.27	2186.72
682.618	2165.93
682.966	2110.34
683.314	2126.84
683.661	2117.35
684.009	2113.96
684.357	2136.78
684.705	2078.48
685.053	2110.79
685.4	2102.88
685.748	2065.82
686.095	2093.39
686.443	2084.35
686.79	2079.83
687.138	2068.53
687.485	2078.48
687.832	2051.81
688.18	2038.7
688.527	2061.53
688.874	2052.49
689.221	2061.75
689.568	2009.1
689.915	2014.3
690.262	2055.2
690.609	2012.04
690.956	2029.21
691.303	1971.81
691.65	2024.92
691.997	2013.17
692.344	1969.78
692.69	1971.13
693.037	1991.93
693.383	1992.38
693.73	1980.85
694.077	1972.49
694.423	1964.81
694.769	1966.61
695.116	1924.13
695.462	1966.61
695.808	1908.31
696.155	1908.99
696.501	1902.21
696.847	1900.18
697.193	1929.1
697.539	1902.66
697.885	1924.36
698.231	1879.16
698.577	1887.52
698.923	1882.78
699.269	1913.51
699.614	1879.16
699.96	1901.31
700.306	1884.36
700.651	1912.83
700.997	1874.41
701.342	1888.2
701.688	1870.8
702.033	1852.27
702.379	1882.78
702.724	1861.31
703.069	1863.57
703.415	1840.97
703.76	1852.04
704.105	1833.51
704.45	1814.75
704.795	1861.98
705.14	1828.77
705.485	1819.05
705.83	1819.05
706.175	1829.44
706.52	1825.6
706.865	1826.51
707.209	1827.18
707.554	1850.01
707.899	1842.1
708.243	1813.62
708.588	1814.98
708.932	1814.53
709.277	1835.54
709.621	1817.01
709.966	1812.49
710.31	1819.27
710.654	1800.74
710.998	1793.29
711.342	1840.29
711.687	1820.4
712.031	1790.35
712.375	1829.67
712.719	1808.65
713.063	1798.26
713.407	1849.1
713.75	1838.48
714.094	1816.79
714.438	1805.04
714.782	1867.63
715.125	1820.18
715.469	1829.44
715.812	1816.11
716.156	1836.22
716.499	1822.44
716.843	1847.07
717.186	1840.74
717.53	1825.83
717.873	1850.01
718.216	1854.98
718.559	1844.81
718.902	1864.24
719.246	1857.92
719.589	1820.4
719.932	1837.13
720.275	1864.92
720.617	1886.39
720.96	1901.08
721.303	1880.74
721.646	1892.49
721.989	1876.45
722.331	1916.22
722.674	1913.06
723.016	1893.4
723.359	1897.46
723.701	1920.29
724.044	1924.81
724.386	1907.18
724.729	1925.03
725.071	1924.81
725.413	1925.26
725.755	1966.84
726.097	1962.55
726.439	1936.11
726.782	1967.29
727.124	1960.29
727.465	1982.43
727.807	2008.42
728.149	1974.3
728.491	2013.39
728.833	2029.89
729.175	1989.44
729.516	2012.94
729.858	2017.46
730.199	2020.62
730.541	2041.87
730.882	2057.23
731.224	2079.15
731.565	2073.96
731.906	2048.65
732.248	2044.13
732.589	2058.82
732.93	2089.55
733.271	2116.89
733.612	2125.93
733.953	2146.05
734.294	2129.32
734.635	2146.95
734.976	2167.97
735.317	2168.19
735.658	2198.93
735.999	2195.54
736.339	2183.78
736.68	2233.95
737.021	2216.55
737.361	2238.02
737.702	2250.9
738.042	2267.62
738.383	2278.47
738.723	2278.25
739.063	2319.6
739.404	2322.76
739.744	2348.3
740.084	2340.62
740.424	2358.7
740.764	2377
741.104	2411.58
741.444	2419.03
741.784	2428.75
742.124	2478.47
742.464	2500.16
742.804	2511.69
743.143	2537.9
743.483	2563.66
743.823	2580.16
744.162	2611.8
744.502	2635.3
744.841	2685.69
745.181	2731.11
745.52	2740.38
745.86	2769.98
746.199	2802.98
746.538	2809.53
746.877	2854.73
747.216	2922.52
747.556	2909.19
747.895	2980.15
748.234	3011.33
748.573	3027.38
748.911	3088.62
749.25	3158.22
749.589	3176.98
749.928	3218.33
750.267	3287.03
750.605	3351.66
750.944	3356.63
751.283	3381.94
751.621	3497.2
751.96	3517.53
752.298	3539.23
752.636	3637.53
752.975	3641.37
753.313	3713.24
753.651	3740.58
753.989	3781.71
754.327	3828.49
754.666	3915.26
755.004	3952.33
755.342	4033.23
755.679	4056.28
756.017	4130.85
756.355	4178.99
756.693	4262.15
757.031	4336.27
757.368	4392.31
757.706	4405.42
758.044	4499.2
758.381	4588.47
758.719	4614.68
759.056	4672.98
759.394	4738.07
759.731	4776.94
760.068	4869.82
760.405	4938.74
760.743	4934.67
761.08	5041.79
761.417	5089.47
761.754	5128.57
762.091	5159.98
762.428	5227.32
762.765	5219.41
763.102	5318.84
763.438	5394.32
763.775	5433.87
764.112	5470.48
764.449	5532.4
764.785	5595.9
765.122	5611.72
765.458	5682.45
765.795	5674.54
766.131	5748.21
766.467	5808.1
766.804	5843.12
767.14	5878.83
767.476	5910.24
767.812	5900.07
768.148	5996.79
768.485	6052.61
768.821	6024.14
769.157	6055.1
769.492	6114.53
769.828	6112.95
770.164	6145.94
770.5	6236.11
770.836	6259.16
771.171	6287.63
771.507	6253.73
771.842	6275.43
772.178	6360.4
772.513	6373.96
772.849	6432.94
773.184	6425.71
773.519	6481.3
773.855	6399.04
774.19	6471.36
774.525	6471.36
774.86	6560.84
775.195	6576.66
775.53	6537.79
775.865	6581.18
776.2	6527.62
776.535	6508.42
776.87	6587.96
777.205	6558.36
777.539	6586.61
777.874	6667.51
778.209	6671.35
778.543	6702.08
778.878	6654.85
779.212	6684.23
779.547	6679.26
779.881	6737.56
780.215	6711.57
780.55	6754.51
780.884	6713.83
781.218	6731.69
781.552	6774.17
781.886	6789.99
782.22	6768.3
782.554	6722.2
782.888	6711.35
783.222	6711.8
783.556	6708.41
783.889	6723.55
784.223	6659.82
784.557	6739.82
784.89	6761.52
785.224	6735.76
785.557	6738.01
785.891	6783.89
786.224	6752.93
786.558	6752.7
786.891	6725.13
787.224	6763.32
787.557	6734.63
787.891	6761.74
788.224	6780.73
788.557	6794.28
788.89	6808.3
789.223	6810.56
789.556	6760.61
789.888	6781.86
790.221	6757
790.554	6758.35
790.887	6771.23
791.219	6736.66
791.552	6763.32
791.884	6704.34
792.217	6718.58
792.549	6729.88
792.882	6704.57
793.214	6729.2
793.546	6670.67
793.879	6731.01
794.211	6742.08
794.543	6715.42
794.875	6696.89
795.207	6774.17
795.539	6710.67
795.871	6730.33
796.203	6639.03
796.535	6740.73
796.867	6650.11
797.198	6663.21
797.53	6658.24
797.862	6643.1
798.193	6734.63
798.525	6657.11
798.856	6623.67
799.188	6578.02
799.519	6616.44
799.85	6605.14
800.182	6580.05
800.513	6617.11
800.844	6556.32
801.175	6617.57
801.506	6603.56
801.837	6615.53
802.168	6534.4
802.499	6529.66
802.83	6527.17
803.161	6557.68
803.491	6592.03
803.822	6559.71
804.153	6540.73
804.483	6495.54
804.814	6446.72
805.145	6492.37
805.475	6460.06
805.805	6493.28
806.136	6503.44
806.466	6521.3
806.796	6433.39
807.126	6427.51
807.457	6442.66
807.787	6461.64
808.117	6403.11
808.447	6438.81
808.777	6449.66
809.107	6361.53
809.436	6376.89
809.766	6408.31
810.096	6420.51
810.426	6339.16
810.755	6382.32
811.085	6343.9
811.414	6408.76
811.744	6310.23
812.073	6388.65
812.403	6332.6
812.732	6324.69
813.061	6342.09
813.39	6296.67
813.719	6320.62
814.049	6365.37
814.378	6291.92
814.707	6345.26
815.036	6327.86
815.365	6294.18
815.693	6257.8
816.022	6248.31
816.351	6232.72
816.68	6209.67
817.008	6214.86
817.337	6177.8
817.665	6207.18
817.994	6223.45
818.322	6181.87
818.651	6192.94
818.979	6181.42
819.307	6264.36
819.636	6100.97
819.964	6144.13
820.292	6168.99
820.62	6199.5
820.948	6169.89
821.276	6193.17
821.604	6156.11
821.932	6194.98
822.259	6228.2
822.587	6261.64
822.915	6201.76
823.243	6164.02
823.57	6155.88
823.898	6188.2
824.225	6176.67
824.553	6199.95
824.88	6180.97
825.207	6221.42
825.535	6221.87
825.862	6225.71
826.189	6202.44
826.516	6252.83
826.843	6300.74
827.17	6254.64
827.497	6216.9
827.824	6316.33
828.151	6304.58
828.478	6335.99
828.805	6345.26
829.131	6290.34
829.458	6301.64
829.785	6257.35
830.111	6302.77
830.438	6281.53
830.764	6310.91
831.09	6329.89
831.417	6286.5
831.743	6374.86
832.069	6303.68
832.395	6327.18
832.722	6260.51
833.048	6297.35
833.374	6288.31
833.7	6295.31
834.026	6314.07
834.351	6338.25
834.677	6299.38
835.003	6299.38
835.329	6276.78
835.654	6255.99
835.98	6230.01
836.306	6341.87
836.631	6259.84
836.956	6279.04
837.282	6234.3
837.607	6274.07
837.932	6255.09
838.258	6268.87
838.583	6243.11
838.908	6235.2
839.233	6236.79
839.558	6192.49
839.883	6177.58
840.208	6209.67
840.533	6187.07
840.858	6185.71
841.182	6154.08
841.507	6202.21
841.832	6178.03
842.156	6171.93
842.481	6157.24
842.805	6138.26
843.13	6156.56
843.454	6154.08
843.778	6116.34
844.103	6128.99
844.427	6131.03
844.751	6082.89
845.075	6018.49
845.399	6053.51
845.723	6047.19
846.047	6033.85
846.371	5966.51
846.695	5984.14
847.019	5889.45
847.343	5935.32
847.666	5930.8
847.99	5858.94
848.313	5872.05
848.637	5866.4
848.96	5851.71
849.284	5823.01
849.607	5788.66
849.931	5790.24
850.254	5764.93
850.577	5638.38
850.9	5716.35
851.223	5693.07
851.546	5624.82
851.869	5657.37
852.192	5711.83
852.515	5615.11
852.838	5590.93
853.161	5555.22
853.483	5605.62
853.806	5510.25
854.129	5572.17
854.451	5526.75
854.774	5506.41
855.096	5426.19
855.419	5450.37
855.741	5427.54
856.063	5420.54
856.385	5398.62
856.708	5396.58
857.03	5368.11
857.352	5362.46
857.674	5376.92
857.996	5348.45
858.318	5327.88
858.64	5351.38
858.961	5337.15
859.283	5308.67
859.605	5308.67
859.926	5305.74
860.248	5300.54
860.57	5256.47
860.891	5271.61
861.212	5228.68
861.534	5270.26
861.855	5206.53
862.176	5184.16
862.498	5175.12
862.819	5207.43
863.14	5212.86
863.461	5208.79
863.782	5141.9
864.103	5191.84
864.424	5122.24
864.745	5147.77
865.065	5152.29
865.386	5099.41
865.707	5117.94
866.027	5106.42
866.348	5066.42
866.668	5139.64
866.989	5064.16
867.309	4992.52
867.63	5084.95
867.95	5067.32
868.27	5001.56
868.59	5047.44
868.91	5045.86
869.23	5062.8
869.55	4998.63
869.87	5041.79
870.19	5036.59
870.51	5029.81
870.83	5012.86
871.15	4938.06
871.469	4986.42
871.789	4994.78
872.109	4975.58
872.428	4903.71
872.748	4973.54
873.067	4934.45
873.386	4928.8
873.706	4894.9
874.025	4946.65
874.344	4910.04
874.663	4876.82
874.982	4892.64
875.301	4927.89
875.62	4947.78
875.939	4848.57
876.258	4885.18
876.577	4817.16
876.896	4831.62
877.214	4851.96
877.533	4844.28
877.852	4828.01
878.17	4841.12
878.489	4813.55
878.807	4795.92
879.125	4855.58
879.444	4794.56
879.762	4804.96
880.08	4800.89
880.398	4728.8
880.716	4793.66
881.034	4773.32
881.352	4783.49
881.67	4757.5
881.988	4789.82
882.306	4754.56
882.624	4722.25
882.941	4720.21
883.259	4700.33
883.577	4685.64
883.894	4699.42
884.212	4701.23
884.529	4627.34
884.846	4607.9
885.164	4619.2
885.481	4607
885.798	4614.23
886.115	4588.47
886.432	4588.47
886.75	4585.3
887.067	4551.86
887.383	4524.06
887.7	4563.16
888.017	4540.11
888.334	4520.22
888.651	4514.34
888.967	4463.95
889.284	4454.69
889.6	4487.23
889.917	4461.46
890.233	4456.94
890.55	4415.36
890.866	4433.89
891.182	4419.43
891.498	4415.82
891.815	4380.34
892.131	4348.25
892.447	4388.25
892.763	4326.33
893.079	4369.26
893.395	4339.43
893.71	4327.23
894.026	4322.26
894.342	4325.65
894.657	4292.88
894.973	4291.98
895.289	4288.14
895.604	4273.45
895.92	4229.83
896.235	4219.21
896.55	4194.8
896.865	4203.17
897.181	4185.31
897.496	4143.73
897.811	4158.65
898.126	4112.55
898.441	4092.66
898.756	4107.35
899.071	4108.71
899.386	4102.15
899.7	4038.65
900.015	4019.67
900.33	4026.67
900.644	4017.63
900.959	4029.39
901.273	3987.58
901.588	3959.33
901.902	3906.9
902.216	3933.12
902.531	3916.85
902.845	3948.26
903.159	3880.01
903.473	3886.11
903.787	3900.58
904.101	3900.58
904.415	3811.99
904.729	3844.31
905.042	3829.62
905.356	3800.69
905.67	3813.12
905.984	3819.9
906.297	3778.54
906.611	3695.84
906.924	3711.65
907.237	3701.71
907.551	3715.5
907.864	3684.31
908.177	3692.45
908.491	3661.94
908.804	3653.35
909.117	3641.37
909.43	3606.35
909.743	3668.49
910.056	3598.44
910.368	3553.47
910.681	3589.4
910.994	3541.04
911.307	3550.75
911.619	3528.83
911.932	3528.16
912.244	3456.29
912.557	3468.95
912.869	3473.69
913.181	3479.8
913.494	3436.63
913.806	3422.62
914.118	3406.13
914.43	3369.74
914.742	3400.48
915.054	3368.39
915.366	3373.81
915.678	3357.09
915.99	3342.4
916.302	3322.96
916.613	3294.26
916.925	3271.44
917.236	3295.39
917.548	3256.07
917.859	3267.82
918.171	3253.81
918.482	3233.47
918.794	3204.32
919.105	3225.79
919.416	3213.81
919.727	3241.38
920.038	3179.69
920.349	3165.45
920.66	3167.04
920.971	3174.27
921.282	3093.36
921.593	3128.17
921.903	3089.52
922.214	3086.13
922.525	3115.06
922.835	3084.55
923.146	3076.87
923.456	3081.16
923.767	3029.19
924.077	3051.33
924.387	3042.07
924.697	2995.29
925.008	2994.84
925.318	2945.12
925.628	2971.56
925.938	2925.23
926.248	2964.33
926.558	2939.7
926.867	2916.65
927.177	2923.88
927.487	2936.76
927.796	2870.55
928.106	2906.48
928.416	2872.35
928.725	2834.16
929.034	2856.99
929.344	2858.79
929.653	2825.35
929.962	2806.59
930.271	2794.16
930.581	2793.49
930.89	2788.06
931.199	2777.67
931.508	2749.87
931.817	2785.58
932.125	2753.71
932.434	2758.23
932.743	2733.6
933.051	2714.39
933.36	2711.68
933.669	2679.82
933.977	2684.56
934.286	2670.1
934.594	2680.27
934.902	2668.74
935.21	2603.21
935.519	2643.89
935.827	2637.56
936.135	2626.03
936.443	2586.03
936.751	2585.58
937.059	2569.99
937.367	2581.06
937.674	2553.27
937.982	2566.15
938.29	2566.15
938.597	2539.48
938.905	2513.95
939.213	2489.31
939.52	2504
939.827	2503.55
940.135	2503.1
940.442	2452.93
940.749	2448.86
941.056	2462.87
941.363	2468.75
941.67	2433.95
941.977	2449.77
942.284	2415.64
942.591	2394.63
942.898	2406.15
943.205	2419.94
943.511	2361.63
943.818	2372.03
944.125	2332.26
944.431	2352.82
944.738	2356.44
945.044	2345.81
945.35	2327.51
945.657	2336.1
945.963	2310.56
946.269	2258.81
946.575	2268.98
946.881	2243.9
947.187	2277.57
947.493	2267.17
947.799	2246.83
948.105	2215.65
948.41	2235.99
948.716	2260.39
949.022	2208.19
949.327	2235.08
949.633	2225.82
949.938	2225.82
950.244	2212.48
950.549	2191.92
950.854	2172.71
951.16	2148.53
951.465	2141.75
951.77	2131.58
952.075	2138.36
952.38	2122.54
952.685	2129.32
952.99	2113.5
953.294	2111.92
953.599	2078.02
953.904	2081.64
954.209	2074.63
954.513	2066.73
954.818	2055.2
955.122	2036.67
955.426	2031.25
955.731	2016.56
956.035	2053.84
956.339	2007.52
956.643	2038.03
956.948	2011.36
957.252	1972.49
957.556	1997.57
957.86	1955.54
958.163	1965.71
958.467	1962.1
958.771	1984.47
959.075	1962.32
959.378	1939.5
959.682	1939.5
959.985	1928.88
960.289	1914.86
960.592	1909.44
960.896	1897.69
961.199	1895.2
961.502	1898.14
961.805	1881.65
962.108	1871.48
962.411	1859.27
962.714	1887.07
963.017	1847.97
963.32	1868.31
963.623	1844.13
963.926	1827.18
964.228	1823.12
964.531	1804.13
964.833	1805.26
965.136	1787.41
965.438	1777.24
965.741	1797.35
966.043	1821.53
966.345	1748.09
966.648	1771.82
966.95	1767.07
967.252	1721.88
967.554	1760.97
967.856	1754.87
968.158	1732.95
968.46	1736.79
968.761	1741.31
969.063	1728.88
969.365	1691.37
969.666	1699.5
969.968	1682.33
970.269	1701.76
970.571	1690.92
970.872	1663.8
971.174	1675.78
971.475	1688.43
971.776	1668.77
972.077	1659.96
972.378	1645.04
972.679	1666.28
972.98	1638.26
973.281	1642.78
973.582	1641.88
973.883	1619.05
974.183	1597.81
974.484	1624.03
974.785	1579.05
975.085	1584.03
975.386	1593.74
975.686	1600.97
975.986	1565.5
976.287	1540.64
976.587	1539.06
976.887	1552.16
977.187	1548.09
977.487	1554.87
977.787	1517.59
978.087	1506.74
978.387	1533.18
978.687	1501.09
978.987	1489.34
979.286	1497.25
979.586	1475.78
979.885	1511.49
980.185	1482.56
980.484	1490.92
980.784	1464.71
981.083	1447.98
981.382	1442.11
981.682	1476.01
981.981	1454.09
982.28	1422.22
982.579	1448.21
982.878	1471.03
983.177	1432.39
983.475	1438.04
983.774	1409.12
984.073	1403.47
984.372	1402.34
984.67	1411.38
984.969	1394.88
985.267	1372.05
985.566	1413.18
985.864	1414.99
986.162	1368.66
986.461	1390.81
986.759	1375.22
987.057	1361.66
987.355	1357.14
987.653	1340.87
987.951	1343.35
988.249	1338.38
988.547	1315.56
988.844	1330.25
989.142	1324.6
989.44	1316.46
989.737	1316.91
990.035	1297.48
990.332	1329.34
990.63	1290.93
990.927	1311.72
991.224	1277.37
991.521	1274.2
991.819	1285.5
992.116	1244.83
992.413	1294.32
992.71	1258.16
993.006	1261.77
993.303	1235.79
993.6	1239.18
993.897	1244.6
994.193	1229.46
994.49	1231.49
994.787	1215.67
995.083	1208.67
995.379	1192.4
995.676	1201.66
995.972	1187.43
996.268	1220.65
996.565	1202.34
996.861	1175.45
997.157	1192.62
997.453	1190.36
997.749	1176.58
998.044	1158.5
998.34	1167.09
998.636	1159.86
998.932	1168.22
999.227	1137.48
999.523	1138.39
999.818	1142.91
1000.114	1120.99
1000.409	1128.22
1000.704	1110.14
1001	1128.22
1001.295	1107.88
1001.59	1116.02
1001.885	1108.56
1002.18	1086.19
1002.475	1100.2
1002.77	1092.29
1003.065	1084.15
1003.359	1077.82
1003.654	1049.58
1003.949	1067.88
1004.243	1066.98
1004.538	1036.7
1004.832	1050.25
1005.127	1072.18
1005.421	1049.35
1005.715	1039.86
1006.009	1036.24
1006.304	1042.8
1006.598	1003.7
1006.892	1009.58
1007.186	1024.49
1007.48	1005.74
1007.773	997.15
1008.067	1009.8
1008.361	967.09
1008.655	976.81
1008.948	974.55
1009.242	989.47
1009.535	991.95
1009.829	982.91
1010.122	962.57
1010.415	940.2
1010.708	941.56
1011.001	953.08
1011.295	966.87
1011.588	926.42
1011.881	939.3
1012.173	937.49
1012.466	923.7
1012.759	904.72
1013.052	922.57
1013.344	918.96
1013.637	899.3
1013.93	887.55
1014.222	898.85
1014.514	880.32
1014.807	907.89
1015.099	881.9
1015.391	888.68
1015.683	882.12
1015.976	861.79
1016.268	883.93
1016.56	864.5
1016.851	863.59
1017.143	858.62
1017.435	838.96
1017.727	859.75
1018.018	834.67
1018.31	839.64
1018.602	849.36
1018.893	841.22
1019.185	821.11
1019.476	841.22
1019.767	804.39
1020.058	826.76
1020.35	807.55
1020.641	800.32
1020.932	798.28
1021.223	796.93
1021.514	784.95
1021.804	804.39
1022.095	785.63
1022.386	789.02
1022.677	778.62
1022.967	774.78
1023.258	756.7
1023.548	738.62
1023.839	763.71
1024.129	765.06
1024.419	779.75
1024.709	750.15
1025	735.46
1025.29	738.85
1025.58	750.83
1025.87	754.44
1026.16	756.48
1026.449	716.25
1026.739	718.06
1027.029	721
1027.319	707.89
1027.608	706.76
1027.898	706.99
1028.187	711.28
1028.477	716.93
1028.766	700.66
1029.055	688
1029.344	702.92
1029.634	674.67
1029.923	698.17
1030.212	703.15
1030.501	699.08
1030.79	677.16
1031.078	674.45
1031.367	676.48
1031.656	671.96
1031.945	672.41
1032.233	666.31
1032.522	655.46
1032.81	666.99
1033.099	628.12
1033.387	651.62
1033.675	646.65
1033.963	643.26
1034.251	638.74
1034.54	647.1
1034.828	643.94
1035.116	637.38
1035.403	631.28
1035.691	628.35
1035.979	622.24
1036.267	611.4
1036.554	602.81
1036.842	595.35
1037.129	631.73
1037.417	624.5
1037.704	608.91
1037.992	610.49
1038.279	578.85
1038.566	572.08
1038.853	572.08
1039.14	572.08
