Data from blue_clamp_base_FLMS001491_00061.txt Node
Date: Wed Feb 08 15:16:21 GMT 2017
User: dcchb
Spectrometer: FLMS00149
Trigger mode: 0
Integration Time (sec): 2.000000E-2
Scans to average: 10
Electric dark correction enabled: true
Nonlinearity correction enabled: false
Boxcar width: 0
XAxis mode: Wavelengths
Number of Pixels in Spectrum: 2048
>>>>>Begin Spectral Data<<<<<
341.393	-7.42
341.776	-7.42
342.16	-7.42
342.543	-45.61
342.927	-54.19
343.31	-67.3
343.693	-96.45
344.077	-72.72
344.46	-47.41
344.843	-55.32
345.226	-27.3
345.61	-18.71
345.993	-6.51
346.376	-9.45
346.759	-0.41
347.142	27.84
347.525	57.89
347.908	61.74
348.291	77.1
348.674	72.81
349.057	104.22
349.44	125.01
349.823	162.52
350.206	154.61
350.588	165.91
350.971	198.91
351.354	214.73
351.737	228.06
352.119	245.91
352.502	272.8
352.884	255.63
353.267	252.01
353.65	262.63
354.032	291.56
354.414	292.69
354.797	297.89
355.179	324.55
355.562	306.7
355.944	315.74
356.326	327.72
356.709	341.05
357.091	338.79
357.473	333.37
357.855	336.98
358.238	334.5
358.62	331.33
359.002	325.91
359.384	322.29
359.766	341.95
360.148	329.53
360.53	327.04
360.912	329.98
361.294	351.45
361.676	334.5
362.057	310.09
362.439	338.56
362.821	330.2
363.203	309.41
363.584	307.15
363.966	310.77
364.348	293.37
364.729	286.81
365.111	329.3
365.493	315.74
365.874	324.1
366.256	295.85
366.637	302.86
367.019	280.71
367.4	295.63
367.781	303.09
368.163	312.35
368.544	294.95
368.925	309.19
369.306	332.24
369.688	312.35
370.069	315.06
370.45	299.92
370.831	315.06
371.212	287.49
371.593	302.41
371.974	301.5
372.355	314.38
372.736	295.18
373.117	300.37
373.498	308.96
373.879	308.73
374.26	311.9
374.641	302.18
375.021	298.79
375.402	312.12
375.783	334.04
376.163	311.9
376.544	334.72
376.925	307.38
377.305	302.41
377.686	324.78
378.066	323.65
378.447	311.22
378.827	301.5
379.208	336.53
379.588	316.19
379.968	324.55
380.349	331.56
380.729	318.68
381.109	321.16
381.489	320.49
381.87	341.5
382.25	310.77
382.63	327.72
383.01	322.52
383.39	329.75
383.77	304.67
384.15	324.55
384.53	331.56
384.91	336.98
385.29	329.3
385.67	332.01
386.049	341.05
386.429	345.57
386.809	358
387.189	355.29
387.568	352.12
387.948	366.81
388.328	364.1
388.707	347.83
389.087	343.08
389.466	373.37
389.846	349.41
390.225	368.85
390.605	359.58
390.984	388.51
391.363	382.18
391.743	384.44
392.122	382.63
392.501	370.2
392.881	385.79
393.26	383.31
393.639	384.67
394.018	385.79
394.397	379.92
394.776	396.64
395.155	395.96
395.534	411.33
395.913	396.87
396.292	386.02
396.671	406.36
397.05	430.77
397.429	407.26
397.808	400.48
398.186	440.26
398.565	427.83
398.944	435.29
399.323	421.73
399.701	447.04
400.08	439.13
400.458	443.19
400.837	419.92
401.215	449.52
401.594	454.72
401.972	489.75
402.351	440.03
402.729	451.56
403.107	442.52
403.486	456.98
403.864	466.02
404.242	493.14
404.62	506.92
404.999	490.2
405.377	492.91
405.755	479.8
406.133	499.69
406.511	517.32
406.889	519.8
407.267	526.81
407.645	494.27
408.023	536.98
408.401	525.23
408.779	553.25
409.156	552.57
409.534	533.59
409.912	552.34
410.29	561.38
410.667	567.49
411.045	592.8
411.422	584.89
411.8	581.72
412.178	590.08
412.555	587.82
412.933	591.67
413.31	612.91
413.687	581.27
414.065	631.21
414.442	630.31
414.819	630.31
415.197	613.36
415.574	632.12
415.951	675.05
416.328	642.51
416.705	663.08
417.082	663.08
417.46	650.42
417.837	681.15
418.214	687.26
418.591	684.32
418.967	696.75
419.344	680.25
419.721	702.17
420.098	722.74
420.475	705.79
420.852	724.09
421.228	733.36
421.605	725.45
421.982	714.15
422.358	734.03
422.735	741.27
423.111	760.25
423.488	779.23
423.864	774.94
424.241	787.14
424.617	790.53
424.994	792.79
425.37	769.74
425.746	809.06
426.123	795.73
426.499	826.24
426.875	824.2
427.251	823.07
427.627	845.22
428.003	863.75
428.379	857.87
428.756	882.28
429.132	889.06
429.507	897.65
429.883	906.23
430.259	920.02
430.635	937.87
431.011	932.22
431.387	952.56
431.763	958.44
432.138	958.21
432.514	972.67
432.89	985.1
433.265	1016.06
433.641	1011.09
434.016	1043.4
434.392	1056.74
434.767	1054.7
435.143	1044.08
435.518	1081.6
435.894	1095.83
436.269	1124.08
436.644	1127.92
437.02	1138.77
437.395	1165.44
437.77	1156.4
438.145	1171.76
438.52	1164.31
438.895	1181.25
439.271	1204.08
439.646	1234.59
440.021	1219.9
440.395	1242.5
440.77	1261.48
441.145	1258.09
441.52	1242.27
441.895	1283.4
442.27	1301.93
442.645	1275.72
443.019	1308.48
443.394	1322.04
443.769	1329.5
444.143	1331.76
444.518	1356.62
444.892	1327.92
445.267	1355.71
445.641	1382.6
446.016	1357.07
446.39	1376.05
446.764	1367.24
447.139	1426.22
447.513	1446.78
447.887	1432.77
448.262	1445.88
448.636	1449.72
449.01	1489.72
449.384	1499.21
449.758	1520.91
450.132	1516.39
450.506	1526.1
450.88	1528.36
451.254	1521.36
451.628	1541.24
452.002	1555.03
452.376	1582.37
452.75	1583.28
453.123	1590.51
453.497	1646.78
453.871	1649.72
454.244	1639.32
454.618	1691.98
454.992	1697.85
455.365	1696.95
455.739	1734.23
456.112	1750.73
456.486	1748.7
456.859	1784.4
457.232	1816.27
457.606	1802.71
457.979	1802.03
458.352	1890.39
458.725	1867.56
459.099	1890.61
459.472	1917.05
459.845	1944.4
460.218	1980.33
460.591	1967.22
460.964	1970.84
461.337	1988.24
461.71	2040.67
462.083	2076.15
462.456	2057.16
462.829	2066.2
463.201	2112.53
463.574	2106.65
463.947	2116.6
464.32	2177.39
464.692	2173.54
465.065	2210.83
465.438	2233.43
465.81	2251.73
466.183	2280.89
466.555	2328.79
466.928	2323.15
467.3	2326.99
467.672	2385.29
468.045	2399.75
468.417	2413.99
468.789	2434.55
469.161	2493.08
469.534	2505.29
469.906	2521.56
470.278	2570.6
470.65	2621.44
471.022	2644.49
471.394	2677.94
471.766	2649.46
472.138	2697.37
472.51	2772.4
472.882	2781.66
473.253	2807.2
473.625	2849.46
473.997	2875.67
474.369	2887.88
474.74	2919.06
475.112	2983.69
475.484	2992.73
475.855	3051.04
476.227	3107.76
476.598	3131.71
476.97	3148.66
477.341	3230.24
477.713	3274.31
478.084	3306.17
478.455	3317.92
478.827	3403.12
479.198	3468.2
479.569	3456.67
479.94	3536.9
480.311	3567.18
480.682	3603.34
481.053	3671.36
481.424	3728.08
481.795	3712.94
482.166	3766.95
482.537	3816.44
482.908	3913.84
483.279	3917.45
483.65	3960.84
484.021	4001.97
484.391	4030.22
484.762	4091.23
485.133	4126.26
485.503	4146.6
485.874	4183.89
486.244	4203.32
486.615	4289.42
486.985	4343.66
487.356	4349.31
487.726	4423.2
488.097	4448.06
488.467	4497.78
488.837	4567.15
489.207	4592.92
489.578	4601.28
489.948	4642.18
490.318	4668.39
490.688	4749.75
491.058	4764.66
491.428	4836.3
491.798	4836.07
492.168	4837.2
492.538	4901.16
492.908	4875.39
493.278	4947.93
493.648	4915.17
494.017	5013.02
494.387	5049.4
494.757	5049.18
495.126	5085.56
495.496	5055.05
495.866	5126.91
496.235	5182.05
496.605	5160.58
496.974	5212.56
497.344	5235.16
497.713	5294.14
498.082	5185.22
498.452	5276.51
498.821	5264.54
499.19	5289.17
499.559	5392.89
499.928	5404.42
500.298	5321.48
500.667	5400.58
501.036	5397.64
501.405	5386.79
501.774	5436.06
502.143	5461.59
502.512	5432.67
502.88	5508.15
503.249	5476.06
503.618	5547.02
503.987	5539.11
504.356	5560.57
504.724	5547.02
505.093	5575.49
505.462	5541.59
505.83	5622.49
506.199	5576.39
506.567	5644.19
506.936	5626.56
507.304	5676.5
507.672	5701.59
508.041	5703.4
508.409	5721.93
508.777	5784.07
509.145	5769.16
509.514	5817.74
509.882	5851.64
510.25	5829.49
510.618	5847.12
510.986	5831.75
511.354	5920.11
511.722	5909.27
512.09	5940.68
512.458	5920.56
512.826	6001.92
513.193	5986.78
513.561	6010.05
513.929	6064.74
514.297	6045.31
514.664	6082.37
515.032	6063.84
515.4	6083.95
515.767	6088.24
516.135	6114.01
516.502	6068.13
516.869	6182.03
517.237	6227.22
517.604	6141.12
517.972	6211.86
518.339	6268.35
518.706	6221.57
519.073	6246.88
519.44	6261.12
519.808	6270.61
520.175	6233.78
520.542	6343.6
520.909	6328.24
521.276	6329.59
521.643	6396.48
522.009	6409.14
522.376	6409.37
522.743	6463.38
523.11	6474.22
523.477	6517.39
523.843	6506.76
524.21	6669.47
524.577	6617.95
524.943	6647.1
525.31	6632.64
525.676	6705.85
526.043	6746.31
526.409	6755.8
526.776	6801.45
527.142	6795.34
527.508	6859.3
527.874	6808
528.241	6914.44
528.607	6839.64
528.973	6926.41
529.339	6933.42
529.705	7019.29
530.071	7059.07
530.437	7096.8
530.803	7053.19
531.169	7102.45
531.535	7116.01
531.901	7125.96
532.267	7147.65
532.632	7158.72
532.998	7160.08
533.364	7196.69
533.73	7223.36
534.095	7238.72
534.461	7324.14
534.826	7267.65
535.192	7378.38
535.557	7395.33
535.923	7313.75
536.288	7358.49
536.653	7389.68
537.019	7412.05
537.384	7440.07
537.749	7433.07
538.114	7474.2
538.479	7461.54
538.845	7434.65
539.21	7518.26
539.575	7495.89
539.94	7545.38
540.305	7584.25
540.67	7577.24
541.034	7576.34
541.399	7584.93
541.764	7616.79
542.129	7632.61
542.494	7636.23
542.858	7620.86
543.223	7679.61
543.587	7671.71
543.952	7708.99
544.316	7680.52
544.681	7700.18
545.045	7757.13
545.41	7733.17
545.774	7813.85
546.138	7785.15
546.503	7842.1
546.867	7803.23
547.231	7891.81
547.595	7906.05
547.959	7894.75
548.324	7878.48
548.688	7881.64
549.052	7899.5
549.416	7902.66
549.779	7927.97
550.143	7875.54
550.507	7965.93
550.871	7976.1
551.235	7966.61
551.599	8017.01
551.962	8028.08
552.326	8057.91
552.689	8097.68
553.053	8118.25
553.417	8098.36
553.78	8155.31
554.143	8095.87
554.507	8219.26
554.87	8168.42
555.234	8290.67
555.597	8150.34
555.96	8199.15
556.323	8247.51
556.686	8257.23
557.05	8255.19
557.413	8316.66
557.776	8292.71
558.139	8349.43
558.502	8354.4
558.865	8364.57
559.228	8315.76
559.59	8372.48
559.953	8442.53
560.316	8461.51
560.679	8471.23
561.041	8507.84
561.404	8493.38
561.767	8543.09
562.129	8501.06
562.492	8666.93
562.854	8555.98
563.217	8614.28
563.579	8685.92
563.941	8711.45
564.304	8661.96
564.666	8653.83
565.028	8774.73
565.39	8767.95
565.753	8810.66
566.115	8792.58
566.477	8834.16
566.839	8862.41
567.201	8973.37
567.563	8859.7
567.925	8883.88
568.287	8963.87
568.648	8920.03
569.01	9006.81
569.372	9055.62
569.734	9053.59
570.095	9075.74
570.457	9101.5
570.819	9124.32
571.18	9140.14
571.542	9105.57
571.903	9170.2
572.265	9199.35
572.626	9271.89
572.987	9317.09
573.349	9269.86
573.71	9339.68
574.071	9286.13
574.432	9316.41
574.794	9434.37
575.155	9396.63
575.516	9386.91
575.877	9449.74
576.238	9519.11
576.599	9488.61
576.96	9570.64
577.32	9554.37
577.681	9570.41
578.042	9606.57
578.403	9564.08
578.763	9612.9
579.124	9622.39
579.485	9687.25
579.845	9662.61
580.206	9731.09
580.566	9687.25
580.927	9746.9
581.287	9740.13
581.648	9707.58
582.008	9837.07
582.368	9750.07
582.728	9826.68
583.089	9771.99
583.449	9815.15
583.809	9782.61
584.169	9776.73
584.529	9789.39
584.889	9831.65
585.249	9820.58
585.609	9855.38
585.969	9864.19
586.329	9775.6
586.688	9873.46
587.048	9877.07
587.408	9844.3
587.768	9856.73
588.127	9900.8
588.487	9821.03
588.846	9919.33
589.206	9845.43
589.565	9872.55
589.925	9934.7
590.284	9930.85
590.643	9917.52
591.003	9917.3
591.362	9960.68
591.721	9889.05
592.08	9959.55
592.44	9943.06
592.799	9969.05
593.158	9940.35
593.517	9969.72
593.876	9999.1
594.235	9986.22
594.593	10019.89
594.952	9965.88
595.311	9948.48
595.67	9985.09
596.029	10009.72
596.387	10140.79
596.746	10028.71
597.104	10059.89
597.463	9995.49
597.822	10132.88
598.18	10038.42
598.538	10045.88
598.897	10065.31
599.255	9986.45
599.613	10124.75
599.972	10070.74
600.33	10123.84
600.688	10108.48
601.046	10087.46
601.404	10099.44
601.762	10162.49
602.12	10156.61
602.478	10114.8
602.836	10126.78
603.194	10104.64
603.552	10127.91
603.91	10079.55
604.268	10162.94
604.625	10149.38
604.983	10170.85
605.341	10145.31
605.698	10140.34
606.056	10140.79
606.413	10154.8
606.771	10291.75
607.128	10228.25
607.485	10190.51
607.843	10228.25
608.2	10252.65
608.557	10283.39
608.914	10280.22
609.272	10282.48
609.629	10322.48
609.986	10294.23
610.343	10260.34
610.7	10298.75
611.057	10329.49
611.414	10359.32
611.771	10347.34
612.127	10348.47
612.484	10347.79
612.841	10314.57
613.198	10335.36
613.554	10350.28
613.911	10427.79
614.267	10414.46
614.624	10427.11
614.98	10391.18
615.337	10451.07
615.693	10446.32
616.05	10437.96
616.406	10490.61
616.762	10505.75
617.118	10459.2
617.475	10467.11
617.831	10524.29
618.187	10499.43
618.543	10437.28
618.899	10542.36
619.255	10536.04
619.611	10511.4
619.967	10604.28
620.323	10618.97
620.678	10579.65
621.034	10550.5
621.39	10570.16
621.746	10534
622.101	10714.56
622.457	10615.58
622.812	10661.68
623.168	10672.53
623.523	10656.94
623.879	10702.13
624.234	10722.92
624.589	10721.57
624.945	10698.29
625.3	10665.75
625.655	10757.95
626.01	10724.96
626.365	10771.51
626.72	10679.76
627.075	10728.57
627.43	10741.68
627.785	10730.83
628.14	10726.09
628.495	10785.97
628.85	10818.51
629.205	10652.64
629.559	10810.38
629.914	10702.36
630.269	10785.75
630.623	10719.76
630.978	10741.23
631.332	10816.93
631.687	10831.85
632.041	10789.82
632.396	10770.61
632.75	10761.34
633.104	10820.1
633.459	10802.92
633.813	10766.54
634.167	10810.38
634.521	10734
634.875	10813.09
635.229	10834.33
635.583	10781.91
635.937	10813.77
636.291	10815.8
636.645	10852.41
636.999	10890.6
637.352	10918.4
637.706	10851.51
638.06	10928.57
638.413	10874.33
638.767	10852.41
639.121	10862.36
639.474	10895.8
639.828	10875.69
640.181	10858.51
640.534	10906.65
640.888	10936.48
641.241	10891.06
641.594	10955.69
641.947	10945.29
642.301	10914.56
642.654	10967.66
643.007	10909.81
643.36	10969.02
643.713	10975.57
644.066	10984.39
644.419	10957.72
644.771	10921.11
645.124	10864.62
645.477	10929.25
645.83	10722.7
646.182	10805.18
646.535	10754.79
646.888	10745.97
647.24	10702.59
647.593	10801.11
647.945	10756.37
648.298	10680.67
648.65	10685.86
649.002	10720.44
649.355	10806.99
649.707	10788.01
650.059	10906.65
650.411	10985.06
650.763	11008.11
651.115	11095.8
651.467	11100.32
651.819	11092.86
652.171	11039.53
652.523	11106.64
652.875	11177.83
653.227	11119.52
653.578	11138.05
653.93	11181.22
654.282	11173.31
654.633	11115.23
654.985	11186.87
655.337	11186.64
655.688	11215.34
656.039	11262.57
656.391	11181.44
656.742	11178.96
657.094	11275.68
657.445	11213.53
657.796	11260.99
658.147	11200.43
658.498	11270.93
658.849	11275.23
659.2	11225.74
659.551	11244.49
659.902	11281.1
660.253	11322.46
660.604	11297.6
660.955	11275.9
661.306	11280.65
661.656	11236.36
662.007	11290.37
662.358	11302.8
662.708	11283.36
663.059	11245.85
663.409	11207.88
663.76	11300.99
664.11	11244.04
664.461	11306.41
664.811	11350.48
665.161	11338.28
665.511	11218.73
665.862	11336.24
666.212	11311.16
666.562	11367.88
666.912	11280.88
667.262	11264.83
667.612	11331.5
667.962	11282.23
668.312	11252.18
668.662	11283.81
669.011	11254.89
669.361	11223.25
669.711	11238.39
670.06	11150.71
670.41	11136.7
670.76	11172.63
671.109	11236.58
671.459	11176.47
671.808	11046.76
672.157	11112.74
672.507	11089.02
672.856	11090.37
673.205	11102.35
673.554	11094.44
673.904	11020.54
674.253	11121.33
674.602	11102.58
674.951	10900.09
675.3	10797.95
675.649	10954.1
675.998	10966.76
676.346	10985.97
676.695	10958.4
677.044	10821.68
677.393	10873.88
677.741	10941.22
678.09	10845.86
678.438	10824.62
678.787	10871.85
679.135	10843.83
679.484	10748.23
679.832	10729.93
680.181	10694.45
680.529	10706.2
680.877	10678.41
681.225	10691.51
681.573	10773.54
681.922	10565.87
682.27	10611.06
682.618	10566.54
682.966	10555.7
683.314	10606.32
683.661	10464.4
684.009	10428.92
684.357	10458.07
684.705	10399.09
685.053	10433.89
685.4	10455.59
685.748	10304.4
686.095	10305.53
686.443	10333.33
686.79	10251.98
687.138	10331.75
687.485	10271.18
687.832	10274.12
688.18	10283.39
688.527	10224.63
688.874	10172.43
689.221	10154.13
689.568	10188.02
689.915	10129.27
690.262	10116.61
690.609	10158.42
690.956	10064.41
691.303	10108.93
691.65	10019.67
691.997	10061.47
692.344	10012.89
692.69	9929.5
693.037	10038.2
693.383	9988.03
693.73	10001.81
694.077	9942.83
694.423	9926.34
694.769	9907.8
695.116	9839.78
695.462	9918.2
695.808	9903.28
696.155	9907.35
696.501	9852.21
696.847	9799.78
697.193	9772.67
697.539	9846.11
697.885	9781.25
698.231	9712.78
698.577	9723.63
698.923	9753.68
699.269	9688.6
699.614	9705.1
699.96	9730.86
700.306	9741.26
700.651	9626
700.997	9584.65
701.342	9640.69
701.688	9634.82
702.033	9589.85
702.379	9590.52
702.724	9586.91
703.069	9674.14
703.415	9508.27
703.76	9568.6
704.105	9517.31
704.45	9526.35
704.795	9467.14
705.14	9447.03
705.485	9403.41
705.83	9376.97
706.175	9502.39
706.52	9370.87
706.865	9443.41
707.209	9358.67
707.554	9394.15
707.899	9466.01
708.243	9396.18
708.588	9386.01
708.932	9333.13
709.277	9375.62
709.621	9379.68
709.966	9327.93
710.31	9249.29
710.654	9290.19
710.998	9325.22
711.342	9275.28
711.687	9316.18
712.031	9236.64
712.375	9264.43
712.719	9268.95
713.063	9237.09
713.407	9282.06
713.75	9241.38
714.094	9130.42
714.438	9217.2
714.782	9270.08
715.125	9157.32
715.469	9214.49
715.812	9121.84
716.156	9146.69
716.499	9155.28
716.843	9211.1
717.186	9150.31
717.53	9192.12
717.873	9102.18
718.216	9195.51
718.559	9116.86
718.902	9075.96
719.246	9108.5
719.589	9071.67
719.932	9037.77
720.275	9061.5
720.617	9078.45
720.96	9043.65
721.303	9087.49
721.646	9036.87
721.989	9115.28
722.331	9119.8
722.674	9066.92
723.016	9114.15
723.359	9077.54
723.701	9089.52
724.044	9007.49
724.386	8994.61
724.729	9086.13
725.071	9059.24
725.413	9086.58
725.755	9041.39
726.097	9014.04
726.439	8978.11
726.782	9014.95
727.124	9061.73
727.465	8924.1
727.807	9035.51
728.149	9051.33
728.491	8981.28
728.833	9038.45
729.175	8980.82
729.516	8990.09
729.858	9046.13
730.199	9037.54
730.541	8984.21
730.882	9070.54
731.224	9052.23
731.565	9045.91
731.906	9057.88
732.248	9095.85
732.589	9009.07
732.93	8985.12
733.271	9035.51
733.612	9144.89
733.953	9097.43
734.294	9075.51
734.635	9001.39
734.976	9064.66
735.317	9098.11
735.658	9094.27
735.999	9090.42
736.339	9085.45
736.68	9152.12
737.021	9201.16
737.361	9068.96
737.702	9099.46
738.042	9181.95
738.383	9121.38
738.723	9223.75
739.063	9176.75
739.404	9217.65
739.744	9215.62
740.084	9194.38
740.424	9252
740.764	9242.29
741.104	9316.41
741.444	9236.41
741.784	9258.1
742.124	9283.87
742.464	9314.6
742.804	9313.02
743.143	9357.08
743.483	9393.02
743.823	9342.85
744.162	9373.13
744.502	9397.08
744.841	9432.56
745.181	9513.46
745.52	9428.5
745.86	9510.53
746.199	9520.02
746.538	9524.76
746.877	9552.11
747.216	9656.51
747.556	9634.37
747.895	9627.13
748.234	9621.71
748.573	9619.45
748.911	9711.88
749.25	9671.88
749.589	9688.15
749.928	9766.34
750.267	9739.9
750.605	9762.72
750.944	9795.49
751.283	9777.19
751.621	9816.28
751.96	9781.71
752.298	9818.09
752.636	9838.43
752.975	9917.07
753.313	9941.93
753.651	9973.57
753.989	9921.82
754.327	9977.41
754.666	9986.45
755.004	10024.19
755.342	10124.75
755.679	10042.94
756.017	9999.55
756.355	10079.33
756.693	10129.27
757.031	10152.32
757.368	10076.16
757.706	10104.18
758.044	10130.17
758.381	10093.34
758.719	10161.13
759.056	10214.46
759.394	10209.94
759.731	10202.26
760.068	10175.82
760.405	10183.28
760.743	10168.59
761.08	10277.96
761.417	10243.39
761.754	10227.57
762.091	10253.78
762.428	10274.12
762.765	10213.79
763.102	10322.71
763.438	10236.61
763.775	10221.24
764.112	10360.67
764.449	10298.3
764.785	10389.6
765.122	10309.38
765.458	10358.41
765.795	10352.09
766.131	10434.8
766.467	10311.18
766.804	10383.27
767.14	10324.97
767.476	10317.96
767.812	10399.09
768.148	10408.81
768.485	10351.63
768.821	10313.67
769.157	10397.06
769.492	10363.61
769.828	10408.13
770.164	10373.55
770.5	10331.07
770.836	10322.26
771.171	10329.26
771.507	10359.77
771.842	10274.57
772.178	10374.46
772.513	10402.48
772.849	10363.39
773.184	10359.32
773.519	10434.12
773.855	10257.85
774.19	10338.53
774.525	10294.69
774.86	10381.92
775.195	10363.39
775.53	10335.14
775.865	10277.29
776.2	10309.15
776.535	10233.67
776.87	10317.06
777.205	10222.37
777.539	10249.04
777.874	10287.91
778.209	10213.79
778.543	10226.44
778.878	10180.11
779.212	10253.78
779.547	10218.3
779.881	10213.56
780.215	10190.51
780.55	10261.02
780.884	10137.4
781.218	10150.74
781.552	10181.24
781.886	10117.29
782.22	10190.96
782.554	10189.38
782.888	10120.91
783.222	10081.59
783.556	10120.23
783.889	10081.13
784.223	10047.91
784.557	10191.19
784.89	10131.98
785.224	10028.71
785.557	10022.15
785.891	10012.66
786.224	10030.51
786.558	10019.21
786.891	10004.53
787.224	9921.36
787.557	9979.67
787.891	9983.51
788.224	10028.71
788.557	9969.72
788.89	9990.29
789.223	9986.22
789.556	9934.92
789.888	9896.05
790.221	9852.66
790.554	9828.26
790.887	9844.53
791.219	9865.77
791.552	9822.16
791.884	9860.35
792.217	9892.21
792.549	9713.69
792.882	9776.73
793.214	9730.63
793.546	9798.43
793.879	9745.32
794.211	9707.13
794.543	9698.32
794.875	9697.41
795.207	9719.56
795.539	9766.11
795.871	9722.5
796.203	9648.83
796.535	9613.57
796.867	9612.67
797.198	9629.62
797.53	9643.63
797.862	9604.99
798.193	9614.93
798.525	9559.34
798.856	9565.89
799.188	9548.94
799.519	9546.46
799.85	9454.48
800.182	9464.88
800.513	9443.86
800.844	9405.44
801.175	9422.62
801.506	9447.25
801.837	9484.99
802.168	9519.11
802.499	9395.05
802.83	9409.74
803.161	9305.11
803.491	9376.52
803.822	9402.73
804.153	9384.43
804.483	9316.86
804.814	9286.13
805.145	9270.53
805.475	9292.91
805.805	9207.03
806.136	9236.86
806.466	9302.17
806.796	9311.89
807.126	9279.8
807.457	9139.92
807.787	9189.18
808.117	9142.4
808.447	9152.8
808.777	9167.26
809.107	9127.71
809.436	9100.82
809.766	9140.14
810.096	9148.28
810.426	9070.09
810.755	9080.71
811.085	9097.2
811.414	9037.54
811.744	8971.33
812.073	8982.18
812.403	8993.48
812.732	8887.27
813.061	8936.53
813.39	8961.16
813.719	8959.81
814.049	8902.18
814.378	8895.85
814.707	8896.31
815.036	8933.59
815.365	8905.8
815.693	8821.51
816.022	8837.32
816.351	8821.96
816.68	8817.66
817.008	8821.73
817.337	8745.58
817.665	8769.3
817.994	8765.46
818.322	8717.33
818.651	8676.65
818.979	8616.54
819.307	8663.77
819.636	8663.32
819.964	8686.14
820.292	8713.26
820.62	8666.03
820.948	8630.78
821.276	8680.27
821.604	8658.35
821.932	8705.35
822.259	8738.8
822.587	8635.97
822.915	8703.99
823.243	8720.04
823.57	8625.35
823.898	8687.72
824.225	8705.35
824.553	8709.19
824.88	8649.98
825.207	8706.25
825.535	8662.87
825.862	8715.52
826.189	8706.25
826.516	8764.56
826.843	8722.52
827.17	8704.22
827.497	8779.47
827.824	8759.36
828.151	8809.3
828.478	8767.95
828.805	8802.3
829.131	8748.51
829.458	8713.49
829.785	8707.61
830.111	8767.95
830.438	8698.12
830.764	8757.78
831.09	8739.02
831.417	8735.18
831.743	8738.34
832.069	8800.71
832.395	8767.95
832.722	8778.12
833.048	8800.94
833.374	8756.2
833.7	8716.88
834.026	8700.38
834.351	8784.44
834.677	8729.53
835.003	8761.39
835.329	8781.73
835.654	8679.59
835.98	8708.29
836.306	8722.98
836.631	8651.57
836.956	8720.72
837.282	8655.41
837.607	8642.75
837.932	8644.11
838.258	8678.46
838.583	8618.8
838.908	8595.75
839.233	8600.04
839.558	8597.78
839.883	8601.62
840.208	8566.6
840.533	8616.09
840.858	8530.44
841.182	8574.73
841.507	8522.76
841.832	8533.83
842.156	8421.29
842.481	8490.44
842.805	8473.04
843.13	8466.26
843.454	8481.4
843.778	8400.95
844.103	8388.07
844.427	8366.38
844.751	8397.56
845.075	8368.64
845.399	8362.08
845.723	8302.87
846.047	8293.84
846.371	8256.55
846.695	8266.04
847.019	8149.66
847.343	8169.55
847.666	8172.93
847.99	8106.04
848.313	8103.11
848.637	8058.59
848.96	8052.71
849.284	7993.96
849.607	8044.12
849.931	7973.62
850.254	7964.13
850.577	7878.03
850.9	7824.02
851.223	7854.98
851.546	7821.76
851.869	7750.8
852.192	7800.29
852.515	7717.35
852.838	7681.65
853.161	7734.98
853.483	7621.54
853.806	7541.54
854.129	7577.47
854.451	7613.4
854.774	7581.99
855.096	7564.59
855.419	7518.26
855.741	7511.94
856.063	7436.01
856.385	7412.28
856.708	7414.76
857.03	7397.59
857.352	7427.87
857.674	7366.63
857.996	7384.03
858.318	7296.57
858.64	7294.31
858.961	7278.72
859.283	7220.87
859.605	7219.51
859.926	7252.51
860.248	7213.86
860.57	7168.44
860.891	7165.28
861.212	7166.86
861.534	7193.75
861.855	7137.03
862.176	7115.79
862.498	7129.35
862.819	7149.46
863.14	7105.84
863.461	7090.03
863.782	7108.33
864.103	7103.81
864.424	7039.86
864.745	7046.18
865.065	6974.1
865.386	7057.48
865.707	6996.24
866.027	7043.7
866.348	6991.95
866.668	7004.15
866.989	6994.89
867.309	6955.34
867.63	6995.79
867.95	6907.21
868.27	6874.66
868.59	6904.04
868.91	6906.98
869.23	6916.24
869.55	6871.27
869.87	6842.35
870.19	6864.27
870.51	6876.47
870.83	6930.26
871.15	6803.93
871.469	6796.02
871.789	6872.18
872.109	6770.26
872.428	6781.56
872.748	6831.5
873.067	6815
873.386	6791.95
873.706	6752.41
874.025	6768.9
874.344	6673.09
874.663	6726.65
874.982	6706.53
875.301	6676.93
875.62	6672.18
875.939	6689.13
876.258	6714.67
876.577	6667.89
876.896	6673.99
877.214	6690.26
877.533	6666.08
877.852	6672.41
878.17	6626.76
878.489	6594.9
878.807	6649.81
879.125	6624.95
879.444	6617.95
879.762	6554.67
880.08	6584.05
880.398	6547.89
880.716	6515.8
881.034	6511.28
881.352	6593.99
881.67	6500.89
881.988	6509.02
882.306	6476.71
882.624	6494.33
882.941	6463.6
883.259	6405.75
883.577	6440.55
883.894	6399.87
884.212	6349.03
884.529	6384.28
884.846	6388.57
885.164	6349.25
885.481	6324.85
885.798	6289.82
886.115	6359.42
886.432	6259.99
886.75	6254.79
887.067	6300.89
887.383	6293.89
887.7	6309.26
888.017	6257.28
888.334	6201.24
888.651	6227.45
888.967	6204.4
889.284	6185.19
889.6	6201.01
889.917	6119.66
890.233	6125.31
890.55	6136.15
890.866	6116.72
891.182	6096.15
891.498	6074.01
891.815	6048.92
892.131	6016.61
892.447	6041.01
892.763	6030.17
893.079	6027.45
893.395	5972.31
893.71	5967.34
894.026	5937.97
894.342	5969.83
894.657	5931.64
894.973	5903.16
895.289	5855.93
895.604	5879.44
895.92	5828.82
896.235	5814.13
896.55	5822.71
896.865	5820
897.181	5769.38
897.496	5708.37
897.811	5703.4
898.126	5721.47
898.441	5666.33
898.756	5670.63
899.071	5676.5
899.386	5648.03
899.7	5630.63
900.015	5606
900.33	5490.29
900.644	5549.5
900.959	5535.94
901.273	5494.59
901.588	5478.99
901.902	5407.58
902.216	5428.37
902.531	5428.6
902.845	5394.7
903.159	5407.81
903.473	5364.87
903.787	5340.47
904.101	5293.69
904.415	5345.21
904.729	5277.87
905.042	5248.49
905.356	5256.63
905.67	5243.75
905.984	5253.69
906.297	5198.1
906.611	5140.7
906.924	5177.53
907.237	5166.23
907.551	5123.98
907.864	5115.61
908.177	5120.81
908.491	5095.28
908.804	5067.71
909.117	5080.13
909.43	5009.63
909.743	5008.27
910.056	4990.19
910.368	4955.17
910.681	4901.83
910.994	4903.42
911.307	4891.67
911.619	4869.07
911.932	4883.3
912.244	4836.3
912.557	4867.26
912.869	4845.11
913.181	4816.64
913.494	4801.05
913.806	4776.87
914.118	4738
914.43	4703.42
914.742	4670.43
915.054	4711.33
915.366	4670.65
915.678	4668.17
915.99	4674.95
916.302	4581.16
916.613	4559.92
916.925	4618.45
917.236	4589.75
917.548	4542.3
917.859	4524.9
918.171	4474.95
918.482	4473.15
918.794	4467.72
919.105	4419.36
919.416	4435.86
919.727	4432.02
920.038	4430.66
920.349	4380.49
920.66	4338.69
920.971	4301.62
921.282	4312.47
921.593	4348.85
921.903	4286.71
922.214	4225.02
922.525	4218.46
922.835	4214.17
923.146	4173.72
923.456	4188.86
923.767	4190.89
924.077	4138.92
924.387	4130.33
924.697	4088.75
925.008	4092.82
925.318	4102.76
925.628	4091.23
925.938	4050.78
926.248	4076.77
926.558	4006.49
926.867	4024.12
927.177	4018.02
927.487	4017.56
927.796	3987.73
928.106	3943.44
928.416	3973.27
928.725	3942.31
929.034	3916.78
929.344	3896.44
929.653	3865.25
929.962	3840.39
930.271	3835.42
930.581	3841.3
930.89	3818.93
931.199	3786.61
931.508	3805.37
931.817	3768.3
932.125	3795.42
932.434	3747.29
932.743	3715.88
933.051	3674.07
933.36	3705.26
933.669	3658.48
933.977	3659.38
934.286	3671.81
934.594	3659.61
934.902	3605.15
935.21	3610.12
935.519	3582.32
935.827	3568.99
936.135	3528.31
936.443	3523.57
936.751	3518.37
937.059	3514.75
937.367	3456
937.674	3481.08
937.982	3466.84
938.29	3486.5
938.597	3498.93
938.905	3435.88
939.213	3445.38
939.52	3393.17
939.827	3384.36
940.135	3346.62
940.442	3370.12
940.749	3373.06
941.056	3366.06
941.363	3349.11
941.67	3309.11
941.977	3291.26
942.284	3270.69
942.591	3238.6
942.898	3245.83
943.205	3267.98
943.511	3269.79
943.818	3232.73
944.125	3202.67
944.431	3176
944.738	3164.93
945.044	3166.06
945.35	3179.62
945.657	3141.2
945.963	3143.69
946.269	3067.31
946.575	3092.16
946.881	3124.93
947.187	3082.67
947.493	3057.82
947.799	3098.04
948.105	3036.35
948.41	2976.24
948.716	3020.53
949.022	2978.04
949.327	2999.06
949.633	2954.54
949.938	2970.59
950.244	2970.13
950.549	2934.43
950.854	2888.1
951.16	2939.17
951.465	2888.78
951.77	2889.68
952.075	2873.87
952.38	2870.93
952.685	2873.64
952.99	2821.21
953.294	2851.49
953.599	2810.36
953.904	2819.18
954.209	2815.56
954.513	2809.01
954.818	2762
955.122	2824.83
955.426	2719.07
955.731	2710.25
956.035	2752.06
956.339	2711.16
956.643	2716.36
956.948	2653.76
957.252	2704.15
957.556	2678.39
957.86	2654.44
958.163	2689.46
958.467	2645.4
958.771	2616.02
959.075	2612.86
959.378	2611.05
959.682	2612.86
959.985	2601.33
960.289	2597.71
960.592	2572.63
960.896	2601.1
961.199	2530.82
961.502	2519.3
961.805	2538.28
962.108	2533.99
962.411	2499.41
962.714	2496.47
963.017	2493.08
963.32	2522.46
963.623	2474.55
963.926	2455.12
964.228	2479.3
964.531	2463.25
964.833	2458.73
965.136	2401.56
965.438	2417.83
965.741	2413.09
966.043	2411.5
966.345	2347.33
966.648	2404.5
966.95	2405.4
967.252	2339.19
967.554	2338.96
967.856	2359.08
968.158	2333.77
968.46	2293.54
968.761	2316.59
969.063	2290.83
969.365	2271.62
969.666	2255.8
969.968	2270.49
970.269	2245.41
970.571	2246.99
970.872	2219.65
971.174	2223.94
971.475	2225.29
971.776	2197.72
972.077	2161.79
972.378	2210.38
972.679	2200.44
972.98	2176.03
973.281	2170.15
973.582	2160.89
973.883	2145.3
974.183	2136.71
974.484	2162.7
974.785	2123.6
975.085	2103.94
975.386	2085.64
975.686	2125.41
975.986	2087.22
976.287	2057.84
976.587	2063.04
976.887	2052.64
977.187	2022.59
977.487	2060.1
977.787	2042.02
978.087	2049.03
978.387	2018.52
978.687	2028.92
978.987	1994.34
979.286	2016.94
979.586	1991.85
979.885	1983.49
980.185	1968.8
980.484	1960.89
980.784	1950.05
981.083	1959.54
981.382	1940.1
981.682	1943.04
981.981	1941.69
982.28	1915.7
982.579	1888.13
982.878	1915.47
983.177	1893.55
983.475	1922.25
983.774	1883.61
984.073	1858.52
984.372	1857.62
984.67	1870.28
984.969	1846.55
985.267	1855.13
985.566	1858.3
985.864	1839.54
986.162	1829.37
986.461	1804.06
986.759	1812.88
987.057	1797.51
987.355	1766.1
987.653	1790.73
987.951	1748.92
988.249	1773.56
988.547	1760.45
988.844	1768.36
989.142	1732.43
989.44	1737.17
989.737	1734.46
990.035	1736.49
990.332	1687.68
990.63	1679.55
990.927	1709.6
991.224	1719.77
991.521	1685.42
991.819	1656.04
992.116	1653.78
992.413	1693.56
992.71	1646.33
993.006	1633.22
993.303	1657.63
993.6	1631.19
993.897	1632.32
994.193	1621.92
994.49	1634.8
994.787	1578.76
995.083	1578.08
995.379	1607.46
995.676	1555.48
995.972	1600
996.268	1551.87
996.565	1579.89
996.861	1549.83
997.157	1547.57
997.453	1575.59
997.749	1541.02
998.044	1530.62
998.34	1509.61
998.636	1495.37
998.932	1513.45
999.227	1489.27
999.523	1463.96
999.818	1488.36
1000.114	1484.75
1000.409	1487.69
1000.704	1458.76
1001	1443.85
1001.295	1468.48
1001.59	1433.45
1001.885	1436.39
1002.18	1443.17
1002.475	1402.49
1002.77	1408.59
1003.065	1408.59
1003.359	1412.66
1003.654	1383.06
1003.949	1399.33
1004.243	1395.71
1004.538	1393.9
1004.832	1367.92
1005.127	1376.5
1005.421	1362.94
1005.715	1336.73
1006.009	1358.2
1006.304	1303.06
1006.598	1301.48
1006.892	1327.01
1007.186	1292.66
1007.48	1285.88
1007.773	1300.8
1008.067	1271.65
1008.361	1279.56
1008.655	1276.62
1008.948	1275.94
1009.242	1283.62
1009.535	1268.71
1009.829	1241.14
1010.122	1280.46
1010.415	1255.15
1010.708	1242.04
1011.001	1228.26
1011.295	1217.64
1011.588	1236.62
1011.881	1196.85
1012.173	1209.28
1012.466	1181.03
1012.759	1204.08
1013.052	1184.87
1013.344	1181.25
1013.637	1172.21
1013.93	1158.88
1014.222	1152.78
1014.514	1134.02
1014.807	1133.8
1015.099	1129.96
1015.391	1148.03
1015.683	1129.73
1015.976	1151.2
1016.268	1136.06
1016.56	1107.13
1016.851	1099
1017.143	1092.22
1017.435	1083.86
1017.727	1079.56
1018.018	1085.44
1018.31	1083.4
1018.602	1064.42
1018.893	1043.86
1019.185	1056.51
1019.476	1047.92
1019.767	1038.66
1020.058	1060.35
1020.35	1026.91
1020.641	1035.27
1020.932	1024.2
1021.223	1024.65
1021.514	1026.46
1021.804	991.88
1022.095	1022.16
1022.386	977.42
1022.677	1011.99
1022.967	986.91
1023.258	971.32
1023.548	972.9
1023.839	975.84
1024.129	971.54
1024.419	960.7
1024.709	952.56
1025	958.66
1025.29	957.98
1025.58	922.5
1025.87	913.01
1026.16	916.63
1026.449	921.6
1026.739	942.39
1027.029	935.16
1027.319	923.18
1027.608	884.76
1027.898	893.13
1028.187	859.23
1028.477	894.03
1028.766	876.86
1029.055	849.29
1029.344	875.27
1029.634	870.08
1029.923	851.55
1030.212	853.35
1030.501	844.31
1030.79	853.13
1031.078	851.09
1031.367	859.23
1031.656	826.01
1031.945	809.96
1032.233	802.06
1032.522	786.01
1032.81	797.08
1033.099	791.21
1033.387	803.86
1033.675	790.08
1033.963	783.3
1034.251	804.32
1034.54	796.41
1034.828	800.47
1035.116	771.32
1035.403	765.45
1035.691	770.64
1035.979	761.38
1036.267	784.88
1036.554	762.51
1036.842	739.23
1037.129	749.4
1037.417	756.41
1037.704	732.9
1037.992	740.59
1038.279	717.09
1038.566	725.9
1038.853	725.9
1039.14	725.9
