Data from blue_chair_FLMS001491_00028.txt Node
Date: Wed Feb 08 10:30:04 GMT 2017
User: dcchb
Spectrometer: FLMS00149
Trigger mode: 0
Integration Time (sec): 2.000000E-2
Scans to average: 10
Electric dark correction enabled: true
Nonlinearity correction enabled: false
Boxcar width: 0
XAxis mode: Wavelengths
Number of Pixels in Spectrum: 2048
>>>>>Begin Spectral Data<<<<<
341.393	-17.58
341.776	-17.58
342.16	-17.58
342.543	-53.52
342.927	-75.44
343.31	-78.83
343.693	-63.01
344.077	-61.42
344.46	-55.55
344.843	-52.61
345.226	-32.27
345.61	-19.39
345.993	-3.57
346.376	-17.36
346.759	5.24
347.142	19.02
347.525	29.65
347.908	73.49
348.291	59.48
348.674	94.5
349.057	102.64
349.44	113.71
349.823	125.24
350.206	166.37
350.588	178.34
350.971	183.09
351.354	203.65
351.737	232.13
352.119	217.66
352.502	260.6
352.884	247.72
353.267	259.7
353.65	258.11
354.032	275.52
354.414	288.85
354.797	291.79
355.179	295.63
355.562	285.91
355.944	316.19
356.326	318.45
356.709	296.53
357.091	312.35
357.473	318.23
357.855	318.9
358.238	317.55
358.62	328.85
359.002	309.86
359.384	337.43
359.766	304.67
360.148	319.36
360.53	299.24
360.912	337.89
361.294	312.35
361.676	317.55
362.057	304.67
362.439	323.2
362.821	285.23
363.203	309.19
363.584	310.99
363.966	290.2
364.348	303.99
364.729	295.18
365.111	278.91
365.493	288.4
365.874	285.23
366.256	289.75
366.637	297.44
367.019	286.59
367.4	296.76
367.781	290.88
368.163	295.63
368.544	285.01
368.925	278.91
369.306	292.46
369.688	290.2
370.069	279.81
370.45	273.03
370.831	280.94
371.212	296.08
371.593	295.4
371.974	283.2
372.355	294.5
372.736	278.45
373.117	308.51
373.498	284.1
373.879	278.91
374.26	297.21
374.641	285.91
375.021	271
375.402	300.83
375.783	309.64
376.163	300.6
376.544	296.76
376.925	301.28
377.305	298.34
377.686	285.46
378.066	310.09
378.447	307.15
378.827	303.99
379.208	310.99
379.588	299.47
379.968	289.3
380.349	304.44
380.729	311.45
381.109	311.45
381.489	312.12
381.87	292.24
382.25	289.53
382.63	304.44
383.01	285.46
383.39	297.89
383.77	295.85
384.15	289.75
384.53	299.24
384.91	319.36
385.29	314.16
385.67	310.77
386.049	307.6
386.429	331.33
386.809	316.87
387.189	306.25
387.568	313.48
387.948	312.12
388.328	317.32
388.707	310.54
389.087	310.09
389.466	324.78
389.846	324.78
390.225	339.47
390.605	324.1
390.984	313.48
391.363	319.81
391.743	338.56
392.122	331.56
392.501	332.69
392.881	330.66
393.26	349.19
393.639	315.29
394.018	358.45
394.397	349.64
394.776	350.54
395.155	362.07
395.534	346.47
395.913	346.7
396.292	343.99
396.671	368.85
397.05	361.16
397.429	359.35
397.808	377.89
398.186	359.35
398.565	369.52
398.944	348.51
399.323	369.07
399.701	358.9
400.08	367.26
400.458	367.26
400.837	381.05
401.215	381.95
401.594	372.24
401.972	365.23
402.351	390.99
402.729	376.76
403.107	397.55
403.486	393.93
403.864	376.3
404.242	373.37
404.62	371.33
404.999	400.48
405.377	391.67
405.755	400.26
406.133	382.63
406.511	408.39
406.889	434.38
407.267	406.13
407.645	432.12
408.023	414.49
408.401	445.23
408.779	410.65
409.156	447.26
409.534	427.15
409.912	423.31
410.29	440.48
410.667	430.09
411.045	439.13
411.422	446.13
411.8	451.1
412.178	461.73
412.555	478.67
412.933	477.09
413.31	479.13
413.687	474.15
414.065	473.93
414.442	465.11
414.819	468.5
415.197	490.42
415.574	470.76
415.951	482.29
416.328	480.26
416.705	503.53
417.082	494.49
417.46	521.61
417.837	504.21
418.214	506.47
418.591	517.77
418.967	510.76
419.344	517.32
419.721	514.83
420.098	511.67
420.475	542.63
420.852	506.92
421.228	534.72
421.605	559.58
421.982	544.43
422.358	536.75
422.735	550.31
423.111	544.66
423.488	559.58
423.864	554.15
424.241	584.43
424.617	590.31
424.994	572.23
425.37	601.38
425.746	588.95
426.123	590.31
426.499	612.91
426.875	611.1
427.251	614.26
427.627	626.69
428.003	633.25
428.379	629.4
428.756	617.2
429.132	626.92
429.507	629.86
429.883	638.67
430.259	647.93
430.635	650.42
431.011	656.75
431.387	673.47
431.763	669.86
432.138	687.93
432.514	701.27
432.89	717.99
433.265	721.15
433.641	723.64
434.016	716.63
434.392	743.75
434.767	754.82
435.143	756.86
435.518	773.13
435.894	772.9
436.269	780.81
436.644	801.83
437.02	815.61
437.395	810.64
437.77	801.15
438.145	846.57
438.52	844.77
438.895	850.64
439.271	854.48
439.646	874.14
440.021	846.8
440.395	875.73
440.77	880.92
441.145	874.14
441.52	908.49
441.895	908.49
442.27	939
442.645	916.85
443.019	918.21
443.394	960.24
443.769	958.89
444.143	943.97
444.518	963.86
444.892	949.17
445.267	960.02
445.641	1003.63
446.016	999.34
446.39	983.52
446.764	972.67
447.139	1011.99
447.513	1013.8
447.887	1035.27
448.262	1024.65
448.636	1007.7
449.01	1015.83
449.384	1052.67
449.758	1033.69
450.132	1046.12
450.506	1061.71
450.88	1077.98
451.254	1063.97
451.628	1103.52
452.002	1110.75
452.376	1100.35
452.75	1114.36
453.123	1121.37
453.497	1132.22
453.871	1136.51
454.244	1178.99
454.618	1166.79
454.992	1162.05
455.365	1187.58
455.739	1210.63
456.112	1198.65
456.486	1247.24
456.859	1235.26
457.232	1226.45
457.606	1231.42
457.979	1263.74
458.352	1282.95
458.725	1297.86
459.099	1286.56
459.472	1322.95
459.845	1357.29
460.218	1322.04
460.591	1328.37
460.964	1337.18
461.337	1385.32
461.71	1395.26
462.083	1374.24
462.456	1414.24
462.829	1406.56
463.201	1443.17
463.574	1421.7
463.947	1457.41
464.32	1478.2
464.692	1463.73
465.065	1486.1
465.438	1489.72
465.81	1526.56
466.183	1517.97
466.555	1549.15
466.928	1531.08
467.3	1565.2
467.672	1566.1
468.045	1601.36
468.417	1599.55
468.789	1604.29
469.161	1612.2
469.534	1651.75
469.906	1690.62
470.278	1693.33
470.65	1711.86
471.022	1709.15
471.394	1735.59
471.766	1733.33
472.138	1774.91
472.51	1792.09
472.882	1815.36
473.253	1844.97
473.625	1878.41
473.997	1875.02
474.369	1887
474.74	1898.75
475.112	1919.31
475.484	1957.96
475.855	1949.82
476.227	1952.53
476.598	2017.84
476.97	2013.1
477.341	2028.24
477.713	2093.55
478.084	2090.61
478.455	2106.2
478.827	2126.77
479.198	2168.35
479.569	2178.52
479.94	2215.58
480.311	2235.92
480.682	2264.62
481.053	2314.56
481.424	2342.81
481.795	2321.56
482.166	2352.75
482.537	2373.54
482.908	2432.29
483.279	2431.39
483.65	2434.55
484.021	2481.11
484.391	2477.72
484.762	2512.07
485.133	2475.23
485.503	2497.15
485.874	2551.39
486.244	2572.63
486.615	2555.46
486.985	2610.14
487.356	2654.66
487.726	2651.95
488.097	2682.01
488.467	2629.13
488.837	2663.48
489.207	2705.73
489.578	2724.94
489.948	2741.44
490.318	2757.48
490.688	2754.55
491.058	2814.66
491.428	2772.62
491.798	2815.11
492.168	2828.67
492.538	2820.31
492.908	2849.68
493.278	2849.91
493.648	2852.17
494.017	2880.64
494.387	2902.11
494.757	2902.79
495.126	2891.04
495.496	2860.08
495.866	2885.39
496.235	2892.85
496.605	2922.45
496.974	2919.74
497.344	2932.39
497.713	2906.41
498.082	2949.12
498.452	2921.55
498.821	2933.3
499.19	2907.31
499.559	2914.32
499.928	2906.41
500.298	2910.02
500.667	2949.57
501.036	2923.81
501.405	2925.39
501.774	2897.14
502.143	2949.12
502.512	2920.19
502.88	2915.9
503.249	2929
503.618	2933.98
503.987	2920.19
504.356	2908.21
504.724	2912.28
505.093	2936.69
505.462	2926.97
505.83	2923.36
506.199	2923.13
506.567	2915.9
506.936	2930.13
507.304	2899.85
507.672	2918.61
508.041	2924.26
508.409	2914.99
508.777	2943.47
509.145	2916.12
509.514	2921.32
509.882	2882
510.25	2913.19
510.618	2909.8
510.986	2909.8
511.354	2917.48
511.722	2914.77
512.09	2923.81
512.458	2850.36
512.826	2900.98
513.193	2913.86
513.561	2873.64
513.929	2887.2
514.297	2911.83
514.664	2906.18
515.032	2844.49
515.4	2905.28
515.767	2867.09
516.135	2833.64
516.502	2849.68
516.869	2840.42
517.237	2878.38
517.604	2853.07
517.972	2890.14
518.339	2867.31
518.706	2813.98
519.073	2799.06
519.44	2821.21
519.808	2849.91
520.175	2849.46
520.542	2844.71
520.909	2838.39
521.276	2817.82
521.643	2807.65
522.009	2789.57
522.376	2806.3
522.743	2818.27
523.11	2823.02
523.477	2805.39
523.843	2871.83
524.21	2817.82
524.577	2879.29
524.943	2809.23
525.31	2839.06
525.676	2821.66
526.043	2792.06
526.409	2821.66
526.776	2818.05
527.142	2813.98
527.508	2851.72
527.874	2834.32
528.241	2856.46
528.607	2839.06
528.973	2871.83
529.339	2824.15
529.705	2851.72
530.071	2833.19
530.437	2866.41
530.803	2870.02
531.169	2853.98
531.535	2838.61
531.901	2876.35
532.267	2848.33
532.632	2813.98
532.998	2865.05
533.364	2849.91
533.73	2820.31
534.095	2860.31
534.461	2882.23
534.826	2872.96
535.192	2851.94
535.557	2882.68
535.923	2866.18
536.288	2869.35
536.653	2886.52
537.019	2878.84
537.384	2861.44
537.749	2884.71
538.114	2851.49
538.479	2868.22
538.845	2855.11
539.21	2862.11
539.575	2888.55
539.94	2860.31
540.305	2865.05
540.67	2856.01
541.034	2849.01
541.399	2838.39
541.764	2881.55
542.129	2851.04
542.494	2846.52
542.858	2882.23
543.223	2868.67
543.587	2848.56
543.952	2838.16
544.316	2861.89
544.681	2878.61
545.045	2847.65
545.41	2861.89
545.774	2853.98
546.138	2841.55
546.503	2840.42
546.867	2819.4
547.231	2840.19
547.595	2855.79
547.959	2827.09
548.324	2833.41
548.688	2819.63
549.052	2820.99
549.416	2839.52
549.779	2873.19
550.143	2796.8
550.507	2802
550.871	2818.95
551.235	2792.06
551.599	2867.76
551.962	2820.31
552.326	2806.07
552.689	2803.58
553.053	2815.56
553.417	2775.79
553.78	2796.8
554.143	2792.74
554.507	2799.52
554.87	2810.82
555.234	2839.06
555.597	2745.51
555.96	2830.02
556.323	2795.68
556.686	2769.91
557.05	2827.99
557.413	2804.49
557.776	2780.08
558.139	2804.94
558.502	2795.68
558.865	2804.26
559.228	2847.88
559.59	2802.68
559.953	2802.91
560.316	2839.52
560.679	2801.55
561.041	2822.12
561.404	2823.7
561.767	2808.78
562.129	2814.88
562.492	2806.75
562.854	2786.64
563.217	2837.93
563.579	2875.45
563.941	2833.41
564.304	2863.92
564.666	2910.47
565.028	2852.4
565.39	2865.5
565.753	2878.61
566.115	2848.56
566.477	2893.98
566.839	2869.57
567.201	2889.23
567.563	2912.06
567.925	2915.45
568.287	2935.11
568.648	2921.1
569.01	2945.95
569.372	2951.15
569.734	2916.8
570.095	2940.76
570.457	2919.74
570.819	2937.14
571.18	2979.63
571.542	2988.66
571.903	2985.73
572.265	3006.52
572.626	2952.73
572.987	3014.88
573.349	2980.75
573.71	3017.36
574.071	3034.09
574.432	3047.42
574.794	3066.85
575.155	3063.24
575.516	3049.23
575.877	3087.87
576.238	3089.68
576.599	3094.42
576.96	3106.85
577.32	3076.12
577.681	3112.73
578.042	3086.06
578.403	3103.24
578.763	3138.26
579.124	3117.47
579.485	3160.19
579.845	3115.44
580.206	3172.39
580.566	3179.62
580.927	3149.34
581.287	3144.14
581.648	3167.64
582.008	3180.98
582.368	3188.66
582.728	3181.88
583.089	3220.3
583.449	3193.4
583.809	3190.01
584.169	3190.01
584.529	3189.34
584.889	3238.6
585.249	3214.65
585.609	3197.25
585.969	3233.18
586.329	3256.68
586.688	3238.38
587.048	3226.17
587.408	3230.47
587.768	3241.99
588.127	3254.65
588.487	3216.91
588.846	3233.18
589.206	3245.61
589.565	3215.33
589.925	3285.15
590.284	3196.34
590.643	3215.33
591.003	3216
591.362	3289.9
591.721	3244.93
592.08	3226.85
592.44	3250.8
592.799	3276.34
593.158	3240.64
593.517	3209.45
593.876	3251.71
594.235	3264.82
594.593	3217.36
594.952	3198.6
595.311	3206.51
595.67	3272.95
596.029	3221.43
596.387	3254.87
596.746	3260.97
597.104	3269.79
597.463	3260.97
597.822	3249.9
598.18	3242.67
598.538	3227.75
598.897	3258.49
599.255	3219.62
599.613	3236.57
599.972	3234.53
600.33	3232.95
600.688	3232.05
601.046	3233.86
601.404	3265.95
601.762	3230.24
602.12	3255.1
602.478	3267.3
602.836	3302.1
603.194	3248.09
603.552	3254.87
603.91	3274.53
604.268	3250.8
604.625	3254.19
604.983	3225.49
605.341	3252.39
605.698	3237.47
606.056	3310.92
606.413	3262.33
606.771	3274.31
607.128	3267.53
607.485	3230.69
607.843	3234.08
608.2	3251.48
608.557	3312.27
608.914	3279.96
609.272	3260.3
609.629	3295.55
609.986	3268.88
610.343	3248.09
610.7	3279.73
611.057	3256.45
611.414	3293.52
611.771	3279.73
612.127	3319.05
612.484	3290.35
612.841	3316.57
613.198	3278.6
613.554	3310.92
613.911	3276.11
614.267	3312.72
614.624	3302.1
614.98	3310.92
615.337	3359.28
615.693	3299.62
616.05	3298.49
616.406	3296.23
616.762	3303.46
617.118	3320.18
617.475	3333.06
617.831	3322.44
618.187	3322.21
618.543	3329.9
618.899	3382.1
619.255	3363.57
619.611	3349.33
619.967	3338.26
620.323	3370.58
620.678	3331.93
621.034	3331.93
621.39	3327.86
621.746	3314.76
622.101	3347.3
622.457	3346.85
622.812	3305.04
623.168	3381.42
623.523	3341.42
623.879	3368.99
624.234	3375.77
624.589	3316.11
624.945	3346.17
625.3	3386.17
625.655	3383.23
626.01	3375.32
626.365	3381.87
626.72	3311.37
627.075	3338.71
627.43	3307.3
627.785	3361.08
628.14	3331.93
628.495	3379.39
628.85	3377.35
629.205	3368.54
629.559	3389.11
629.914	3361.08
630.269	3339.84
630.623	3367.64
630.978	3388.43
631.332	3385.94
631.687	3371.25
632.041	3359.05
632.396	3360.63
632.75	3368.54
633.104	3390.46
633.459	3365.38
633.813	3376.22
634.167	3349.11
634.521	3405.38
634.875	3403.57
635.229	3384.13
635.583	3355.66
635.937	3390.46
636.291	3404.25
636.645	3362.89
636.999	3318.15
637.352	3393.4
637.706	3329.9
638.06	3364.93
638.413	3369.9
638.767	3333.74
639.121	3359.73
639.474	3341.2
639.828	3398.15
640.181	3385.94
640.534	3363.8
640.888	3337.36
641.241	3332.84
641.594	3369.67
641.947	3394.3
642.301	3358.15
642.654	3411.93
643.007	3354.53
643.36	3400.86
643.713	3366.51
644.066	3396.11
644.419	3366.06
644.771	3331.71
645.124	3368.32
645.477	3346.17
645.83	3327.41
646.182	3322.67
646.535	3315.21
646.888	3332.84
647.24	3321.08
647.593	3282.67
647.945	3337.58
648.298	3292.84
648.65	3269.56
649.002	3304.81
649.355	3310.92
649.707	3288.32
650.059	3301.42
650.411	3364.47
650.763	3391.82
651.115	3434.08
651.467	3419.16
651.819	3432.95
652.171	3455.54
652.523	3447.86
652.875	3416.9
653.227	3437.01
653.578	3488.76
653.93	3447.86
654.282	3468.43
654.633	3447.41
654.985	3439.5
655.337	3469.56
655.688	3399.73
656.039	3484.24
656.391	3453.28
656.742	3492.38
657.094	3447.41
657.445	3442.21
657.796	3480.63
658.147	3515.88
658.498	3466.39
658.849	3494.64
659.2	3483.11
659.551	3502.1
659.902	3505.03
660.253	3480.63
660.604	3530.35
660.955	3459.61
661.306	3503.68
661.656	3551.59
662.007	3504.13
662.358	3499.61
662.708	3494.19
663.059	3562.43
663.409	3509.55
663.76	3500.74
664.11	3537.35
664.461	3545.03
664.811	3581.87
665.161	3585.03
665.511	3575.32
665.862	3528.54
666.212	3532.15
666.562	3504.36
666.912	3533.06
667.262	3527.41
667.612	3509.78
667.962	3530.8
668.312	3477.47
668.662	3531.25
669.011	3598.37
669.361	3550.91
669.711	3528.99
670.06	3529.22
670.41	3546.84
670.76	3509.33
671.109	3491.25
671.459	3502.78
671.808	3468.88
672.157	3471.59
672.507	3473.85
672.856	3483.79
673.205	3493.06
673.554	3484.47
673.904	3495.32
674.253	3510.23
674.602	3495.32
674.951	3432.72
675.3	3407.18
675.649	3459.16
675.998	3450.8
676.346	3432.27
676.695	3445.83
677.044	3437.24
677.393	3414.42
677.741	3425.26
678.09	3408.54
678.438	3423.23
678.787	3402.21
679.135	3377.13
679.484	3383.46
679.832	3362.67
680.181	3321.31
680.529	3347.07
680.877	3369.9
681.225	3373.51
681.573	3348.2
681.922	3352.5
682.27	3351.59
682.618	3351.37
682.966	3313.18
683.314	3339.84
683.661	3332.61
684.009	3293.52
684.357	3311.14
684.705	3283.8
685.053	3293.06
685.4	3272.27
685.748	3229.79
686.095	3284.93
686.443	3238.15
686.79	3243.35
687.138	3224.59
687.485	3176.91
687.832	3201.77
688.18	3180.52
688.527	3206.06
688.874	3184.59
689.221	3172.39
689.568	3147.53
689.915	3131.71
690.262	3142.33
690.609	3121.54
690.956	3123.8
691.303	3119.06
691.65	3110.47
691.997	3100.07
692.344	3093.07
692.69	3089
693.037	3056.46
693.383	3017.82
693.73	3042.45
694.077	3045.39
694.423	3055.56
694.769	3059.85
695.116	3046.74
695.462	2994.99
695.808	3020.08
696.155	2997.48
696.501	2986.86
696.847	2948.89
697.193	2968.55
697.539	2929
697.885	2948.67
698.231	2936.01
698.577	2925.16
698.923	2929.68
699.269	2914.32
699.614	2898.95
699.96	2890.36
700.306	2895.79
700.651	2894.88
700.997	2903.02
701.342	2858.05
701.688	2906.18
702.033	2893.98
702.379	2886.75
702.724	2870.25
703.069	2850.36
703.415	2836.8
703.76	2880.64
704.105	2841.32
704.45	2833.41
704.795	2797.03
705.14	2835
705.485	2804.49
705.83	2776.24
706.175	2780.99
706.52	2819.18
706.865	2809.23
707.209	2754.55
707.554	2807.43
707.899	2799.29
708.243	2740.08
708.588	2751.38
708.932	2749.8
709.277	2798.84
709.621	2773.98
709.966	2792.74
710.31	2790.03
710.654	2820.76
710.998	2807.2
711.342	2775.34
711.687	2744.15
712.031	2761.55
712.375	2750.93
712.719	2764.94
713.063	2768.56
713.407	2764.04
713.75	2785.05
714.094	2730.37
714.438	2785.73
714.782	2774.21
715.125	2804.71
715.469	2813.3
715.812	2762.68
716.156	2793.87
716.499	2763.81
716.843	2794.32
717.186	2809.69
717.53	2806.97
717.873	2795
718.216	2805.39
718.559	2799.74
718.902	2793.19
719.246	2804.94
719.589	2835
719.932	2805.17
720.275	2811.95
720.617	2837.93
720.96	2837.26
721.303	2844.71
721.646	2830.25
721.989	2840.87
722.331	2867.99
722.674	2875.9
723.016	2903.69
723.359	2900.31
723.701	2893.3
724.044	2894.88
724.386	2896.92
724.729	2913.19
725.071	2894.43
725.413	2943.24
725.755	2903.92
726.097	2961.09
726.439	2899.18
726.782	2952.06
727.124	2953.41
727.465	2935.56
727.807	2960.87
728.149	2965.39
728.491	2967.42
728.833	3004.71
729.175	3000.42
729.516	2981.43
729.858	3017.36
730.199	3054.65
730.541	3071.83
730.882	3069.34
731.224	3098.72
731.565	3079.28
731.906	3063.46
732.248	3136.01
732.589	3143.24
732.93	3126.74
733.271	3168.32
733.612	3148.43
733.953	3186.85
734.294	3204.93
734.635	3211.94
734.976	3204.93
735.317	3214.87
735.658	3207.64
735.999	3259.17
736.339	3294.19
736.68	3321.99
737.021	3320.41
737.361	3352.5
737.702	3384.13
738.042	3364.25
738.383	3361.08
738.723	3420.07
739.063	3441.31
739.404	3463.68
739.744	3487.41
740.084	3538.93
740.424	3531.47
740.764	3518.59
741.104	3602.21
741.444	3559.95
741.784	3590.23
742.124	3674.52
742.464	3718.59
742.804	3705.93
743.143	3716.55
743.483	3786.38
743.823	3780.28
744.162	3823.44
744.502	3905.48
744.841	3925.14
745.181	3969.66
745.52	3999.71
745.86	4026.38
746.199	4083.55
746.538	4177.11
746.877	4194.06
747.216	4213.49
747.556	4269.08
747.895	4302.98
748.234	4317.44
748.573	4461.62
748.911	4487.38
749.25	4544.56
749.589	4556.08
749.928	4616.19
750.267	4674.95
750.605	4785.68
750.944	4815.06
751.283	4864.55
751.621	4954.94
751.96	5024.09
752.298	5052.56
752.636	5142.05
752.975	5189.06
753.313	5246.23
753.651	5373.23
753.989	5439.45
754.327	5484.87
754.666	5508.15
755.004	5599.9
755.342	5694.13
755.679	5780.91
756.017	5794.47
756.355	5940
756.693	5990.85
757.031	6071.97
757.368	6099.54
757.706	6199.2
758.044	6224.74
758.381	6347.67
758.719	6421.12
759.056	6487.56
759.394	6556.71
759.731	6574.11
760.068	6656.36
760.405	6785.17
760.743	6809.35
761.08	6897.49
761.417	7006.64
761.754	7029.24
762.091	7135.22
762.428	7178.84
762.765	7158.5
763.102	7257.25
763.438	7363.46
763.775	7418.38
764.112	7499.05
764.449	7546.74
764.785	7596
765.122	7603.23
765.458	7634.87
765.795	7789.44
766.131	7832.83
766.467	7908.53
766.804	7876.45
767.14	7930.23
767.476	8040.51
767.812	8030.11
768.148	8092.03
768.485	8099.26
768.821	8146.04
769.157	8224.01
769.492	8213.84
769.828	8344
770.164	8328.64
770.5	8386.49
770.836	8386.26
771.171	8415.41
771.507	8412.7
771.842	8434.17
772.178	8476.43
772.513	8537.22
772.849	8510.78
773.184	8497.67
773.519	8567.73
773.855	8633.49
774.19	8598.69
774.525	8602.3
774.86	8689.76
775.195	8718.23
775.53	8645.92
775.865	8697.44
776.2	8677.78
776.535	8657.22
776.87	8698.57
777.205	8734.5
777.539	8725.24
777.874	8781.51
778.209	8755.97
778.543	8761.62
778.878	8737.21
779.212	8781.05
779.547	8696.08
779.881	8819.25
780.215	8848.17
780.55	8817.21
780.884	8787.16
781.218	8781.73
781.552	8892.46
781.886	8832.35
782.22	8793.03
782.554	8814.73
782.888	8775.4
783.222	8762.52
783.556	8770.89
783.889	8789.19
784.223	8776.76
784.557	8824.22
784.89	8775.4
785.224	8831.45
785.557	8741.06
785.891	8792.58
786.224	8733.15
786.558	8777.66
786.891	8726.37
787.224	8704.45
787.557	8703.99
787.891	8687.95
788.224	8744.9
788.557	8776.08
788.89	8722.07
789.223	8736.76
789.556	8671.68
789.888	8678.91
790.221	8686.14
790.554	8649.31
790.887	8725.46
791.219	8671.9
791.552	8725.69
791.884	8640.95
792.217	8597.78
792.549	8666.71
792.882	8579.93
793.214	8651.79
793.546	8666.03
793.879	8551.91
794.211	8577.44
794.543	8595.52
794.875	8565.47
795.207	8604.79
795.539	8497.45
795.871	8589.65
796.203	8498.35
796.535	8471.01
796.867	8521.17
797.198	8476.2
797.53	8468.29
797.862	8412.93
798.193	8448.86
798.525	8468.52
798.856	8497.67
799.188	8358.01
799.519	8340.84
799.85	8356.43
800.182	8347.62
800.513	8374.96
800.844	8324.34
801.175	8381.97
801.506	8404.34
801.837	8267.62
802.168	8321.41
802.499	8351.46
802.83	8286.15
803.161	8283.21
803.491	8233.5
803.822	8255.19
804.153	8208.19
804.483	8232.82
804.814	8114.86
805.145	8226.72
805.475	8131.81
805.805	8134.52
806.136	8159.83
806.466	8141.98
806.796	8196.89
807.126	8107.4
807.457	8114.86
807.787	8130.9
808.117	8042.09
808.447	7986.5
808.777	7997.8
809.107	8033.28
809.436	8013.17
809.766	8032.15
810.096	7961.19
810.426	8046.84
810.755	7971.13
811.085	7944.69
811.414	7985.6
811.744	7969.1
812.073	7927.52
812.403	7966.61
812.732	7902.21
813.061	7884.13
813.39	7853.17
813.719	7823.57
814.049	7907.41
814.378	7890.23
814.707	7813.85
815.036	7813.4
815.365	7791.93
815.693	7735.66
816.022	7830.34
816.351	7778.82
816.68	7683.23
817.008	7699.5
817.337	7674.87
817.665	7636.9
817.994	7708.99
818.322	7754.87
818.651	7675.32
818.979	7623.8
819.307	7698.6
819.636	7651.14
819.964	7628.54
820.292	7659.28
820.62	7696.34
820.948	7593.74
821.276	7686.17
821.604	7628.09
821.932	7622.89
822.259	7731.14
822.587	7676.22
822.915	7659.28
823.243	7688.88
823.57	7673.29
823.898	7607.75
824.225	7636.45
824.553	7669.67
824.88	7627.41
825.207	7696.79
825.535	7699.5
825.862	7701.76
826.189	7654.98
826.516	7770.69
826.843	7681.2
827.17	7668.09
827.497	7750.12
827.824	7744.25
828.151	7749.67
828.478	7755.32
828.805	7785.83
829.131	7709.67
829.458	7764.81
829.785	7656.79
830.111	7717.35
830.438	7758.48
830.764	7697.92
831.09	7793.96
831.417	7722.55
831.743	7736.56
832.069	7734.98
832.395	7750.8
832.722	7778.14
833.048	7727.3
833.374	7739.05
833.7	7701.53
834.026	7723.23
834.351	7756.9
834.677	7697.02
835.003	7740.86
835.329	7682.55
835.654	7729.56
835.98	7689.56
836.306	7699.73
836.631	7672.83
836.956	7658.6
837.282	7691.82
837.607	7683.68
837.932	7690.91
838.258	7696.11
838.583	7703.79
838.908	7603.01
839.233	7626.51
839.558	7603.01
839.883	7618.15
840.208	7584.7
840.533	7638.49
840.858	7622.89
841.182	7538.15
841.507	7546.96
841.832	7540.41
842.156	7486.17
842.481	7568.2
842.805	7529.56
843.13	7480.52
843.454	7441.88
843.778	7481.88
844.103	7394.2
844.427	7418.15
844.751	7376.8
845.075	7423.12
845.399	7329.12
845.723	7289.79
846.047	7364.82
846.371	7276.91
846.695	7306.74
847.019	7195.33
847.343	7235.56
847.666	7211.15
847.99	7128.89
848.313	7116.92
848.637	7036.24
848.96	7100.42
849.284	7018.39
849.607	7017.48
849.931	6932.52
850.254	6964.38
850.577	6936.81
850.9	6917.83
851.223	6900.88
851.546	6848.68
851.869	6806.64
852.192	6831.73
852.515	6816.81
852.838	6701.34
853.161	6699.75
853.483	6716.25
853.806	6737.04
854.129	6732.29
854.451	6619.98
854.774	6692.3
855.096	6611.62
855.419	6645.29
855.741	6593.54
856.063	6581.34
856.385	6577.72
856.708	6536.82
857.03	6542.7
857.352	6493.88
857.674	6496.14
857.996	6452.75
858.318	6503.83
858.64	6435.35
858.961	6439.87
859.283	6393.32
859.605	6347.9
859.926	6326.88
860.248	6339.99
860.57	6327.11
860.891	6348.58
861.212	6331.85
861.534	6328.69
861.855	6284.85
862.176	6333.66
862.498	6243.27
862.819	6263.38
863.14	6256.38
863.461	6247.56
863.782	6207.34
864.103	6202.82
864.424	6220.9
864.745	6235.13
865.065	6187.22
865.386	6208.92
865.707	6171.18
866.027	6182.93
866.348	6123.27
866.668	6172.08
866.989	6114.01
867.309	6084.18
867.63	6110.84
867.95	6112.65
868.27	6117.17
868.59	6120.11
868.91	6058.87
869.23	6079.66
869.55	6057.51
869.87	6045.99
870.19	6042.14
870.51	6029.26
870.83	5996.49
871.15	5965.54
871.469	6032.65
871.789	6055.02
872.109	6023.39
872.428	5970.51
872.748	5965.99
873.067	5960.11
873.386	5981.81
873.706	5944.97
874.025	5954.69
874.344	5934.8
874.663	5939.32
874.982	5900.68
875.301	5902.49
875.62	5885.99
875.939	5900.68
876.258	5918.76
876.577	5809.61
876.896	5866.55
877.214	5837.85
877.533	5835.37
877.852	5799.66
878.17	5810.96
878.489	5805.54
878.807	5807.35
879.125	5836.5
879.444	5832.21
879.762	5800.79
880.08	5788.59
880.398	5776.39
880.716	5768.03
881.034	5734.81
881.352	5718.54
881.67	5696.62
881.988	5742.26
882.306	5725.99
882.624	5726.67
882.941	5647.58
883.259	5658.42
883.577	5612.32
883.894	5606.67
884.212	5554.92
884.529	5644.41
884.846	5601.03
885.164	5646.45
885.481	5565.77
885.798	5560.35
886.115	5528.48
886.432	5545.89
886.75	5524.87
887.067	5503.85
887.383	5456.62
887.7	5505.43
888.017	5486.68
888.334	5460.01
888.651	5457.75
888.967	5470.18
889.284	5421.37
889.6	5392.89
889.917	5395.15
890.233	5346.34
890.55	5309.06
890.866	5327.81
891.182	5324.42
891.498	5310.86
891.815	5324.2
892.131	5236.06
892.447	5270.64
892.763	5251.2
893.079	5260.7
893.395	5241.71
893.71	5242.39
894.026	5204.88
894.342	5184.54
894.657	5135.95
894.973	5145.44
895.289	5095.95
895.604	5165.56
895.92	5105.9
896.235	5107.25
896.55	5090.08
896.865	5055.05
897.181	5089.4
897.496	5075.62
897.811	5031.55
898.126	4935.51
898.441	4976.41
898.756	4941.61
899.071	4922.85
899.386	4949.74
899.7	4899.35
900.015	4888.95
900.33	4830.42
900.644	4868.16
900.959	4867.26
901.273	4825.23
901.588	4825.23
901.902	4721.27
902.216	4729.64
902.531	4763.31
902.845	4692.8
903.159	4674.95
903.473	4665
903.787	4668.39
904.101	4697.32
904.415	4696.19
904.729	4651.9
905.042	4607.38
905.356	4562.18
905.67	4581.39
905.984	4580.03
906.297	4528.51
906.611	4545.91
906.924	4541.17
907.237	4515.86
907.551	4479.7
907.864	4428.63
908.177	4465.01
908.491	4417.33
908.804	4399.25
909.117	4381.4
909.43	4364.45
909.743	4360.38
910.056	4349.08
910.368	4298.69
910.681	4295.75
910.994	4299.14
911.307	4284
911.619	4231.34
911.932	4242.42
912.244	4194.28
912.557	4213.94
912.869	4221.4
913.181	4189.31
913.494	4187.05
913.806	4159.26
914.118	4110.44
914.43	4148.18
914.742	4071.57
915.054	4100.73
915.366	4077.45
915.678	4058.47
915.99	4022.31
916.302	3985.7
916.613	4004.23
916.925	4004
917.236	3935.31
917.548	3986.15
917.859	3921.75
918.171	3924.01
918.482	3925.36
918.794	3908.19
919.105	3881.97
919.416	3825.48
919.727	3862.54
920.038	3826.16
920.349	3768.98
920.66	3791.13
920.971	3742.77
921.282	3715.88
921.593	3775.08
921.903	3720.62
922.214	3714.75
922.525	3673.39
922.835	3706.61
923.146	3693.73
923.456	3695.54
923.767	3660.06
924.077	3624.35
924.387	3632.72
924.697	3577.12
925.008	3603.34
925.318	3609.44
925.628	3562.66
925.938	3575.77
926.248	3516.11
926.558	3538.25
926.867	3517.69
927.177	3506.62
927.487	3491.7
927.796	3475.66
928.106	3466.17
928.416	3443.57
928.725	3442.44
929.034	3418.26
929.344	3427.07
929.653	3409.9
929.962	3360.86
930.271	3338.03
930.581	3320.86
930.89	3330.12
931.199	3317.7
931.508	3280.41
931.817	3319.73
932.125	3291.26
932.434	3269.79
932.743	3262.56
933.051	3271.37
933.36	3242.22
933.669	3222.56
933.977	3199.28
934.286	3254.42
934.594	3191.14
934.902	3168.32
935.21	3123.58
935.519	3109.57
935.827	3150.47
936.135	3099.17
936.443	3090.81
936.751	3103.92
937.059	3128.77
937.367	3072.73
937.674	3070.92
937.982	3020.75
938.29	3020.53
938.597	3060.98
938.905	2998.38
939.213	2999.74
939.52	2941.43
939.827	2980.08
940.135	2991.38
940.442	2952.28
940.749	2933.3
941.056	2938.95
941.363	2888.1
941.67	2916.12
941.977	2926.97
942.284	2881.32
942.591	2907.99
942.898	2863.02
943.205	2861.89
943.511	2826.41
943.818	2856.92
944.125	2821.89
944.431	2813.75
944.738	2800.19
945.044	2777.82
945.35	2775.34
945.657	2812.17
945.963	2721.55
946.269	2748.44
946.575	2719.52
946.881	2720.87
947.187	2694.43
947.493	2696.02
947.799	2698.5
948.105	2682.23
948.41	2653.31
948.716	2639.97
949.022	2625.74
949.327	2663.7
949.633	2610.6
949.938	2653.31
950.244	2589.35
950.549	2591.61
950.854	2566.75
951.16	2567.88
951.465	2581.67
951.77	2553.2
952.075	2562.91
952.38	2528.34
952.685	2523.82
952.99	2530.15
953.294	2507.32
953.599	2473.65
953.904	2477.27
954.209	2461.22
954.513	2475.46
954.818	2409.24
955.122	2463.25
955.426	2428.45
955.731	2414.22
956.035	2431.39
956.339	2433.2
956.643	2375.8
956.948	2372.41
957.252	2369.92
957.556	2378.28
957.86	2352.52
958.163	2358.17
958.467	2332.41
958.771	2355.01
959.075	2303.03
959.378	2317.5
959.682	2305.97
959.985	2289.7
960.289	2265.52
960.592	2243.37
960.896	2266.42
961.199	2259.64
961.502	2286.99
961.805	2238.18
962.108	2195.01
962.411	2225.29
962.714	2186.2
963.017	2192.98
963.32	2182.81
963.623	2198.4
963.926	2140.33
964.228	2147.33
964.531	2144.84
964.833	2145.3
965.136	2147.78
965.438	2147.78
965.741	2099.2
966.043	2116.82
966.345	2096.26
966.648	2087.22
966.95	2086.54
967.252	2068.24
967.554	2044.28
967.856	2039.54
968.158	2067.33
968.46	2054.68
968.761	2047.22
969.063	2022.59
969.365	2017.84
969.666	1956.6
969.968	1978.97
970.269	2005.64
970.571	1948.92
970.872	2011.74
971.174	1948.01
971.475	1967.67
971.776	1928.35
972.077	1933.1
972.378	1959.54
972.679	1918.64
972.98	1947.34
973.281	1901.01
973.582	1936.04
973.883	1878.64
974.183	1903.04
974.484	1891.74
974.785	1870.05
975.085	1885.42
975.386	1859.2
975.686	1847.9
975.986	1863.5
976.287	1847.68
976.587	1824.63
976.887	1853.78
977.187	1847
977.487	1823.72
977.787	1793.44
978.087	1802.48
978.387	1798.41
978.687	1792.31
978.987	1778.75
979.286	1769.04
979.586	1757.74
979.885	1768.58
980.185	1752.76
980.484	1746.21
980.784	1743.27
981.083	1734.91
981.382	1738.53
981.682	1675.25
981.981	1684.74
982.28	1694.24
982.579	1691.75
982.878	1708.47
983.177	1683.16
983.475	1713.44
983.774	1658.76
984.073	1686.55
984.372	1642.49
984.67	1633.9
984.969	1656.72
985.267	1629.38
985.566	1598.64
985.864	1633.22
986.162	1629.83
986.461	1589.15
986.759	1598.42
987.057	1597.74
987.355	1593.45
987.653	1581.02
987.951	1604.29
988.249	1559.78
988.547	1554.58
988.844	1533.79
989.142	1567.01
989.44	1561.13
989.737	1542.15
990.035	1548.7
990.332	1520.23
990.63	1513.67
990.927	1527.91
991.224	1520.68
991.521	1501.25
991.819	1499.89
992.116	1484.07
992.413	1464.64
992.71	1487.69
993.006	1478.2
993.303	1468.25
993.6	1485.43
993.897	1445.43
994.193	1462.15
994.49	1424.19
994.787	1421.93
995.083	1433.68
995.379	1388.25
995.676	1409.5
995.972	1417.41
996.268	1428.71
996.565	1401.14
996.861	1360.91
997.157	1375.15
997.453	1375.6
997.749	1345.77
998.044	1355.49
998.34	1367.46
998.636	1357.52
998.932	1342.61
999.227	1329.95
999.523	1340.35
999.818	1306.9
1000.114	1325.88
1000.409	1294.02
1000.704	1287.24
1001	1290.4
1001.295	1299.22
1001.59	1284.75
1001.885	1294.92
1002.18	1251.08
1002.475	1278.43
1002.77	1286.79
1003.065	1224.87
1003.359	1236.39
1003.654	1294.92
1003.949	1214.93
1004.243	1242.04
1004.538	1227.58
1004.832	1216.51
1005.127	1219.22
1005.421	1217.19
1005.715	1225.09
1006.009	1206.11
1006.304	1189.39
1006.598	1197.98
1006.892	1178.32
1007.186	1158.43
1007.48	1167.02
1007.773	1176.96
1008.067	1157.53
1008.361	1120.69
1008.655	1128.6
1008.948	1130.18
1009.242	1116.17
1009.535	1119.79
1009.829	1106.23
1010.122	1061.03
1010.415	1098.54
1010.708	1085.21
1011.001	1098.54
1011.295	1100.13
1011.588	1087.47
1011.881	1075.04
1012.173	1059.22
1012.466	1063.29
1012.759	1080.24
1013.052	1080.47
1013.344	1047.7
1013.637	1048.15
1013.93	1041.37
1014.222	1038.89
1014.514	1014.48
1014.807	1037.3
1015.099	1016.74
1015.391	1020.13
1015.683	981.49
1015.976	996.63
1016.268	989.17
1016.56	993.69
1016.851	969.28
1017.143	1016.96
1017.435	998.66
1017.727	965.44
1018.018	960.7
1018.31	982.39
1018.602	954.14
1018.893	934.26
1019.185	936.97
1019.476	932.67
1019.767	938.32
1020.058	900.13
1020.35	929.74
1020.641	908.04
1020.932	921.15
1021.223	910.53
1021.514	906.01
1021.804	864.65
1022.095	913.92
1022.386	887.25
1022.677	904.88
1022.967	877.99
1023.258	866.01
1023.548	856.97
1023.839	880.7
1024.129	875.5
1024.419	874.14
1024.709	839.57
1025	864.88
1025.29	855.61
1025.58	834.37
1025.87	825.33
1026.16	827.37
1026.449	814.48
1026.739	817.2
1027.029	799.34
1027.319	811.77
1027.608	801.38
1027.898	814.94
1028.187	797.08
1028.477	762.51
1028.766	792.79
1029.055	800.7
1029.344	781.04
1029.634	760.47
1029.923	776.29
1030.212	770.87
1030.501	776.29
1030.79	756.86
1031.078	751.89
1031.367	733.13
1031.656	731.1
1031.945	740.36
1032.233	749.4
1032.522	749.85
1032.81	712.57
1033.099	729.29
1033.387	731.1
1033.675	750.08
1033.963	729.29
1034.251	710.98
1034.54	721.83
1034.828	698.56
1035.116	689.06
1035.403	734.71
1035.691	684.54
1035.979	704.2
1036.267	691.78
1036.554	691.55
1036.842	691.78
1037.129	702.62
1037.417	670.99
1037.704	668.5
1037.992	653.81
1038.279	668.05
1038.566	671.44
1038.853	671.44
1039.14	671.44
