Data from blue_clamp_base_FLMS001491_00098.txt Node
Date: Wed Feb 08 15:16:49 GMT 2017
User: dcchb
Spectrometer: FLMS00149
Trigger mode: 0
Integration Time (sec): 2.000000E-2
Scans to average: 10
Electric dark correction enabled: true
Nonlinearity correction enabled: false
Boxcar width: 0
XAxis mode: Wavelengths
Number of Pixels in Spectrum: 2048
>>>>>Begin Spectral Data<<<<<
341.393	-2.54
341.776	-2.54
342.16	-2.54
342.543	-59.04
342.927	-53.84
343.31	-77.79
343.693	-70.79
344.077	-66.5
344.46	-56.1
344.843	-35.31
345.226	-58.36
345.61	-26.5
345.993	-7.29
346.376	8.3
346.759	-5.71
347.142	30.68
347.525	51.47
347.908	39.49
348.291	94.4
348.674	80.62
349.057	99.38
349.44	110.9
349.823	147.28
350.206	161.97
350.588	194.97
350.971	220.5
351.354	232.03
351.737	243.78
352.119	262.54
352.502	255.76
352.884	291.91
353.267	290.33
353.65	296.43
354.032	305.25
354.414	297.34
354.797	322.42
355.179	331.69
355.562	337.56
355.944	326.49
356.326	324.91
356.709	337.11
357.091	351.8
357.473	377.56
357.855	360.39
358.238	338.24
358.62	340.5
359.002	363.32
359.384	334.4
359.766	355.64
360.148	338.47
360.53	347.05
360.912	350.44
361.294	333.27
361.676	332.82
362.057	338.92
362.439	321.07
362.821	327.84
363.203	324.68
363.584	336.43
363.966	334.85
364.348	327.17
364.729	337.56
365.111	329.43
365.493	316.77
365.874	336.43
366.256	314.74
366.637	331.69
367.019	314.96
367.4	335.53
367.781	313.38
368.163	327.39
368.544	325.81
368.925	357.45
369.306	348.18
369.688	330.1
370.069	337.34
370.45	335.53
370.831	313.61
371.212	322.19
371.593	335.53
371.974	332.59
372.355	325.58
372.736	315.19
373.117	348.18
373.498	324
373.879	321.74
374.26	334.62
374.641	332.36
375.021	320.84
375.402	329.2
375.783	329.88
376.163	368.97
376.544	332.82
376.925	351.8
377.305	350.89
377.686	342.53
378.066	345.47
378.447	362.65
378.827	368.75
379.208	353.15
379.588	345.92
379.968	341.63
380.349	359.26
380.729	381.63
381.109	370.56
381.489	351.8
381.87	385.7
382.25	373.04
382.63	378.24
383.01	375.75
383.39	378.24
383.77	389.99
384.15	383.89
384.53	377.56
384.91	387.28
385.29	365.36
385.67	369.65
386.049	385.24
386.429	389.09
386.809	411.68
387.189	388.18
387.568	394.51
387.948	408.97
388.328	400.38
388.707	419.14
389.087	413.49
389.466	412.14
389.846	419.14
390.225	429.31
390.605	422.76
390.984	423.21
391.363	421.18
391.743	429.54
392.122	447.84
392.501	438.8
392.881	439.93
393.26	450.1
393.639	454.17
394.018	442.19
394.397	471.12
394.776	463.89
395.155	463.66
395.534	467.5
395.913	475.41
396.292	473.15
396.671	484
397.05	496.43
397.429	497.56
397.808	508.4
398.186	477.22
398.565	500.27
398.944	501.85
399.323	508.86
399.701	525.13
400.08	518.35
400.458	520.83
400.837	527.84
401.215	531.45
401.594	565.35
401.972	528.29
402.351	544.56
402.729	559.7
403.107	563.77
403.486	554.28
403.864	564
404.242	584.56
404.62	589.31
404.999	584.56
405.377	609.42
405.755	606.93
406.133	614.16
406.511	604.9
406.889	598.35
407.267	621.62
407.645	652.58
408.023	657.55
408.401	651
408.779	650.1
409.156	653.49
409.534	670.21
409.912	676.31
410.29	693.26
410.667	706.82
411.045	722.86
411.422	731
411.8	726.93
412.178	732.35
412.555	731.68
412.933	769.41
413.31	783.88
413.687	767.38
414.065	770.09
414.442	792.47
414.819	807.61
415.197	822.52
415.574	814.61
415.951	812.35
416.328	854.16
416.705	823.42
417.082	841.73
417.46	854.16
417.837	854.38
418.214	872.69
418.591	884.89
418.967	887.6
419.344	879.02
419.721	901.84
420.098	905.91
420.475	916.08
420.852	904.55
421.228	947.72
421.605	947.26
421.982	952.23
422.358	972.35
422.735	950.43
423.111	981.61
423.488	977.09
423.864	980.26
424.241	1013.02
424.617	1024.55
424.994	1047.37
425.37	1018.22
425.746	1033.59
426.123	1061.38
426.499	1076.75
426.875	1086.47
427.251	1056.86
427.627	1109.07
428.003	1126.02
428.379	1131.44
428.756	1130.31
429.132	1163.3
429.507	1159.01
429.883	1173.7
430.259	1217.76
430.635	1218.67
431.011	1213.02
431.387	1250.53
431.763	1259.8
432.138	1293.02
432.514	1311.77
432.89	1343.64
433.265	1337.08
433.641	1356.07
434.016	1358.55
434.392	1353.13
434.767	1402.17
435.143	1417.31
435.518	1464.76
435.894	1448.72
436.269	1461.83
436.644	1480.58
437.02	1490.98
437.395	1503.86
437.77	1534.82
438.145	1560.58
438.52	1538.66
438.895	1607.58
439.271	1587.25
439.646	1631.31
440.021	1612.1
440.395	1643.29
440.77	1638.54
441.145	1653.91
441.52	1675.15
441.895	1657.75
442.27	1716.51
442.645	1723.97
443.019	1739.56
443.394	1765.32
443.769	1777.98
444.143	1721.03
444.518	1808.48
444.892	1782.04
445.267	1815.26
445.641	1827.69
446.016	1855.71
446.39	1870.63
446.764	1856.17
447.139	1875.6
447.513	1868.37
447.887	1899.55
448.262	1915.37
448.636	1931.64
449.01	1947.01
449.384	1943.62
449.758	1990.17
450.132	2001.47
450.506	2023.62
450.88	2013.45
451.254	2030.62
451.628	2052.32
452.002	2057.06
452.376	2085.31
452.75	2120.79
453.123	2137.74
453.497	2155.14
453.871	2169.6
454.244	2216.38
454.618	2228.81
454.992	2259.77
455.365	2235.36
455.739	2317.62
456.112	2351.52
456.486	2341.12
456.859	2377.28
457.232	2417.96
457.606	2433.55
457.979	2476.94
458.352	2487.34
458.725	2479.88
459.099	2516.26
459.472	2550.16
459.845	2592.64
460.218	2632.42
460.591	2610.04
460.964	2645.98
461.337	2651.85
461.71	2737.27
462.083	2757.39
462.456	2774.56
462.829	2783.15
463.201	2814.56
463.574	2839.19
463.947	2886.42
464.32	2979.3
464.692	2969.81
465.065	2944.05
465.438	3019.07
465.81	3030.6
466.183	3071.73
466.555	3117.83
466.928	3150.37
467.3	3145.62
467.672	3163.25
468.045	3249.35
468.417	3256.81
468.789	3303.59
469.161	3292.06
469.534	3371.61
469.906	3452.28
470.278	3457.71
470.65	3477.59
471.022	3549.45
471.394	3604.14
471.766	3606.63
472.138	3650.24
472.51	3728.89
472.882	3769.79
473.253	3766.4
473.625	3842.55
473.997	3937.69
474.369	3930.01
474.74	3959.39
475.112	4034.64
475.484	4071.02
475.855	4139.72
476.227	4148.08
476.598	4226.27
476.97	4295.2
477.341	4396.89
477.713	4413.84
478.084	4423.33
478.455	4563.21
478.827	4586.72
479.198	4710.33
479.569	4678.24
479.94	4799.14
480.311	4820.61
480.682	4887.5
481.053	5020.83
481.424	5048.4
481.795	5093.37
482.166	5186.02
482.537	5237.32
482.908	5279.58
483.279	5319.8
483.65	5392.8
484.021	5463.3
484.391	5503.08
484.762	5537.2
485.133	5597.54
485.503	5654.26
485.874	5736.29
486.244	5797.53
486.615	5867.36
486.985	5886.57
487.356	5999.33
487.726	5986.9
488.097	6092.89
488.467	6055.38
488.837	6234.36
489.207	6233.23
489.578	6339.21
489.948	6324.97
490.318	6423.96
490.688	6373.56
491.058	6499.66
491.428	6525.87
491.798	6577.85
492.168	6682.48
492.538	6715.02
492.908	6687.9
493.278	6819.65
493.648	6817.17
494.017	6848.35
494.387	6850.16
494.757	6894.45
495.126	6945.52
495.496	6968.12
495.866	7013.32
496.235	7027.33
496.605	7047.44
496.974	7103.26
497.344	7101.9
497.713	7184.84
498.082	7177.83
498.452	7259.41
498.821	7275.23
499.19	7202.69
499.559	7365.85
499.928	7307.32
500.298	7336.02
500.667	7378.51
501.036	7390.71
501.405	7455.79
501.774	7404.49
502.143	7450.14
502.512	7490.14
502.88	7536.02
503.249	7536.02
503.618	7537.37
503.987	7499.86
504.356	7597.94
504.724	7637.48
505.093	7647.65
505.462	7594.32
505.83	7683.81
506.199	7755.22
506.567	7782.11
506.936	7716.8
507.304	7853.3
507.672	7797.03
508.041	7907.08
508.409	7873.63
508.777	7933.75
509.145	7996.34
509.514	7958.15
509.882	8008.09
510.25	7969.68
510.618	8042.67
510.986	8098.71
511.354	8171.93
511.722	8116.57
512.09	8143.01
512.458	8169.22
512.826	8266.17
513.193	8242.44
513.561	8227.52
513.929	8242.66
514.297	8331.48
514.664	8351.59
515.032	8333.74
515.4	8437.24
515.767	8464.81
516.135	8439.5
516.502	8425.48
516.869	8520.62
517.237	8556.78
517.604	8532.6
517.972	8586.61
518.339	8669.55
518.706	8682.2
519.073	8627.29
519.44	8700.96
519.808	8724.46
520.175	8751.8
520.542	8772.14
520.909	8844.46
521.276	8805.14
521.643	8877
522.009	8956.54
522.376	8911.8
522.743	8994.28
523.11	9050.78
523.477	9102.98
523.843	9073.38
524.21	9169.42
524.577	9217.78
524.943	9281.28
525.31	9228.4
525.676	9416.19
526.043	9381.84
526.409	9438.57
526.776	9494.84
527.142	9516.08
527.508	9567.83
527.874	9585.91
528.241	9620.71
528.607	9665.45
528.973	9719.24
529.339	9676.53
529.705	9759.69
530.071	9826.13
530.437	9912.9
530.803	9853.92
531.169	9935.73
531.535	9921.49
531.901	9962.62
532.267	9986.8
532.632	10029.96
532.998	10090.53
533.364	10097.53
533.73	10074.71
534.095	10146.34
534.461	10213.01
534.826	10293.91
535.192	10255.95
535.557	10344.08
535.923	10293.23
536.288	10301.37
536.653	10399.67
537.019	10396.51
537.384	10507.01
537.749	10505.2
538.114	10439.67
538.479	10523.96
538.845	10532.77
539.21	10539.55
539.575	10572.32
539.94	10627.69
540.305	10656.84
540.67	10640.12
541.034	10682.6
541.399	10658.19
541.764	10785.65
542.129	10841.01
542.494	10819.77
542.858	10852.99
543.223	10890.28
543.587	10895.48
543.952	10912.42
544.316	10939.09
544.681	10957.4
545.045	10986.55
545.41	11096.6
545.774	11104.96
546.138	11105.87
546.503	11133.89
546.867	11130.5
547.231	11211.4
547.595	11172.98
547.959	11227.67
548.324	11189.93
548.688	11312.64
549.052	11295.69
549.416	11344.73
549.779	11291.4
550.143	11312.41
550.507	11469.7
550.871	11416.59
551.235	11467.66
551.599	11530.71
551.962	11497.27
552.326	11495.23
552.689	11608.23
553.053	11577.94
553.417	11535.23
553.78	11699.75
554.143	11575.68
554.507	11717.83
554.87	11678.96
555.234	11829.46
555.597	11720.54
555.96	11879.41
556.323	11787.88
556.686	11855
557.05	11874.66
557.413	11866.52
557.776	11917.82
558.139	11948.1
558.502	12012.96
558.865	12007.76
559.228	12107.87
559.59	12147.42
559.953	12178.83
560.316	12214.31
560.679	12219.96
561.041	12319.39
561.404	12372.73
561.767	12457.7
562.129	12363.01
562.492	12508.99
562.854	12524.81
563.217	12514.64
563.579	12475.55
563.941	12678.25
564.304	12612.04
564.666	12787.18
565.028	12691.81
565.39	12750.34
565.753	12866.05
566.115	12866.27
566.477	12996.66
566.839	13025.59
567.201	13014.06
567.563	13039.83
567.925	13211.57
568.287	13198.47
568.648	13137.9
569.01	13273.27
569.372	13249.54
569.734	13252.02
570.095	13354.39
570.457	13430.32
570.819	13433.49
571.18	13414.51
571.542	13534.95
571.903	13527.05
572.265	13599.81
572.626	13650.88
572.987	13704.89
573.349	13660.6
573.71	13753.93
574.071	13855.4
574.432	13835.96
574.794	13946.24
575.155	14022.17
575.516	13951.44
575.877	13986.24
576.238	14004.55
576.599	14100.82
576.96	14055.39
577.32	14185.79
577.681	14081.61
578.042	14167.03
578.403	14181.72
578.763	14198.21
579.124	14318.66
579.485	14382.16
579.845	14336.74
580.206	14396.85
580.566	14409.73
580.927	14395.27
581.287	14505.1
581.648	14386.01
582.008	14499
582.368	14443.86
582.728	14473.01
583.089	14536.96
583.449	14553.01
583.809	14514.14
584.169	14555.94
584.529	14564.31
584.889	14717.3
585.249	14530.18
585.609	14440.02
585.969	14592.55
586.329	14583.51
586.688	14710.07
587.048	14642.04
587.408	14653.8
587.768	14628.03
588.127	14612.89
588.487	14635.04
588.846	14736.05
589.206	14728.37
589.565	14708.48
589.925	14692.21
590.284	14681.82
590.643	14680.46
591.003	14759.33
591.362	14770.4
591.721	14806.33
592.08	14860.57
592.44	14826.67
592.799	14722.04
593.158	14849.72
593.517	14792.32
593.876	14873.68
594.235	14728.6
594.593	14845.43
594.952	14935.82
595.311	14816.96
595.67	14921.81
596.029	15004.07
596.387	14962.04
596.746	15004.29
597.104	14928.14
597.463	14944.41
597.822	14912.09
598.18	14878.2
598.538	14936.95
598.897	14997.29
599.255	14925.2
599.613	15056.5
599.972	15087.91
600.33	14990.51
600.688	15011.75
601.046	15068.02
601.404	15058.98
601.762	15084.07
602.12	15194.57
602.478	15097.63
602.836	15144.63
603.194	15106.66
603.552	15051.75
603.91	15025.54
604.268	15171.07
604.625	15086.78
604.983	15164.29
605.341	15091.07
605.698	15160.67
606.056	15249.03
606.413	15132.88
606.771	15248.58
607.128	15212.65
607.485	15186.66
607.843	15182.6
608.2	15246.32
608.557	15388.01
608.914	15369.03
609.272	15366.09
609.629	15368.13
609.986	15430.5
610.343	15347.56
610.7	15499.2
611.057	15463.27
611.414	15387.79
611.771	15371.06
612.127	15397.28
612.484	15506.65
612.841	15576.03
613.198	15617.16
613.554	15555.01
613.911	15639.53
614.267	15559.08
614.624	15578.06
614.98	15537.39
615.337	15745.97
615.693	15695.8
616.05	15620.55
616.406	15747.1
616.762	15663.49
617.118	15682.69
617.475	15717.95
617.831	15761.79
618.187	15796.14
618.543	15763.14
618.899	15922.46
619.255	15773.99
619.611	15863.71
619.967	15885.18
620.323	15859.41
620.678	15838.85
621.034	15808.12
621.39	15835.46
621.746	15825.29
622.101	15954.55
622.457	15927.21
622.812	15919.52
623.168	15945.06
623.523	15980.31
623.879	16056.02
624.234	15893.99
624.589	16078.39
624.945	16076.13
625.3	16143.02
625.655	16050.82
626.01	16013.99
626.365	16102.57
626.72	16014.21
627.075	16093.53
627.43	16072.52
627.785	16004.27
628.14	16151.84
628.495	16155
628.85	16198.16
629.205	16174.89
629.559	16242.68
629.914	16181.21
630.269	16233.19
630.623	16169.24
630.978	16126.07
631.332	16183.7
631.687	16348.89
632.041	16210.14
632.396	16319.51
632.75	16251.49
633.104	16291.49
633.459	16168.56
633.813	16201.78
634.167	16178.73
634.521	16252.62
634.875	16333.07
635.229	16284.04
635.583	16228.22
635.937	16224.6
636.291	16231.16
636.645	16265.73
636.999	16346.63
637.352	16343.02
637.706	16290.36
638.06	16339.4
638.413	16294.88
638.767	16282
639.121	16303.92
639.474	16278.61
639.828	16151.84
640.181	16311.15
640.534	16370.36
640.888	16442.9
641.241	16233.64
641.594	16350.7
641.947	16383.92
642.301	16288.33
642.654	16413.75
643.007	16353.41
643.36	16342.56
643.713	16385.95
644.066	16411.26
644.419	16328.55
644.771	16270.7
645.124	16178.28
645.477	16097.37
645.83	15997.26
646.182	16085.62
646.535	15964.04
646.888	16160.65
647.24	16078.62
647.593	16143.7
647.945	16104.38
648.298	16101.22
648.65	16111.16
649.002	16063.93
649.355	16141.21
649.707	16132.63
650.059	16141.44
650.411	16387.99
650.763	16337.82
651.115	16704.59
651.467	16646.96
651.819	16600.64
652.171	16624.14
652.523	16616.46
652.875	16679.96
653.227	16606.74
653.578	16648.09
653.93	16677.47
654.282	16587.08
654.633	16604.03
654.985	16747.75
655.337	16736.45
655.688	16818.26
656.039	16796.79
656.391	16636.34
656.742	16662.33
657.094	16717.02
657.445	16764.47
657.796	16735.1
658.147	16689.67
658.498	16784.59
658.849	16851.48
659.2	16715.44
659.551	16746.4
659.902	16744.36
660.253	16852.61
660.604	16851.25
660.955	16744.59
661.306	16869.1
661.656	16793.85
662.007	16826.85
662.358	16733.29
662.708	16900.52
663.059	16772.16
663.409	16771.93
663.76	16863.45
664.11	16882.89
664.461	16889.44
664.811	16875.66
665.161	16833.63
665.511	16793.17
665.862	16937.58
666.212	16938.48
666.562	16862.1
666.912	16907.52
667.262	16817.81
667.612	16808.09
667.962	16739.16
668.312	16806.28
668.662	16909.56
669.011	16834.53
669.361	16753.4
669.711	16738.49
670.06	16719.73
670.41	16668.88
670.76	16669.79
671.109	16742.33
671.459	16671.6
671.808	16617.81
672.157	16639.05
672.507	16475.89
672.856	16547.31
673.205	16583.46
673.554	16559.51
673.904	16472.28
674.253	16565.16
674.602	16461.66
674.951	16207.43
675.3	16071.16
675.649	16477.48
675.998	16339.63
676.346	16304.83
676.695	16282.91
677.044	16246.75
677.393	16258.73
677.741	16331.27
678.09	16150.93
678.438	16241.32
678.787	16282
679.135	16226.86
679.484	16143.25
679.832	16094.66
680.181	16010.37
680.529	16053.76
680.877	16024.38
681.225	15995.46
681.573	16058.73
681.922	15948.68
682.27	15897.15
682.618	15857.15
682.966	15808.34
683.314	15860.32
683.661	15778.74
684.009	15786.2
684.357	15648.12
684.705	15656.26
685.053	15685.86
685.4	15636.59
685.748	15544.85
686.095	15541
686.443	15481.57
686.79	15434.11
687.138	15468.01
687.485	15484.51
687.832	15412.42
688.18	15456.26
688.527	15423.04
688.874	15420.1
689.221	15331.97
689.568	15311.41
689.915	15323.61
690.262	15224.4
690.609	15219.66
690.956	15134.23
691.303	15198.41
691.65	15079.32
691.997	15052.88
692.344	15105.99
692.69	14978.08
693.037	15113.9
693.383	14977.4
693.73	15018.08
694.077	14907.57
694.423	14927.46
694.769	14932.21
695.116	14912.32
695.462	14899.44
695.808	14782.83
696.155	14902.6
696.501	14731.76
696.847	14800.01
697.193	14698.77
697.539	14787.58
697.885	14726.34
698.231	14564.98
698.577	14654.02
698.923	14630.29
699.269	14614.47
699.614	14533.35
699.96	14510.07
700.306	14549.62
700.651	14473.69
700.997	14529.05
701.342	14392.11
701.688	14441.82
702.033	14454.93
702.379	14395.95
702.724	14360.02
703.069	14418.1
703.415	14239.34
703.76	14360.92
704.105	14320.47
704.45	14311.43
704.795	14208.84
705.14	14225.33
705.485	14175.84
705.83	14149.63
706.175	14156.18
706.52	14180.59
706.865	14100.59
707.209	14053.81
707.554	14034.38
707.899	14141.72
708.243	14011.78
708.588	14076.86
708.932	13928.39
709.277	14015.62
709.621	14014.04
709.966	13863.76
710.31	13955.73
710.654	13874.61
710.998	13841.16
711.342	13945.79
711.687	13899.24
712.031	13897.66
712.375	13838.45
712.719	13876.41
713.063	13852.69
713.407	13897.43
713.75	13829.64
714.094	13845.68
714.438	13802.74
714.782	13796.42
715.125	13767.04
715.469	13798.45
715.812	13834.61
716.156	13708.51
716.499	13727.49
716.843	13734.5
717.186	13659.7
717.53	13752.8
717.873	13778.79
718.216	13767.49
718.559	13652.01
718.902	13645.23
719.246	13684.33
719.589	13574.28
719.932	13632.35
720.275	13575.41
720.617	13518.91
720.96	13576.76
721.303	13550.55
721.646	13631.9
721.989	13563.2
722.331	13646.36
722.674	13550.77
723.016	13625.57
723.359	13595.74
723.701	13565.91
724.044	13510.55
724.386	13457.44
724.729	13476.2
725.071	13473.94
725.413	13493.37
725.755	13524.33
726.097	13454.5
726.439	13378.35
726.782	13416.99
727.124	13492.92
727.465	13350.33
727.807	13459.48
728.149	13424
728.491	13383.55
728.833	13434.17
729.175	13469.87
729.516	13421.96
729.858	13431
730.199	13417.67
730.541	13410.66
730.882	13363.21
731.224	13498.57
731.565	13464.22
731.906	13443.66
732.248	13449.76
732.589	13430.55
732.93	13423.09
733.271	13419.03
733.612	13445.92
733.953	13498.57
734.294	13528.85
734.635	13500.61
734.976	13483.88
735.317	13443.66
735.658	13518.91
735.999	13433.04
736.339	13464.45
736.68	13572.69
737.021	13510.55
737.361	13481.62
737.702	13611.11
738.042	13553.49
738.383	13598.23
738.723	13512.36
739.063	13611.11
739.404	13665.12
739.744	13623.54
740.084	13617.44
740.424	13706.02
740.764	13743.31
741.104	13821.95
741.444	13734.27
741.784	13787.6
742.124	13807.94
742.464	13827.15
742.804	13818.11
743.143	13850.65
743.483	13867.38
743.823	13900.59
744.162	13861.73
744.502	13967.26
744.841	13962.97
745.181	14004.55
745.52	14001.84
745.86	14066.47
746.199	14123.64
746.538	14068.05
746.877	14190.3
747.216	14166.8
747.556	14127.03
747.895	14240.25
748.234	14255.84
748.573	14226.24
748.911	14173.81
749.25	14215.61
749.589	14250.87
749.928	14366.8
750.267	14387.59
750.605	14500.58
750.944	14385.1
751.283	14364.09
751.621	14487.47
751.96	14419
752.298	14497.64
752.636	14532.44
752.975	14506
753.313	14527.47
753.651	14581.93
753.989	14601.82
754.327	14536.51
754.666	14558.88
755.004	14619.9
755.342	14751.87
755.679	14721.82
756.017	14667.81
756.355	14774.7
756.693	14667.58
757.031	14785.77
757.368	14721.36
757.706	14738.77
758.044	14764.53
758.381	14881.13
758.719	14863.28
759.056	14962.26
759.394	14851.53
759.731	14962.94
760.068	14864.86
760.405	14913.68
760.743	14944.64
761.08	15023.5
761.417	14918.87
761.754	15002.49
762.091	14947.35
762.428	14960.45
762.765	14953.9
763.102	15061.92
763.438	14987.12
763.775	14973.79
764.112	15040.45
764.449	15082.03
764.785	15037.74
765.122	14984.63
765.458	15003.84
765.795	15117.51
766.131	15025.31
766.467	15052.88
766.804	15111.64
767.14	15012.66
767.476	15016.27
767.812	15019.89
768.148	15064.18
768.485	15004.75
768.821	15034.8
769.157	15061.24
769.492	15029.38
769.828	15042.71
770.164	14997.29
770.5	14987.8
770.836	14921.59
771.171	14945.99
771.507	15009.49
771.842	14834.36
772.178	14893.79
772.513	14995.93
772.849	14921.13
773.184	14965.2
773.519	14976.27
773.855	14907.8
774.19	14878.2
774.525	14939.66
774.86	14931.98
775.195	14916.16
775.53	15000.23
775.865	14865.77
776.2	14709.16
776.535	14764.98
776.87	14782.61
777.205	14787.58
777.539	14718.88
777.874	14849.27
778.209	14727.69
778.543	14778.99
778.878	14703.29
779.212	14771.08
779.547	14710.29
779.881	14702.83
780.215	14687.47
780.55	14803.17
780.884	14728.37
781.218	14727.01
781.552	14685.43
781.886	14651.31
782.22	14649.73
782.554	14578.09
782.888	14477.3
783.222	14534.93
783.556	14531.54
783.889	14435.95
784.223	14393.69
784.557	14503.74
784.89	14562.72
785.224	14457.19
785.557	14377.64
785.891	14417.64
786.224	14388.72
786.558	14355.72
786.891	14315.95
787.224	14262.17
787.557	14344.88
787.891	14328.38
788.224	14265.56
788.557	14250.19
788.89	14293.58
789.223	14283.18
789.556	14169.06
789.888	14125.45
790.221	14146.92
790.554	14046.13
790.887	14117.54
791.219	14087.93
791.552	14067.14
791.884	14018.33
792.217	14036.86
792.549	13935.17
792.882	13922.29
793.214	13886.58
793.546	14005.22
793.879	13917.54
794.211	13887.04
794.543	13918.67
794.875	13826.02
795.207	13854.72
795.539	13906.24
795.871	13842.52
796.203	13747.38
796.535	13664.67
796.867	13696.53
797.198	13676.42
797.53	13761.16
797.862	13579.7
798.193	13665.8
798.525	13643.65
798.856	13647.72
799.188	13473.71
799.519	13459.93
799.85	13398.01
800.182	13497.22
800.513	13492.7
800.844	13451.79
801.175	13508.06
801.506	13461.28
801.837	13454.28
802.168	13419.03
802.499	13381.06
802.83	13387.39
803.161	13256.32
803.491	13329.08
803.822	13254.51
804.153	13173.38
804.483	13168.41
804.814	13188.52
805.145	13149.2
805.475	13162.76
805.805	13087.51
806.136	13150.11
806.466	13125.02
806.796	13094.97
807.126	13023.56
807.457	12982.65
807.787	13005.93
808.117	12929.32
808.447	12899.49
808.777	12969.32
809.107	12965.25
809.436	12847.97
809.766	12826.05
810.096	12896.33
810.426	12802.32
810.755	12741.3
811.085	12794.64
811.414	12771.36
811.744	12717.58
812.073	12706.5
812.403	12718.03
812.732	12651.14
813.061	12760.96
813.39	12652.27
813.719	12624.92
814.049	12624.47
814.378	12569.56
814.707	12563.23
815.036	12617.46
815.365	12549.44
815.693	12483.23
816.022	12449.79
816.351	12417.02
816.68	12337.25
817.008	12415.44
817.337	12272.84
817.665	12203.46
817.994	12276
818.322	12249.11
818.651	12233.97
818.979	12217.25
819.307	12292.05
819.636	12199.4
819.964	12187.65
820.292	12247.98
820.62	12137.7
820.948	12201.2
821.276	12272.62
821.604	12160.53
821.932	12191.49
822.259	12249.79
822.587	12213.18
822.915	12133.41
823.243	12210.7
823.57	12165.05
823.898	12137.48
824.225	12054.32
824.553	12137.48
824.88	12192.62
825.207	12211.83
825.535	12182
825.862	12266.51
826.189	12236.46
826.516	12244.14
826.843	12308.55
827.17	12202.79
827.497	12282.78
827.824	12279.17
828.151	12250.02
828.478	12318.49
828.805	12341.99
829.131	12280.98
829.458	12362.78
829.785	12195.1
830.111	12316.23
830.438	12293.63
830.764	12327.98
831.09	12378.38
831.417	12205.27
831.743	12280.75
832.069	12300.19
832.395	12223.12
832.722	12338.83
833.048	12249.79
833.374	12251.15
833.7	12160.3
834.026	12175.44
834.351	12246.18
834.677	12333.86
835.003	12248.21
835.329	12217.7
835.654	12245.05
835.98	12242.33
836.306	12229.9
836.631	12129.34
836.956	12201.2
837.282	12199.4
837.607	12177.25
837.932	12157.36
838.258	12102.45
838.583	12139.96
838.908	12061.77
839.233	12049.8
839.558	12088.44
839.883	12028.78
840.208	11967.31
840.533	12044.82
840.858	12005.96
841.182	12043.24
841.507	12014.09
841.832	11990.59
842.156	11865.85
842.481	11914.21
842.805	11785.62
843.13	11863.59
843.454	11843.7
843.778	11862.23
844.103	11837.37
844.427	11795.11
844.751	11787.66
845.075	11701.78
845.399	11745.85
845.723	11645.06
846.047	11612.07
846.371	11610.26
846.695	11566.19
847.019	11500.21
847.343	11441.22
847.666	11410.49
847.99	11365.75
848.313	11294.11
848.637	11342.02
848.96	11318.06
849.284	11268.57
849.607	11133.21
849.931	11152.42
850.254	11075.81
850.577	10988.13
850.9	10964.85
851.223	10982.25
851.546	10967.11
851.869	10836.72
852.192	11031.07
852.515	10813.22
852.838	10725.76
853.161	10778.64
853.483	10711.07
853.806	10693.22
854.129	10667.91
854.451	10597.18
854.774	10565.32
855.096	10522.38
855.419	10536.39
855.741	10449.61
856.063	10395.38
856.385	10356.96
856.708	10364.42
857.03	10299.11
857.352	10291.88
857.674	10313.34
857.996	10290.75
858.318	10193.12
858.64	10249.84
858.961	10196.96
859.283	10120.81
859.605	10078.55
859.926	10094.37
860.248	10158.55
860.57	10060.7
860.891	10086.01
861.212	10018.21
861.534	10023.63
861.855	9959.91
862.176	10011.43
862.498	9935.28
862.819	9931.43
863.14	9927.82
863.461	9945.9
863.782	9906.8
864.103	9906.12
864.424	9888.05
864.745	9881.72
865.065	9825
865.386	9789.29
865.707	9806.47
866.027	9796.97
866.348	9767.37
866.668	9749.74
866.989	9743.87
867.309	9721.04
867.63	9637.88
867.95	9660.93
868.27	9641.5
868.59	9627.71
868.91	9688.73
869.23	9611.44
869.55	9586.36
869.87	9664.32
870.19	9631.78
870.51	9669.07
870.83	9601.72
871.15	9480.82
871.469	9536.87
871.789	9505
872.109	9510.43
872.428	9436.31
872.748	9485.57
873.067	9434.72
873.386	9441.28
873.706	9414.61
874.025	9382.07
874.344	9383.43
874.663	9316.53
874.982	9356.76
875.301	9294.16
875.62	9309.76
875.939	9217.1
876.258	9333.71
876.577	9254.16
876.896	9250.77
877.214	9220.04
877.533	9254.84
877.852	9215.29
878.17	9294.16
878.489	9191.79
878.807	9244.45
879.125	9168.29
879.444	9144.34
879.762	9119.25
880.08	9172.36
880.398	9135.52
880.716	9145.47
881.034	9147.05
881.352	9079.03
881.67	9049.2
881.988	9085.35
882.306	9066.15
882.624	8993.61
882.941	8963.78
883.259	8969.88
883.577	8883.33
883.894	8909.31
884.212	8920.61
884.529	8901.18
884.846	8867.28
885.164	8844
885.481	8796.32
885.798	8865.47
886.115	8787.28
886.432	8737.34
886.75	8686.27
887.067	8726.95
887.383	8715.87
887.7	8657.79
888.017	8679.94
888.334	8696.66
888.651	8596.78
888.967	8679.26
889.284	8602.88
889.6	8559.27
889.917	8555.2
890.233	8506.39
890.55	8466.16
890.866	8529.66
891.182	8517.69
891.498	8425.26
891.815	8438.59
892.131	8408.54
892.447	8357.69
892.763	8334.19
893.079	8277.01
893.395	8282.89
893.71	8289.22
894.026	8255.32
894.342	8204.25
894.657	8134.42
894.973	8190.01
895.289	8073.63
895.604	8176
895.92	8063.69
896.235	8053.29
896.55	8096.91
896.865	7999.51
897.181	7953.86
897.496	7990.24
897.811	7875.67
898.126	7929.68
898.441	7843.58
898.756	7843.13
899.071	7785.73
899.386	7797.93
899.7	7650.82
900.015	7710.02
900.33	7626.18
900.644	7628.9
900.959	7716.35
901.273	7636.8
901.588	7616.69
901.902	7551.61
902.216	7483.14
902.531	7474.55
902.845	7515.9
903.159	7452.85
903.473	7501.67
903.787	7371.05
904.101	7329.92
904.415	7395.91
904.729	7382.8
905.042	7326.08
905.356	7240.66
905.67	7274.33
905.984	7229.81
906.297	7204.27
906.611	7153.43
906.924	7184.61
907.237	7156.82
907.551	7109.59
907.864	7096.71
908.177	7096.93
908.491	7120.21
908.804	7013.77
909.117	6974.68
909.43	6906.65
909.743	6933.09
910.056	6868.01
910.368	6872.53
910.681	6804.51
910.994	6795.7
911.307	6768.58
911.619	6757.28
911.932	6707.79
912.244	6617.4
912.557	6682.25
912.869	6597.74
913.181	6632.76
913.494	6572.65
913.806	6537.17
914.118	6499.21
914.43	6485.65
914.742	6480.45
915.054	6424.86
915.366	6449.72
915.678	6413.11
915.99	6333.56
916.302	6320
916.613	6290.63
916.925	6311.64
917.236	6276.61
917.548	6278.42
917.859	6261.93
918.171	6180.12
918.482	6150.97
918.794	6128.82
919.105	6180.8
919.416	6082.04
919.727	6085.43
920.038	6058.54
920.349	5995.04
920.66	6023.74
920.971	6010.86
921.282	5980.13
921.593	5943.52
921.903	5867.59
922.214	5901.94
922.525	5841.6
922.835	5826.68
923.146	5792.33
923.456	5782.39
923.767	5742.84
924.077	5733.58
924.387	5723.18
924.697	5661.72
925.008	5682.28
925.318	5654.03
925.628	5615.84
925.938	5636.18
926.248	5547.14
926.558	5541.94
926.867	5545.33
927.177	5492.45
927.487	5499.69
927.796	5463.08
928.106	5481.83
928.416	5402.97
928.725	5443.87
929.034	5357.09
929.344	5388.95
929.653	5313.93
929.962	5316.19
930.271	5268.96
930.581	5249.3
930.89	5243.2
931.199	5211.11
931.508	5180.15
931.817	5204.55
932.125	5135.63
932.434	5106.48
932.743	5067.38
933.051	5040.04
933.36	5056.31
933.669	5030.32
933.977	4989.64
934.286	4999.36
934.594	4988.74
934.902	4893.6
935.21	4931.79
935.519	4925.69
935.827	4878.01
936.135	4836.43
936.443	4826.71
936.751	4784.22
937.059	4760.72
937.367	4762.3
937.674	4804.56
937.982	4762.76
938.29	4728.86
938.597	4716.43
938.905	4668.3
939.213	4662.87
939.52	4608.86
939.827	4630.1
940.135	4631.23
940.442	4598.69
940.749	4556.89
941.056	4557.11
941.363	4537.23
941.67	4565.02
941.977	4454.29
942.284	4461.52
942.591	4400.05
942.898	4426.95
943.205	4431.92
943.511	4409.55
943.818	4377
944.125	4352.6
944.431	4355.08
944.738	4359.83
945.044	4327.51
945.35	4275.99
945.657	4281.86
945.963	4243.9
946.269	4219.49
946.575	4251.81
946.881	4234.41
947.187	4180.4
947.493	4167.97
947.799	4115.54
948.105	4090.68
948.41	4110.57
948.716	4129.33
949.022	4061.53
949.327	4073.06
949.633	4022.66
949.938	4044.36
950.244	4011.59
950.549	4013.17
950.854	3982.44
951.16	4022.21
951.465	3937.02
951.77	3956.68
952.075	3915.32
952.38	3914.64
952.685	3883.68
952.99	3865.6
953.294	3844.59
953.599	3782.89
953.904	3776.79
954.209	3772.27
954.513	3769.34
954.818	3756.91
955.122	3785.61
955.426	3727.98
955.731	3708.55
956.035	3669
956.339	3678.04
956.643	3682.56
956.948	3649.57
957.252	3621.54
957.556	3609.34
957.86	3586.97
958.163	3618.61
958.467	3595.33
958.771	3552.62
959.075	3543.13
959.378	3531.38
959.682	3507.2
959.985	3483.69
960.289	3435.79
960.592	3461.77
960.896	3450.25
961.199	3434.43
961.502	3430.81
961.805	3429.68
962.108	3384.94
962.411	3395.56
962.714	3362.11
963.017	3374.54
963.32	3367.31
963.623	3338.61
963.926	3303.36
964.228	3312.85
964.531	3311.27
964.833	3294.55
965.136	3245.51
965.438	3224.27
965.741	3261.78
966.043	3202.8
966.345	3174.32
966.648	3206.86
966.95	3173.42
967.252	3147.21
967.554	3178.62
967.856	3142.91
968.158	3099.3
968.46	3050.03
968.761	3028.34
969.063	3066.53
969.365	3065.4
969.666	3037.6
969.968	3038.73
970.269	3018.17
970.571	3038.28
970.872	3011.16
971.174	2997.15
971.475	2982.69
971.776	2956.25
972.077	2915.35
972.378	2941.56
972.679	2929.36
972.98	2895.91
973.281	2876.93
973.582	2905.63
973.883	2864.95
974.183	2847.55
974.484	2852.52
974.785	2793.54
975.085	2811.4
975.386	2806.88
975.686	2798.74
975.986	2803.49
976.287	2784.73
976.587	2758.06
976.887	2771.62
977.187	2734.11
977.487	2715.8
977.787	2707.89
978.087	2721.23
978.387	2702.47
978.687	2678.29
978.987	2677.84
979.286	2641
979.586	2645.75
979.885	2650.27
980.185	2636.48
980.484	2631.96
980.784	2562.59
981.083	2591.74
981.382	2588.35
981.682	2597.84
981.981	2534.11
982.28	2538.86
982.579	2550.61
982.878	2511.52
983.177	2485.3
983.475	2508.13
983.774	2495.7
984.073	2518.97
984.372	2451.4
984.67	2459.31
984.969	2472.87
985.267	2421.8
985.566	2417.51
985.864	2370.5
986.162	2409.82
986.461	2396.72
986.759	2383.61
987.057	2390.16
987.355	2360.11
987.653	2392.2
987.951	2325.08
988.249	2341.12
988.547	2327.79
988.844	2325.08
989.142	2268.58
989.44	2295.02
989.737	2273.1
990.035	2288.24
990.332	2263.84
990.63	2249.6
990.927	2228.81
991.224	2217.06
991.521	2224.97
991.819	2198.53
992.116	2212.54
992.413	2213.44
992.71	2178.64
993.006	2156.27
993.303	2161.69
993.6	2150.62
993.897	2132.77
994.193	2139.55
994.49	2138.19
994.787	2103.39
995.083	2087.8
995.379	2077.63
995.676	2062.04
995.972	2062.04
996.268	2045.09
996.565	2073.34
996.861	2029.72
997.157	2011.19
997.453	2038.53
997.749	2013.22
998.044	1982.04
998.34	1976.39
998.636	2001.7
998.932	1971.64
999.227	1942.94
999.523	1921.02
999.818	1923.73
1000.114	1909.05
1000.409	1909.05
1000.704	1900.01
1001	1901.14
1001.295	1884.64
1001.59	1882.15
1001.885	1884.19
1002.18	1864.98
1002.475	1829.05
1002.77	1862.04
1003.065	1828.6
1003.359	1817.97
1003.654	1811.42
1003.949	1798.77
1004.243	1800.35
1004.538	1796.28
1004.832	1764.64
1005.127	1756.06
1005.421	1743.63
1005.715	1714.25
1006.009	1717.64
1006.304	1741.37
1006.598	1731.42
1006.892	1733.91
1007.186	1708.6
1007.48	1657.08
1007.773	1693.91
1008.067	1633.12
1008.361	1649.84
1008.655	1640.8
1008.948	1637.19
1009.242	1650.07
1009.535	1654.36
1009.829	1634.02
1010.122	1593.12
1010.415	1603.07
1010.708	1594.03
1011.001	1610.97
1011.295	1580.24
1011.588	1577.3
1011.881	1553.57
1012.173	1551.32
1012.466	1545.21
1012.759	1528.04
1013.052	1527.59
1013.344	1520.81
1013.637	1505.67
1013.93	1488.04
1014.222	1502.5
1014.514	1489.62
1014.807	1481.94
1015.099	1484.88
1015.391	1462.05
1015.683	1471.77
1015.976	1461.6
1016.268	1429.96
1016.56	1410.53
1016.851	1423.41
1017.143	1419.79
1017.435	1398.1
1017.727	1403.97
1018.018	1391.09
1018.31	1376.18
1018.602	1356.74
1018.893	1373.92
1019.185	1350.19
1019.476	1359.68
1019.767	1364.43
1020.058	1336.63
1020.35	1307.25
1020.641	1300.02
1020.932	1285.56
1021.223	1288.72
1021.514	1270.87
1021.804	1292.11
1022.095	1243.07
1022.386	1265.67
1022.677	1271.32
1022.967	1217.31
1023.258	1234.49
1023.548	1226.35
1023.839	1226.8
1024.129	1213.92
1024.419	1191.55
1024.709	1204.21
1025	1187.93
1025.29	1180.93
1025.58	1157.65
1025.87	1173.92
1026.16	1142.96
1026.449	1168.27
1026.739	1139.8
1027.029	1145.45
1027.319	1135.28
1027.608	1111.78
1027.898	1116.98
1028.187	1107.03
1028.477	1104.1
1028.766	1106.58
1029.055	1074.27
1029.344	1083.76
1029.634	1069.75
1029.923	1069.07
1030.212	1051.22
1030.501	1059.58
1030.79	1069.29
1031.078	1019.58
1031.367	1050.99
1031.656	1022.06
1031.945	1021.84
1032.233	994.27
1032.522	1015.06
1032.81	996.75
1033.099	991.78
1033.387	1004.89
1033.675	962.63
1033.963	959.01
1034.251	960.37
1034.54	954.27
1034.828	945.46
1035.116	960.37
1035.403	950.65
1035.691	937.32
1035.979	925.79
1036.267	916.76
1036.554	911.11
1036.842	905.91
1037.129	902.74
1037.417	891.22
1037.704	882.63
1037.992	926.7
1038.279	887.15
1038.566	901.84
1038.853	901.84
1039.14	901.84
