Data from blue_shiny_book_FLMS001491_00077.txt Node
Date: Wed Feb 08 15:27:31 GMT 2017
User: dcchb
Spectrometer: FLMS00149
Trigger mode: 0
Integration Time (sec): 2.000000E-2
Scans to average: 10
Electric dark correction enabled: true
Nonlinearity correction enabled: false
Boxcar width: 0
XAxis mode: Wavelengths
Number of Pixels in Spectrum: 2048
>>>>>Begin Spectral Data<<<<<
341.393	-14.1
341.776	-14.1
342.16	-14.1
342.543	-33.53
342.927	-65.62
343.31	-57.26
343.693	-67.65
344.077	-65.17
344.46	-84.6
344.843	-50.03
345.226	-45.73
345.61	-25.39
345.993	-14.55
346.376	-11.84
346.759	26.58
347.142	20.48
347.525	25.23
347.908	73.36
348.291	79.91
348.674	82.85
349.057	113.81
349.44	126.47
349.823	151.32
350.206	158.33
350.588	201.72
350.971	210.98
351.354	216.41
351.737	258.21
352.119	244.2
352.502	287.37
352.884	285.78
353.267	302.28
353.65	297.31
354.032	293.24
354.414	305.22
354.797	340.25
355.179	341.15
355.562	306.57
355.944	319.45
356.326	330.08
356.709	348.15
357.091	334.14
357.473	330.53
357.855	346.57
358.238	348.15
358.62	348.61
359.002	363.52
359.384	350.19
359.766	344.99
360.148	356.06
360.53	364.88
360.912	332.11
361.294	327.14
361.676	348.61
362.057	331.66
362.439	340.92
362.821	325.1
363.203	358.32
363.584	335.27
363.966	311.77
364.348	345.67
364.729	328.27
365.111	337.08
365.493	337.31
365.874	340.25
366.256	325.56
366.637	353.35
367.019	329.85
367.4	319.68
367.781	320.58
368.163	328.49
368.544	336.4
368.925	333.24
369.306	337.76
369.688	304.99
370.069	331.21
370.45	342.51
370.831	322.84
371.212	326.69
371.593	333.47
371.974	330.53
372.355	326.01
372.736	356.06
373.117	322.39
373.498	333.92
373.879	332.34
374.26	325.1
374.641	326.01
375.021	331.88
375.402	326.69
375.783	339.34
376.163	338.66
376.544	361.94
376.925	347.02
377.305	353.8
377.686	348.61
378.066	352.67
378.447	357.65
378.827	367.59
379.208	377.98
379.588	354.71
379.968	355.61
380.349	369.62
380.729	362.17
381.109	383.63
381.489	370.08
381.87	378.44
382.25	387.93
382.63	378.21
383.01	385.22
383.39	359.68
383.77	368.04
384.15	392
384.53	400.36
384.91	394.03
385.29	394.03
385.67	397.42
386.049	388.83
386.429	384.76
386.809	402.39
387.189	412.56
387.568	400.36
387.948	408.27
388.328	413.69
388.707	401.03
389.087	413.24
389.466	438.77
389.846	433.8
390.225	420.7
390.605	430.41
390.984	447.81
391.363	457.3
391.743	448.94
392.122	444.42
392.501	466.8
392.881	458.21
393.26	445.78
393.639	471.99
394.018	476.06
394.397	479.22
394.776	474.25
395.155	483.07
395.534	469.73
395.913	488.26
396.292	477.64
396.671	509.05
397.05	508.15
397.429	502.05
397.808	521.26
398.186	519
398.565	507.25
398.944	523.07
399.323	523.29
399.701	546.79
400.08	532.33
400.458	542.95
400.837	550.86
401.215	553.8
401.594	557.19
401.972	551.54
402.351	573.23
402.729	569.39
403.107	581.14
403.486	582.72
403.864	577.98
404.242	614.14
404.62	586.57
404.999	596.96
405.377	617.75
405.755	608.71
406.133	614.59
406.511	637.19
406.889	613.01
407.267	644.87
407.645	636.06
408.023	670.86
408.401	666.34
408.779	694.81
409.156	689.61
409.534	708.37
409.912	718.77
410.29	696.62
410.667	716.73
411.045	751.99
411.422	740.46
411.8	740.23
412.178	756.96
412.555	764.64
412.933	759.9
413.31	818.88
413.687	791.76
414.065	821.14
414.442	801.25
414.819	843.28
415.197	836.73
415.574	860.46
415.951	878.31
416.328	886.22
416.705	856.62
417.082	885.77
417.46	887.35
417.837	885.32
418.214	919.21
418.591	933.45
418.967	925.77
419.344	923.51
419.721	949.95
420.098	935.03
420.475	962.15
420.852	959.66
421.228	971.87
421.605	981.13
421.982	1018.19
422.358	1026.55
422.735	1057.51
423.111	1040.34
423.488	1052.77
423.864	1058.42
424.241	1097.97
424.617	1080.34
424.994	1115.14
425.37	1111.98
425.746	1116.95
426.123	1151.3
426.499	1165.53
426.875	1192.2
427.251	1199.21
427.627	1214.57
428.003	1223.61
428.379	1248.02
428.756	1245.31
429.132	1259.32
429.507	1257.51
429.883	1324.17
430.259	1305.42
430.635	1343.16
431.011	1337.73
431.387	1406.88
431.763	1414.12
432.138	1448.92
432.514	1471.29
432.89	1460.67
433.265	1487.56
433.641	1499.54
434.016	1518.97
434.392	1527.56
434.767	1568.46
435.143	1548.12
435.518	1589.03
435.894	1628.12
436.269	1641.23
436.644	1697.95
437.02	1679.42
437.395	1691.17
437.77	1734.56
438.145	1760.55
438.52	1754.45
438.895	1781.34
439.271	1786.53
439.646	1836.93
440.021	1850.26
440.395	1862.92
440.77	1820.21
441.145	1888.23
441.52	1921.45
441.895	1942.24
442.27	1943.37
442.645	1982.46
443.019	1980.2
443.394	1967.55
443.769	2006.64
444.143	1991.73
444.518	2038.73
444.892	2031.5
445.267	2015.46
445.641	2087.77
446.016	2116.47
446.39	2119.86
446.764	2151.72
447.139	2154.66
447.513	2179.52
447.887	2187.2
448.262	2178.62
448.636	2223.59
449.01	2244.38
449.384	2252.96
449.758	2270.82
450.132	2300.87
450.506	2306.3
450.88	2324.83
451.254	2377.25
451.628	2379.29
452.002	2396.01
452.376	2460.19
452.75	2462
453.123	2496.57
453.497	2535.22
453.871	2560.98
454.244	2569.79
454.618	2628.55
454.992	2665.38
455.365	2667.19
455.739	2695.89
456.112	2747.64
456.486	2779.05
456.859	2818.6
457.232	2885.49
457.606	2904.47
457.979	2930.69
458.352	3019.5
458.725	3052.04
459.099	3060.85
459.472	3125.26
459.845	3089.33
460.218	3156.22
460.591	3178.36
460.964	3249.1
461.337	3286.83
461.71	3346.27
462.083	3389.66
462.456	3431.69
462.829	3408.41
463.201	3528.41
463.574	3542.19
463.947	3605.7
464.32	3631.91
464.692	3689.99
465.065	3718.91
465.438	3758.46
465.81	3829.65
466.183	3847.05
466.555	3934.95
466.928	3955.29
467.3	3951.9
467.672	4037.32
468.045	4191.22
468.417	4186.02
468.789	4211.1
469.161	4324.1
469.534	4364.55
469.906	4407.71
470.278	4443.19
470.65	4501.27
471.022	4560.47
471.394	4692.22
471.766	4716.85
472.138	4785.1
472.51	4898.77
472.882	4967.02
473.253	5011.99
473.625	5111.19
473.997	5186.67
474.369	5221.25
474.74	5346.89
475.112	5427.12
475.484	5495.36
475.855	5626.66
476.227	5665.3
476.598	5768.35
476.97	5869.37
477.341	5977.61
477.713	6020.1
478.084	6127.21
478.455	6279.3
478.827	6329.01
479.198	6487.43
479.569	6549.8
479.94	6707.99
480.311	6773.97
480.682	6919.06
481.053	7065.72
481.424	7173.96
481.795	7235.43
482.166	7418.93
482.537	7532.82
482.908	7657.34
483.279	7731.69
483.65	7885.13
484.021	8035.41
484.391	8079.25
484.762	8254.16
485.133	8332.35
485.503	8486.47
485.874	8570.54
486.244	8712.68
486.615	8927.36
486.985	9012.33
487.356	9204.19
487.726	9275.38
488.097	9384.75
488.467	9460.01
488.837	9647.57
489.207	9805.08
489.578	10014.12
489.948	10065.19
490.318	10222.25
490.688	10251.4
491.058	10447.32
491.428	10524.84
491.798	10720.76
492.168	10917.82
492.538	10959.18
492.908	11100.41
493.278	11208.21
493.648	11270.58
494.017	11377.24
494.387	11540.18
494.757	11635.99
495.126	11791.92
495.496	11825.82
495.866	11894.29
496.235	12061.07
496.605	12168.18
496.974	12376.31
497.344	12434.84
497.713	12481.85
498.082	12598
498.452	12777.88
498.821	12913.02
499.19	12910.54
499.559	13066.01
499.928	13136.52
500.298	13218.1
500.667	13313.01
501.036	13348.26
501.405	13391.88
501.774	13583.74
502.143	13643.17
502.512	13807.24
502.88	13972.66
503.249	14000.23
503.618	14129.71
503.987	14135.36
504.356	14214.46
504.724	14317.5
505.093	14444.06
505.462	14484.51
505.83	14592.98
506.199	14735.12
506.567	14886.76
506.936	14844.27
507.304	15045.62
507.672	15137.37
508.041	15197.03
508.409	15314.09
508.777	15476.8
509.145	15616.91
509.514	15718.6
509.882	15770.35
510.25	15935.99
510.618	15945.26
510.986	16145.25
511.354	16283.78
511.722	16419.6
512.09	16567.62
512.458	16473.15
512.826	16678.12
513.193	16777.33
513.561	16716.09
513.929	16867.49
514.297	17073.82
514.664	17194.49
515.032	17295.28
515.4	17439.91
515.767	17665.21
516.135	17700.47
516.502	17581.83
516.869	17931.65
517.237	18040.12
517.604	18113.34
517.972	18310.62
518.339	18469.03
518.706	18494.12
519.073	18612.08
519.44	18746.31
519.808	18935.24
520.175	18898.63
520.542	19062.92
520.909	19129.36
521.276	19223.36
521.643	19398.95
522.009	19668.55
522.376	19729.11
522.743	19859.96
523.11	20060.63
523.477	20267.4
523.843	20439.83
524.21	20602.54
524.577	20879.82
524.943	21031.45
525.31	21178.34
525.676	21284.33
526.043	21426.92
526.409	21604.32
526.776	21663.75
527.142	21792.34
527.508	21741.04
527.874	22021.48
528.241	22063.06
528.607	22184.42
528.973	22412.21
529.339	22348.93
529.705	22562.71
530.071	22848.13
530.437	23009.48
530.803	23154.56
531.169	23360.43
531.535	23456.47
531.901	23546.41
532.267	23743.47
532.632	23876.35
532.998	24039.96
533.364	24124.93
533.73	24193.63
534.095	24244.7
534.461	24306.39
534.826	24438.82
535.192	24558.14
535.557	24613.73
535.923	24587.97
536.288	24546.16
536.653	24707.97
537.019	24763.33
537.384	24898.47
537.749	25113.83
538.114	25339.14
538.479	25315.63
538.845	25557.89
539.21	25601.28
539.575	25803.08
539.94	25905.67
540.305	25946.58
540.67	25976.63
541.034	26110.42
541.399	26221.6
541.764	26209.4
542.129	26131.21
542.494	26261.15
542.858	26258.89
543.223	26286
543.587	26366.68
543.952	26379.33
544.316	26494.81
544.681	26540.01
545.045	26785.2
545.41	26782.71
545.774	26931.18
546.138	26793.79
546.503	26994.46
546.867	27118.52
547.231	27484.39
547.595	27453.88
547.959	27712.86
548.324	27694.55
548.688	27715.34
549.052	27789.47
549.416	27851.61
549.779	27802.12
550.143	27828.34
550.507	27821.33
550.871	27889.13
551.235	27835.79
551.599	27972.74
551.962	27953.76
552.326	27950.82
552.689	28114.2
553.053	28243.69
553.417	28221.55
553.78	28667.86
554.143	28552.84
554.507	28750.12
554.87	28893.84
555.234	29191.46
555.597	29079.15
555.96	29363.21
556.323	29534.51
556.686	29447.5
557.05	29591.68
557.413	29597.56
557.776	29494.28
558.139	29669.19
558.502	29785.35
558.865	29571.79
559.228	29816.31
559.59	29814.27
559.953	29728.85
560.316	30057.66
560.679	30166.35
561.041	30261.94
561.404	30437.08
561.767	30561.37
562.129	30550.98
562.492	30830.52
562.854	30948.25
563.217	30920.23
563.579	31270.96
563.941	31513.89
564.304	31688.57
564.666	31893.31
565.028	31982.13
565.39	32028.68
565.753	31974.89
566.115	32254.21
566.477	32209.01
566.839	32215.34
567.201	32276.35
567.563	32152.29
567.925	32332.85
568.287	32421.66
568.648	32300.08
569.01	32565.61
569.372	32781.65
569.734	32634.54
570.095	32840.41
570.457	32978.71
570.819	33134.41
571.18	33173.28
571.542	33530.56
571.903	33582.08
572.265	33959.25
572.626	33910.44
572.987	34247.6
573.349	34174.16
573.71	34409.63
574.071	34447.82
574.432	34367.83
574.794	34674.71
575.155	34482.62
575.516	34326.92
575.877	34407.15
576.238	34467.94
576.599	34564.88
576.96	34451.89
577.32	34404.21
577.681	34597.42
578.042	34625.9
578.403	34662.05
578.763	34514.71
579.124	34701.6
579.485	34943.18
579.845	35133.23
580.206	35107.24
580.566	35206.9
580.927	35318.08
581.287	35505.65
581.648	35450.51
582.008	35749.03
582.368	35591.52
582.728	35826.09
583.089	35688.92
583.449	35701.35
583.809	35721.91
584.169	35770.5
584.529	35564.4
584.889	35807.34
585.249	35570.05
585.609	35256.39
585.969	35376.61
586.329	35269.72
586.688	35391.08
587.048	35399.89
587.408	35345.43
587.768	35512.43
588.127	35468.59
588.487	35351.08
588.846	35830.84
589.206	35402.6
589.565	35527.12
589.925	35723.95
590.284	35720.56
590.643	35904.96
591.003	36074.45
591.362	36164.84
591.721	36047.55
592.08	36184.5
592.44	36266.53
592.799	36327.1
593.158	36260.88
593.517	36237.38
593.876	36243.48
594.235	36002.36
594.593	36055.46
594.952	36047.1
595.311	35949.48
595.67	35872.19
596.029	35973.66
596.387	35921.46
596.746	35919.65
597.104	35852.98
597.463	35864.96
597.822	36008.69
598.18	36005.07
598.538	35956.48
598.897	36234.67
599.255	35976.82
599.613	36416.36
599.972	36392.4
600.33	36551.27
600.688	36524.83
601.046	36713.98
601.404	36822.68
601.762	36772.28
602.12	36811.6
602.478	36906.74
602.836	36842.56
603.194	36558.5
603.552	36670.36
603.91	36473.31
604.268	36746.52
604.625	36422.91
604.983	36482.12
605.341	36412.97
605.698	36417.94
606.056	36347.21
606.413	36619.74
606.771	36584.26
607.128	36532.97
607.485	36396.02
607.843	36488.45
608.2	36864.03
608.557	36802.56
608.914	36765.28
609.272	37096.11
609.629	37158.94
609.986	37241.87
610.343	37247.3
610.7	37444.13
611.057	37281.65
611.414	37498.59
611.771	37528.42
612.127	37672.15
612.484	37744.23
612.841	37937.22
613.198	37829.88
613.554	37826.27
613.911	37897.45
614.267	37862.2
614.624	37724.12
614.98	37675.31
615.337	37821.75
615.693	37638.25
616.05	37479.83
616.406	37743.33
616.762	37747.85
617.118	37558.02
617.475	37565.71
617.831	37785.36
618.187	37839.15
618.543	37794.63
618.899	38027.39
619.255	37935.64
619.611	38022.19
619.967	38180.61
620.323	38314.16
620.678	38150.55
621.034	38304.44
621.39	38509.41
621.746	38354.16
622.101	38932.9
622.457	38394.84
622.812	38616.98
623.168	38732.68
623.523	38642.52
623.879	38769.74
624.234	38456.08
624.589	38605.23
624.945	38667.83
625.3	38683.19
625.655	38510.99
626.01	38443.65
626.365	38474.16
626.72	38322.3
627.075	38216.54
627.43	38267.61
627.785	38050.89
628.14	38105.35
628.495	38241.62
628.85	38183.77
629.205	38059.03
629.559	38414.95
629.914	38056.99
630.269	38091.34
630.623	38162.3
630.978	38116.88
631.332	38444.1
631.687	38358.68
632.041	38232.13
632.396	38409.53
632.75	38263.54
633.104	38230.1
633.459	38148.29
633.813	38189.65
634.167	38211.11
634.521	38193.49
634.875	38063.77
635.229	38015.19
635.583	37767.28
635.937	37852.03
636.291	37726.61
636.645	37665.82
636.999	37676.89
637.352	37702.65
637.706	37410.68
638.06	37518.25
638.413	37308.31
638.767	37261.08
639.121	37088.88
639.474	36899.51
639.828	37030.81
640.181	36943.8
640.534	36854.31
640.888	36868.32
641.241	36781.32
641.594	36952.84
641.947	36961.66
642.301	37055.21
642.654	37142.67
643.007	37068.09
643.36	37139.28
643.713	37021.09
644.066	37303.12
644.419	37070.35
644.771	37069.9
645.124	37045.72
645.477	37008.89
645.83	36833.3
646.182	36395.12
646.535	36137.27
646.888	35972.75
647.24	35521.47
647.593	35857.28
647.945	35542.03
648.298	35412.32
648.65	35376.84
649.002	35350.62
649.355	35301.13
649.707	35394.92
650.059	35725.98
650.411	36069.02
650.763	36141.11
651.115	36414.78
651.467	36100.66
651.819	36128.23
652.171	35944.96
652.523	36026.54
652.875	36226.99
653.227	36027.44
653.578	36260.88
653.93	36319.64
654.282	36036.71
654.633	35959.2
654.985	36137.27
655.337	36218.85
655.688	36256.14
656.039	36509.92
656.391	36218.62
656.742	36227.89
657.094	36299.53
657.445	36404.83
657.796	36244.16
658.147	36268.34
658.498	36226.76
658.849	36298.17
659.2	36172.07
659.551	36151.96
659.902	36201.22
660.253	36115.12
660.604	36051.17
660.955	35919.2
661.306	35973.88
661.656	35788.8
662.007	35779.09
662.358	35725.76
662.708	35657.06
663.059	35710.61
663.409	35413.22
663.76	35715.36
664.11	35570.73
664.461	35528.7
664.811	35496.16
665.161	35447.57
665.511	35357.63
665.862	35426.33
666.212	35580
666.562	35742.03
666.912	35612.54
667.262	35799.88
667.612	35939.08
667.962	35875.58
668.312	35902.25
668.662	36160.77
669.011	35998.29
669.361	35859.54
669.711	35966.43
670.06	35741.8
670.41	35721.24
670.76	35897.95
671.109	35886.2
671.459	35668.58
671.808	35560.79
672.157	35640.33
672.507	35463.84
672.856	35395.82
673.205	35474.46
673.554	35484.41
673.904	35376.61
674.253	35332.55
674.602	35041.71
674.951	34592.68
675.3	34286.47
675.649	35043.06
675.998	34896.85
676.346	34873.8
676.695	34858.89
677.044	34619.34
677.393	34709.06
677.741	34623.41
678.09	34769.62
678.438	34618.89
678.787	34743.18
679.135	34716.52
679.484	34443.3
679.832	34717.19
680.181	34635.39
680.529	34708.61
680.877	34748.38
681.225	34759.45
681.573	34980.46
681.922	34788.15
682.27	34678.1
682.618	34632.9
682.966	34473.81
683.314	34576.18
683.661	34522.4
684.009	34314.72
684.357	34159.24
684.705	34215.06
685.053	34233.37
685.4	33962.86
685.748	33898.01
686.095	33648.07
686.443	33600.39
686.79	33568.98
687.138	33460.05
687.485	33516.55
687.832	33210.12
688.18	33227.06
688.527	32983.45
688.874	32862.1
689.221	32886.96
689.568	32668.89
689.915	32581.21
690.262	32604.26
690.609	32538.04
690.956	32399.29
691.303	32378.05
691.65	32294.66
691.997	32356.35
692.344	32083.14
692.69	32095.34
693.037	32111.84
693.383	31793.2
693.73	32140.09
694.077	31943.48
694.423	31979.19
694.769	31954.33
695.116	31774.67
695.462	31759.53
695.808	31867.78
696.155	31785.97
696.501	31469.82
696.847	31464.17
697.193	31209.94
697.539	31345.76
697.885	31074.58
698.231	30903.74
698.577	30834.58
698.923	30704.87
699.269	30614.93
699.614	30456.06
699.96	30382.62
700.306	30202.06
700.651	30077.32
700.997	29877.77
701.342	29784.89
701.688	29696.99
702.033	29463.77
702.379	29363.21
702.724	29361.18
703.069	29585.58
703.415	29132.93
703.76	29096.1
704.105	29066.27
704.45	29021.07
704.795	28943.11
705.14	28727.07
705.485	28856.11
705.83	28727.07
706.175	28917.57
706.52	28741.76
706.865	28699.27
707.209	28767.29
707.554	28732.27
707.899	28765.49
708.243	28614.3
708.588	28554.64
708.932	28497.25
709.277	28456.34
709.621	28599.84
709.966	28433.07
710.31	28565.94
710.654	28191.94
710.998	28213.64
711.342	28150.36
711.687	28060.19
712.031	27859.3
712.375	27839.86
712.719	27797.83
713.063	27678.28
713.407	27661.11
713.75	27447.1
714.094	27441
714.438	27184.06
714.782	27256.37
715.125	26895.93
715.469	27048.02
715.812	26790.4
716.156	26721.47
716.499	26609.16
716.843	26706.78
717.186	26535.26
717.53	26635.6
717.873	26630.4
718.216	26531.87
718.559	26544.98
718.902	26393.12
719.246	26571.19
719.589	26595.37
719.932	26523.06
720.275	26539.1
720.617	26499.33
720.96	26446
721.303	26314.7
721.646	26471.54
721.989	26497.52
722.331	26541.14
722.674	26502.27
723.016	26467.47
723.359	26454.36
723.701	26461.14
724.044	26331.88
724.386	26223.86
724.729	26404.19
725.071	26425.66
725.413	26137.08
725.755	26265.67
726.097	26203.29
726.439	26026.35
726.782	26100.02
727.124	26001.72
727.465	25888.73
727.807	25851.89
728.149	25651.9
728.491	25657.77
728.833	25693.93
729.175	25610.32
729.516	25373.71
729.858	25391.34
730.199	25451.45
730.541	25365.35
730.882	25295.52
731.224	25456.42
731.565	25210.55
731.906	25352.47
732.248	25144.11
732.589	25190.89
732.93	25135.07
733.271	25229.76
733.612	25282.41
733.953	25257.1
734.294	25157.45
734.635	25249.87
734.976	25265.92
735.317	25192.47
735.658	25222.75
735.999	25302.75
736.339	25355.41
736.68	25425.24
737.021	25416.42
737.361	25322.41
737.702	25577.32
738.042	25387.5
738.383	25466.82
738.723	25606.47
739.063	25493.26
739.404	25533.71
739.744	25562.63
740.084	25500.49
740.424	25526.02
740.764	25363.54
741.104	25649.64
741.444	25384.56
741.784	25188.86
742.124	25258.91
742.464	25213.49
742.804	25166.03
743.143	25183.43
743.483	25241.96
743.823	25116.32
744.162	25087.17
744.502	25199.48
744.841	24998.58
745.181	24955.42
745.52	25006.72
745.86	24969.88
746.199	24964
746.538	24947.06
746.877	25040.61
747.216	24975.98
747.556	24965.13
747.895	25056.88
748.234	24959.94
748.573	24987.73
748.911	24980.5
749.25	25130.33
749.589	25111.8
749.928	25119.03
750.267	25176.43
750.605	25217.33
750.944	25323.54
751.283	25233.15
751.621	25421.62
751.96	25386.37
752.298	25442.18
752.636	25517.21
752.975	25437.21
753.313	25445.35
753.651	25570.32
753.989	25598.79
754.327	25675.85
754.666	25490.09
755.004	25589.3
755.342	25833.36
755.679	25669.97
756.017	25716.3
756.355	25761.5
756.693	25502.07
757.031	25754.49
757.368	25561.05
757.706	25617.77
758.044	25685.34
758.381	25561.5
758.719	25501.84
759.056	25469.08
759.394	25393.6
759.731	25473.82
760.068	25432.24
760.405	25392.92
760.743	25340.72
761.08	25359.02
761.417	25227.95
761.754	25233.6
762.091	25225.24
762.428	25159.03
762.765	25070.22
763.102	25066.37
763.438	25013.95
763.775	25024.34
764.112	25062.53
764.449	25000.16
764.785	24942.76
765.122	24848.08
765.458	24875.19
765.795	24916.32
766.131	24876.32
766.467	25061.18
766.804	24865.48
767.14	24806.95
767.476	24903.44
767.812	24931.92
768.148	24842.43
768.485	24830.45
768.821	24688.98
769.157	24654.63
769.492	24694.86
769.828	24733.5
770.164	24447.41
770.5	24506.62
770.836	24516.78
771.171	24449.67
771.507	24487.18
771.842	24192.05
772.178	24177.58
772.513	24397.69
772.849	24151.82
773.184	24138.72
773.519	24049.68
773.855	23940.3
774.19	23807.42
774.525	23740.99
774.86	23752.96
775.195	23700.08
775.53	23712.06
775.865	23424.16
776.2	23269.13
776.535	23135.8
776.87	23126.09
777.205	22940.55
777.539	22924.28
777.874	22983.04
778.209	22802.71
778.543	22686.32
778.878	22577.4
779.212	22647.23
779.547	22520.91
779.881	22417.86
780.215	22305.32
780.55	22371.3
780.884	22204.98
781.218	22147.13
781.552	22000.24
781.886	21990.3
782.22	21995.5
782.554	21914.14
782.888	21680.25
783.222	21735.61
783.556	21604.09
783.889	21593.02
784.223	21443.65
784.557	21401.84
784.89	21438.9
785.224	21327.04
785.557	21229.64
785.891	21195.97
786.224	21181.96
786.558	21077.33
786.891	20911
787.224	20908.29
787.557	20871.91
787.891	20821.51
788.224	20920.95
788.557	20791.23
788.89	20847.28
789.223	20769.54
789.556	20703.78
789.888	20697
790.221	20598.7
790.554	20520.51
790.887	20312.15
791.219	20285.03
791.552	20193.28
791.884	20075.09
792.217	20072.16
792.549	19853.86
792.882	19851.14
793.214	19667.87
793.546	19836.23
793.879	19732.73
794.211	19576.12
794.543	19624.94
794.875	19424.26
795.207	19499.97
795.539	19199.41
795.871	19334.77
796.203	19109.92
796.535	18988.79
796.867	18982.69
797.198	18989.02
797.53	19005.97
797.862	18706.99
798.193	18910.83
798.525	18787.22
798.856	18733.43
799.188	18537.96
799.519	18486.21
799.85	18345.2
800.182	18447.57
800.513	18464.74
800.844	18237.63
801.175	18365.99
801.506	18456.83
801.837	18322.82
802.168	18256.38
802.499	18141.13
802.83	18063.4
803.161	18025.2
803.491	18147.69
803.822	18133.68
804.153	17950.63
804.483	17844.64
804.814	17820.01
805.145	17835.38
805.475	17730.97
805.805	17855.26
806.136	17789.96
806.466	17882.38
806.796	17740.47
807.126	17554.26
807.457	17544.76
807.787	17569.85
808.117	17454.37
808.447	17466.8
808.777	17448.27
809.107	17389.06
809.436	17318.1
809.766	17257.54
810.096	17102.29
810.426	17144.55
810.755	17129.18
811.085	16999.92
811.414	17057.09
811.744	16860.26
812.073	16898
812.403	16864.56
812.732	16677.22
813.061	16727.16
813.39	16551.57
813.719	16469.99
814.049	16613.72
814.378	16541.18
814.707	16474.06
815.036	16491.01
815.365	16309.09
815.693	16302.54
816.022	16252.14
816.351	16203.11
816.68	16135.99
817.008	16183.44
817.337	16006.95
817.665	15952.94
817.994	16022.09
818.322	16008.31
818.651	15885.83
818.979	15857.58
819.307	15864.58
819.636	15821.87
819.964	15676.34
820.292	15828.2
820.62	15790.91
820.948	15707.75
821.276	15778.94
821.604	15776.68
821.932	15780.29
822.259	15813.06
822.587	15841.98
822.915	15781.42
823.243	15874.07
823.57	15748.43
823.898	15836.56
824.225	15768.54
824.553	15782.1
824.88	15777.58
825.207	15890.57
825.535	15863
825.862	15782.33
826.189	15788.88
826.516	15979.61
826.843	15954.52
827.17	16003.11
827.497	15960.85
827.824	15950
828.151	15905.26
828.478	15931.7
828.805	15932.38
829.131	15917.91
829.458	15862.77
829.785	15820.74
830.111	15788.2
830.438	15822.78
830.764	15782.1
831.09	15787.97
831.417	15688.77
831.743	15678.37
832.069	15647.19
832.395	15645.15
832.722	15706.17
833.048	15559.05
833.374	15592.27
833.7	15453.07
834.026	15481.09
834.351	15483.35
834.677	15378.27
835.003	15480.19
835.329	15399.51
835.654	15404.48
835.98	15313.86
836.306	15334.65
836.631	15418.04
836.956	15309.8
837.282	15256.46
837.607	15229.57
837.932	15198.84
838.258	15189.8
838.583	15097.6
838.908	15079.97
839.233	15162.23
839.558	15015.79
839.883	15035.23
840.208	14914.78
840.533	14977.15
840.858	15111.38
841.182	15118.84
841.507	15029.58
841.832	14991.84
842.156	15019.63
842.481	15051.95
842.805	15011.05
843.13	14967.66
843.454	14937.6
843.778	14889.02
844.103	14876.81
844.427	14792.75
844.751	14795.46
845.075	14764.5
845.399	14742.35
845.723	14717.27
846.047	14672.07
846.371	14517.95
846.695	14502.13
847.019	14485.41
847.343	14387.56
847.666	14437.28
847.99	14255.13
848.313	14284.96
848.637	14172.2
848.96	14155.25
849.284	14144.85
849.607	14037.74
849.931	13907.57
850.254	13828.7
850.577	13796.16
850.9	13672.78
851.223	13648.37
851.546	13540.12
851.869	13445.44
852.192	13497.19
852.515	13322.28
852.838	13261.04
853.161	13236.4
853.483	13202.05
853.806	13186.91
854.129	13142.62
854.451	13033.92
854.774	12987.82
855.096	12941.72
855.419	12870.99
855.741	12846.81
856.063	12749.86
856.385	12748.05
856.708	12740.6
857.03	12705.12
857.352	12673.25
857.674	12636.19
857.996	12565.23
858.318	12560.04
858.64	12539.47
858.961	12423.54
859.283	12448.18
859.605	12384.22
859.926	12437.1
860.248	12317.78
860.57	12367.95
860.891	12302.42
861.212	12289.99
861.534	12315.07
861.855	12322.98
862.176	12398.46
862.498	12261.97
862.819	12332.7
863.14	12186.94
863.461	12157.79
863.782	12233.72
864.103	12171.35
864.424	12209.99
864.745	12190.78
865.065	12189.65
865.386	12042.31
865.707	12124.79
866.027	12120.05
866.348	12044.57
866.668	12076.66
866.989	12003.22
867.309	11894.52
867.63	11944.91
867.95	12005.93
868.27	11930.67
868.59	11982.88
868.91	11875.08
869.23	11901.52
869.55	11830.34
869.87	11866.04
870.19	11818.81
870.51	11804.12
870.83	11722.54
871.15	11719.61
871.469	11692.49
871.789	11702.21
872.109	11675.31
872.428	11591.02
872.748	11685.94
873.067	11626.28
873.386	11534.98
873.706	11539.72
874.025	11525.71
874.344	11420.18
874.663	11475.09
874.982	11298.6
875.301	11321.2
875.62	11291.82
875.939	11252.27
876.258	11282.1
876.577	11165.05
876.896	11246.63
877.214	11153.97
877.533	11108.78
877.852	11166.4
878.17	11224.25
878.489	11115.56
878.807	11074.43
879.125	11045.5
879.444	11115.33
879.762	11036.91
880.08	11077.36
880.398	10966.86
880.716	10951.27
881.034	10941.77
881.352	11010.25
881.67	10896.35
881.988	10891.61
882.306	10855.68
882.624	10841.44
882.941	10845.51
883.259	10854.55
883.577	10826.98
883.894	10854.55
884.212	10760.08
884.529	10741.55
884.846	10718.05
885.164	10648.9
885.481	10617.49
885.798	10727.54
886.115	10631.73
886.432	10682.35
886.75	10659.97
887.067	10687.77
887.383	10575.23
887.7	10620.43
888.017	10556.47
888.334	10619.3
888.651	10572.97
888.967	10517.15
889.284	10583.14
889.6	10546.76
889.917	10439.87
890.233	10492.07
890.55	10422.24
890.866	10438.51
891.182	10364.84
891.498	10347.67
891.815	10314.22
892.131	10211.17
892.447	10220.89
892.763	10210.27
893.079	10079.2
893.395	10062.7
893.71	10059.99
894.026	9984.74
894.342	9958.98
894.657	9901.35
894.973	9831.3
895.289	9849.83
895.604	9805.31
895.92	9756.49
896.235	9691.86
896.55	9707.68
896.865	9607.35
897.181	9567.8
897.496	9554.24
897.811	9480.34
898.126	9455.71
898.441	9386.34
898.756	9397.18
899.071	9332.1
899.386	9357.64
899.7	9166.68
900.015	9194.25
900.33	9155.38
900.644	9190.41
900.959	9125.1
901.273	9148.38
901.588	9012.56
901.902	9053.01
902.216	9047.59
902.531	9026.34
902.845	8990.19
903.159	8924.65
903.473	8933.92
903.787	8880.13
904.101	8850.53
904.415	8879.46
904.729	8794.26
905.042	8735.05
905.356	8744.32
905.67	8766.24
905.984	8713.13
906.297	8763.75
906.611	8725.11
906.924	8704.77
907.237	8652.12
907.551	8645.34
907.864	8570.99
908.177	8509.3
908.491	8563.08
908.804	8465.91
909.117	8445.34
909.43	8442.86
909.743	8396.08
910.056	8390.2
910.368	8353.82
910.681	8341.62
910.994	8307.95
911.307	8300.94
911.619	8242.86
911.932	8308.17
912.244	8215.74
912.557	8222.07
912.869	8154.96
913.181	8095.52
913.494	8079.7
913.806	7974.62
914.118	7949.99
914.43	7932.14
914.742	7910.22
915.054	7859.14
915.366	7757.45
915.678	7813.72
915.99	7742.31
916.302	7732.14
916.613	7696.66
916.925	7681.52
917.236	7594.74
917.548	7532.15
917.859	7493.96
918.171	7479.94
918.482	7418.25
918.794	7359.04
919.105	7354.52
919.416	7323.56
919.727	7279.27
920.038	7297.35
920.349	7270.23
920.66	7153.63
920.971	7183
921.282	7175.09
921.593	7039.96
921.903	7027.53
922.214	7017.81
922.525	6974.42
922.835	6960.41
923.146	6877.02
923.456	6866.18
923.767	6863.24
924.077	6847.64
924.387	6857.14
924.697	6778.04
925.008	6708.89
925.318	6722
925.628	6731.26
925.938	6684.71
926.248	6611.04
926.558	6585.73
926.867	6596.58
927.177	6596.35
927.487	6517.26
927.796	6500.99
928.106	6491.72
928.416	6466.41
928.725	6457.6
929.034	6361.33
929.344	6410.59
929.653	6381.89
929.962	6346.19
930.271	6312.74
930.581	6258.73
930.89	6255.12
931.199	6226.64
931.508	6221.45
931.817	6232.07
932.125	6245.63
932.434	6201.11
932.743	6212.86
933.051	6145.06
933.36	6163.82
933.669	6073.43
933.977	6111.62
934.286	6094.44
934.594	6053.77
934.902	6014.45
935.21	5958.4
935.519	6018.29
935.827	5958.85
936.135	5943.94
936.443	5937.16
936.751	5873.89
937.059	5902.81
937.367	5850.38
937.674	5813.77
937.982	5802.93
938.29	5754.57
938.597	5749.82
938.905	5699.65
939.213	5706.43
939.52	5603.16
939.827	5656.49
940.135	5552.54
940.442	5562.93
940.749	5575.36
941.056	5496.04
941.363	5409.72
941.67	5465.53
941.977	5423.95
942.284	5360.9
942.591	5355.25
942.898	5350.74
943.205	5336.05
943.511	5303.28
943.818	5279.32
944.125	5190.74
944.431	5165.43
944.738	5217.41
945.044	5134.24
945.35	5112.78
945.657	5087.92
945.963	5040.01
946.269	5018.77
946.575	5070.29
946.881	4937.41
947.187	4964.76
947.493	4935.15
947.799	4936.73
948.105	4854.02
948.41	4855.83
948.716	4932.89
949.022	4841.37
949.327	4795.27
949.633	4747.81
949.938	4781.26
950.244	4736.51
950.549	4720.7
950.854	4733.58
951.16	4713.92
951.465	4667.82
951.77	4670.98
952.075	4662.62
952.38	4631.43
952.685	4626.91
952.99	4565.22
953.294	4564.77
953.599	4528.16
953.904	4536.97
954.209	4529.06
954.513	4512.11
954.818	4465.33
955.122	4475.96
955.426	4504.88
955.731	4465.79
956.035	4421.49
956.339	4430.76
956.643	4447.26
956.948	4404.77
957.252	4463.98
957.556	4399.12
957.86	4363.64
958.163	4373.13
958.467	4356.18
958.771	4333.59
959.075	4310.08
959.378	4304.21
959.682	4290.2
959.985	4220.6
960.289	4193.93
960.592	4221.05
960.896	4176.08
961.199	4164.1
961.502	4183.08
961.805	4161.39
962.108	4120.03
962.411	4134.5
962.714	4117.1
963.017	4042.29
963.32	4014.27
963.623	4036.87
963.926	4015.4
964.228	4022.63
964.531	3954.16
964.833	3974.95
965.136	3974.5
965.438	3866.25
965.741	3897.44
966.043	3857.44
966.345	3846.14
966.648	3835.29
966.95	3806.37
967.252	3796.43
967.554	3797.1
967.856	3716.43
968.158	3672.14
968.46	3658.8
968.761	3682.3
969.063	3666.49
969.365	3685.69
969.666	3647.28
969.968	3571.35
970.269	3603.66
970.571	3595.53
970.872	3555.75
971.174	3533.83
971.475	3502.42
971.776	3525.47
972.077	3530.9
972.378	3509.65
972.679	3462.42
972.98	3466.72
973.281	3482.99
973.582	3489.09
973.883	3397.79
974.183	3378.58
974.484	3387.85
974.785	3339.04
975.085	3336.78
975.386	3317.12
975.686	3351.92
975.986	3304.91
976.287	3285.93
976.587	3266.5
976.887	3246.61
977.187	3310.79
977.487	3281.41
977.787	3227.18
978.087	3235.99
978.387	3190.34
978.687	3214.07
978.987	3205.71
979.286	3151.7
979.586	3187.18
979.885	3133.84
980.185	3172.71
980.484	3146.73
980.784	3107.63
981.083	3146.05
981.382	3130.23
981.682	3115.99
981.981	3125.93
982.28	3068.54
982.579	3064.02
982.878	3070.57
983.177	3031.25
983.475	3045.71
983.774	3063.34
984.073	3052.49
984.372	2995.99
984.67	3000.74
984.969	2996.67
985.267	2970.23
985.566	2941.76
985.864	2959.16
986.162	2940.18
986.461	2960.74
986.759	2947.86
987.057	2871.03
987.355	2883
987.653	2849.56
987.951	2822.21
988.249	2814.98
988.547	2808.65
988.844	2795.55
989.142	2795.32
989.44	2763.46
989.737	2749.45
990.035	2740.86
990.332	2746.51
990.63	2750.13
990.927	2723.46
991.224	2694.76
991.521	2687.08
991.819	2654.76
992.116	2656.34
992.413	2673.74
992.71	2588.55
993.006	2658.38
993.303	2600.52
993.6	2599.62
993.897	2573.41
994.193	2558.27
994.49	2572.95
994.787	2547.87
995.083	2530.24
995.379	2526.85
995.676	2506.74
995.972	2471.71
996.268	2467.65
996.565	2468.78
996.861	2410.02
997.157	2426.74
997.453	2386.07
997.749	2387.42
998.044	2375.22
998.34	2327.54
998.636	2329.35
998.932	2311.94
999.227	2277.6
999.523	2288.44
999.818	2311.27
1000.114	2275.34
1000.409	2291.38
1000.704	2270.82
1001	2240.76
1001.295	2243.7
1001.59	2265.17
1001.885	2235.79
1002.18	2193.76
1002.475	2211.61
1002.77	2181.1
1003.065	2191.5
1003.359	2177.26
1003.654	2189.46
1003.949	2126.86
1004.243	2125.96
1004.538	2088
1004.832	2081.44
1005.127	2108.11
1005.421	2055.45
1005.715	2074.21
1006.009	2084.61
1006.304	2038.05
1006.598	2045.51
1006.892	2023.14
1007.186	2015
1007.48	2047.09
1007.773	2019.07
1008.067	2002.35
1008.361	1988.11
1008.655	1972.07
1008.948	1966.64
1009.242	1958.73
1009.535	1995.34
1009.829	1948.34
1010.122	1966.19
1010.415	1937.49
1010.708	1895.23
1011.001	1918.73
1011.295	1928.23
1011.588	1894.33
1011.881	1879.64
1012.173	1884.61
1012.466	1872.86
1012.759	1879.87
1013.052	1853.65
1013.344	1849.81
1013.637	1823.6
1013.93	1809.81
1014.222	1807.78
1014.514	1770.72
1014.807	1817.04
1015.099	1792.86
1015.391	1769.81
1015.683	1779.3
1015.976	1742.92
1016.268	1727.55
1016.56	1727.55
1016.851	1687.1
1017.143	1702.24
1017.435	1684.84
1017.727	1655.24
1018.018	1644.17
1018.31	1679.65
1018.602	1650.27
1018.893	1644.39
1019.185	1626.77
1019.476	1645.75
1019.767	1616.14
1020.058	1589.25
1020.35	1557.39
1020.641	1550.61
1020.932	1565.98
1021.223	1549.71
1021.514	1544.73
1021.804	1513.55
1022.095	1513.77
1022.386	1502.02
1022.677	1506.99
1022.967	1489.82
1023.258	1477.16
1023.548	1453.44
1023.839	1469.48
1024.129	1462.7
1024.419	1474
1024.709	1422.93
1025	1439.43
1025.29	1378.18
1025.58	1401.01
1025.87	1401.91
1026.16	1382.25
1026.449	1362.59
1026.739	1351.97
1027.029	1348.13
1027.319	1340.67
1027.608	1344.96
1027.898	1310.16
1028.187	1325.08
1028.477	1285.53
1028.766	1286.89
1029.055	1296.83
1029.344	1299.32
1029.634	1256.38
1029.923	1260.67
1030.212	1273.55
1030.501	1231.97
1030.79	1234.91
1031.078	1222.03
1031.367	1224.97
1031.656	1228.81
1031.945	1213.22
1032.233	1208.92
1032.522	1176.38
1032.81	1178.64
1033.099	1177.06
1033.387	1184.29
1033.675	1155.37
1033.963	1165.31
1034.251	1178.19
1034.54	1160.34
1034.828	1150.85
1035.116	1154.01
1035.403	1151.75
1035.691	1117.85
1035.979	1131.86
1036.267	1111.75
1036.554	1114.01
1036.842	1072.43
1037.129	1085.99
1037.417	1078.76
1037.704	1073.56
1037.992	1061.81
1038.279	1052.32
1038.566	1078.53
1038.853	1078.53
1039.14	1078.53
