Data from blue_surface_keyboard_FLMS001491_026.txt Node
Date: Tue Feb 07 11:12:51 GMT 2017
User: dcchb
Spectrometer: FLMS00149
Trigger mode: 0
Integration Time (sec): 2.000000E-2
Scans to average: 10
Electric dark correction enabled: true
Nonlinearity correction enabled: false
Boxcar width: 0
XAxis mode: Wavelengths
Number of Pixels in Spectrum: 2048
>>>>>Begin Spectral Data<<<<<
341.393	0.44
341.776	0.44
342.16	0.44
342.543	-58.54
342.927	-46.11
343.31	-76.85
343.693	-74.36
344.077	-57.64
344.46	-73.01
344.843	-57.87
345.226	-54.93
345.61	-27.58
345.993	-9.28
346.376	12.87
346.759	11.74
347.142	23.26
347.525	32.3
347.908	56.71
348.291	76.82
348.674	90.6
349.057	127.21
349.44	150.94
349.823	131.96
350.206	163.6
350.588	154.78
350.971	185.97
351.354	188
351.737	227.1
352.119	239.53
352.502	257.83
352.884	249.7
353.267	272.3
353.65	254.44
354.032	258.74
354.414	276.36
354.797	301.45
355.179	286.98
355.562	286.08
355.944	324.95
356.326	313.88
356.709	313.42
357.091	310.03
357.473	321.79
357.855	321.33
358.238	318.4
358.62	313.88
359.002	314.78
359.384	334.21
359.766	300.99
360.148	302.8
360.53	329.24
360.912	310.71
361.294	316.81
361.676	315.23
362.057	304.84
362.439	327.66
362.821	315.46
363.203	281.56
363.584	308.9
363.966	299.41
364.348	296.48
364.729	294.89
365.111	298.96
365.493	287.44
365.874	323.82
366.256	304.84
366.637	305.74
367.019	291.73
367.4	273.65
367.781	282.46
368.163	296.7
368.544	271.39
368.925	274.33
369.306	281.33
369.688	302.35
370.069	304.16
370.45	303.25
370.831	268.45
371.212	283.59
371.593	259.19
371.974	261.9
372.355	298.96
372.736	292.86
373.117	290.6
373.498	290.6
373.879	281.56
374.26	286.08
374.641	304.16
375.021	287.66
375.402	291.05
375.783	319.07
376.163	301.67
376.544	307.32
376.925	287.89
377.305	291.5
377.686	307.32
378.066	280.43
378.447	295.12
378.827	293.54
379.208	287.89
379.588	298.51
379.968	302.58
380.349	293.09
380.729	293.31
381.109	308.9
381.489	300.32
381.87	300.32
382.25	294.22
382.63	305.06
383.01	310.49
383.39	298.51
383.77	309.58
384.15	282.46
384.53	309.58
384.91	305.97
385.29	329.02
385.67	308.45
386.049	302.35
386.429	310.26
386.809	319.98
387.189	294.89
387.568	311.62
387.948	315.68
388.328	307.32
388.707	311.62
389.087	315.68
389.466	305.97
389.846	329.92
390.225	324.27
390.605	325.18
390.984	318.4
391.363	310.71
391.743	317.49
392.122	325.85
392.501	317.72
392.881	325.18
393.26	323.14
393.639	333.99
394.018	316.14
394.397	324.05
394.776	331.05
395.155	333.76
395.534	318.85
395.913	318.62
396.292	342.8
396.671	350.49
397.05	330.37
397.429	333.54
397.808	325.4
398.186	335.57
398.565	353.42
398.944	335.12
399.323	333.76
399.701	340.77
400.08	348
400.458	340.99
400.837	343.71
401.215	335.8
401.594	327.21
401.972	353.42
402.351	351.62
402.729	339.41
403.107	337.83
403.486	361.11
403.864	350.49
404.242	361.33
404.62	352.97
404.999	366.53
405.377	361.56
405.755	364.5
406.133	365.85
406.511	356.81
406.889	356.13
407.267	361.33
407.645	367.43
408.023	328.11
408.401	364.95
408.779	367.43
409.156	373.54
409.534	349.81
409.912	370.82
410.29	351.39
410.667	359.3
411.045	367.89
411.422	355
411.8	366.53
412.178	373.99
412.555	376.02
412.933	363.82
413.31	369.92
413.687	381.67
414.065	374.44
414.442	363.59
414.819	379.41
415.197	397.04
415.574	397.26
415.951	389.35
416.328	390.03
416.705	379.64
417.082	396.36
417.46	376.25
417.837	390.71
418.214	398.39
418.591	387.77
418.967	394.1
419.344	403.82
419.721	411.27
420.098	414.44
420.475	403.82
420.852	409.69
421.228	384.61
421.605	394.55
421.982	405.62
422.358	422.35
422.735	412.63
423.111	417.15
423.488	407.66
423.864	416.47
424.241	423.93
424.617	428.68
424.994	412.63
425.37	445.85
425.746	404.27
426.123	425.51
426.499	418.73
426.875	420.54
427.251	422.8
427.627	444.27
428.003	435.23
428.379	443.36
428.756	432.06
429.132	431.39
429.507	438.84
429.883	448.56
430.259	415.79
430.635	446.3
431.011	443.82
431.387	450.37
431.763	444.49
432.138	457.6
432.514	442.91
432.89	450.37
433.265	485.17
433.641	464.83
434.016	471.84
434.392	494.66
434.767	459.18
435.143	480.88
435.518	478.17
435.894	475.68
436.269	477.94
436.644	484.27
437.02	481.78
437.395	482.46
437.77	493.53
438.145	470.26
438.52	486.53
438.895	497.37
439.271	499.18
439.646	509.13
440.021	495.79
440.395	500.09
440.77	514.55
441.145	517.49
441.52	523.81
441.895	485.62
442.27	517.71
442.645	517.94
443.019	518.16
443.394	498.05
443.769	508.22
444.143	515.45
444.518	520.42
444.892	541.21
445.267	514.55
445.641	536.02
446.016	556.58
446.39	549.35
446.764	547.32
447.139	546.19
447.513	539.63
447.887	527.43
448.262	546.64
448.636	526.53
449.01	544.15
449.384	547.32
449.758	579.18
450.132	558.16
450.506	577.37
450.88	551.38
451.254	565.39
451.628	570.59
452.002	548.45
452.376	587.54
452.75	575.11
453.123	542.34
453.497	575.79
453.871	568.78
454.244	573.53
454.618	587.99
454.992	599.74
455.365	595.22
455.739	613.98
456.112	588.44
456.486	585.28
456.859	625.05
457.232	621.89
457.606	642.45
457.979	600.42
458.352	620.53
458.725	613.08
459.099	620.31
459.472	616.47
459.845	660.31
460.218	640.2
460.591	658.95
460.964	656.24
461.337	656.92
461.71	639.97
462.083	658.95
462.456	632.29
462.829	647.2
463.201	637.94
463.574	660.76
463.947	676.8
464.32	674.32
464.692	677.03
465.065	675.45
465.438	675.67
465.81	723.36
466.183	718.39
466.555	719.06
466.928	696.92
467.3	699.63
467.672	707.76
468.045	711.61
468.417	743.47
468.789	730.81
469.161	743.92
469.534	743.47
469.906	744.37
470.278	771.94
470.65	773.98
471.022	755.22
471.394	756.8
471.766	783.69
472.138	803.35
472.51	773.07
472.882	809.91
473.253	794.09
473.625	818.95
473.997	830.02
474.369	820.76
474.74	804.94
475.112	849
475.484	839.06
475.855	832.05
476.227	847.2
476.598	854.2
476.97	872.28
477.341	891.04
477.713	889.91
478.084	903.92
478.455	920.19
478.827	921.77
479.198	925.16
479.569	917.7
479.94	917.7
480.311	945.27
480.682	974.42
481.053	1008.32
481.424	970.13
481.795	964.25
482.166	997.7
482.537	989.34
482.908	1020.52
483.279	1008.32
483.65	1015.33
484.021	1033.63
484.391	1009.68
484.762	1058.26
485.133	1037.7
485.503	1081.54
485.874	1078.83
486.244	1076.57
486.615	1092.16
486.985	1133.29
487.356	1115.89
487.726	1126.96
488.097	1127.64
488.467	1102.56
488.837	1126.51
489.207	1170.35
489.578	1151.14
489.948	1170.8
490.318	1170.35
490.688	1188.43
491.058	1164.93
491.428	1198.37
491.798	1217.35
492.168	1234.76
492.538	1212.16
492.908	1212.16
493.278	1203.12
493.648	1194.98
494.017	1199.73
494.387	1245.15
494.757	1250.35
495.126	1252.16
495.496	1269.11
495.866	1258.71
496.235	1264.36
496.605	1263.46
496.974	1300.74
497.344	1309.56
497.713	1307.75
498.082	1296.22
498.452	1276.79
498.821	1295.55
499.19	1274.98
499.559	1306.62
499.928	1313.4
500.298	1296.45
500.667	1295.55
501.036	1305.49
501.405	1296.22
501.774	1320.63
502.143	1332.15
502.512	1326.96
502.88	1340.29
503.249	1339.16
503.618	1306.62
503.987	1321.76
504.356	1345.04
504.724	1358.37
505.093	1353.62
505.462	1328.31
505.83	1333.28
506.199	1363.11
506.567	1339.84
506.936	1331.93
507.304	1373.51
507.672	1391.59
508.041	1380.97
508.409	1357.92
508.777	1386.84
509.145	1395.43
509.514	1361.98
509.882	1385.94
510.25	1367.63
510.618	1371.25
510.986	1400.4
511.354	1401.76
511.722	1412.83
512.09	1397.46
512.458	1373.06
512.826	1412.6
513.193	1410.8
513.561	1417.8
513.929	1424.36
514.297	1418.71
514.664	1419.84
515.032	1414.19
515.4	1422.77
515.767	1412.6
516.135	1443.79
516.502	1414.41
516.869	1419.38
517.237	1456.22
517.604	1435.88
517.972	1431.36
518.339	1446.5
518.706	1464.13
519.073	1447.18
519.44	1417.12
519.808	1441.76
520.175	1461.87
520.542	1455.09
520.909	1466.39
521.276	1455.99
521.643	1456.22
522.009	1494.18
522.376	1489.44
522.743	1477.69
523.11	1488.53
523.477	1498.25
523.843	1489.66
524.21	1515.2
524.577	1519.27
524.943	1511.36
525.31	1503.45
525.676	1510.23
526.043	1507.97
526.409	1522.43
526.776	1533.73
527.142	1516.33
527.508	1535.31
527.874	1553.17
528.241	1541.87
528.607	1528.53
528.973	1548.19
529.339	1549.32
529.705	1557.69
530.071	1554.52
530.437	1565.14
530.803	1562.2
531.169	1572.6
531.535	1584.8
531.901	1525.6
532.267	1555.65
532.632	1579.38
532.998	1580.96
533.364	1573.28
533.73	1587.74
534.095	1579.83
534.461	1568.31
534.826	1607.63
535.192	1582.54
535.557	1608.31
535.923	1601.75
536.288	1578.48
536.653	1598.14
537.019	1584.13
537.384	1603.33
537.749	1599.72
538.114	1609.44
538.479	1639.26
538.845	1599.94
539.21	1614.86
539.575	1578.02
539.94	1571.92
540.305	1579.38
540.67	1611.69
541.034	1615.54
541.399	1598.59
541.764	1616.89
542.129	1593.39
542.494	1599.49
542.858	1614.41
543.223	1615.31
543.587	1592.94
543.952	1609.89
544.316	1613.05
544.681	1598.81
545.045	1596.78
545.41	1626.61
545.774	1633.62
546.138	1622.09
546.503	1623.22
546.867	1626.38
547.231	1619.83
547.595	1634.07
547.959	1624.35
548.324	1619.6
548.688	1610.11
549.052	1632.71
549.416	1619.15
549.779	1638.59
550.143	1640.17
550.507	1626.16
550.871	1632.71
551.235	1605.59
551.599	1637.23
551.962	1656.44
552.326	1651.47
552.689	1646.95
553.053	1672.26
553.417	1639.72
553.78	1648.76
554.143	1638.81
554.507	1645.82
554.87	1650.56
555.234	1658.25
555.597	1636.55
555.96	1656.21
556.323	1662.09
556.686	1684.91
557.05	1655.31
557.413	1652.37
557.776	1664.57
558.139	1672.94
558.502	1642.65
558.865	1638.81
559.228	1645.37
559.59	1684.69
559.953	1653.05
560.316	1678.36
560.679	1653.95
561.041	1673.16
561.404	1666.83
561.767	1696.66
562.129	1677.68
562.492	1715.87
562.854	1691.69
563.217	1682.2
563.579	1687.4
563.941	1693.27
564.304	1712.71
564.666	1704.35
565.028	1706.16
565.39	1723.1
565.753	1728.3
566.115	1746.83
566.477	1748.87
566.839	1727.85
567.201	1724.23
567.563	1727.85
567.925	1760.17
568.287	1745.48
568.648	1768.98
569.01	1723.56
569.372	1739.38
569.734	1724.91
570.095	1767.62
570.457	1764.23
570.819	1765.36
571.18	1763.56
571.542	1744.57
571.903	1746.61
572.265	1796.77
572.626	1764.69
572.987	1795.87
573.349	1792.48
573.71	1768.07
574.071	1789.32
574.432	1792.93
574.794	1824.57
575.155	1804.23
575.516	1787.28
575.877	1789.09
576.238	1785.7
576.599	1798.36
576.96	1812.82
577.32	1820.28
577.681	1822.08
578.042	1808.07
578.403	1812.82
578.763	1815.76
579.124	1826.38
579.485	1824.8
579.845	1831.12
580.206	1847.85
580.566	1799.03
580.927	1801.97
581.287	1810.33
581.648	1814.85
582.008	1799.94
582.368	1841.29
582.728	1855.3
583.089	1832.71
583.449	1824.34
583.809	1845.14
584.169	1834.97
584.529	1823.44
584.889	1846.04
585.249	1825.7
585.609	1818.92
585.969	1853.72
586.329	1847.85
586.688	1802.42
587.048	1843.33
587.408	1818.47
587.768	1807.85
588.127	1825.7
588.487	1832.71
588.846	1821.63
589.206	1853.04
589.565	1833.16
589.925	1848.75
590.284	1846.49
590.643	1865.02
591.003	1854.63
591.362	1839.71
591.721	1837.9
592.08	1854.4
592.44	1872.03
592.799	1857.11
593.158	1875.87
593.517	1870.67
593.876	1879.71
594.235	1855.76
594.593	1878.58
594.952	1869.77
595.311	1838.13
595.67	1823.67
596.029	1874.74
596.387	1871.35
596.746	1869.09
597.104	1869.54
597.463	1892.37
597.822	1860.73
598.18	1859.15
598.538	1878.13
598.897	1885.59
599.255	1882.42
599.613	1901.86
599.972	1877.22
600.33	1913.38
600.688	1891.69
601.046	1894.85
601.404	1900.5
601.762	1901.86
602.12	1862.31
602.478	1923.78
602.836	1892.82
603.194	1893.27
603.552	1929.2
603.91	1897.79
604.268	1907.51
604.625	1876.77
604.983	1902.99
605.341	1902.08
605.698	1935.53
606.056	1914.51
606.413	1913.83
606.771	1891.91
607.128	1911.12
607.485	1935.53
607.843	1914.29
608.2	1927.84
608.557	1933.27
608.914	1923.1
609.272	1915.64
609.629	1931.91
609.986	1941.18
610.343	1924.23
610.7	1957
611.057	1921.97
611.414	1959.71
611.771	1949.31
612.127	1964.45
612.484	1955.19
612.841	1958.13
613.198	1980.95
613.554	1944.79
613.911	1963.1
614.267	1964.23
614.624	1974.85
614.98	1954.51
615.337	1988.63
615.693	1972.59
616.05	1960.61
616.406	1979.59
616.762	1994.74
617.118	1972.82
617.475	1981.85
617.831	1965.58
618.187	1987.73
618.543	2004.23
618.899	1992.02
619.255	2008.29
619.611	2011.23
619.967	1976.43
620.323	2018.92
620.678	1989.76
621.034	1986.15
621.39	2032.47
621.746	2014.85
622.101	1989.09
622.457	2017.79
622.812	2022.08
623.168	2034.28
623.523	2024.34
623.879	2019.14
624.234	1999.93
624.589	2018.46
624.945	2058.24
625.3	2011.23
625.655	2032.7
626.01	2022.53
626.365	2057.11
626.72	2041.29
627.075	2042.19
627.43	2031.8
627.785	2053.04
628.14	2044.9
628.495	2054.4
628.85	2061.63
629.205	2074.96
629.559	2052.59
629.914	2034.96
630.269	2067.05
630.623	2078.58
630.978	2098.91
631.332	2058.91
631.687	2053.49
632.041	2088.97
632.396	2092.59
632.75	2055.75
633.104	2074.96
633.459	2079.25
633.813	2053.27
634.167	2072.93
634.521	2084.45
634.875	2107.28
635.229	2120.61
635.583	2088.97
635.937	2126.94
636.291	2113.83
636.645	2098.46
636.999	2095.98
637.352	2102.08
637.706	2089.42
638.06	2160.16
638.413	2138.91
638.767	2128.07
639.121	2116.99
639.474	2145.24
639.828	2147.73
640.181	2166.03
640.534	2143.66
640.888	2129.65
641.241	2150.66
641.594	2161.96
641.947	2161.51
642.301	2164.67
642.654	2186.37
643.007	2208.06
643.36	2202.41
643.713	2153.83
644.066	2217.33
644.419	2187.05
644.771	2200.83
645.124	2182.98
645.477	2140.04
645.83	2180.72
646.182	2168.29
646.535	2205.8
646.888	2211.23
647.24	2181.17
647.593	2185.92
647.945	2205.8
648.298	2193.15
648.65	2231.79
649.002	2229.53
649.355	2274.95
649.707	2238.8
650.059	2197.89
650.411	2262.98
650.763	2275.63
651.115	2301.17
651.467	2310.43
651.819	2306.59
652.171	2352.92
652.523	2341.17
652.875	2332.58
653.227	2325.8
653.578	2365.35
653.93	2379.36
654.282	2389.75
654.633	2384.78
654.985	2369.42
655.337	2394.5
655.688	2402.63
656.039	2404.67
656.391	2424.1
656.742	2451.22
657.094	2421.17
657.445	2450.77
657.796	2479.02
658.147	2464.78
658.498	2485.57
658.849	2488.28
659.2	2483.99
659.551	2469.3
659.902	2524.89
660.253	2532.35
660.604	2540.26
660.955	2529.64
661.306	2541.16
661.656	2559.24
662.007	2586.81
662.358	2617.77
662.708	2584.32
663.059	2613.48
663.409	2619.8
663.76	2647.15
664.11	2668.62
664.461	2650.54
664.811	2694.38
665.161	2694.6
665.511	2708.84
665.862	2712
666.212	2717.2
666.562	2702.51
666.912	2712.46
667.262	2723.98
667.612	2737.09
667.962	2769.18
668.312	2768.73
668.662	2771.21
669.011	2796.52
669.361	2762.4
669.711	2810.53
670.06	2833.13
670.41	2784.77
670.76	2811.21
671.109	2823.19
671.459	2873.58
671.808	2884.43
672.157	2895.28
672.507	2891.44
672.856	2849.4
673.205	2893.92
673.554	2889.85
673.904	2919.68
674.253	2976.18
674.602	2971.21
674.951	2900.25
675.3	2935.28
675.649	2962.39
675.998	2969.85
676.346	2962.85
676.695	2982.28
677.044	3026.35
677.393	3033.58
677.741	3041.26
678.09	3016.18
678.438	3064.54
678.787	3053.01
679.135	3081.26
679.484	3024.54
679.832	3053.69
680.181	3079
680.529	3063.63
680.877	3093.69
681.225	3106.57
681.573	3113.8
681.922	3124.88
682.27	3146.12
682.618	3133.46
682.966	3159.45
683.314	3178.43
683.661	3114.48
684.009	3163.74
684.357	3164.65
684.705	3167.36
685.053	3221.82
685.4	3201.94
685.748	3161.71
686.095	3161.26
686.443	3198.55
686.79	3203.52
687.138	3175.72
687.485	3231.77
687.832	3203.52
688.18	3206.46
688.527	3241.26
688.874	3193.12
689.221	3269.5
689.568	3249.62
689.915	3248.04
690.262	3220.47
690.609	3250.75
690.956	3257.53
691.303	3232.9
691.65	3250.3
691.997	3251.2
692.344	3209.84
692.69	3257.98
693.037	3207.81
693.383	3261.6
693.73	3250.07
694.077	3214.14
694.423	3231.77
694.769	3255.49
695.116	3260.69
695.462	3184.53
695.808	3260.92
696.155	3228.83
696.501	3205.78
696.847	3229.05
697.193	3220.92
697.539	3232.22
697.885	3212.33
698.231	3221.82
698.577	3223.86
698.923	3220.47
699.269	3183.18
699.614	3196.29
699.96	3166
700.306	3218.43
700.651	3224.76
700.997	3190.64
701.342	3183.4
701.688	3214.82
702.033	3153.35
702.379	3204.42
702.724	3184.53
703.069	3190.64
703.415	3152.9
703.76	3162.61
704.105	3162.84
704.45	3180.24
704.795	3146.34
705.14	3162.61
705.485	3160.58
705.83	3157.42
706.175	3130.07
706.52	3179.11
706.865	3117.87
707.209	3133.91
707.554	3124.65
707.899	3152.9
708.243	3102.28
708.588	3088.04
708.932	3098.89
709.277	3081.03
709.621	3111.54
709.966	3118.32
710.31	3109.51
710.654	3095.72
710.998	3128.94
711.342	3089.85
711.687	3055.95
712.031	3090.3
712.375	3081.94
712.719	3093.01
713.063	3105.21
713.407	3067.7
713.75	3090.07
714.094	3095.5
714.438	3077.19
714.782	3088.04
715.125	3048.72
715.469	3049.62
715.812	3057.98
716.156	3070.64
716.499	3060.47
716.843	3053.92
717.186	3057.98
717.53	3077.87
717.873	3048.04
718.216	3110.41
718.559	3066.35
718.902	3088.04
719.246	3052.11
719.589	3045.56
719.932	3041.94
720.275	3094.59
720.617	3053.92
720.96	3097.98
721.303	3035.61
721.646	3057.76
721.989	3039
722.331	3046.46
722.674	3042.39
723.016	3077.87
723.359	3040.58
723.701	3074.03
724.044	3042.62
724.386	3105.44
724.729	3079.68
725.071	3093.92
725.413	3090.07
725.755	3044.88
726.097	3070.87
726.439	3095.72
726.782	3040.81
727.124	3099.11
727.465	3061.6
727.807	3057.53
728.149	3028.83
728.491	3083.29
728.833	3061.83
729.175	3066.35
729.516	3066.8
729.858	3045.33
730.199	3086.91
730.541	3078.77
730.882	3109.96
731.224	3082.84
731.565	3051.21
731.906	3101.15
732.248	3090.75
732.589	3081.26
732.93	3125.78
733.271	3067.48
733.612	3097.76
733.953	3139.11
734.294	3090.98
734.635	3127.81
734.976	3145.44
735.317	3123.07
735.658	3105.21
735.999	3102.28
736.339	3147.25
736.68	3145.21
737.021	3126.46
737.361	3146.34
737.702	3148.15
738.042	3173.91
738.383	3161.94
738.723	3177.3
739.063	3209.39
739.404	3183.86
739.744	3201.48
740.084	3168.94
740.424	3222.73
740.764	3183.4
741.104	3239
741.444	3218.66
741.784	3241.93
742.124	3220.47
742.464	3259.56
742.804	3247.81
743.143	3253.23
743.483	3298.2
743.823	3294.14
744.162	3332.1
744.502	3314.02
744.841	3314.25
745.181	3357.86
745.52	3332.33
745.86	3321.71
746.199	3381.82
746.538	3355.15
746.877	3456.84
747.216	3420.69
747.556	3408.94
747.895	3455.26
748.234	3454.36
748.573	3496.39
748.911	3485.54
749.25	3516.05
749.589	3499.1
749.928	3554.47
750.267	3566.9
750.605	3587.46
750.944	3613.68
751.283	3588.37
751.621	3614.13
751.96	3597.18
752.298	3623.17
752.636	3686.67
752.975	3617.74
753.313	3718.08
753.651	3717.4
753.989	3753.79
754.327	3750.85
754.666	3780.23
755.004	3773.9
755.342	3833.78
755.679	3842.82
756.017	3856.83
756.355	3876.04
756.693	3878.53
757.031	3906.32
757.368	3928.24
757.706	3934.12
758.044	3924.18
758.381	3957.85
758.719	3978.86
759.056	3989.03
759.394	4010.05
759.731	4040.11
760.068	4056.15
760.405	4086.88
760.743	4086.66
761.08	4150.84
761.417	4137.73
761.754	4109.93
762.091	4144.51
762.428	4114.45
762.765	4126.66
763.102	4183.15
763.438	4184.51
763.775	4190.38
764.112	4186.99
764.449	4210.72
764.785	4252.76
765.122	4247.56
765.458	4237.39
765.795	4180.44
766.131	4240.33
766.467	4229.25
766.804	4242.36
767.14	4247.33
767.476	4255.47
767.812	4252.53
768.148	4262.02
768.485	4237.84
768.821	4214.79
769.157	4285.75
769.492	4270.16
769.828	4243.26
770.164	4244.39
770.5	4225.19
770.836	4261.57
771.171	4256.6
771.507	4264.05
771.842	4241.68
772.178	4224.06
772.513	4218.18
772.849	4246.2
773.184	4222.25
773.519	4202.81
773.855	4221.8
774.19	4219.08
774.525	4184.06
774.86	4195.13
775.195	4207.11
775.53	4182.7
775.865	4130.05
776.2	4165.07
776.535	4137.96
776.87	4126.66
777.205	4123.27
777.539	4102.25
777.874	4097.73
778.209	4107.67
778.543	4121.46
778.878	4118.3
779.212	4064.96
779.547	4046.43
779.881	4045.76
780.215	4012.99
780.55	4076.71
780.884	4043.72
781.218	4064.06
781.552	4017.96
781.886	3990.62
782.22	4014.8
782.554	3956.72
782.888	3945.19
783.222	3973.21
783.556	3876.04
783.889	3925.76
784.223	3886.21
784.557	3916.04
784.89	3884.63
785.224	3891.41
785.557	3897.51
785.891	3860.9
786.224	3880.79
786.558	3904.29
786.891	3873.33
787.224	3836.04
787.557	3826.78
787.891	3805.54
788.224	3800.34
788.557	3776.16
788.89	3821.81
789.223	3796.27
789.556	3773.9
789.888	3768.25
790.221	3749.72
790.554	3712.88
790.887	3737.97
791.219	3720.57
791.552	3689.15
791.884	3716.27
792.217	3685.31
792.549	3681.92
792.882	3676.73
793.214	3606.9
793.546	3624.98
793.879	3673.11
794.211	3561.25
794.543	3644.64
794.875	3603.73
795.207	3597.18
795.539	3596.73
795.871	3614.35
796.203	3584.52
796.535	3583.17
796.867	3536.16
797.198	3582.94
797.53	3541.14
797.862	3519.44
798.193	3467.47
798.525	3487.13
798.856	3525.09
799.188	3508.59
799.519	3466.11
799.85	3482.38
800.182	3460.91
800.513	3464.08
800.844	3435.83
801.175	3454.36
801.506	3438.09
801.837	3404.87
802.168	3443.29
802.499	3404.87
802.83	3396.51
803.161	3388.6
803.491	3372.1
803.822	3376.62
804.153	3396.51
804.483	3342.5
804.814	3294.36
805.145	3374.36
805.475	3325.77
805.805	3310.86
806.136	3373.23
806.466	3311.54
806.796	3298.66
807.126	3249.39
807.457	3268.37
807.787	3288.71
808.117	3268.6
808.447	3275.61
808.777	3231.77
809.107	3236.74
809.436	3290.52
809.766	3239.9
810.096	3221.37
810.426	3241.03
810.755	3219.56
811.085	3210.3
811.414	3184.31
811.744	3198.77
812.073	3190.41
812.403	3161.48
812.732	3130.3
813.061	3170.75
813.39	3135.04
813.719	3145.89
814.049	3185.89
814.378	3120.36
814.707	3119.23
815.036	3135.72
815.365	3136.85
815.693	3057.53
816.022	3110.86
816.351	3059.11
816.68	3082.39
817.008	3063.86
817.337	3043.07
817.665	3055.05
817.994	3044.43
818.322	3069.51
818.651	3051.43
818.979	3015.95
819.307	3025.44
819.636	3037.87
819.964	2998.1
820.292	3004.43
820.62	3024.77
820.948	3008.95
821.276	3013.47
821.604	3006.23
821.932	3033.13
822.259	3006.01
822.587	3063.63
822.915	2999
823.243	2995.61
823.57	3068.38
823.898	2978.89
824.225	2987.93
824.553	2995.39
824.88	3000.36
825.207	2997.87
825.535	3003.97
825.862	2994.71
826.189	2996.52
826.516	3020.7
826.843	3004.65
827.17	3052.33
827.497	2984.54
827.824	3034.48
828.151	2996.52
828.478	3030.41
828.805	3024.54
829.131	2996.29
829.458	2995.84
829.785	2965.33
830.111	2997.2
830.438	3031.32
830.764	3008.95
831.09	2990.42
831.417	2954.94
831.743	3006.69
832.069	3012.11
832.395	3040.36
832.722	2983.86
833.048	2980.92
833.374	2970.76
833.7	2987.48
834.026	2990.19
834.351	3007.59
834.677	2998.78
835.003	2970.76
835.329	2975.95
835.654	2961.94
835.98	2957.65
836.306	2965.56
836.631	2971.43
836.956	2934.15
837.282	2936.86
837.607	2898.21
837.932	2948.83
838.258	2952.68
838.583	2935.95
838.908	2950.87
839.233	2909.74
839.558	2941.83
839.883	2908.61
840.208	2899.8
840.533	2878.55
840.858	2898.44
841.182	2919.91
841.507	2902.73
841.832	2882.62
842.156	2873.13
842.481	2834.71
842.805	2863.41
843.13	2875.39
843.454	2873.58
843.778	2819.8
844.103	2836.07
844.427	2866.13
844.751	2847.82
845.075	2803.75
845.399	2830.19
845.723	2802.4
846.047	2859.35
846.371	2820.7
846.695	2799.91
847.019	2769.86
847.343	2754.26
847.666	2778.22
847.99	2742.29
848.313	2787.94
848.637	2750.42
848.96	2761.95
849.284	2731.89
849.607	2683.53
849.931	2706.58
850.254	2714.49
850.577	2681.95
850.9	2646.02
851.223	2644.89
851.546	2665.9
851.869	2633.59
852.192	2646.02
852.515	2601.73
852.838	2608.96
853.161	2604.66
853.483	2615.96
853.806	2578.22
854.129	2590.2
854.451	2586.13
854.774	2584.78
855.096	2572.12
855.419	2539.35
855.741	2574.16
856.063	2529.86
856.385	2539.58
856.708	2535.06
857.03	2495.06
857.352	2519.47
857.674	2540.26
857.996	2523.76
858.318	2492.58
858.64	2514.5
858.961	2488.28
859.283	2463.88
859.605	2465.01
859.926	2483.31
860.248	2458.9
860.57	2435.4
860.891	2425.23
861.212	2453.71
861.534	2442.86
861.855	2444.44
862.176	2453.25
862.498	2434.05
862.819	2452.12
863.14	2458.45
863.461	2395.18
863.782	2406.02
864.103	2423.88
864.424	2415.06
864.745	2434.5
865.065	2404.22
865.386	2416.87
865.707	2369.64
866.027	2410.54
866.348	2378.91
866.668	2412.35
866.989	2386.36
867.309	2365.57
867.63	2355.86
867.95	2388.4
868.27	2373.03
868.59	2359.92
868.91	2356.76
869.23	2339.36
869.55	2352.24
869.87	2373.26
870.19	2326.48
870.51	2342.98
870.83	2356.53
871.15	2338.23
871.469	2359.7
871.789	2333.03
872.109	2348.17
872.428	2342.98
872.748	2326.93
873.067	2328.06
873.386	2330.77
873.706	2320.6
874.025	2317.44
874.344	2300.26
874.663	2347.95
874.982	2286.71
875.301	2310.21
875.62	2308.63
875.939	2292.35
876.258	2288.06
876.577	2266.14
876.896	2269.53
877.214	2281.73
877.533	2320.6
877.852	2277.44
878.17	2279.25
878.489	2227.27
878.807	2264.33
879.125	2271.11
879.444	2283.77
879.762	2250.1
880.08	2242.41
880.398	2240.83
880.716	2249.87
881.034	2220.27
881.352	2254.62
881.67	2222.98
881.988	2239.48
882.306	2229.98
882.624	2226.82
882.941	2240.15
883.259	2193.83
883.577	2207.39
883.894	2192.24
884.212	2226.37
884.529	2197.67
884.846	2182.3
885.164	2205.35
885.481	2191.34
885.798	2168.97
886.115	2192.02
886.432	2180.27
886.75	2179.59
887.067	2139.36
887.383	2149.53
887.7	2123.09
888.017	2105.24
888.334	2143.43
888.651	2145.24
888.967	2150.66
889.284	2139.36
889.6	2148.4
889.917	2130.78
890.233	2104.79
890.55	2103.43
890.866	2122.87
891.182	2097.56
891.498	2120.38
891.815	2079.48
892.131	2089.65
892.447	2085.81
892.763	2043.1
893.079	2075.19
893.395	2041.29
893.71	2058.01
894.026	2081.97
894.342	2031.12
894.657	2048.75
894.973	2036.77
895.289	1996.54
895.604	2004.45
895.92	2020.5
896.235	2016.2
896.55	2010.78
896.865	2006.26
897.181	2004.23
897.496	1993.83
897.811	2001.06
898.126	1976.43
898.441	1971.23
898.756	1983.21
899.071	1992.48
899.386	2006.03
899.7	1945.02
900.015	1982.31
900.33	1931.01
900.644	1971.91
900.959	1951.57
901.273	1948.64
901.588	1914.74
901.902	1932.14
902.216	1900.27
902.531	1946.6
902.845	1931.23
903.159	1876.32
903.473	1900.95
903.787	1908.41
904.101	1891.24
904.415	1862.31
904.729	1887.62
905.042	1874.51
905.356	1880.16
905.67	1857.34
905.984	1845.14
906.297	1862.08
906.611	1828.41
906.924	1830.22
907.237	1819.15
907.551	1776.44
907.864	1832.71
908.177	1805.59
908.491	1834.29
908.804	1784.35
909.117	1750.9
909.43	1782.31
909.743	1781.63
910.056	1783.44
910.368	1772.14
910.681	1793.61
910.994	1754.97
911.307	1738.92
911.619	1687.17
911.932	1724.69
912.244	1709.09
912.557	1734.63
912.869	1724.23
913.181	1717
913.494	1719.26
913.806	1712.48
914.118	1703.9
914.43	1708.42
914.742	1696.89
915.054	1674.52
915.366	1670.9
915.678	1697.57
915.99	1669.55
916.302	1645.59
916.613	1644.69
916.925	1662.32
917.236	1687.4
917.548	1641.75
917.859	1659.15
918.171	1632.71
918.482	1625.03
918.794	1609.89
919.105	1599.94
919.416	1592.26
919.727	1596.78
920.038	1606.5
920.349	1580.96
920.66	1618.02
920.971	1571.02
921.282	1601.75
921.593	1585.25
921.903	1571.02
922.214	1549.32
922.525	1574.41
922.835	1566.95
923.146	1548.42
923.456	1550.23
923.767	1562.88
924.077	1537.8
924.387	1516.1
924.697	1506.84
925.008	1514.97
925.318	1528.99
925.628	1519.95
925.938	1474.07
926.248	1488.99
926.558	1496.44
926.867	1477.24
927.177	1477.01
927.487	1461.19
927.796	1460.06
928.106	1472.04
928.416	1474.52
928.725	1429.55
929.034	1434.98
929.344	1421.87
929.653	1444.47
929.962	1430.91
930.271	1444.24
930.581	1436.78
930.89	1422.55
931.199	1421.64
931.508	1426.39
931.817	1427.97
932.125	1399.05
932.434	1400.63
932.743	1357.92
933.051	1373.74
933.36	1370.8
933.669	1356.33
933.977	1377.8
934.286	1379.38
934.594	1345.49
934.902	1378.03
935.21	1368.31
935.519	1367.41
935.827	1335.54
936.135	1339.39
936.443	1310.23
936.751	1308.88
937.059	1346.17
937.367	1325.15
937.674	1344.36
937.982	1316.11
938.29	1300.29
938.597	1298.48
938.905	1276.79
939.213	1290.8
939.52	1292.61
939.827	1296.22
940.135	1275.88
940.442	1274.75
940.749	1285.38
941.056	1266.39
941.363	1273.62
941.67	1257.13
941.977	1252.16
942.284	1243.12
942.591	1247.41
942.898	1247.86
943.205	1231.82
943.511	1251.03
943.818	1232.04
944.125	1212.16
944.431	1220.52
944.738	1218.71
945.044	1216.23
945.35	1236.34
945.657	1213.97
945.963	1237.47
946.269	1205.38
946.575	1167.86
946.881	1215.32
947.187	1200.63
947.493	1206.73
947.799	1173.74
948.105	1181.2
948.41	1161.76
948.716	1179.39
949.022	1183.91
949.327	1131.03
949.633	1146.85
949.938	1149.33
950.244	1156.11
950.549	1105.95
950.854	1131.48
951.16	1130.13
951.465	1161.76
951.77	1129
952.075	1122.67
952.38	1117.02
952.685	1138.94
952.99	1146.4
953.294	1118.15
953.599	1094.65
953.904	1101.2
954.209	1100.52
954.513	1129
954.818	1085.16
955.122	1100.3
955.426	1104.82
955.731	1095.55
956.035	1088.32
956.339	1082.44
956.643	1061.88
956.948	1065.49
957.252	1039.28
957.556	1073.18
957.86	1063.69
958.163	1061.43
958.467	1037.92
958.771	1058.72
959.075	1056.68
959.378	1033.18
959.682	1053.74
959.985	1018.94
960.289	1000.19
960.592	1023.69
960.896	1027.76
961.199	1050.35
961.502	1037.92
961.805	1028.43
962.108	1027.53
962.411	1036.79
962.714	1003.58
963.017	1002.22
963.32	1004.03
963.623	995.89
963.926	985.04
964.228	1003.8
964.531	1007.87
964.833	983.46
965.136	1004.71
965.438	1006.97
965.741	977.81
966.043	986.4
966.345	980.3
966.648	962.9
966.95	959.06
967.252	964.71
967.554	974.2
967.856	958.15
968.158	958.38
968.46	972.39
968.761	957.93
969.063	939.4
969.365	954.09
969.666	920.19
969.968	956.57
970.269	954.09
970.571	933.75
970.872	922.67
971.174	929.9
971.475	926.74
971.776	928.32
972.077	934.65
972.378	914.09
972.679	895.56
972.98	913.41
973.281	895.33
973.582	929.9
973.883	930.36
974.183	917.93
974.484	876.8
974.785	882.67
975.085	930.58
975.386	913.63
975.686	881.32
975.986	880.64
976.287	901.88
976.587	880.87
976.887	869.57
977.187	843.81
977.487	848.33
977.787	872.96
978.087	846.74
978.387	871.15
978.687	863.47
978.987	873.64
979.286	838.16
979.586	858.27
979.885	849
980.185	832.05
980.484	844.48
980.784	855.56
981.083	831.38
981.382	812.85
981.682	827.53
981.981	811.94
982.28	834.31
982.579	837.7
982.878	842.45
983.177	808.55
983.475	820.98
983.774	817.82
984.073	793.19
984.372	784.37
984.67	821.43
984.969	814.65
985.267	798.61
985.566	797.03
985.864	807.2
986.162	805.16
986.461	791.15
986.759	791.6
987.057	794.32
987.355	797.48
987.653	779.4
987.951	793.64
988.249	797.71
988.547	766.52
988.844	783.92
989.142	778.95
989.44	775.78
989.737	774.65
990.035	776.91
990.332	755.45
990.63	757.93
990.927	772.39
991.224	778.27
991.521	767.2
991.819	750.93
992.116	763.36
992.413	753.64
992.71	754.54
993.006	771.94
993.303	731.49
993.6	740.76
993.897	738.95
994.193	738.5
994.49	741.44
994.787	740.98
995.083	736.46
995.379	726.52
995.676	731.04
995.972	706.63
996.268	726.97
996.565	726.07
996.861	716.35
997.157	722.23
997.453	721.77
997.749	688.1
998.044	718.39
998.34	699.4
998.636	704.15
998.932	722.68
999.227	692.85
999.523	715.45
999.818	664.38
1000.114	689.91
1000.409	702.79
1000.704	670.02
1001	682.23
1001.295	699.4
1001.59	682.23
1001.885	675.22
1002.18	695.11
1002.475	669.8
1002.77	678.84
1003.065	674.77
1003.359	662.34
1003.654	643.81
1003.949	670.48
1004.243	651.49
1004.538	654.66
1004.832	664.6
1005.127	642.91
1005.421	642.45
1005.715	647.88
1006.009	658.5
1006.304	644.49
1006.598	633.87
1006.892	610.14
1007.186	656.01
1007.48	646.3
1007.773	619.86
1008.067	606.98
1008.361	632.96
1008.655	635.68
1008.948	611.72
1009.242	619.18
1009.535	616.47
1009.829	627.54
1010.122	625.73
1010.415	646.52
1010.708	620.53
1011.001	618.27
1011.295	630.48
1011.588	600.65
1011.881	610.59
1012.173	608.78
1012.466	594.55
1012.759	599.52
1013.052	610.14
1013.344	609.24
1013.637	604.04
1013.93	577.82
1014.222	588.67
1014.514	582.8
1014.807	608.11
1015.099	597.94
1015.391	571.5
1015.683	596.81
1015.976	587.77
1016.268	582.12
1016.56	576.47
1016.851	561.55
1017.143	581.89
1017.435	579.18
1017.727	551.61
1018.018	569.91
1018.31	566.3
1018.602	548.22
1018.893	558.39
1019.185	558.39
1019.476	544.6
1019.767	551.61
1020.058	546.41
1020.35	557.94
1020.641	560.2
1020.932	561.78
1021.223	531.5
1021.514	524.94
1021.804	540.54
1022.095	535.57
1022.386	533.53
1022.677	535.79
1022.967	545.96
1023.258	533.31
1023.548	530.37
1023.839	540.08
1024.129	518.39
1024.419	518.62
1024.709	521.78
1025	524.04
1025.29	541.67
1025.58	506.41
1025.87	508
1026.16	520.65
1026.449	519.97
1026.739	529.92
1027.029	509.35
1027.319	510.71
1027.608	505.51
1027.898	510.25
1028.187	489.46
1028.477	540.08
1028.766	514.77
1029.055	477.04
1029.344	503.93
1029.634	493.31
1029.923	488.56
1030.212	489.92
1030.501	492.63
1030.79	493.53
1031.078	500.99
1031.367	489.69
1031.656	465.06
1031.945	480.88
1032.233	492.85
1032.522	473.42
1032.81	479.52
1033.099	475.23
1033.387	465.06
1033.675	442.23
1033.963	465.96
1034.251	448.34
1034.54	462.8
1034.828	456.7
1035.116	470.93
1035.403	461.22
1035.691	454.21
1035.979	467.09
1036.267	437.26
1036.554	457.37
1036.842	453.53
1037.129	465.96
1037.417	477.04
1037.704	454.89
1037.992	446.98
1038.279	476.13
1038.566	452.4
1038.853	452.4
1039.14	452.4
