Data from blue_surface_keyboard_FLMS001491_029.txt Node
Date: Tue Feb 07 11:12:52 GMT 2017
User: dcchb
Spectrometer: FLMS00149
Trigger mode: 0
Integration Time (sec): 2.000000E-2
Scans to average: 10
Electric dark correction enabled: true
Nonlinearity correction enabled: false
Boxcar width: 0
XAxis mode: Wavelengths
Number of Pixels in Spectrum: 2048
>>>>>Begin Spectral Data<<<<<
341.393	-24.67
341.776	-24.67
342.16	-24.67
342.543	-54.5
342.927	-73.49
343.31	-77.33
343.693	-66.93
344.077	-67.84
344.46	-58.57
344.843	-58.8
345.226	-39.36
345.61	-33.49
345.993	-4.56
346.376	-15.18
346.759	25.04
347.142	23.69
347.525	42.44
347.908	57.81
348.291	79.96
348.674	84.02
349.057	109.11
349.44	131.93
349.823	137.36
350.206	161.76
350.588	167.86
350.971	196.56
351.354	197.92
351.737	220.74
352.119	234.75
352.502	248.76
352.884	252.38
353.267	291.02
353.65	267.52
354.032	265.04
354.414	293.74
354.797	284.02
355.179	278.14
355.562	296.67
355.944	319.27
356.326	310.23
356.709	292.15
357.091	317.24
357.473	311.59
357.855	310.91
358.238	319.05
358.62	314.75
359.002	314.3
359.384	335.32
359.766	324.47
360.148	299.61
360.53	323.79
360.912	310.68
361.294	320.85
361.676	319.72
362.057	322.89
362.439	323.56
362.821	309.1
363.203	310.23
363.584	312.72
363.966	296.22
364.348	288.31
364.729	299.61
365.111	291.02
365.493	288.99
365.874	298.71
366.256	301.64
366.637	314.98
367.019	289.22
367.4	314.3
367.781	275.2
368.163	295.77
368.544	300.29
368.925	296.67
369.306	264.58
369.688	279.27
370.069	299.61
370.45	287.41
370.831	281.53
371.212	297.12
371.593	293.74
371.974	287.41
372.355	281.76
372.736	300.29
373.117	257.13
373.498	288.09
373.879	288.09
374.26	296.9
374.641	292.15
375.021	297.12
375.402	288.76
375.783	292.83
376.163	280.18
376.544	303.45
376.925	300.06
377.305	302.1
377.686	291.02
378.066	295.32
378.447	291.7
378.827	298.03
379.208	280.63
379.588	299.38
379.968	306.84
380.349	310.46
380.729	309.1
381.109	299.38
381.489	315.43
381.87	311.81
382.25	294.64
382.63	300.06
383.01	305.94
383.39	298.71
383.77	299.61
384.15	308.42
384.53	293.06
384.91	298.48
385.29	323.11
385.67	319.72
386.049	310.68
386.429	311.59
386.809	310.46
387.189	303.45
387.568	300.74
387.948	314.98
388.328	317.92
388.707	305.49
389.087	303.45
389.466	288.09
389.846	308.65
390.225	322.66
390.605	320.63
390.984	315.43
391.363	340.29
391.743	314.98
392.122	330.8
392.501	317.46
392.881	333.73
393.26	319.27
393.639	334.19
394.018	324.92
394.397	341.19
394.776	314.75
395.155	319.27
395.534	338.93
395.913	334.41
396.292	329.44
396.671	323.11
397.05	320.18
397.429	338.71
397.808	325.37
398.186	338.03
398.565	343.23
398.944	333.96
399.323	324.02
399.701	343.9
400.08	320.18
400.458	346.62
400.837	362.21
401.215	333.73
401.594	323.79
401.972	335.32
402.351	335.99
402.729	326.95
403.107	349.78
403.486	334.19
403.864	350.68
404.242	331.93
404.62	335.09
404.999	343
405.377	359.5
405.755	364.47
406.133	360.17
406.511	323.34
406.889	375.54
407.267	348.42
407.645	341.19
408.023	359.04
408.401	342.32
408.779	376.44
409.156	366.73
409.534	352.04
409.912	347.75
410.29	369.89
410.667	371.93
411.045	360.17
411.422	378.25
411.8	354.75
412.178	370.34
412.555	354.52
412.933	380.51
413.31	371.93
413.687	373.28
414.065	390.46
414.442	375.99
414.819	372.38
415.197	374.86
415.574	380.96
415.951	382.09
416.328	398.82
416.705	367.63
417.082	407.18
417.46	385.94
417.837	383.9
418.214	384.81
418.591	380.96
418.967	378.25
419.344	381.64
419.721	413.28
420.098	399.95
420.475	392.49
420.852	405.6
421.228	394.98
421.605	407.86
421.982	384.81
422.358	407.63
422.735	411.7
423.111	396.33
423.488	423.68
423.864	401.3
424.241	430.91
424.617	399.95
424.994	419.61
425.37	417.8
425.746	414.18
426.123	423.45
426.499	421.87
426.875	416.67
427.251	399.27
427.627	425.71
428.003	436.33
428.379	434.3
428.756	451.47
429.132	434.75
429.507	430.23
429.883	446.05
430.259	417.12
430.635	436.56
431.011	432.26
431.387	451.7
431.763	475.2
432.138	455.99
432.514	459.38
432.89	477.91
433.265	488.31
433.641	466.84
434.016	467.06
434.392	469.78
434.767	461.87
435.143	477.91
435.518	481.07
435.894	461.64
436.269	477.46
436.644	458.48
437.02	482.66
437.395	487.4
437.77	496.67
438.145	484.46
438.52	508.42
438.895	505.26
439.271	494.63
439.646	515.88
440.021	495.99
440.395	505.48
440.77	506.16
441.145	506.61
441.52	514.07
441.895	518.59
442.27	528.76
442.645	522.88
443.019	505.26
443.394	512.49
443.769	506.16
444.143	501.41
444.518	518.36
444.892	490.34
445.267	533.5
445.641	524.69
446.016	531.24
446.39	520.17
446.764	533.05
447.139	550.9
447.513	543.9
447.887	540.28
448.262	543.9
448.636	529.66
449.01	552.49
449.384	554.75
449.758	550.9
450.132	553.39
450.506	561.3
450.88	569.66
451.254	544.35
451.628	561.3
452.002	588.87
452.376	571.02
452.75	563.56
453.123	563.11
453.497	581.19
453.871	584.8
454.244	605.37
454.618	590
454.992	573.73
455.365	585.48
455.739	594.07
456.112	630.9
456.486	602.2
456.859	618.02
457.232	609.21
457.606	601.52
457.979	615.53
458.352	613.73
458.725	635.2
459.099	626.61
459.472	630.45
459.845	626.83
460.218	627.51
460.591	638.58
460.964	633.16
461.337	660.28
461.71	674.97
462.083	659.38
462.456	657.79
462.829	657.79
463.201	675.87
463.574	654.4
463.947	673.84
464.32	689.88
464.692	680.17
465.065	667.96
465.438	686.04
465.81	684.91
466.183	696.66
466.555	708.64
466.928	689.88
467.3	698.02
467.672	716.77
468.045	729.2
468.417	713.16
468.789	719.49
469.161	741.18
469.534	728.75
469.906	760.39
470.278	769.2
470.65	753.61
471.022	770.56
471.394	779.37
471.766	761.75
472.138	798.35
472.51	804.46
472.882	806.26
473.253	803.55
473.625	810.56
473.997	812.37
474.369	818.69
474.74	821.18
475.112	849.65
475.484	840.16
475.855	851.01
476.227	868.64
476.598	889.65
476.97	855.08
477.341	902.31
477.713	876.54
478.084	912.7
478.455	922.87
478.827	936.88
479.198	924
479.569	938.46
479.94	953.15
480.311	958.8
480.682	939.37
481.053	961.97
481.424	961.06
481.795	986.37
482.166	982.76
482.537	999.93
482.908	1025.69
483.279	1038.8
483.65	1024.34
484.021	1028.63
484.391	1045.81
484.762	1046.48
485.133	1050.78
485.503	1060.04
485.874	1081.06
486.244	1101.17
486.615	1084.9
486.985	1101.62
487.356	1100.95
487.726	1104.79
488.097	1121.28
488.467	1149.31
488.837	1154.73
489.207	1134.62
489.578	1142.53
489.948	1172.81
490.318	1177.33
490.688	1180.04
491.058	1176.42
491.428	1200.38
491.798	1215.74
492.168	1217.33
492.538	1203.32
492.908	1193.15
493.278	1214.39
493.648	1235.41
494.017	1234.5
494.387	1234.95
494.757	1251.9
495.126	1284.67
495.496	1239.47
495.866	1262.75
496.235	1248.06
496.605	1253.26
496.974	1290.09
497.344	1290.55
497.713	1264.56
498.082	1284.9
498.452	1269.75
498.821	1285.35
499.19	1296.65
499.559	1278.57
499.928	1273.6
500.298	1288.74
500.667	1290.09
501.036	1321.05
501.405	1307.27
501.774	1300.71
502.143	1316.76
502.512	1296.87
502.88	1336.65
503.249	1315.18
503.618	1344.1
503.987	1315.63
504.356	1312.47
504.724	1347.94
505.093	1344.78
505.462	1335.97
505.83	1356.31
506.199	1347.94
506.567	1369.87
506.936	1358.11
507.304	1350.88
507.672	1384.55
508.041	1365.35
508.409	1360.6
508.777	1340.26
509.145	1390.2
509.514	1371.22
509.882	1365.12
510.25	1396.76
510.618	1358.57
510.986	1415.29
511.354	1388.62
511.722	1394.05
512.09	1370.54
512.458	1378.45
512.826	1378.23
513.193	1395.85
513.561	1398.79
513.929	1389.53
514.297	1421.39
514.664	1418.23
515.032	1409.64
515.4	1411.22
515.767	1416.19
516.135	1417.77
516.502	1446.02
516.869	1430.43
517.237	1418.23
517.604	1441.5
517.972	1439.92
518.339	1432.91
518.706	1418.68
519.073	1464.78
519.44	1451.22
519.808	1453.25
520.175	1450.77
520.542	1475.4
520.909	1461.16
521.276	1457.09
521.643	1480.14
522.009	1465.23
522.376	1476.3
522.743	1475.17
523.11	1474.04
523.477	1483.08
523.843	1493.48
524.21	1480.6
524.577	1500.48
524.943	1498
525.31	1500.48
525.676	1488.28
526.043	1498.68
526.409	1512.91
526.776	1532.8
527.142	1501.84
527.508	1501.61
527.874	1536.87
528.241	1543.42
528.607	1553.14
528.973	1515.62
529.339	1537.54
529.705	1557.66
530.071	1547.49
530.437	1556.75
530.803	1565.57
531.169	1545.91
531.535	1576.41
531.901	1562.63
532.267	1573.48
532.632	1568.5
532.998	1589.52
533.364	1558.33
533.73	1564.21
534.095	1560.37
534.461	1570.31
534.826	1569.86
535.192	1566.92
535.557	1582.74
535.923	1581.84
536.288	1616.64
536.653	1603.53
537.019	1574.61
537.384	1591.78
537.749	1594.94
538.114	1580.71
538.479	1584.32
538.845	1618.22
539.21	1583.87
539.575	1601.05
539.94	1615.51
540.305	1614.83
540.67	1595.17
541.034	1600.14
541.399	1607.82
541.764	1598.33
542.129	1584.77
542.494	1593.81
542.858	1592.46
543.223	1585.68
543.587	1633.14
543.952	1592.91
544.316	1614.83
544.681	1605.79
545.045	1605.79
545.41	1612.57
545.774	1626.13
546.138	1578
546.503	1591.1
546.867	1587.03
547.231	1614.83
547.595	1622.97
547.959	1607.6
548.324	1662.51
548.688	1615.73
549.052	1644.66
549.416	1632.23
549.779	1606.24
550.143	1614.38
550.507	1636.52
550.871	1622.97
551.235	1633.36
551.599	1635.17
551.962	1641.04
552.326	1643.53
552.689	1645.79
553.053	1626.36
553.417	1647.37
553.78	1667.71
554.143	1627.71
554.507	1626.36
554.87	1636.75
555.234	1666.13
555.597	1655.28
555.96	1671.1
556.323	1649.41
556.686	1632.01
557.05	1648.73
557.413	1692.57
557.776	1660.93
558.139	1655.51
558.502	1639.01
558.865	1653.25
559.228	1669.07
559.59	1668.61
559.953	1682.63
560.316	1664.77
560.679	1689.63
561.041	1668.84
561.404	1689.18
561.767	1685.56
562.129	1696.64
562.492	1727.6
562.854	1684.21
563.217	1684.43
563.579	1691.66
563.941	1679.91
564.304	1674.49
564.666	1702.74
565.028	1736.18
565.39	1728.5
565.753	1700.25
566.115	1764.88
566.477	1731.66
566.839	1715.62
567.201	1729.63
567.563	1720.36
567.925	1722.85
568.287	1749.74
568.648	1730.76
569.01	1743.87
569.372	1761.72
569.734	1776.18
570.095	1754.71
570.457	1743.64
570.819	1745
571.18	1788.39
571.542	1743.41
571.903	1747.93
572.265	1783.41
572.626	1766.92
572.987	1761.95
573.349	1799.91
573.71	1801.72
574.071	1789.52
574.432	1782.51
574.794	1818.67
575.155	1813.24
575.516	1778.44
575.877	1815.05
576.238	1799.01
576.599	1780.25
576.96	1817.54
577.32	1821.15
577.681	1806.24
578.042	1796.97
578.403	1804.2
578.763	1809.63
579.124	1809.4
579.485	1823.41
579.845	1811.66
580.206	1808.27
580.566	1813.7
580.927	1812.34
581.287	1850.53
581.648	1834.03
582.008	1794.26
582.368	1828.38
582.728	1849.17
583.089	1850.98
583.449	1791.55
583.809	1810.53
584.169	1818.89
584.529	1814.6
584.889	1865.9
585.249	1816.41
585.609	1846.46
585.969	1792.23
586.329	1807.14
586.688	1849.63
587.048	1801.27
587.408	1835.62
587.768	1827.93
588.127	1836.97
588.487	1842.85
588.846	1845.56
589.206	1803.98
589.565	1825.45
589.925	1829.06
590.284	1848.5
590.643	1831.1
591.003	1850.53
591.362	1859.57
591.721	1840.14
592.08	1834.94
592.44	1875.16
592.799	1837.42
593.158	1832.9
593.517	1842.4
593.876	1855.73
594.235	1799.91
594.593	1865.67
594.952	1863.86
595.311	1873.35
595.67	1843.98
596.029	1822.28
596.387	1863.41
596.746	1893.69
597.104	1887.37
597.463	1863.19
597.822	1856.41
598.18	1875.39
598.538	1851.89
598.897	1881.72
599.255	1848.72
599.613	1857.99
599.972	1894.82
600.33	1862.28
600.688	1904.54
601.046	1896.63
601.404	1858.67
601.762	1883.98
602.12	1883.75
602.478	1906.12
602.836	1914.94
603.194	1916.97
603.552	1891.89
603.91	1884.65
604.268	1910.87
604.625	1906.35
604.983	1867.93
605.341	1892.11
605.698	1887.14
606.056	1884.88
606.413	1909.96
606.771	1930.3
607.128	1881.49
607.485	1902.96
607.843	1878.78
608.2	1928.49
608.557	1919
608.914	1885.56
609.272	1899.12
609.629	1902.96
609.986	1925.1
610.343	1932.11
610.7	1906.12
611.057	1940.47
611.414	1938.21
611.771	1947.03
612.127	1942.73
612.484	1945.22
612.841	1986.35
613.198	1930.53
613.554	1941.38
613.911	1976.18
614.267	1972.11
614.624	1963.97
614.98	1922.39
615.337	1975.72
615.693	1964.65
616.05	1967.82
616.406	2015.95
616.762	1965.1
617.118	1977.76
617.475	1963.97
617.831	2006.46
618.187	1991.77
618.543	2013.46
618.899	2006.68
619.255	1996.06
619.611	1985.67
619.967	1997.65
620.323	2013.24
620.678	1976.4
621.034	2003.52
621.39	2022.73
621.746	1999.23
622.101	2037.87
622.457	2011.2
622.812	2001.26
623.168	2010.75
623.523	2003.29
623.879	2021.37
624.234	2010.75
624.589	2020.24
624.945	2033.8
625.3	2026.57
625.655	2022.28
626.01	2041.94
626.365	2029.06
626.72	2033.12
627.075	2014.59
627.43	2019.57
627.785	2031.99
628.14	2056.85
628.495	1995.16
628.85	2063.18
629.205	2021.15
629.559	2082.39
629.914	2076.29
630.269	2048.49
630.623	2086.91
630.978	2049.17
631.332	2064.76
631.687	2094.14
632.041	2055.95
632.396	2087.36
632.75	2085.55
633.104	2094.37
633.459	2066.12
633.813	2071.77
634.167	2080.58
634.521	2087.13
634.875	2072.9
635.229	2101.15
635.583	2044.88
635.937	2089.17
636.291	2089.39
636.645	2097.53
636.999	2097.98
637.352	2101.15
637.706	2125.1
638.06	2110.86
638.413	2117.87
638.767	2129.17
639.121	2132.78
639.474	2133.69
639.828	2140.01
640.181	2150.41
640.534	2124.2
640.888	2168.94
641.241	2125.1
641.594	2152.9
641.947	2172.78
642.301	2168.26
642.654	2174.14
643.007	2177.75
643.36	2151.54
643.713	2176.17
644.066	2189.73
644.419	2194.93
644.771	2189.5
645.124	2187.47
645.477	2177.08
645.83	2184.08
646.182	2186.57
646.535	2183.86
646.888	2176.85
647.24	2166.23
647.593	2197.41
647.945	2218.2
648.298	2195.61
648.65	2237.19
649.002	2206
649.355	2218.88
649.707	2215.27
650.059	2245.1
650.411	2280.58
650.763	2309.5
651.115	2295.94
651.467	2306.11
651.819	2325.09
652.171	2344.3
652.523	2328.71
652.875	2321.25
653.227	2314.7
653.578	2361.93
653.93	2380.01
654.282	2364.19
654.633	2388.6
654.985	2377.3
655.337	2389.05
655.688	2430.4
656.039	2424.3
656.391	2417.52
656.742	2415.71
657.094	2463.85
657.445	2464.75
657.796	2473.79
658.147	2457.52
658.498	2445.77
658.849	2460.68
659.2	2517.63
659.551	2528.03
659.902	2519.21
660.253	2541.36
660.604	2518.99
660.955	2534.81
661.306	2573.22
661.656	2542.26
662.007	2588.59
662.358	2577.52
662.708	2584.75
663.059	2646.67
663.409	2621.13
663.76	2637.63
664.11	2660.68
664.461	2663.62
664.811	2689.38
665.161	2663.16
665.511	2693.9
665.862	2686.44
666.212	2697.74
666.562	2738.87
666.912	2751.07
667.262	2768.25
667.612	2730.96
667.962	2777.96
668.312	2769.15
668.662	2809.15
669.011	2813.67
669.361	2805.53
669.711	2777.74
670.06	2811.86
670.41	2849.15
670.76	2826.78
671.109	2891.41
671.459	2857.28
671.808	2859.54
672.157	2856.38
672.507	2863.84
672.856	2890.05
673.205	2874.91
673.554	2909.03
673.904	2923.5
674.253	2943.38
674.602	2940.45
674.951	2937.73
675.3	2916.27
675.649	2977.28
675.998	2964.4
676.346	2993.33
676.695	3019.54
677.044	3002.59
677.393	3001.69
677.741	3018.18
678.09	3007.11
678.438	3032.42
678.787	3028.58
679.135	3043.95
679.484	3050.05
679.832	3065.41
680.181	3076.71
680.529	3102.02
680.877	3110.38
681.225	3072.87
681.573	3131.17
681.922	3099.76
682.27	3109.71
682.618	3165.3
682.966	3114.45
683.314	3163.04
683.661	3145.64
684.009	3167.11
684.357	3154.45
684.705	3164.85
685.053	3162.13
685.4	3175.92
685.748	3191.29
686.095	3202.59
686.443	3196.26
686.79	3174.34
687.138	3200.78
687.485	3236.71
687.832	3242.58
688.18	3205.3
688.527	3237.61
688.874	3213.21
689.221	3239.42
689.568	3260.21
689.915	3232.64
690.262	3222.25
690.609	3279.65
690.956	3243.71
691.303	3220.44
691.65	3202.81
691.997	3236.48
692.344	3246.65
692.69	3235.13
693.037	3281
693.383	3234
693.73	3262.02
694.077	3229.25
694.423	3226.77
694.769	3269.02
695.116	3219.53
695.462	3255.47
695.808	3257.27
696.155	3270.38
696.501	3204.39
696.847	3262.02
697.193	3216.14
697.539	3216.14
697.885	3213.88
698.231	3211.62
698.577	3235.35
698.923	3213.88
699.269	3201.68
699.614	3202.59
699.96	3195.81
700.306	3225.41
700.651	3206.88
700.997	3170.95
701.342	3202.36
701.688	3174.79
702.033	3169.14
702.379	3174.34
702.724	3198.29
703.069	3182.92
703.415	3166.88
703.76	3159.87
704.105	3159.65
704.45	3198.74
704.795	3145.64
705.14	3160.1
705.485	3147.67
705.83	3142.93
706.175	3113.32
706.52	3122.59
706.865	3115.81
707.209	3139.54
707.554	3129.37
707.899	3140.89
708.243	3151.74
708.588	3132.53
708.932	3071.06
709.277	3091.85
709.621	3109.48
709.966	3080.1
710.31	3097.73
710.654	3046.88
710.998	3073.55
711.342	3112.19
711.687	3081.68
712.031	3085.75
712.375	3092.98
712.719	3049.37
713.063	3073.78
713.407	3103.6
713.75	3083.04
714.094	3096.6
714.438	3128.91
714.782	3106.32
715.125	3077.84
715.469	3101.12
715.812	3064.28
716.156	3074.68
716.499	3084.85
716.843	3044.62
717.186	3052.08
717.53	3088.24
717.873	3085.98
718.216	3077.16
718.559	3068.58
718.902	3022.7
719.246	3058.86
719.589	3083.27
719.932	3083.49
720.275	3092.98
720.617	3072.19
720.96	3060.89
721.303	3080.33
721.646	3048.24
721.989	3039.88
722.331	3070.84
722.674	3040.56
723.016	3062.7
723.359	3076.94
723.701	3072.42
724.044	3052.53
724.386	3059.99
724.729	3066.54
725.071	3053.21
725.413	3046.88
725.755	3087.11
726.097	3069.93
726.439	3048.47
726.782	3063.15
727.124	3056.37
727.465	3077.16
727.807	3072.65
728.149	3102.93
728.491	3054.34
728.833	3057.5
729.175	3096.83
729.516	3101.57
729.858	3092.76
730.199	3092.76
730.541	3050.95
730.882	3059.99
731.224	3101.12
731.565	3083.04
731.906	3104.28
732.248	3079.2
732.589	3080.33
732.93	3061.57
733.271	3110.16
733.612	3112.64
733.953	3069.03
734.294	3111.74
734.635	3089.14
734.976	3119.65
735.317	3089.59
735.658	3130.72
735.999	3091.63
736.339	3109.71
736.68	3124.17
737.021	3138.63
737.361	3101.35
737.702	3157.84
738.042	3174.56
738.383	3133.66
738.723	3188.8
739.063	3185.41
739.404	3166.43
739.744	3220.44
740.084	3214.79
740.424	3214.56
740.764	3186.99
741.104	3197.39
741.444	3243.94
741.784	3222.25
742.124	3239.19
742.464	3243.71
742.804	3277.16
743.143	3283.49
743.483	3286.65
743.823	3253.88
744.162	3290.49
744.502	3322.81
744.841	3292.3
745.181	3353.77
745.52	3332.07
745.86	3379.98
746.199	3366.87
746.538	3409.59
746.877	3387.21
747.216	3416.82
747.556	3421.79
747.895	3461.34
748.234	3434.44
748.573	3473.54
748.911	3490.49
749.25	3510.37
749.589	3507.44
749.928	3532.75
750.267	3589.69
750.605	3570.03
750.944	3572.75
751.283	3595.12
751.621	3655.68
751.96	3599.86
752.298	3641.44
752.636	3650.03
752.975	3718.96
753.313	3692.52
753.651	3737.71
753.989	3718.96
754.327	3800.08
754.666	3789.91
755.004	3824.49
755.342	3855.68
755.679	3846.18
756.017	3857.71
756.355	3873.98
756.693	3912.62
757.031	3901.78
757.368	3906.07
757.706	3953.53
758.044	3957.14
758.381	3990.14
758.719	3987.65
759.056	3981.1
759.394	4041.89
759.731	4015.9
760.068	4064.26
760.405	4041.66
760.743	4080.3
761.08	4125.5
761.417	4145.84
761.754	4120.08
762.091	4145.16
762.428	4134.31
762.765	4137.25
763.102	4200.75
763.438	4197.59
763.775	4170.92
764.112	4210.02
764.449	4231.94
764.785	4210.02
765.122	4189
765.458	4179.96
765.795	4229
766.131	4234.2
766.467	4238.04
766.804	4262.67
767.14	4241.43
767.476	4261.09
767.812	4249.11
768.148	4275.33
768.485	4239.62
768.821	4220.64
769.157	4261.09
769.492	4247.76
769.828	4267.64
770.164	4246.63
770.5	4240.75
770.836	4269.22
771.171	4238.72
771.507	4254.99
771.842	4224.03
772.178	4215.21
772.513	4232.84
772.849	4273.29
773.184	4230.81
773.519	4271.48
773.855	4199.4
774.19	4228.77
774.525	4203.69
774.86	4187.87
775.195	4203.24
775.53	4158.04
775.865	4195.78
776.2	4121.88
776.535	4154.2
776.87	4121.43
777.205	4132.28
777.539	4097.93
777.874	4123.47
778.209	4057.48
778.543	4071.49
778.878	4061.55
779.212	4095.67
779.547	4063.13
779.881	4091.15
780.215	4032.85
780.55	4082.79
780.884	4019.06
781.218	4019.96
781.552	4044.82
781.886	3986.29
782.22	3975.22
782.554	3987.88
782.888	3949.23
783.222	3907.88
783.556	3927.09
783.889	3940.87
784.223	3920.08
784.557	3903.13
784.89	3935.9
785.224	3892.96
785.557	3864.04
785.891	3883.47
786.224	3841.21
786.558	3845.96
786.891	3818.84
787.224	3824.72
787.557	3795.56
787.891	3811.61
788.224	3796.24
788.557	3812.06
788.89	3819.07
789.223	3765.96
789.556	3770.71
789.888	3718.28
790.221	3745.85
790.554	3722.8
790.887	3742.01
791.219	3731.16
791.552	3668.56
791.884	3699.75
792.217	3729.58
792.549	3651.39
792.882	3667.88
793.214	3636.02
793.546	3636.7
793.879	3603.48
794.211	3630.6
794.543	3646.19
794.875	3627.21
795.207	3585.85
795.539	3631.95
795.871	3567.1
796.203	3567.55
796.535	3569.13
796.867	3526.42
797.198	3546.08
797.53	3480.77
797.862	3509.02
798.193	3516.02
798.525	3510.6
798.856	3467.44
799.188	3497.49
799.519	3516.02
799.85	3476.48
800.182	3480.77
800.513	3443.03
800.844	3424.73
801.175	3429.7
801.506	3430.83
801.837	3410.49
802.168	3392.64
802.499	3413.65
802.83	3389.02
803.161	3390.15
803.491	3369.13
803.822	3416.36
804.153	3370.26
804.483	3332.07
804.814	3330.72
805.145	3314.9
805.475	3362.36
805.805	3328.23
806.136	3350.38
806.466	3309.7
806.796	3313.32
807.126	3265.41
807.457	3274
807.787	3269.7
808.117	3300.89
808.447	3275.8
808.777	3278.06
809.107	3214.11
809.436	3240.1
809.766	3270.38
810.096	3223.15
810.426	3245.3
810.755	3167.56
811.085	3178.41
811.414	3217.5
811.744	3163.72
812.073	3190.61
812.403	3183.83
812.732	3165.52
813.061	3178.86
813.39	3129.14
813.719	3129.59
814.049	3145.19
814.378	3110.38
814.707	3144.28
815.036	3134.56
815.365	3111.06
815.693	3104.06
816.022	3103.38
816.351	3062.02
816.68	3043.95
817.008	3058.41
817.337	3101.35
817.665	3076.71
817.994	3065.41
818.322	3070.16
818.651	3072.19
818.979	3053.66
819.307	3095.92
819.636	3071.29
819.964	3003.72
820.292	3026.32
820.62	2996.49
820.948	3019.31
821.276	3002.14
821.604	3022.48
821.932	2979.54
822.259	3001.23
822.587	3034.23
822.915	3013.66
823.243	3015.02
823.57	3037.39
823.898	2991.97
824.225	3034.23
824.553	3000.1
824.88	3017.05
825.207	3001.23
825.535	3036.26
825.862	3014.57
826.189	3014.12
826.516	3034.91
826.843	2991.97
827.17	3028.35
827.497	3007.79
827.824	3009.82
828.151	2999.88
828.478	2993.1
828.805	3026.09
829.131	2991.52
829.458	2995.13
829.785	2999.65
830.111	3001.69
830.438	2997.62
830.764	3010.05
831.09	2988.81
831.417	2940.67
831.743	3011.18
832.069	2967.79
832.395	2974.34
832.722	2964.85
833.048	3003.95
833.374	2989.03
833.7	2952.65
834.026	2972.53
834.351	2982.25
834.677	2977.96
835.003	2989.48
835.329	2998.3
835.654	2974.57
835.98	2937.28
836.306	2963.27
836.631	2957.39
836.956	2962.37
837.282	2969.15
837.607	2963.72
837.932	2912.88
838.258	2991.74
838.583	2934.57
838.908	2935.25
839.233	2963.27
839.558	2915.36
839.883	2873.33
840.208	2925.08
840.533	2904.97
840.858	2898.86
841.182	2916.72
841.507	2894.34
841.832	2884.4
842.156	2891.86
842.481	2866.55
842.805	2867.9
843.13	2855.7
843.454	2878.75
843.778	2888.92
844.103	2833.56
844.427	2869.03
844.751	2893.89
845.075	2846.66
845.399	2863.16
845.723	2837.17
846.047	2818.19
846.371	2813.44
846.695	2789.26
847.019	2827
847.343	2769.38
847.666	2777.29
847.99	2769.38
848.313	2754.46
848.637	2723.28
848.96	2740.68
849.284	2704.07
849.607	2725.54
849.931	2674.01
850.254	2692.32
850.577	2657.97
850.9	2670.85
851.223	2692.77
851.546	2676.72
851.869	2622.26
852.192	2639.44
852.515	2594.69
852.838	2610.74
853.161	2583.84
853.483	2580.68
853.806	2563.51
854.129	2576.84
854.451	2611.19
854.774	2590.4
855.096	2578.65
855.419	2550.85
855.741	2529.83
856.063	2535.71
856.385	2490.97
856.708	2530.51
857.03	2526.67
857.352	2527.35
857.674	2558.31
857.996	2507.91
858.318	2471.76
858.64	2494.13
858.961	2467.46
859.283	2483.96
859.605	2460.23
859.926	2473.79
860.248	2441.48
860.57	2500.23
860.891	2465.66
861.212	2439.89
861.534	2429.05
861.855	2441.25
862.176	2432.89
862.498	2485.99
862.819	2417.97
863.14	2409.84
863.461	2428.14
863.782	2401.02
864.103	2406.22
864.424	2406.45
864.745	2421.81
865.065	2410.97
865.386	2373.23
865.707	2400.8
866.027	2395.6
866.348	2361.03
866.668	2383.17
866.989	2367.8
867.309	2369.61
867.63	2363.51
867.95	2383.62
868.27	2335.49
868.59	2349.95
868.91	2349.27
869.23	2385.66
869.55	2365.09
869.87	2347.69
870.19	2355.15
870.51	2363.74
870.83	2350.86
871.15	2348.82
871.469	2326.22
871.789	2344.75
872.109	2340.46
872.428	2332.78
872.748	2358.09
873.067	2323.96
873.386	2338.43
873.706	2317.18
874.025	2271.76
874.344	2289.61
874.663	2297.98
874.982	2271.08
875.301	2304.3
875.62	2281.93
875.939	2285.1
876.258	2286.9
876.577	2267.69
876.896	2287.13
877.214	2302.5
877.533	2253.01
877.852	2238.09
878.17	2253.91
878.489	2311.31
878.807	2263.63
879.125	2233.8
879.444	2286.23
879.762	2226.11
880.08	2258.66
880.398	2269.95
880.716	2246
881.034	2225.66
881.352	2239.45
881.67	2251.88
881.988	2216.17
882.306	2233.8
882.624	2208.04
882.941	2241.25
883.259	2208.94
883.577	2227.02
883.894	2208.49
884.212	2212.55
884.529	2207.13
884.846	2166.91
885.164	2175.04
885.481	2215.49
885.798	2185.89
886.115	2200.8
886.432	2208.04
886.75	2173.46
887.067	2149.51
887.383	2163.97
887.7	2161.71
888.017	2124.2
888.334	2156.96
888.651	2146.34
888.967	2131.88
889.284	2116.29
889.6	2138.66
889.917	2125.78
890.233	2110.64
890.55	2116.51
890.866	2119.9
891.182	2084.42
891.498	2109.28
891.815	2101.6
892.131	2102.95
892.447	2104.54
892.763	2068.15
893.079	2051.43
893.395	2086.46
893.71	2070.64
894.026	2087.81
894.342	2039
894.657	2032.45
894.973	2038.32
895.289	2077.42
895.604	2046.91
895.92	2041.94
896.235	2010.75
896.55	2006.68
896.865	2008.72
897.181	1988.38
897.496	1996.29
897.811	2004.88
898.126	1986.35
898.441	1988.15
898.756	1956.74
899.071	1945.22
899.386	1978.44
899.7	1965.1
900.015	1968.27
900.33	1932.11
900.644	1941.83
900.959	1929.17
901.273	1903.18
901.588	1911.09
901.902	1917.87
902.216	1900.02
902.531	1917.65
902.845	1887.37
903.159	1915.16
903.473	1877.87
903.787	1885.78
904.101	1885.78
904.415	1857.54
904.729	1865.9
905.042	1836.07
905.356	1833.58
905.67	1853.69
905.984	1841.27
906.297	1814.37
906.611	1848.72
906.924	1809.18
907.237	1797.65
907.551	1861.38
907.864	1818.44
908.177	1833.13
908.491	1830.87
908.804	1804.66
909.117	1768.95
909.43	1759.23
909.743	1737.99
910.056	1785.45
910.368	1772.57
910.681	1765.56
910.994	1730.99
911.307	1735.51
911.619	1734.15
911.932	1736.86
912.244	1725.56
912.557	1706.58
912.869	1714.94
913.181	1698.67
913.494	1704.77
913.806	1714.71
914.118	1689.86
914.43	1712.45
914.742	1690.99
915.054	1668.84
915.366	1694.15
915.678	1657.09
915.99	1656.86
916.302	1659.35
916.613	1697.31
916.925	1646.69
917.236	1648.5
917.548	1621.61
917.859	1632.68
918.171	1612.12
918.482	1625.9
918.794	1632.46
919.105	1607.15
919.416	1595.4
919.727	1592.46
920.038	1582.97
920.349	1566.92
920.66	1567.15
920.971	1583.42
921.282	1573.7
921.593	1584.32
921.903	1555.85
922.214	1540.03
922.525	1546.13
922.835	1521.5
923.146	1536.64
923.456	1518.56
923.767	1538.22
924.077	1511.33
924.387	1520.6
924.697	1535.28
925.008	1537.32
925.318	1518.79
925.628	1513.82
925.938	1502.74
926.248	1506.58
926.558	1479.01
926.867	1448.28
927.177	1502.29
927.487	1453.03
927.796	1454.83
928.106	1450.31
928.416	1441.28
928.725	1446.7
929.034	1434.27
929.344	1426.59
929.653	1439.92
929.962	1434.27
930.271	1422.29
930.581	1407.83
930.89	1420.94
931.199	1429.75
931.508	1386.36
931.817	1400.82
932.125	1409.19
932.434	1372.8
932.743	1375.06
933.051	1382.52
933.36	1396.08
933.669	1363.76
933.977	1367.83
934.286	1383.2
934.594	1354.27
934.902	1344.56
935.21	1329.19
935.519	1335.06
935.827	1342.52
936.135	1332.58
936.443	1313.37
936.751	1322.86
937.059	1363.76
937.367	1294.84
937.674	1309.08
937.982	1305.46
938.29	1331.67
938.597	1313.6
938.905	1321.73
939.213	1275.86
939.52	1274.5
939.827	1309.75
940.135	1300.04
940.442	1274.5
940.749	1262.52
941.056	1291
941.363	1274.95
941.67	1259.36
941.977	1279.7
942.284	1248.51
942.591	1249.87
942.898	1240.83
943.205	1230.21
943.511	1230.43
943.818	1256.87
944.125	1226.59
944.431	1226.37
944.738	1215.29
945.044	1216.42
945.35	1228.4
945.657	1207.61
945.963	1204.67
946.269	1190.66
946.575	1204.67
946.881	1207.84
947.187	1208.06
947.493	1179.36
947.799	1170.55
948.105	1160.61
948.41	1147.95
948.716	1181.4
949.022	1183.43
949.327	1150.66
949.633	1146.14
949.938	1172.58
950.244	1167.84
950.549	1149.08
950.854	1139.36
951.16	1156.99
951.465	1124.9
951.77	1102.08
952.075	1165.35
952.38	1138.91
952.685	1110.44
952.99	1112.02
953.294	1107.5
953.599	1112.7
953.904	1127.39
954.209	1100.49
954.513	1131
954.818	1080.16
955.122	1086.71
955.426	1110.44
955.731	1096.65
956.035	1061.17
956.339	1084.67
956.643	1066.6
956.948	1067.05
957.252	1047.39
957.556	1083.54
957.86	1056.2
958.163	1088.52
958.467	1058.69
958.771	1014.39
959.075	1034.51
959.378	1057.78
959.682	1044.9
959.985	1051.91
960.289	994.73
960.592	1009.2
960.896	1026.6
961.199	1042.42
961.502	1062.3
961.805	1029.31
962.108	1018.46
962.411	1014.85
962.714	1014.85
963.017	1012.36
963.32	993.6
963.623	981.17
963.926	970.55
964.228	1000.84
964.531	979.82
964.833	986.6
965.136	992.02
965.438	960.61
965.741	986.82
966.043	979.37
966.345	993.6
966.648	987.28
966.95	970.1
967.252	944.57
967.554	959.03
967.856	966.49
968.158	938.46
968.46	936.88
968.761	938.24
969.063	943.21
969.365	944.11
969.666	933.94
969.968	937.33
970.269	918.13
970.571	950.22
970.872	952.7
971.174	942.76
971.475	915.41
971.776	910.89
972.077	915.41
972.378	920.39
972.679	915.64
972.98	902.08
973.281	905.24
973.582	905.02
973.883	916.77
974.183	921.74
974.484	906.15
974.785	890.1
975.085	884.45
975.386	877
975.686	880.16
975.986	882.65
976.287	876.09
976.587	851.01
976.887	892.82
977.187	867.73
977.487	881.29
977.787	865.25
978.087	858.24
978.387	841.74
978.687	846.72
978.987	874.96
979.286	861.63
979.586	849.88
979.885	871.57
980.185	838.13
980.484	820.05
980.784	851.23
981.083	845.81
981.382	845.13
981.682	840.84
981.981	848.52
982.28	811.69
982.579	846.04
982.878	829.77
983.177	821.86
983.475	807.85
983.774	797.9
984.073	809.88
984.372	802.65
984.67	804
984.969	814.17
985.267	823.89
985.566	795.87
985.864	780.05
986.162	788.64
986.461	792.48
986.759	805.81
987.057	791.8
987.355	771.01
987.653	767.4
987.951	807.39
988.249	785.02
988.547	796.77
988.844	766.94
989.142	803.33
989.44	781.18
989.737	774.85
990.035	777.11
990.332	769.43
990.63	764.46
990.927	764.46
991.224	748.64
991.521	749.09
991.819	752.48
992.116	742.54
992.413	733.27
992.71	732.14
993.006	737.79
993.303	741.18
993.6	730.79
993.897	740.5
994.193	738.92
994.49	754.51
994.787	736.66
995.083	726.72
995.379	749.99
995.676	728.75
995.972	713.84
996.268	712.93
996.565	704.57
996.861	717.23
997.157	724.46
997.453	686.49
997.749	706.83
998.044	696.44
998.34	718.81
998.636	702.99
998.932	709.09
999.227	709.54
999.523	693.5
999.818	677.23
1000.114	696.44
1000.409	707.28
1000.704	681.07
1001	710.67
1001.295	671.8
1001.59	677.45
1001.885	688.3
1002.18	694.4
1002.475	683.56
1002.77	656.21
1003.065	686.27
1003.359	668.64
1003.654	674.97
1003.949	664.8
1004.243	673.84
1004.538	654.86
1004.832	668.19
1005.127	654.18
1005.421	650.34
1005.715	620.73
1006.009	644.01
1006.304	645.14
1006.598	638.13
1006.892	645.59
1007.186	643.33
1007.48	637.91
1007.773	641.52
1008.067	652.6
1008.361	624.8
1008.655	625.03
1008.948	608.08
1009.242	658.47
1009.535	619.6
1009.829	622.31
1010.122	626.16
1010.415	613.05
1010.708	615.31
1011.001	616.66
1011.295	610.79
1011.588	605.82
1011.881	615.53
1012.173	604.69
1012.466	597.68
1012.759	585.48
1013.052	596.33
1013.344	599.49
1013.637	621.86
1013.93	578.7
1014.222	606.95
1014.514	587.29
1014.807	605.59
1015.099	582.32
1015.391	579.15
1015.683	576.89
1015.976	586.16
1016.268	586.38
1016.56	581.86
1016.851	575.99
1017.143	586.83
1017.435	542.32
1017.727	575.31
1018.018	571.69
1018.31	555.2
1018.602	563.78
1018.893	553.62
1019.185	548.87
1019.476	558.36
1019.767	564.46
1020.058	549.32
1020.35	554.07
1020.641	547.51
1020.932	547.06
1021.223	536.21
1021.514	533.5
1021.804	523.79
1022.095	541.19
1022.386	522.2
1022.677	535.54
1022.967	527.4
1023.258	540.73
1023.548	531.02
1023.839	516.33
1024.129	526.72
1024.419	524.01
1024.709	526.27
1025	503.67
1025.29	507.51
1025.58	518.36
1025.87	523.33
1026.16	513.84
1026.449	511.58
1026.739	523.11
1027.029	500.96
1027.319	485.37
1027.608	505.03
1027.898	493.96
1028.187	503.22
1028.477	504.35
1028.766	455.99
1029.055	501.19
1029.344	502.77
1029.634	488.08
1029.923	473.17
1030.212	496.89
1030.501	496.22
1030.79	481.98
1031.078	509.32
1031.367	474.52
1031.656	478.82
1031.945	505.93
1032.233	457.57
1032.522	499.38
1032.81	450.57
1033.099	456.67
1033.387	487.4
1033.675	482.2
1033.963	463.22
1034.251	459.83
1034.54	459.38
1034.828	477.46
1035.116	455.54
1035.403	463
1035.691	440.4
1035.979	461.41
1036.267	456.44
1036.554	438.36
1036.842	473.17
1037.129	463.9
1037.417	425.94
1037.704	455.54
1037.992	460.51
1038.279	468.87
1038.566	435.88
1038.853	435.88
1039.14	435.88
