Data from blue_clamp_base_FLMS001491_00001.txt Node
Date: Wed Feb 08 15:15:27 GMT 2017
User: dcchb
Spectrometer: FLMS00149
Trigger mode: 0
Integration Time (sec): 2.000000E-2
Scans to average: 10
Electric dark correction enabled: true
Nonlinearity correction enabled: false
Boxcar width: 0
XAxis mode: Wavelengths
Number of Pixels in Spectrum: 2048
>>>>>Begin Spectral Data<<<<<
341.393	-11.71
341.776	-11.71
342.16	-11.71
342.543	-46.06
342.927	-62.55
343.31	-73.4
343.693	-56.68
344.077	-56.68
344.46	-57.81
344.843	-51.03
345.226	-34.31
345.61	-43.57
345.993	-28.88
346.376	-5.38
346.759	8.18
347.142	42.08
347.525	44.11
347.908	50.89
348.291	71.23
348.674	88.4
349.057	102.86
349.44	136.54
349.823	125.69
350.206	167.95
350.588	178.12
350.971	198.23
351.354	214.5
351.737	238
352.119	258.57
352.502	249.75
352.884	268.96
353.267	285.68
353.65	294.27
354.032	287.94
354.414	301.73
354.797	319.36
355.179	313.71
355.562	313.03
355.944	318.68
356.326	317.77
356.709	322.75
357.091	315.74
357.473	322.07
357.855	336.3
358.238	340.37
358.62	329.75
359.002	319.81
359.384	319.13
359.766	332.91
360.148	347.6
360.53	343.99
360.912	321.62
361.294	335.4
361.676	335.63
362.057	324.1
362.439	328.85
362.821	329.53
363.203	320.03
363.584	330.66
363.966	303.54
364.348	320.03
364.729	327.94
365.111	320.03
365.493	313.25
365.874	301.5
366.256	323.42
366.637	316.87
367.019	308.96
367.4	300.6
367.781	312.58
368.163	297.21
368.544	308.73
368.925	299.47
369.306	299.02
369.688	307.6
370.069	315.51
370.45	311.45
370.831	335.4
371.212	326.81
371.593	293.14
371.974	299.47
372.355	292.01
372.736	319.81
373.117	315.29
373.498	306.02
373.879	294.05
374.26	332.69
374.641	306.02
375.021	312.12
375.402	314.16
375.783	302.86
376.163	310.09
376.544	333.82
376.925	321.16
377.305	338.34
377.686	321.16
378.066	311.9
378.447	314.16
378.827	348.96
379.208	306.47
379.588	328.4
379.968	326.81
380.349	316.42
380.729	325.23
381.109	332.91
381.489	334.72
381.87	345.57
382.25	350.54
382.63	338.56
383.01	343.31
383.39	346.93
383.77	360.94
384.15	345.57
384.53	352.58
384.91	352.58
385.29	335.85
385.67	336.76
386.049	337.89
386.429	359.35
386.809	343.99
387.189	360.71
387.568	359.13
387.948	344.89
388.328	357.32
388.707	394.38
389.087	364.1
389.466	360.71
389.846	373.82
390.225	368.17
390.605	355.51
390.984	389.18
391.363	376.76
391.743	389.86
392.122	403.65
392.501	410.2
392.881	396.42
393.26	398.22
393.639	393.25
394.018	388.05
394.397	395.51
394.776	386.25
395.155	389.86
395.534	400.03
395.913	393.7
396.292	424.66
396.671	423.99
397.05	445
397.429	434.83
397.808	425.79
398.186	449.75
398.565	423.31
398.944	433.03
399.323	436.87
399.701	441.39
400.08	454.49
400.458	452.69
400.837	474.83
401.215	447.04
401.594	430.99
401.972	470.99
402.351	481.84
402.729	454.95
403.107	472.35
403.486	501.95
403.864	495.17
404.242	501.72
404.62	493.81
404.999	532.68
405.377	523.87
405.755	517.09
406.133	524.55
406.511	542.4
406.889	540.59
407.267	548.95
407.645	549.18
408.023	548.5
408.401	539.24
408.779	561.16
409.156	577.88
409.534	582.63
409.912	575.62
410.29	582.63
410.667	599.12
411.045	606.81
411.422	613.13
411.8	626.01
412.178	614.94
412.555	640.25
412.933	620.82
413.31	637.54
413.687	636.18
414.065	650.87
414.442	665.11
414.819	679.57
415.197	675.05
415.574	690.87
415.951	673.7
416.328	687.48
416.705	689.74
417.082	723.64
417.46	689.97
417.837	722.51
418.214	718.44
418.591	719.12
418.967	743.07
419.344	725.67
419.721	761.15
420.098	749.85
420.475	774.03
420.852	775.39
421.228	767.93
421.605	765.45
421.982	815.61
422.358	796.86
422.735	802.96
423.111	804.32
423.488	833.92
423.864	816.52
424.241	832.79
424.617	840.7
424.994	838.44
425.37	862.39
425.746	863.3
426.123	890.41
426.499	889.06
426.875	870.98
427.251	922.05
427.627	932.22
428.003	918.66
428.379	939
428.756	950.3
429.132	951.88
429.507	1009.51
429.883	990.98
430.259	1004.08
430.635	1014.48
431.011	1012.22
431.387	1020.35
431.763	1065.55
432.138	1046.57
432.514	1074.59
432.89	1071.43
433.265	1072.1
433.641	1112.78
434.016	1116.17
434.392	1144.19
434.767	1166.34
435.143	1155.94
435.518	1172.21
435.894	1194.59
436.269	1223.06
436.644	1227.58
437.02	1237.3
437.395	1223.06
437.77	1265.32
438.145	1258.54
438.52	1291.31
438.895	1288.82
439.271	1308.26
439.646	1324.53
440.021	1338.99
440.395	1347.58
440.77	1336.73
441.145	1368.82
441.52	1407.91
441.895	1375.37
442.27	1395.49
442.645	1421.47
443.019	1435.94
443.394	1459.21
443.769	1446.56
444.143	1423.28
444.518	1487.46
444.892	1475.26
445.267	1504.18
445.641	1509.38
446.016	1499.21
446.39	1550.51
446.764	1561.81
447.139	1542.37
447.513	1541.02
447.887	1571.07
448.262	1596.61
448.636	1590.28
449.01	1611.98
449.384	1612.43
449.758	1651.98
450.132	1686.78
450.506	1672.99
450.88	1679.32
451.254	1682.94
451.628	1682.48
452.002	1726.55
452.376	1730.84
452.75	1748.7
453.123	1742.37
453.497	1742.6
453.871	1804.74
454.244	1838.41
454.618	1842.71
454.992	1870.95
455.365	1860.33
455.739	1927.9
456.112	1934.91
456.486	1922.93
456.859	1970.84
457.232	1964.74
457.606	2026.88
457.979	2015.36
458.352	2079.54
458.725	2103.72
459.099	2061.46
459.472	2134.68
459.845	2152.98
460.218	2150.49
460.591	2183.71
460.964	2179.42
461.337	2237.05
461.71	2289.47
462.083	2301.68
462.456	2290.15
462.829	2304.16
463.201	2297.38
463.574	2347.55
463.947	2375.12
464.32	2413.99
464.692	2404.05
465.065	2449.47
465.438	2475.68
465.81	2510.48
466.183	2525.17
466.555	2566.98
466.928	2589.13
467.3	2580.99
467.672	2637.94
468.045	2685.85
468.417	2668.67
468.789	2719.52
469.161	2729.46
469.534	2763.36
469.906	2813.3
470.278	2849.68
470.65	2856.01
471.022	2899.4
471.394	2926.97
471.766	3000.87
472.138	3009.91
472.51	3051.04
472.882	3093.97
473.253	3138.49
473.625	3128.55
473.997	3192.27
474.369	3223.46
474.74	3263.01
475.112	3329.9
475.484	3396.11
475.855	3378.71
476.227	3419.39
476.598	3498.03
476.97	3502.32
477.341	3611.7
477.713	3639.27
478.084	3615.77
478.455	3695.99
478.827	3780.51
479.198	3825.93
479.569	3842.43
479.94	3900.96
480.311	3967.4
480.682	4016.66
481.053	4078.35
481.424	4128.75
481.795	4171.23
482.166	4164.45
482.537	4274.05
482.908	4313.6
483.279	4339.36
483.65	4374.84
484.021	4457.1
484.391	4546.14
484.762	4509.75
485.133	4533.71
485.503	4614.61
485.874	4660.26
486.244	4730.09
486.615	4812.12
486.985	4804.89
487.356	4911.78
487.726	4920.36
488.097	4951.32
488.467	4949.74
488.837	5000.14
489.207	5073.36
489.578	5158.1
489.948	5175.73
490.318	5213.01
490.688	5211.2
491.058	5255.72
491.428	5280.58
491.798	5337.53
492.168	5413.23
492.538	5449.84
492.908	5443.97
493.278	5521.25
493.648	5526.68
494.017	5543.17
494.387	5556.51
494.757	5611.87
495.126	5679.67
495.496	5650.74
495.866	5672.66
496.235	5719.89
496.605	5732.1
496.974	5763.51
497.344	5799.89
497.713	5781.81
498.082	5802.83
498.452	5853.22
498.821	5892.77
499.19	5878.98
499.559	5948.81
499.928	5892.32
500.298	5949.26
500.667	5975.48
501.036	5932.99
501.405	5983.84
501.774	5990.17
502.143	6016.16
502.512	6044.4
502.88	6036.04
503.249	6033.56
503.618	6024.74
503.987	6078.98
504.356	6071.52
504.724	6106.77
505.093	6140.22
505.462	6144.74
505.83	6195.36
506.199	6207.56
506.567	6277.17
506.936	6260.22
507.304	6321.68
507.672	6275.13
508.041	6350.38
508.409	6345.19
508.777	6339.54
509.145	6353.55
509.514	6341.12
509.882	6404.39
510.25	6440.78
510.618	6476.48
510.986	6424.73
511.354	6530.04
511.722	6558.06
512.09	6501.34
512.458	6499.98
512.826	6572.98
513.193	6539.98
513.561	6647.78
513.929	6570.49
514.297	6716.48
514.664	6618.85
515.032	6674.22
515.4	6679.64
515.767	6708.57
516.135	6724.84
516.502	6712.41
516.869	6721.22
517.237	6739.98
517.604	6753.54
517.972	6810.26
518.339	6882.8
518.706	6849.58
519.073	6916.24
519.44	6880.31
519.808	6897.04
520.175	6849.13
520.542	6960.31
520.909	6985.4
521.276	6948.56
521.643	6998.5
522.009	7057.94
522.376	7094.09
522.743	7047.77
523.11	7109.46
523.477	7140.65
523.843	7193.53
524.21	7190.59
524.577	7256.8
524.943	7300.42
525.31	7341.77
525.676	7368.21
526.043	7331.6
526.409	7389.45
526.776	7410.92
527.142	7433.52
527.508	7448.43
527.874	7452.73
528.241	7490.47
528.607	7538.6
528.973	7563.69
529.339	7561.2
529.705	7653.63
530.071	7659.95
530.437	7717.13
530.803	7743.79
531.169	7739.73
531.535	7721.2
531.901	7787.41
532.267	7819.05
532.632	7834.64
532.998	7865.6
533.364	7878.71
533.73	7904.02
534.095	7887.07
534.461	7990.79
534.826	7977.69
535.192	7975.43
535.557	7933.85
535.923	7974.52
536.288	8027.18
536.653	8065.82
537.019	8014.29
537.384	8125.48
537.749	8066.27
538.114	8148.75
538.479	8124.35
538.845	8219.94
539.21	8211.35
539.575	8180.84
539.94	8175.65
540.305	8230.79
540.67	8246.38
541.034	8251.8
541.399	8298.36
541.764	8293.61
542.129	8314.85
542.494	8300.62
542.858	8359.82
543.223	8334.74
543.587	8353.95
543.952	8357.56
544.316	8421.52
544.681	8381.06
545.045	8437.11
545.41	8533.6
545.774	8489.08
546.138	8555.75
546.503	8496.54
546.867	8507.62
547.231	8575.64
547.595	8605.69
547.959	8658.57
548.324	8649.98
548.688	8599.82
549.052	8581.96
549.416	8673.26
549.779	8624
550.143	8642.53
550.507	8724.56
550.871	8718.46
551.235	8705.12
551.599	8720.49
551.962	8721.85
552.326	8762.52
552.689	8836.19
553.053	8800.04
553.417	8819.02
553.78	8835.74
554.143	8839.13
554.507	8879.13
554.87	8838.45
555.234	8889.98
555.597	8888.85
555.96	8847.04
556.323	8996.42
556.686	8933.82
557.05	9032.12
557.413	8996.42
557.776	9035.74
558.139	9068.05
558.502	9116.19
558.865	9022.86
559.228	9101.27
559.59	9162.97
559.953	9169.52
560.316	9199.12
560.679	9176.07
561.041	9244.77
561.404	9204.09
561.767	9248.84
562.129	9259.46
562.492	9355.95
562.854	9337.88
563.217	9302.85
563.579	9331.77
563.941	9367.25
564.304	9375.16
564.666	9443.86
565.028	9457.87
565.39	9498.32
565.753	9504.88
566.115	9556.85
566.477	9574.71
566.839	9597.98
567.201	9633.24
567.563	9664.87
567.925	9675.72
568.287	9739.9
568.648	9716.17
569.01	9804.08
569.372	9805.66
569.734	9785.32
570.095	9894.02
570.457	9879.78
570.819	9908.26
571.18	9950.29
571.542	9977.63
571.903	9952.55
572.265	9968.82
572.626	10005.88
572.987	10092.43
573.349	10101.02
573.71	10114.8
574.071	10198.42
574.432	10177.63
574.794	10205.2
575.155	10259.43
575.516	10257.4
575.877	10162.71
576.238	10299.66
576.599	10359.54
576.96	10336.72
577.32	10343.73
577.681	10341.24
578.042	10434.34
578.403	10394.57
578.763	10483.61
579.124	10428.69
579.485	10473.44
579.845	10479.54
580.206	10488.13
580.566	10454
580.927	10450.39
581.287	10490.16
581.648	10553.21
582.008	10631.63
582.368	10531.29
582.728	10604.28
583.089	10606.09
583.449	10567.9
583.809	10550.95
584.169	10616.49
584.529	10630.05
584.889	10693.32
585.249	10593.21
585.609	10572.42
585.969	10683.83
586.329	10613.1
586.688	10698.29
587.048	10642.02
587.408	10627.56
587.768	10711.85
588.127	10676.82
588.487	10685.64
588.846	10736.48
589.206	10744.62
589.565	10690.83
589.925	10737.16
590.284	10716.37
590.643	10702.81
591.003	10765.86
591.362	10828.46
591.721	10772.87
592.08	10791.4
592.44	10855.8
592.799	10840.21
593.158	10803.83
593.517	10784.39
593.876	10796.82
594.235	10851.51
594.593	10784.39
594.952	10851.28
595.311	10737.16
595.67	10835.24
596.029	10928.34
596.387	10848.57
596.746	10895.12
597.104	10869.14
597.463	10772.64
597.822	10915.91
598.18	10794.79
598.538	10824.16
598.897	10915.01
599.255	10794.56
599.613	11006.53
599.972	10918.17
600.33	10919.08
600.688	10949.58
601.046	10906.87
601.404	10963.14
601.762	11046.76
602.12	10983.26
602.478	11068.9
602.836	10974.22
603.194	11004.72
603.552	10996.36
603.91	10956.14
604.268	11005.4
604.625	10929.47
604.983	11053.54
605.341	11010.15
605.698	11036.81
606.056	11069.13
606.413	10991.17
606.771	11084.72
607.128	11040.66
607.485	11010.37
607.843	11111.84
608.2	11145.51
608.557	11155.68
608.914	11115
609.272	11150.94
609.629	11158.39
609.986	11187.32
610.343	11105.97
610.7	11201.56
611.057	11177.6
611.414	11195.68
611.771	11171.95
612.127	11202.46
612.484	11191.84
612.841	11260.76
613.198	11206.53
613.554	11235.45
613.911	11306.86
614.267	11290.37
614.624	11340.99
614.98	11252.85
615.337	11348.44
615.693	11363.59
616.05	11265.51
616.406	11421.21
616.762	11439.06
617.118	11416.92
617.475	11394.32
617.831	11510.02
618.187	11469.57
618.543	11480.42
618.899	11448.33
619.255	11517.48
619.611	11482.23
619.967	11519.51
620.323	11543.24
620.678	11549.12
621.034	11482.45
621.39	11438.84
621.746	11534.88
622.101	11597.48
622.457	11498.05
622.812	11563.58
623.168	11599.74
623.523	11592.28
623.879	11707.08
624.234	11522.23
624.589	11604.93
624.945	11587.31
625.3	11591.6
625.655	11663.69
626.01	11669.34
626.365	11649.91
626.72	11631.37
627.075	11676.35
627.43	11655.1
627.785	11656.23
628.14	11638.38
628.495	11741.43
628.85	11793.86
629.205	11666.85
629.559	11755.67
629.914	11708.21
630.269	11718.83
630.623	11751.6
630.978	11660.53
631.332	11767.42
631.687	11896.23
632.041	11760.19
632.396	11854.87
632.75	11795.21
633.104	11906.62
633.459	11763.12
633.813	11808.09
634.167	11812.84
634.521	11824.36
634.875	11841.99
635.229	11848.32
635.583	11831.37
635.937	11924.02
636.291	11858.04
636.645	11846.51
636.999	11858.94
637.352	11982.1
637.706	11915.66
638.06	11946.17
638.413	11952.04
638.767	11860.97
639.121	11857.81
639.474	11836.34
639.828	11875.44
640.181	11908.88
640.534	11928.77
640.888	11980.52
641.241	11881.09
641.594	11867.75
641.947	12014.64
642.301	11960.86
642.654	12094.41
643.007	12012.38
643.36	12013.74
643.713	11944.59
644.066	12091.48
644.419	12067.52
644.771	12102.1
645.124	11936
645.477	11947.07
645.83	11781.65
646.182	11812.61
646.535	11775.78
646.888	11827.08
647.24	11743.24
647.593	11901.42
647.945	11827.75
648.298	11818.04
648.65	11844.25
649.002	11790.92
649.355	11874.31
649.707	11888.54
650.059	11957.24
650.411	12115.43
650.763	12164.02
651.115	12220.51
651.467	12262.77
651.819	12207.86
652.171	12264.8
652.523	12285.37
652.875	12286.05
653.227	12195.88
653.578	12337.12
653.93	12366.95
654.282	12272.94
654.633	12279.04
654.985	12381.19
655.337	12445.59
655.688	12403.78
656.039	12438.59
656.391	12380.28
656.742	12357.23
657.094	12364.01
657.445	12422.54
657.796	12423.44
658.147	12393.39
658.498	12349.1
658.849	12458.92
659.2	12390
659.551	12430.22
659.902	12462.77
660.253	12522.42
660.604	12531.92
660.955	12426.83
661.306	12482.88
661.656	12443.78
662.007	12548.41
662.358	12540.28
662.708	12553.84
663.059	12579.82
663.409	12416.67
663.76	12616.43
664.11	12598.13
664.461	12581.63
664.811	12512.03
665.161	12524.91
665.511	12512.26
665.862	12573.05
666.212	12605.81
666.562	12492.82
666.912	12554.74
667.262	12493.27
667.612	12538.02
667.962	12577.56
668.312	12500.28
668.662	12512.71
669.011	12463.9
669.361	12543.22
669.711	12505.7
670.06	12406.72
670.41	12452.6
670.76	12336.89
671.109	12403.33
671.459	12378.47
671.808	12314.29
672.157	12417.57
672.507	12236.78
672.856	12248.08
673.205	12298.48
673.554	12292.37
673.904	12207.86
674.253	12279.27
674.602	12218.48
674.951	11992.72
675.3	11914.08
675.649	12286.27
675.998	12157.46
676.346	12127.41
676.695	12151.59
677.044	12039.73
677.393	12091.93
677.741	12105.03
678.09	11991.59
678.438	11983
678.787	12034.08
679.135	11987.75
679.484	11891.93
679.832	11994.3
680.181	11886.28
680.529	11896.68
680.877	11893.51
681.225	11842.22
681.573	11869.33
681.922	11799.51
682.27	11759.28
682.618	11765.38
682.966	11755.89
683.314	11786.63
683.661	11639.06
684.009	11585.95
684.357	11550.25
684.705	11533.75
685.053	11564.03
685.4	11571.94
685.748	11576.69
686.095	11579.17
686.443	11434.54
686.79	11478.16
687.138	11492.17
687.485	11498.27
687.832	11399.97
688.18	11377.37
688.527	11322.46
688.874	11284.72
689.221	11253.53
689.568	11329.24
689.915	11253.98
690.262	11277.71
690.609	11258.96
690.956	11265.28
691.303	11277.94
691.65	11183.25
691.997	11223.02
692.344	11154.33
692.69	11111.16
693.037	11144.83
693.383	11095.12
693.73	11074.55
694.077	11102.8
694.423	11023.26
694.769	10999.98
695.116	11009.7
695.462	10996.59
695.808	10975.35
696.155	11035.91
696.501	10913.88
696.847	10907.55
697.193	10836.14
697.539	10925.18
697.885	10829.14
698.231	10817.84
698.577	10910.72
698.923	10899.64
699.269	10737.84
699.614	10722.92
699.96	10780.78
700.306	10804.73
700.651	10735.35
700.997	10694.68
701.342	10746.2
701.688	10661.68
702.033	10725.41
702.379	10607.9
702.724	10667.11
703.069	10639.54
703.415	10637.95
703.76	10631.85
704.105	10605.19
704.45	10672.53
704.795	10622.36
705.14	10545.53
705.485	10562.48
705.83	10510.5
706.175	10550.5
706.52	10561.8
706.865	10469.15
707.209	10533.1
707.554	10519.77
707.899	10484.96
708.243	10449.49
708.588	10487
708.932	10379.43
709.277	10442.93
709.621	10408.58
709.966	10315.48
710.31	10407.23
710.654	10326.78
710.998	10302.6
711.342	10357.06
711.687	10405.42
712.031	10363.16
712.375	10301.92
712.719	10355.25
713.063	10304.86
713.407	10363.61
713.75	10264.86
714.094	10350.5
714.438	10273.67
714.782	10355.93
715.125	10245.87
715.469	10277.51
715.812	10196.61
716.156	10241.13
716.499	10214.46
716.843	10277.29
717.186	10256.95
717.53	10295.36
717.873	10328.13
718.216	10241.36
718.559	10252.88
718.902	10126.56
719.246	10187.57
719.589	10131.98
719.932	10111.64
720.275	10165.88
720.617	10187.12
720.96	10177.85
721.303	10228.7
721.646	10183.96
721.989	10152.32
722.331	10176.95
722.674	10176.95
723.016	10194.58
723.359	10172.88
723.701	10106.44
724.044	10104.64
724.386	10063.05
724.729	10109.38
725.071	10098.99
725.413	10083.39
725.755	10118.65
726.097	10076.84
726.439	10070.06
726.782	10125.65
727.124	10165.65
727.465	10123.39
727.807	10114.35
728.149	10016.28
728.491	10125.88
728.833	10155.03
729.175	10089.95
729.516	10108.7
729.858	10169.72
730.199	10163.39
730.541	10129.49
730.882	10157.29
731.224	10118.87
731.565	10126.1
731.906	10185.31
732.248	10154.8
732.589	10152.54
732.93	10100.34
733.271	10134.47
733.612	10205.65
733.953	10220.79
734.294	10212.2
734.635	10149.83
734.976	10161.36
735.317	10223.28
735.658	10289.94
735.999	10204.97
736.339	10248.59
736.68	10291.98
737.021	10315.03
737.361	10251.52
737.702	10329.26
738.042	10342.6
738.383	10320.67
738.723	10358.19
739.063	10351.86
739.404	10403.61
739.744	10363.61
740.084	10371.3
740.424	10457.39
740.764	10377.85
741.104	10502.37
741.444	10469.82
741.784	10531.06
742.124	10509.14
742.464	10510.95
742.804	10565.19
743.143	10544.17
743.483	10548.47
743.823	10527.45
744.162	10624.4
744.502	10604.96
744.841	10616.26
745.181	10755.01
745.52	10672.53
745.86	10742.58
746.199	10754.79
746.538	10800.66
746.877	10858.06
747.216	10841.57
747.556	10936.93
747.895	10949.58
748.234	10868.01
748.573	10913.43
748.911	10922.24
749.25	11011.05
749.589	11086.53
749.928	11011.05
750.267	11131.5
750.605	11140.09
750.944	11072.97
751.283	11030.26
751.621	11185.28
751.96	11159.3
752.298	11262.12
752.636	11217.6
752.975	11202.91
753.313	11267.09
753.651	11362
753.989	11314.1
754.327	11309.58
754.666	11318.39
755.004	11400.87
755.342	11473.64
755.679	11448.78
756.017	11471.15
756.355	11501.66
756.693	11498.05
757.031	11513.64
757.368	11464.15
757.706	11571.72
758.044	11532.39
758.381	11527.65
758.719	11546.18
759.056	11653.75
759.394	11623.01
759.731	11600.42
760.068	11631.83
760.405	11660.75
760.743	11626.63
761.08	11729.9
761.417	11758.6
761.754	11776.23
762.091	11744.82
762.428	11803.8
762.765	11755.44
763.102	11816.68
763.438	11796.34
763.775	11771.71
764.112	11791.6
764.449	11863.91
764.785	11859.84
765.122	11826.4
765.458	11848.77
765.795	11811.71
766.131	11872.27
766.467	11872.72
766.804	11807.87
767.14	11862.56
767.476	11836.57
767.812	11795.89
768.148	11883.8
768.485	11954.3
768.821	11884.02
769.157	11849.9
769.492	11851.26
769.828	11856.68
770.164	11849.9
770.5	11900.97
770.836	11957.24
771.171	11918.15
771.507	11926.51
771.842	11856.91
772.178	11821.88
772.513	11847.19
772.849	11907.53
773.184	11856
773.519	11903.91
773.855	11877.02
774.19	11918.83
774.525	11887.64
774.86	11864.36
775.195	11907.07
775.53	11845.38
775.865	11846.96
776.2	11794.76
776.535	11762.67
776.87	11743.69
777.205	11847.87
777.539	11798.38
777.874	11781.2
778.209	11766.96
778.543	11740.98
778.878	11791.37
779.212	11824.14
779.547	11712.05
779.881	11793.63
780.215	11710.69
780.55	11809.45
780.884	11731.71
781.218	11741.65
781.552	11859.84
781.886	11760.86
782.22	11739.62
782.554	11757.25
782.888	11669.79
783.222	11558.61
783.556	11665.72
783.889	11688.1
784.223	11558.16
784.557	11597.03
784.89	11625.27
785.224	11660.98
785.557	11566.07
785.891	11511.38
786.224	11542.79
786.558	11491.27
786.891	11473.41
787.224	11488.78
787.557	11487.42
787.891	11490.81
788.224	11539.85
788.557	11489.46
788.89	11455.56
789.223	11419.86
789.556	11477.71
789.888	11413.3
790.221	11401.32
790.554	11370.14
790.887	11353.42
791.219	11405.84
791.552	11345.51
791.884	11265.06
792.217	11350.03
792.549	11346.18
792.882	11300.54
793.214	11228.9
793.546	11198.39
793.879	11206.98
794.211	11230.71
794.543	11236.36
794.875	11182.12
795.207	11252.63
795.539	11250.14
795.871	11205.62
796.203	11092.86
796.535	11093.54
796.867	11105.06
797.198	11154.55
797.53	11172.4
797.862	11117.26
798.193	11105.29
798.525	11090.15
798.856	11106.64
799.188	10977.83
799.519	11031.16
799.85	10962.01
800.182	11017.61
800.513	10956.36
800.844	10903.94
801.175	10995.23
801.506	10958.17
801.837	10934.22
802.168	10887.21
802.499	10862.13
802.83	10860.77
803.161	10787.33
803.491	10781.23
803.822	10802.02
804.153	10791.62
804.483	10731.06
804.814	10723.38
805.145	10682.02
805.475	10738.97
805.805	10706.88
806.136	10681.34
806.466	10756.14
806.796	10760.44
807.126	10668.46
807.457	10652.19
807.787	10603.61
808.117	10611.29
808.447	10600.89
808.777	10621.01
809.107	10602.93
809.436	10565.41
809.766	10506.43
810.096	10581.01
810.426	10461.91
810.755	10571.74
811.085	10568.13
811.414	10505.98
811.744	10440.22
812.073	10431.63
812.403	10453.1
812.732	10422.82
813.061	10411.07
813.39	10354.57
813.719	10331.75
814.049	10405.19
814.378	10374.91
814.707	10326.78
815.036	10347.57
815.365	10282.26
815.693	10211.3
816.022	10277.29
816.351	10193.67
816.68	10204.07
817.008	10202.71
817.337	10117.29
817.665	10098.08
817.994	10135.37
818.322	10128.14
818.651	10115.03
818.979	10061.02
819.307	10157.74
819.636	10084.52
819.964	10028.71
820.292	10077.07
820.62	10085.88
820.948	10025.54
821.276	10051.53
821.604	10018.99
821.932	10010.4
822.259	10061.25
822.587	10017.63
822.915	9966.33
823.243	10112.32
823.57	10040.68
823.898	10084.07
824.225	10030.29
824.553	10049.27
824.88	10146.67
825.207	10056.05
825.535	10119.78
825.862	10046.78
826.189	10077.97
826.516	10138.98
826.843	10213.11
827.17	10157.06
827.497	10206.33
827.824	10152.32
828.151	10192.54
828.478	10105.99
828.805	10174.01
829.131	10201.81
829.458	10148.48
829.785	10117.06
830.111	10091.98
830.438	10202.03
830.764	10102.15
831.09	10217.17
831.417	10148.93
831.743	10170.4
832.069	10243.39
832.395	10177.18
832.722	10227.34
833.048	10109.38
833.374	10129.04
833.7	10111.41
834.026	10163.62
834.351	10131.08
834.677	10075.94
835.003	10185.54
835.329	10194.58
835.654	10082.26
835.98	10101.7
836.306	10074.81
836.631	10073.22
836.956	10134.24
837.282	10165.88
837.607	10044.52
837.932	10061.47
838.258	10031.64
838.583	10098.76
838.908	9977.86
839.233	10056.5
839.558	10004.3
839.883	10004.07
840.208	10019.67
840.533	9939.67
840.858	9997.07
841.182	9983.28
841.507	9912.1
841.832	9931.08
842.156	9877.3
842.481	9828.03
842.805	9887.47
843.13	9863.29
843.454	9880.23
843.778	9838.2
844.103	9760.46
844.427	9750.75
844.751	9800.91
845.075	9757.3
845.399	9728.37
845.723	9656.51
846.047	9679.11
846.371	9641.14
846.695	9543.07
847.019	9549.4
847.343	9484.99
847.666	9459.45
847.99	9458.32
848.313	9381.04
848.637	9382.62
848.96	9416.52
849.284	9339.46
849.607	9243.42
849.931	9216.07
850.254	9175.17
850.577	9172.23
850.9	9230.31
851.223	9054.27
851.546	9068.73
851.869	9010.43
852.192	9098.33
852.515	8983.76
852.838	8891.56
853.161	8981.73
853.483	8867.38
853.806	8809.98
854.129	8833.48
854.451	8805.69
854.774	8808.17
855.096	8665.58
855.419	8782.86
855.741	8769.3
856.063	8729.76
856.385	8661.74
856.708	8608.86
857.03	8577.9
857.352	8578.35
857.674	8537.67
857.996	8486.6
858.318	8501.97
858.64	8556.43
858.961	8471.68
859.283	8478.92
859.605	8388.75
859.926	8483.21
860.248	8359.82
860.57	8377.22
860.891	8427.39
861.212	8331.35
861.534	8338.35
861.855	8329.54
862.176	8309.88
862.498	8308.52
862.819	8327.28
863.14	8296.1
863.461	8319.6
863.782	8219.26
864.103	8269.43
864.424	8214.52
864.745	8268.3
865.065	8193.5
865.386	8158.25
865.707	8097
866.027	8180.84
866.348	8134.29
866.668	8135.65
866.989	8100.17
867.309	8055.42
867.63	8031.92
867.95	8040.06
868.27	7993.28
868.59	8053.84
868.91	8049.55
869.23	8051.81
869.55	7975.2
869.87	8024.92
870.19	7980.4
870.51	8010.23
870.83	8005.93
871.15	7974.3
871.469	7973.17
871.789	7985.82
872.109	7884.81
872.428	7934.75
872.748	7928.65
873.067	7850.91
873.386	7883.45
873.706	7848.88
874.025	7825.37
874.344	7830.8
874.663	7866.5
874.982	7843.68
875.301	7808.65
875.62	7803.23
875.939	7707.18
876.258	7710.12
876.577	7763.23
876.896	7779.72
877.214	7693.17
877.533	7698.82
877.852	7726.62
878.17	7650.01
878.489	7695.89
878.807	7634.19
879.125	7669.22
879.444	7701.76
879.762	7637.81
880.08	7674.19
880.398	7572.27
880.716	7645.94
881.034	7596.23
881.352	7554.19
881.67	7551.71
881.988	7546.51
882.306	7540.41
882.624	7482.11
882.941	7494.76
883.259	7425.61
883.577	7461.09
883.894	7421.32
884.212	7393.29
884.529	7395.1
884.846	7442.56
885.164	7352.17
885.481	7395.1
885.798	7367.08
886.115	7358.49
886.432	7321.66
886.75	7280.08
887.067	7326.18
887.383	7309.23
887.7	7291.83
888.017	7237.37
888.334	7276.91
888.651	7169.12
888.967	7198.27
889.284	7129.8
889.6	7187.88
889.917	7119.4
890.233	7108.33
890.55	7029.46
890.866	7113.53
891.182	7105.84
891.498	7023.36
891.815	7011.16
892.131	6923.48
892.447	6999.86
892.763	6978.62
893.079	6968.67
893.395	6925.06
893.71	6915.11
894.026	6802.12
894.342	6883.93
894.657	6799.19
894.973	6816.13
895.289	6766.87
895.604	6750.6
895.92	6737.94
896.235	6743.82
896.55	6727.1
896.865	6711.28
897.181	6663.37
897.496	6686.87
897.811	6582.24
898.126	6628.57
898.441	6591.96
898.756	6595.12
899.071	6512.87
899.386	6502.24
899.7	6459.76
900.015	6450.72
900.33	6419.31
900.644	6411.63
900.959	6414.79
901.273	6361.23
901.588	6353.32
901.902	6304.28
902.216	6302.48
902.531	6304.06
902.845	6283.49
903.159	6225.19
903.473	6229.26
903.787	6204.4
904.101	6157.85
904.415	6195.81
904.729	6111.52
905.042	6110.39
905.356	6124.4
905.67	6111.52
905.984	6086.89
906.297	6021.13
906.611	6008.47
906.924	5991.75
907.237	5998.08
907.551	5994.01
907.864	5914.92
908.177	5911.75
908.491	5896.61
908.804	5820.45
909.117	5879.44
909.43	5830.17
909.743	5780
910.056	5762.38
910.368	5766.22
910.681	5678.76
910.994	5706.78
911.307	5666.56
911.619	5649.61
911.932	5741.59
912.244	5666.11
912.557	5639.89
912.869	5585.66
913.181	5588.14
913.494	5539.11
913.806	5561.03
914.118	5537.3
914.43	5446.9
914.742	5451.88
915.054	5434.25
915.366	5399.22
915.678	5399
915.99	5344.08
916.302	5366.45
916.613	5301.6
916.925	5289.62
917.236	5314.7
917.548	5264.31
917.859	5291.43
918.171	5205.78
918.482	5234.26
918.794	5219.57
919.105	5202.39
919.416	5161.94
919.727	5119.23
920.038	5083.3
920.349	5092.11
920.66	5057.08
920.971	5083.3
921.282	4990.42
921.593	5001.94
921.903	5022.51
922.214	5006.92
922.525	4891.89
922.835	4944.55
923.146	4879.91
923.456	4870.42
923.767	4829.75
924.077	4845.11
924.387	4817.54
924.697	4755.4
925.008	4830.88
925.318	4723.08
925.628	4714.27
925.938	4738.45
926.248	4676.76
926.558	4646.93
926.867	4638.11
927.177	4647.15
927.487	4649.41
927.796	4593.59
928.106	4577.32
928.416	4558.34
928.725	4560.83
929.034	4520.6
929.344	4501.17
929.653	4517.44
929.962	4496.87
930.271	4442.86
930.581	4418.68
930.89	4445.8
931.199	4361.74
931.508	4379.59
931.817	4408.51
932.125	4391.11
932.434	4359.48
932.743	4289.2
933.051	4293.71
933.36	4301.62
933.669	4239.25
933.977	4232.25
934.286	4221.4
934.594	4217.33
934.902	4209.65
935.21	4183.44
935.519	4195.64
935.827	4126.04
936.135	4122.87
936.443	4074.74
936.751	4100.73
937.059	4067.05
937.367	4033.38
937.674	4067.05
937.982	4031.12
938.29	3994.06
938.597	3985.93
938.905	3979.37
939.213	3911.35
939.52	3941.86
939.827	3929.43
940.135	3921.52
940.442	3883.78
940.749	3896.66
941.056	3877
941.363	3840.85
941.67	3865.93
941.977	3791.36
942.284	3776.44
942.591	3814.86
942.898	3788.19
943.205	3790.68
943.511	3723.11
943.818	3704.35
944.125	3672.71
944.431	3684.01
944.738	3627.07
945.044	3639.95
945.35	3692.15
945.657	3642.88
945.963	3631.81
946.269	3617.12
946.575	3578.71
946.881	3577.35
947.187	3587.74
947.493	3558.37
947.799	3558.37
948.105	3535.54
948.41	3470.91
948.716	3505.94
949.022	3462.55
949.327	3474.98
949.633	3380.07
949.938	3424.13
950.244	3428.88
950.549	3417.35
950.854	3370.58
951.16	3390.69
951.465	3369.67
951.77	3309.79
952.075	3326.73
952.38	3312.72
952.685	3344.36
952.99	3243.57
953.294	3275.21
953.599	3232.95
953.904	3244.02
954.209	3251.71
954.513	3222.78
954.818	3206.74
955.122	3220.75
955.426	3181.2
955.731	3143.01
956.035	3187.98
956.339	3152.95
956.643	3158.6
956.948	3119.28
957.252	3078.38
957.556	3109.57
957.86	3089.68
958.163	3063.46
958.467	3044.03
958.771	3054.88
959.075	3024.37
959.378	3019.62
959.682	3009.91
959.985	2975.11
960.289	2949.12
960.592	2946.63
960.896	2962.45
961.199	2943.69
961.502	2930.13
961.805	2927.42
962.108	2936.24
962.411	2894.66
962.714	2846.52
963.017	2883.13
963.32	2880.42
963.623	2844.94
963.926	2814.21
964.228	2789.57
964.531	2816.69
964.833	2774.88
965.136	2769.01
965.438	2771.27
965.741	2784.15
966.043	2740.99
966.345	2728.11
966.648	2763.13
966.95	2708.9
967.252	2707.09
967.554	2696.69
967.856	2664.15
968.158	2664.38
968.46	2712.29
968.761	2666.19
969.063	2628.67
969.365	2607.21
969.666	2566.75
969.968	2600.2
970.269	2590.26
970.571	2556.81
970.872	2566.98
971.174	2554.55
971.475	2537.6
971.776	2520.2
972.077	2534.21
972.378	2541.44
972.679	2505.06
972.98	2468.68
973.281	2493.08
973.582	2489.24
973.883	2456.02
974.183	2480.2
974.484	2470.26
974.785	2470.49
975.085	2395.01
975.386	2418.06
975.686	2423.26
975.986	2404.95
976.287	2405.18
976.587	2380.32
976.887	2346.2
977.187	2347.33
977.487	2347.1
977.787	2352.75
978.087	2321.34
978.387	2315.46
978.687	2297.61
978.987	2316.82
979.286	2269.36
979.586	2274.56
979.885	2255.58
980.185	2221.68
980.484	2298.06
980.784	2214.22
981.083	2247.89
981.382	2223.49
981.682	2224.62
981.981	2210.61
982.28	2209.7
982.579	2166.54
982.878	2207.89
983.177	2159.31
983.475	2151.17
983.774	2166.54
984.073	2159.08
984.372	2139.65
984.67	2092.64
984.969	2130.83
985.267	2086.99
985.566	2072.53
985.864	2089.7
986.162	2073.89
986.461	2050.61
986.759	2065.52
987.057	2052.64
987.355	2020.78
987.653	2037.73
987.951	2015.13
988.249	1998.86
988.547	2019.42
988.844	2012.64
989.142	2005.41
989.44	1965.87
989.737	1964.28
990.035	1956.83
990.332	1985.07
990.63	1931.74
990.927	1968.35
991.224	1924.51
991.521	1920.44
991.819	1918.64
992.116	1938.97
992.413	1870.5
992.71	1887.22
993.006	1882.93
993.303	1867.56
993.6	1890.84
993.897	1845.64
994.193	1868.47
994.49	1828.47
994.787	1829.6
995.083	1792.99
995.379	1813.78
995.676	1813.33
995.972	1799.32
996.268	1763.84
996.565	1760.9
996.861	1762.71
997.157	1765.19
997.453	1763.61
997.749	1725.87
998.044	1710.96
998.34	1738.53
998.636	1741.24
998.932	1716.16
999.227	1723.39
999.523	1725.42
999.818	1686.78
1000.114	1693.78
1000.409	1670.05
1000.704	1656.27
1001	1661.24
1001.295	1642.03
1001.59	1635.48
1001.885	1634.35
1002.18	1621.92
1002.475	1640.45
1002.77	1585.54
1003.065	1588.48
1003.359	1600.68
1003.654	1601.13
1003.949	1578.08
1004.243	1600
1004.538	1568.59
1004.832	1573.33
1005.127	1557.29
1005.421	1526.78
1005.715	1517.29
1006.009	1527.01
1006.304	1534.24
1006.598	1508.7
1006.892	1521.81
1007.186	1475.71
1007.48	1488.59
1007.773	1478.65
1008.067	1470.96
1008.361	1457.18
1008.655	1436.84
1008.948	1442.04
1009.242	1443.39
1009.535	1439.33
1009.829	1429.84
1010.122	1430.06
1010.415	1406.33
1010.708	1379.44
1011.001	1376.05
1011.295	1391.64
1011.588	1385.77
1011.881	1380.35
1012.173	1353.45
1012.466	1334.47
1012.759	1339.22
1013.052	1335.83
1013.344	1335.6
1013.637	1326.11
1013.93	1312.55
1014.222	1308.48
1014.514	1278.65
1014.807	1281.82
1015.099	1300.8
1015.391	1264.87
1015.683	1268.71
1015.976	1261.03
1016.268	1263.96
1016.56	1218.09
1016.851	1229.61
1017.143	1251.53
1017.435	1216.73
1017.727	1242.04
1018.018	1196.62
1018.31	1205.43
1018.602	1230.74
1018.893	1192.33
1019.185	1196.17
1019.476	1212.89
1019.767	1188.26
1020.058	1183.51
1020.35	1144.87
1020.641	1152.78
1020.932	1160.46
1021.223	1132.89
1021.514	1139.67
1021.804	1123.63
1022.095	1106.23
1022.386	1101.26
1022.677	1099.45
1022.967	1116.62
1023.258	1069.39
1023.548	1066.68
1023.839	1099.45
1024.129	1060.35
1024.419	1052.67
1024.709	1039.34
1025	1034.37
1025.29	1063.07
1025.58	1045.44
1025.87	1017.42
1026.16	1031.65
1026.449	1047.02
1026.739	1002.05
1027.029	1003.86
1027.319	1002.73
1027.608	995.27
1027.898	993.69
1028.187	976.74
1028.477	966.57
1028.766	979.23
1029.055	983.07
1029.344	958.44
1029.634	970.86
1029.923	949.62
1030.212	926.8
1030.501	958.44
1030.79	921.37
1031.078	930.41
1031.367	911.66
1031.656	926.35
1031.945	934.26
1032.233	920.7
1032.522	911.66
1032.81	898.1
1033.099	902.84
1033.387	891.32
1033.675	897.42
1033.963	893.35
1034.251	867.82
1034.54	859.68
1034.828	855.16
1035.116	845.9
1035.403	845.9
1035.691	825.56
1035.979	833.47
1036.267	837.31
1036.554	834.6
1036.842	824.88
1037.129	832.56
1037.417	838.21
1037.704	813.58
1037.992	792.56
1038.279	818.55
1038.566	803.41
1038.853	803.41
1039.14	803.41
