Data from blue_chair_FLMS001491_00038.txt Node
Date: Wed Feb 08 10:30:37 GMT 2017
User: dcchb
Spectrometer: FLMS00149
Trigger mode: 0
Integration Time (sec): 2.000000E-2
Scans to average: 10
Electric dark correction enabled: true
Nonlinearity correction enabled: false
Boxcar width: 0
XAxis mode: Wavelengths
Number of Pixels in Spectrum: 2048
>>>>>Begin Spectral Data<<<<<
341.393	-13.38
341.776	-13.38
342.16	-13.38
342.543	-53.37
342.927	-66.93
343.31	-76.2
343.693	-68.74
344.077	-57.44
344.46	-41.17
344.843	-35.97
345.226	-54.73
345.61	-27.61
345.993	-22.87
346.376	4.93
346.759	13.52
347.142	7.87
347.525	24.36
347.908	41.54
348.291	74.98
348.674	86.06
349.057	131.48
349.44	125.83
349.823	140.29
350.206	157.69
350.588	181.2
350.971	199.5
351.354	211.03
351.737	208.09
352.119	216.9
352.502	234.53
352.884	248.31
353.267	247.41
353.65	260.29
354.032	274.3
354.414	289.67
354.797	283.34
355.179	271.59
355.562	296.9
355.944	306.84
356.326	311.36
356.709	317.46
357.091	314.75
357.473	305.03
357.855	298.48
358.238	306.39
358.62	322.66
359.002	306.16
359.384	310.46
359.766	322.66
360.148	308.42
360.53	299.38
360.912	304.58
361.294	304.13
361.676	297.58
362.057	308.65
362.439	300.29
362.821	290.35
363.203	309.1
363.584	293.74
363.966	270.23
364.348	285.6
364.729	298.71
365.111	275.88
365.493	303.45
365.874	292.38
366.256	290.57
366.637	285.37
367.019	256.67
367.4	277.46
367.781	302.32
368.163	261.65
368.544	279.27
368.925	275.88
369.306	296.9
369.688	255.09
370.069	281.08
370.45	294.19
370.831	268.2
371.212	263
371.593	284.7
371.974	272.72
372.355	288.54
372.736	282.44
373.117	291.48
373.498	279.95
373.879	295.32
374.26	287.41
374.641	285.37
375.021	284.24
375.402	267.52
375.783	282.44
376.163	276.33
376.544	274.3
376.925	281.08
377.305	293.06
377.686	275.2
378.066	265.49
378.447	279.5
378.827	282.44
379.208	301.87
379.588	311.36
379.968	290.12
380.349	292.38
380.729	298.03
381.109	319.05
381.489	299.84
381.87	275.66
382.25	301.64
382.63	272.94
383.01	293.28
383.39	260.52
383.77	290.57
384.15	296.67
384.53	304.81
384.91	301.87
385.29	296.45
385.67	281.08
386.049	291.48
386.429	307.07
386.809	317.69
387.189	286.5
387.568	313.85
387.948	297.12
388.328	303.68
388.707	312.27
389.087	303.9
389.466	289.22
389.846	311.59
390.225	294.87
390.605	305.71
390.984	319.27
391.363	315.43
391.743	310.01
392.122	315.88
392.501	305.26
392.881	308.65
393.26	324.02
393.639	314.3
394.018	299.38
394.397	311.36
394.776	316.56
395.155	318.14
395.534	320.4
395.913	319.05
396.292	333.73
396.671	316.79
397.05	321.98
397.429	314.07
397.808	346.16
398.186	331.93
398.565	314.53
398.944	338.71
399.323	312.27
399.701	337.35
400.08	322.44
400.458	313.85
400.837	356.33
401.215	343
401.594	334.86
401.972	324.47
402.351	329.67
402.729	328.99
403.107	332.15
403.486	336.45
403.864	342.55
404.242	334.19
404.62	330.57
404.999	339.38
405.377	343.23
405.755	345.49
406.133	348.42
406.511	343
406.889	352.94
407.267	350.46
407.645	345.03
408.023	360.4
408.401	364.24
408.779	365.37
409.156	362.89
409.534	355.88
409.912	343.68
410.29	364.47
410.667	389.78
411.045	375.99
411.422	354.75
411.8	374.64
412.178	387.29
412.555	370.34
412.933	384.58
413.31	379.16
413.687	376.9
414.065	368.76
414.442	379.61
414.819	377.57
415.197	382.09
415.574	387.97
415.951	394.75
416.328	392.49
416.705	379.83
417.082	396.78
417.46	402.43
417.837	392.94
418.214	382.32
418.591	394.75
418.967	409.89
419.344	384.35
419.721	399.27
420.098	393.39
420.475	397.24
420.852	413.73
421.228	410.79
421.605	403.11
421.982	395.65
422.358	412.15
422.735	415.77
423.111	417.8
423.488	433.17
423.864	442.66
424.241	428.42
424.617	449.21
424.994	419.83
425.37	448.08
425.746	418.93
426.123	429.32
426.499	438.82
426.875	421.19
427.251	443.11
427.627	453.96
428.003	463.67
428.379	441.75
428.756	464.35
429.132	464.13
429.507	452.15
429.883	469.55
430.259	460.96
430.635	456.44
431.011	474.52
431.387	485.37
431.763	479.27
432.138	481.07
432.514	464.35
432.89	485.59
433.265	486.95
433.641	485.59
434.016	482.66
434.392	497.12
434.767	493.28
435.143	492.6
435.518	511.81
435.894	515.88
436.269	527.85
436.644	548.19
437.02	540.06
437.395	529.66
437.77	539.15
438.145	525.82
438.52	542.32
438.895	534.86
439.271	555.42
439.646	562.2
440.021	563.78
440.395	578.25
440.77	586.83
441.145	568.53
441.52	587.96
441.895	575.76
442.27	611.69
442.645	600.39
443.019	593.84
443.394	597.91
443.769	596.78
444.143	607.4
444.518	614.18
444.892	604.46
445.267	614.86
445.641	620.96
446.016	625.48
446.39	627.96
446.764	629.09
447.139	629.77
447.513	632.94
447.887	635.42
448.262	656.21
448.636	635.2
449.01	641.52
449.384	653.73
449.758	654.63
450.132	658.7
450.506	655.53
450.88	679.04
451.254	675.65
451.628	703.44
452.002	661.18
452.376	680.62
452.75	672.03
453.123	674.29
453.497	682.2
453.871	703.22
454.244	717
454.618	713.61
454.992	719.49
455.365	709.77
455.739	735.31
456.112	736.21
456.486	763.1
456.859	742.54
457.232	738.24
457.606	756.32
457.979	736.21
458.352	766.49
458.725	770.56
459.099	738.92
459.472	803.78
459.845	795.87
460.218	790.22
460.591	792.25
460.964	776.66
461.337	808.52
461.71	832.7
462.083	821.18
462.456	819.15
462.829	838.58
463.201	819.37
463.574	826.15
463.947	849.2
464.32	870.9
464.692	853.27
465.065	863.21
465.438	881.52
465.81	881.74
466.183	898.92
466.555	890.56
466.928	895.53
467.3	907.5
467.672	896.88
468.045	903.89
468.417	916.32
468.789	947.5
469.161	921.74
469.534	931.23
469.906	931.23
470.278	950.22
470.65	955.64
471.022	982.53
471.394	971.68
471.766	1000.38
472.138	1025.24
472.51	1028.63
472.882	1021.85
473.253	1015.98
473.625	1051.91
473.997	1052.59
474.369	1036.77
474.74	1089.65
475.112	1088.52
475.484	1092.81
475.855	1111.34
476.227	1113.37
476.598	1121.06
476.97	1105.01
477.341	1153.15
477.713	1142.53
478.084	1147.05
478.455	1199.47
478.827	1197.21
479.198	1199.7
479.569	1207.84
479.94	1226.59
480.311	1230.43
480.682	1269.08
481.053	1251.22
481.424	1314.5
481.795	1288.74
482.166	1294.39
482.537	1317.89
482.908	1328.96
483.279	1309.53
483.65	1340.04
484.021	1366.25
484.391	1375.74
484.762	1386.81
485.133	1400.15
485.503	1382.07
485.874	1429.3
486.244	1439.47
486.615	1449.19
486.985	1452.12
487.356	1480.37
487.726	1453.7
488.097	1494.61
488.467	1479.69
488.837	1486.25
489.207	1517.43
489.578	1524.89
489.948	1537.32
490.318	1516.08
490.688	1567.15
491.058	1559.24
491.428	1567.6
491.798	1582.74
492.168	1621.84
492.538	1572.57
492.908	1583.87
493.278	1618.9
493.648	1609.86
494.017	1613.47
494.387	1609.41
494.757	1657.54
495.126	1623.64
495.496	1634.49
495.866	1650.54
496.235	1658.67
496.605	1660.25
496.974	1676.75
497.344	1667.94
497.713	1693.92
498.082	1665
498.452	1686.24
498.821	1677.88
499.19	1717.65
499.559	1685.79
499.928	1705.45
500.298	1709.97
500.667	1708.39
501.036	1728.05
501.405	1707.71
501.774	1691.44
502.143	1705.9
502.512	1720.59
502.88	1712.68
503.249	1710.42
503.618	1713.13
503.987	1718.56
504.356	1704.55
504.724	1730.08
505.093	1721.04
505.462	1693.25
505.83	1723.98
506.199	1760.82
506.567	1726.69
506.936	1729.4
507.304	1719.91
507.672	1745.45
508.041	1749.52
508.409	1755.39
508.777	1731.89
509.145	1752.68
509.514	1745.45
509.882	1721.72
510.25	1751.32
510.618	1738.44
510.986	1723.75
511.354	1784.77
511.722	1742.51
512.09	1758.1
512.458	1758.56
512.826	1764.66
513.193	1734.83
513.561	1755.84
513.929	1766.46
514.297	1787.93
514.664	1751.78
515.032	1714.71
515.4	1766.92
515.767	1762.4
516.135	1750.19
516.502	1750.65
516.869	1726.01
517.237	1738.67
517.604	1732.34
517.972	1753.36
518.339	1740.93
518.706	1765.11
519.073	1745.67
519.44	1731.44
519.808	1759.46
520.175	1749.52
520.542	1752.23
520.909	1749.97
521.276	1725.34
521.643	1777.09
522.009	1732.34
522.376	1740.7
522.743	1754.49
523.11	1741.61
523.477	1734.83
523.843	1758.78
524.21	1735.28
524.577	1765.79
524.943	1748.84
525.31	1772.34
525.676	1763.75
526.043	1775.96
526.409	1754.94
526.776	1778.67
527.142	1762.62
527.508	1760.82
527.874	1780.48
528.241	1754.71
528.607	1787.48
528.973	1789.29
529.339	1772.34
529.705	1774.83
530.071	1775.73
530.437	1776.18
530.803	1782.96
531.169	1790.42
531.535	1771.66
531.901	1768.72
532.267	1749.52
532.632	1761.49
532.998	1754.04
533.364	1749.97
533.73	1748.84
534.095	1779.35
534.461	1752.91
534.826	1764.88
535.192	1756.97
535.557	1756.75
535.923	1764.88
536.288	1762.4
536.653	1780.7
537.019	1782.74
537.384	1732.34
537.749	1768.05
538.114	1724.21
538.479	1723.98
538.845	1752.68
539.21	1730.76
539.575	1721.49
539.94	1698.22
540.305	1725.79
540.67	1693.7
541.034	1734.38
541.399	1731.89
541.764	1731.89
542.129	1716.97
542.494	1736.64
542.858	1726.69
543.223	1688.27
543.587	1698.67
543.952	1726.92
544.316	1712
544.681	1690.31
545.045	1696.41
545.41	1676.52
545.774	1722.4
546.138	1725.34
546.503	1694.15
546.867	1687.6
547.231	1699.12
547.595	1702.29
547.959	1680.59
548.324	1705.22
548.688	1660.7
549.052	1698.44
549.416	1657.54
549.779	1644.43
550.143	1669.74
550.507	1658.9
550.871	1660.25
551.235	1676.07
551.599	1659.58
551.962	1656.19
552.326	1628.16
552.689	1655.73
553.053	1645.79
553.417	1653.47
553.78	1627.03
554.143	1632.46
554.507	1637.43
554.87	1634.72
555.234	1649.63
555.597	1638.33
555.96	1681.04
556.323	1661.16
556.686	1631.1
557.05	1650.76
557.413	1633.59
557.776	1619.35
558.139	1617.77
558.502	1639.69
558.865	1637.43
559.228	1633.81
559.59	1637.65
559.953	1606.24
560.316	1653.25
560.679	1641.27
561.041	1628.39
561.404	1662.74
561.767	1615.51
562.129	1632.68
562.492	1612.34
562.854	1621.61
563.217	1641.04
563.579	1633.36
563.941	1641.27
564.304	1648.95
564.666	1655.51
565.028	1701.16
565.39	1657.32
565.753	1631.55
566.115	1648.28
566.477	1646.69
566.839	1644.21
567.201	1679.69
567.563	1686.01
567.925	1673.13
568.287	1647.82
568.648	1669.52
569.01	1683.98
569.372	1688.05
569.734	1688.05
570.095	1661.61
570.457	1704.55
570.819	1700.48
571.18	1724.88
571.542	1713.58
571.903	1737.99
572.265	1711.33
572.626	1736.41
572.987	1733.47
573.349	1707.26
573.71	1727.82
574.071	1710.65
574.432	1720.82
574.794	1759.01
575.155	1736.64
575.516	1723.3
575.877	1751.32
576.238	1732.57
576.599	1755.17
576.96	1745.9
577.32	1759.91
577.681	1749.52
578.042	1767.37
578.403	1749.29
578.763	1748.39
579.124	1760.36
579.485	1754.94
579.845	1789.29
580.206	1744.54
580.566	1776.86
580.927	1778.89
581.287	1798.33
581.648	1797.88
582.008	1777.31
582.368	1799.68
582.728	1796.07
583.089	1781.38
583.449	1794.49
583.809	1787.93
584.169	1782.51
584.529	1761.04
584.889	1792.9
585.249	1794.03
585.609	1791.77
585.969	1801.27
586.329	1806.24
586.688	1823.86
587.048	1796.29
587.408	1797.65
587.768	1809.85
588.127	1797.42
588.487	1790.87
588.846	1803.75
589.206	1833.13
589.565	1800.81
589.925	1795.39
590.284	1760.36
590.643	1790.65
591.003	1800.14
591.362	1825.67
591.721	1827.71
592.08	1782.74
592.44	1808.27
592.799	1786.13
593.158	1788.16
593.517	1821.83
593.876	1775.5
594.235	1795.62
594.593	1800.14
594.952	1809.63
595.311	1801.04
595.67	1830.87
596.029	1833.81
596.387	1808.72
596.746	1813.47
597.104	1792
597.463	1827.25
597.822	1797.65
598.18	1788.84
598.538	1789.52
598.897	1809.4
599.255	1791.32
599.613	1804.66
599.972	1786.8
600.33	1808.95
600.688	1777.54
601.046	1785.22
601.404	1785.22
601.762	1787.71
602.12	1775.5
602.478	1814.15
602.836	1795.84
603.194	1796.97
603.552	1829.97
603.91	1788.61
604.268	1805.56
604.625	1780.02
604.983	1808.5
605.341	1777.99
605.698	1786.58
606.056	1790.19
606.413	1822.96
606.771	1801.49
607.128	1798.1
607.485	1828.38
607.843	1808.27
608.2	1818.21
608.557	1789.74
608.914	1818.89
609.272	1850.53
609.629	1842.4
609.986	1801.72
610.343	1823.64
610.7	1805.56
611.057	1808.95
611.414	1815.05
611.771	1834.94
612.127	1845.33
612.484	1831.1
612.841	1812.34
613.198	1810.98
613.554	1815.73
613.911	1832.45
614.267	1863.64
614.624	1860.25
614.98	1818.89
615.337	1829.51
615.693	1839.91
616.05	1797.65
616.406	1855.05
616.762	1846.46
617.118	1843.75
617.475	1840.14
617.831	1863.41
618.187	1875.39
618.543	1841.94
618.899	1847.14
619.255	1884.2
619.611	1879.23
619.967	1853.69
620.323	1846.46
620.678	1864.77
621.034	1859.8
621.39	1849.4
621.746	1834.71
622.101	1876.74
622.457	1860.47
622.812	1853.92
623.168	1830.64
623.523	1837.65
623.879	1853.02
624.234	1862.73
624.589	1849.17
624.945	1875.16
625.3	1871.09
625.655	1853.69
626.01	1859.8
626.365	1871.55
626.72	1834.03
627.075	1852.79
627.43	1835.16
627.785	1861.83
628.14	1874.48
628.495	1872.45
628.85	1844.2
629.205	1877.2
629.559	1896.18
629.914	1841.94
630.269	1859.12
630.623	1862.73
630.978	1869.74
631.332	1876.29
631.687	1853.02
632.041	1857.54
632.396	1888.95
632.75	1876.07
633.104	1856.86
633.459	1890.98
633.813	1864.77
634.167	1862.06
634.521	1867.71
634.875	1864.99
635.229	1854.15
635.583	1835.62
635.937	1847.59
636.291	1852.34
636.645	1858.89
636.999	1855.73
637.352	1861.38
637.706	1845.78
638.06	1860.7
638.413	1849.85
638.767	1834.71
639.121	1864.77
639.474	1835.16
639.828	1843.98
640.181	1832.23
640.534	1834.49
640.888	1856.86
641.241	1843.3
641.594	1852.56
641.947	1863.64
642.301	1859.57
642.654	1841.49
643.007	1844.65
643.36	1862.51
643.713	1852.34
644.066	1834.49
644.419	1841.04
644.771	1848.04
645.124	1829.51
645.477	1824.54
645.83	1842.62
646.182	1811.21
646.535	1805.33
646.888	1786.58
647.24	1783.19
647.593	1808.05
647.945	1802.85
648.298	1776.41
648.65	1811.66
649.002	1766.01
649.355	1776.18
649.707	1801.49
650.059	1816.41
650.411	1825.22
650.763	1824.99
651.115	1848.27
651.467	1859.8
651.819	1860.93
652.171	1836.97
652.523	1832.45
652.875	1836.75
653.227	1833.81
653.578	1857.54
653.93	1868.61
654.282	1828.84
654.633	1829.97
654.985	1850.3
655.337	1840.81
655.688	1851.66
656.039	1874.26
656.391	1862.51
656.742	1810.76
657.094	1824.77
657.445	1862.73
657.796	1873.58
658.147	1825.67
658.498	1909.51
658.849	1826.12
659.2	1856.86
659.551	1842.85
659.902	1867.03
660.253	1884.43
660.604	1901.6
660.955	1867.03
661.306	1874.48
661.656	1882.17
662.007	1873.81
662.358	1864.32
662.708	1884.43
663.059	1857.76
663.409	1858.44
663.76	1860.7
664.11	1869.74
664.461	1818.44
664.811	1857.76
665.161	1872.22
665.511	1859.8
665.862	1831.77
666.212	1856.86
666.562	1837.2
666.912	1863.86
667.262	1874.03
667.612	1858.21
667.962	1847.14
668.312	1857.54
668.662	1879.68
669.011	1874.26
669.361	1848.95
669.711	1858.89
670.06	1815.73
670.41	1844.88
670.76	1829.74
671.109	1869.29
671.459	1860.93
671.808	1859.57
672.157	1859.12
672.507	1846.91
672.856	1821.15
673.205	1823.41
673.554	1845.11
673.904	1858.44
674.253	1857.99
674.602	1861.6
674.951	1829.97
675.3	1829.74
675.649	1840.81
675.998	1828.84
676.346	1810.76
676.695	1820.93
677.044	1820.93
677.393	1808.27
677.741	1833.36
678.09	1834.03
678.438	1787.26
678.787	1796.75
679.135	1799.01
679.484	1800.14
679.832	1798.55
680.181	1773.02
680.529	1776.18
680.877	1783.41
681.225	1824.54
681.573	1779.12
681.922	1780.48
682.27	1785.45
682.618	1793.81
682.966	1761.49
683.314	1775.28
683.661	1748.84
684.009	1765.33
684.357	1760.82
684.705	1760.59
685.053	1736.64
685.4	1731.66
685.748	1734.6
686.095	1750.19
686.443	1746.35
686.79	1705.9
687.138	1741.61
687.485	1741.83
687.832	1714.94
688.18	1746.35
688.527	1707.71
688.874	1713.36
689.221	1702.74
689.568	1720.82
689.915	1688.73
690.262	1686.01
690.609	1690.31
690.956	1706.81
691.303	1653.02
691.65	1661.61
691.997	1658.22
692.344	1661.83
692.69	1663.42
693.037	1671.55
693.383	1611.44
693.73	1646.92
694.077	1667.03
694.423	1664.32
694.769	1622.51
695.116	1647.82
695.462	1647.82
695.808	1656.19
696.155	1638.56
696.501	1614.6
696.847	1625.9
697.193	1609.86
697.539	1629.52
697.885	1624.77
698.231	1581.16
698.577	1606.24
698.923	1579.13
699.269	1582.97
699.614	1601.5
699.96	1578.9
700.306	1568.28
700.651	1580.26
700.997	1592.46
701.342	1582.51
701.688	1597.66
702.033	1589.52
702.379	1608.5
702.724	1550.43
703.069	1580.26
703.415	1535.96
703.76	1541.39
704.105	1552.69
704.45	1555.62
704.795	1558.11
705.14	1546.58
705.485	1536.87
705.83	1553.59
706.175	1548.62
706.52	1570.99
706.865	1537.54
707.209	1583.87
707.554	1563.53
707.899	1562.18
708.243	1521.73
708.588	1549.75
708.932	1536.87
709.277	1543.65
709.621	1525.57
709.966	1497.09
710.31	1526.47
710.654	1540.48
710.998	1529.63
711.342	1535.74
711.687	1545.68
712.031	1523.76
712.375	1528.51
712.719	1559.46
713.063	1551.78
713.407	1533.48
713.75	1543.65
714.094	1550.43
714.438	1564.89
714.782	1533.02
715.125	1554.94
715.469	1559.92
715.812	1559.01
716.156	1540.93
716.499	1544.32
716.843	1530.99
717.186	1542.29
717.53	1543.87
717.873	1561.95
718.216	1562.85
718.559	1559.69
718.902	1532.35
719.246	1565.79
719.589	1547.04
719.932	1572.35
720.275	1578
720.617	1561.05
720.96	1563.31
721.303	1597.66
721.646	1600.82
721.989	1581.16
722.331	1587.03
722.674	1588.62
723.016	1562.4
723.359	1582.51
723.701	1596.3
724.044	1592.01
724.386	1589.52
724.729	1597.2
725.071	1610.76
725.413	1580.26
725.755	1593.81
726.097	1608.05
726.439	1602.85
726.782	1608.73
727.124	1662.74
727.465	1638.56
727.807	1608.5
728.149	1653.25
728.491	1634.26
728.833	1663.42
729.175	1675.39
729.516	1676.52
729.858	1666.13
730.199	1673.59
730.541	1656.64
730.882	1678.11
731.224	1656.41
731.565	1700.48
731.906	1711.33
732.248	1679.91
732.589	1709.97
732.93	1669.29
733.271	1706.81
733.612	1733.25
733.953	1730.99
734.294	1721.49
734.635	1741.38
734.976	1737.77
735.317	1759.69
735.658	1758.1
735.999	1763.3
736.339	1780.93
736.68	1783.87
737.021	1793.58
737.361	1800.59
737.702	1817.76
738.042	1805.11
738.383	1838.78
738.723	1830.42
739.063	1848.95
739.404	1859.12
739.744	1827.25
740.084	1844.43
740.424	1847.59
740.764	1900.7
741.104	1916.97
741.444	1895.28
741.784	1882.17
742.124	1935.73
742.464	1949.28
742.804	1964.88
743.143	1949.74
743.483	1998.78
743.823	1979.57
744.162	2021.15
744.502	2061.82
744.841	2032.22
745.181	2041.03
745.52	2069.73
745.86	2115.38
746.199	2143.18
746.538	2150.86
746.877	2157.64
747.216	2164.87
747.556	2236.28
747.895	2210.75
748.234	2251.88
748.573	2256.85
748.911	2304.3
749.25	2337.98
749.589	2318.31
749.928	2382.04
750.267	2417.52
750.605	2450.06
750.944	2462.04
751.283	2507.24
751.621	2535.94
751.96	2554.24
752.298	2557.86
752.636	2603.73
752.975	2645.09
753.313	2667.91
753.651	2727.12
753.989	2771.18
754.327	2789.26
754.666	2841.01
755.004	2874.91
755.342	2954.68
755.679	2948.81
756.017	2983.61
756.355	2995.13
756.693	3100.22
757.031	3105.41
757.368	3158.29
757.706	3194.9
758.044	3247.1
758.381	3263.6
758.719	3320.77
759.056	3376.14
759.394	3406.87
759.731	3380.66
760.068	3447.1
760.405	3483.71
760.743	3543.14
761.08	3590.37
761.417	3621.56
761.754	3679.18
762.091	3687.54
762.428	3722.12
762.765	3739.97
763.102	3830.14
763.438	3805.73
763.775	3820.2
764.112	3905.39
764.449	3955.79
764.785	3946.97
765.122	3992.85
765.458	4043.92
765.795	4083.01
766.131	4084.6
766.467	4110.36
766.804	4113.75
767.14	4151.94
767.476	4159.85
767.812	4194.2
768.148	4283.91
768.485	4295.44
768.821	4265.16
769.157	4289.56
769.492	4348.32
769.828	4333.63
770.164	4353.52
770.5	4363.01
770.836	4435.1
771.171	4419.95
771.507	4449.78
771.842	4481.65
772.178	4457.02
772.513	4481.42
772.849	4498.82
773.184	4511.48
773.519	4521.42
773.855	4503.79
774.19	4564.36
774.525	4516.45
774.86	4570.91
775.195	4572.04
775.53	4571.59
775.865	4575.66
776.2	4553.51
776.535	4598.93
776.87	4570.23
777.205	4577.69
777.539	4582.66
777.874	4617.46
778.209	4561.42
778.543	4593.28
778.878	4572.04
779.212	4597.8
779.547	4614.07
779.881	4668.31
780.215	4559.84
780.55	4660.4
780.884	4577.24
781.218	4605.49
781.552	4590.57
781.886	4622.21
782.22	4584.92
782.554	4571.59
782.888	4544.47
783.222	4536.56
783.556	4553.51
783.889	4565.49
784.223	4503.34
784.557	4560.97
784.89	4560.29
785.224	4530.23
785.557	4539.05
785.891	4545.15
786.224	4547.86
786.558	4570.91
786.891	4540.86
787.224	4531.82
787.557	4533.62
787.891	4520.29
788.224	4548.76
788.557	4512.38
788.89	4528.88
789.223	4508.99
789.556	4486.85
789.888	4476.68
790.221	4465.38
790.554	4431.03
790.887	4441.87
791.219	4436.23
791.552	4463.34
791.884	4404.59
792.217	4404.14
792.549	4404.14
792.882	4426.28
793.214	4387.41
793.546	4405.27
793.879	4388.77
794.211	4372.05
794.543	4402.33
794.875	4381.54
795.207	4323.23
795.539	4326.4
795.871	4332.5
796.203	4368.66
796.535	4336.57
796.867	4320.07
797.198	4269.45
797.53	4326.85
797.862	4253.18
798.193	4284.14
798.525	4245.95
798.856	4251.82
799.188	4240.52
799.519	4218.15
799.85	4226.74
800.182	4216.8
800.513	4229.9
800.844	4197.14
801.175	4230.35
801.506	4184.25
801.837	4206.17
802.168	4170.7
802.499	4198.72
802.83	4151.71
803.161	4120.3
803.491	4134.76
803.822	4140.19
804.153	4117.59
804.483	4107.19
804.814	4110.81
805.145	4099.28
805.475	4089.57
805.805	4135.44
806.136	4122.34
806.466	4056.12
806.796	4094.09
807.126	4000.98
807.457	4032.62
807.787	4070.36
808.117	4029
808.447	3989.46
808.777	4003.47
809.107	4012.51
809.436	3948.33
809.766	4000.3
810.096	3971.15
810.426	3990.59
810.755	3963.92
811.085	3957.59
811.414	3931.15
811.744	3924.83
812.073	3964.15
812.403	3978.84
812.732	3935.67
813.061	3885.73
813.39	3866.97
813.719	3876.92
814.049	3896.13
814.378	3883.47
814.707	3899.52
815.036	3903.36
815.365	3879.63
815.693	3887.09
816.022	3822.23
816.351	3859.97
816.68	3823.13
817.008	3829.46
817.337	3823.36
817.665	3795.34
817.994	3817.94
818.322	3831.72
818.651	3813.87
818.979	3812.96
819.307	3797.6
819.636	3794.43
819.964	3785.17
820.292	3787.65
820.62	3743.36
820.948	3806.41
821.276	3779.29
821.604	3785.39
821.932	3776.13
822.259	3816.35
822.587	3751.5
822.915	3761.89
823.243	3812.51
823.57	3789.91
823.898	3786.3
824.225	3816.35
824.553	3817.26
824.88	3787.65
825.207	3777.26
825.535	3748.33
825.862	3782.01
826.189	3763.47
826.516	3784.49
826.843	3823.13
827.17	3813.42
827.497	3767.99
827.824	3807.32
828.151	3808.22
828.478	3834.66
828.805	3812.29
829.131	3753.98
829.458	3812.74
829.785	3767.54
830.111	3798.5
830.438	3806.19
830.764	3804.6
831.09	3827.2
831.417	3765.06
831.743	3781.33
832.069	3786.52
832.395	3775
832.722	3786.3
833.048	3784.04
833.374	3771.84
833.7	3799.63
834.026	3765.73
834.351	3745.62
834.677	3786.3
835.003	3778.84
835.329	3756.92
835.654	3757.37
835.98	3750.82
836.306	3739.07
836.631	3728.9
836.956	3739.52
837.282	3762.8
837.607	3718.05
837.932	3709.69
838.258	3712.18
838.583	3733.64
838.908	3690.48
839.233	3707.88
839.558	3704.72
839.883	3713.76
840.208	3659.3
840.533	3645.96
840.858	3693.65
841.182	3648.9
841.507	3694.32
841.832	3662.91
842.156	3657.26
842.481	3640.09
842.805	3656.36
843.13	3638.73
843.454	3624.04
843.778	3618.39
844.103	3593.08
844.427	3611.39
844.751	3606.64
845.075	3587.21
845.399	3592.18
845.723	3577.94
846.047	3558.06
846.371	3532.29
846.695	3520.32
847.019	3545.4
847.343	3522.8
847.666	3513.54
847.99	3461.34
848.313	3481.45
848.637	3431.28
848.96	3438.96
849.284	3431.96
849.607	3427.66
849.931	3390.38
850.254	3422.24
850.577	3414.78
850.9	3370.26
851.223	3382.02
851.546	3353.09
851.869	3346.31
852.192	3326.88
852.515	3285.97
852.838	3289.14
853.161	3244.39
853.483	3283.26
853.806	3248.91
854.129	3251.4
854.451	3285.75
854.774	3256.82
855.096	3266.76
855.419	3217.73
855.741	3231.51
856.063	3241.68
856.385	3185.64
856.708	3180.89
857.03	3171.63
857.352	3193.32
857.674	3188.35
857.996	3139.08
858.318	3145.64
858.64	3170.27
858.961	3165.07
859.283	3115.81
859.605	3143.15
859.926	3119.65
860.248	3084.85
860.57	3114.45
860.891	3084.62
861.212	3081.68
861.534	3053.66
861.855	3081.68
862.176	3109.03
862.498	3062.25
862.819	3112.19
863.14	3049.14
863.461	3032.65
863.782	3052.98
864.103	3026.77
864.424	2993.78
864.745	3021.12
865.065	3038.07
865.386	3012.08
865.707	3025.41
866.027	3021.12
866.348	2978.41
866.668	2983.83
866.989	3001.69
867.309	2969.6
867.63	3003.95
867.95	2965.53
868.27	2972.99
868.59	2976.38
868.91	2966.89
869.23	2944.74
869.55	2950.39
869.87	2958.3
870.19	2964.63
870.51	2962.82
870.83	2953.1
871.15	2918.07
871.469	2968.92
871.789	2960.56
872.109	2956.26
872.428	2922.59
872.748	2896.38
873.067	2903.61
873.386	2921.24
873.706	2919.2
874.025	2902.93
874.344	2898.64
874.663	2862.03
874.982	2877.17
875.301	2875.59
875.62	2924.63
875.939	2863.61
876.258	2891.86
876.577	2899.54
876.896	2890.73
877.214	2824.74
877.533	2841.24
877.852	2836.27
878.17	2855.48
878.489	2847.57
878.807	2846.21
879.125	2826.78
879.444	2875.59
879.762	2803.05
880.08	2843.5
880.398	2789.04
880.716	2802.37
881.034	2783.84
881.352	2803.95
881.67	2793.33
881.988	2814.8
882.306	2782.71
882.624	2804.63
882.941	2761.92
883.259	2753.33
883.577	2735.48
883.894	2748.81
884.212	2693.45
884.529	2720.34
884.846	2729.15
885.164	2728.47
885.481	2730.73
885.798	2734.8
886.115	2705.65
886.432	2696.84
886.75	2683.05
887.067	2708.59
887.383	2721.92
887.7	2696.16
888.017	2681.92
888.334	2734.35
888.651	2676.05
888.967	2692.99
889.284	2642.15
889.6	2624.97
889.917	2627.69
890.233	2608.7
890.55	2579.78
890.866	2619.1
891.182	2636.05
891.498	2605.76
891.815	2597.63
892.131	2549.72
892.447	2604.18
892.763	2585.88
893.079	2610.74
893.395	2547.24
893.71	2519.89
894.026	2514.02
894.342	2533
894.657	2536.39
894.973	2499.33
895.289	2474.69
895.604	2525.31
895.92	2508.59
896.235	2491.64
896.55	2486.22
896.865	2499.1
897.181	2469.5
897.496	2478.54
897.811	2497.07
898.126	2452.1
898.441	2454.36
898.756	2411.42
899.071	2440.57
899.386	2415.04
899.7	2460.46
900.015	2394.92
900.33	2361.48
900.644	2369.16
900.959	2373.23
901.273	2370.74
901.588	2357.18
901.902	2341.82
902.216	2345.66
902.531	2346.34
902.845	2331.42
903.159	2320.12
903.473	2309.28
903.787	2295.94
904.101	2308.15
904.415	2294.59
904.729	2288.03
905.042	2262.72
905.356	2262.72
905.67	2280.35
905.984	2238.77
906.297	2237.64
906.611	2262.72
906.924	2259.33
907.237	2238.77
907.551	2243.06
907.864	2236.28
908.177	2215.72
908.491	2232.44
908.804	2188.15
909.117	2165.1
909.43	2137.75
909.743	2144.53
910.056	2148.83
910.368	2106.12
910.681	2144.76
910.994	2139.34
911.307	2131.2
911.619	2101.82
911.932	2118.09
912.244	2085.55
912.557	2103.86
912.869	2094.82
913.181	2078.32
913.494	2057.76
913.806	2045.78
914.118	2041.26
914.43	2060.24
914.742	2055.5
915.054	2033.35
915.366	2025.44
915.678	2032.22
915.99	2033.8
916.302	2008.27
916.613	2012.33
916.925	1993.13
917.236	2018.89
917.548	1957.19
917.859	1961.94
918.171	1959.91
918.482	1959.68
918.794	1941.15
919.105	1959.23
919.416	1944.09
919.727	1912
920.038	1930.3
920.349	1918.55
920.66	1927.82
920.971	1920.36
921.282	1930.98
921.593	1907.03
921.903	1900.25
922.214	1919.91
922.525	1879
922.835	1872.45
923.146	1866.58
923.456	1858.44
923.767	1815.5
924.077	1850.08
924.387	1841.72
924.697	1814.6
925.008	1812.57
925.318	1836.97
925.628	1801.04
925.938	1803.98
926.248	1798.1
926.558	1774.6
926.867	1786.58
927.177	1787.71
927.487	1730.53
927.796	1762.17
928.106	1776.41
928.416	1757.65
928.725	1720.82
929.034	1736.18
929.344	1732.34
929.653	1759.23
929.962	1734.15
930.271	1733.02
930.581	1730.08
930.89	1687.82
931.199	1718.78
931.508	1715.62
931.817	1702.96
932.125	1686.92
932.434	1702.06
932.743	1654.6
933.051	1652.8
933.36	1647.15
933.669	1636.75
933.977	1644.66
934.286	1639.01
934.594	1652.8
934.902	1636.52
935.21	1646.47
935.519	1607.37
935.827	1596.75
936.135	1593.14
936.443	1589.07
936.751	1580.71
937.059	1600.59
937.367	1561.27
937.674	1579.35
937.982	1583.42
938.29	1567.37
938.597	1578.9
938.905	1540.48
939.213	1561.5
939.52	1551.1
939.827	1538.67
940.135	1544.55
940.442	1533.25
940.749	1552.91
941.056	1539.8
941.363	1520.6
941.67	1509.07
941.977	1519.69
942.284	1506.58
942.591	1538.45
942.898	1481.05
943.205	1500.26
943.511	1486.7
943.818	1479.47
944.125	1450.99
944.431	1468.85
944.738	1467.04
945.044	1456.42
945.35	1471.11
945.657	1443.99
945.963	1454.38
946.269	1422.97
946.575	1420.94
946.881	1408.06
947.187	1407.6
947.493	1408.51
947.799	1404.44
948.105	1403.76
948.41	1432.69
948.716	1399.02
949.022	1390.66
949.327	1380.26
949.633	1373.25
949.938	1379.36
950.244	1374.61
950.549	1377.32
950.854	1354.95
951.16	1358.34
951.465	1361.5
951.77	1309.75
952.075	1372.58
952.38	1312.47
952.685	1351.56
952.99	1316.31
953.294	1321.96
953.599	1319.92
953.904	1305.23
954.209	1320.37
954.513	1315.18
954.818	1295.52
955.122	1307.72
955.426	1300.26
955.731	1275.4
956.035	1296.19
956.339	1295.74
956.643	1276.31
956.948	1276.53
957.252	1273.14
957.556	1248.29
957.86	1263.65
958.163	1241.96
958.467	1251
958.771	1246.25
959.075	1231.79
959.378	1222.75
959.682	1228.63
959.985	1210.32
960.289	1240.15
960.592	1196.99
960.896	1216.87
961.199	1196.99
961.502	1214.16
961.805	1217.1
962.108	1199.93
962.411	1193.82
962.714	1178.91
963.017	1194.95
963.32	1203.09
963.623	1170.32
963.926	1159.7
964.228	1147.05
964.531	1143.66
964.833	1174.62
965.136	1134.84
965.438	1162.64
965.741	1135.07
966.043	1152.7
966.345	1145.24
966.648	1134.62
966.95	1126.03
967.252	1112.7
967.554	1131
967.856	1120.15
968.158	1124
968.46	1087.16
968.761	1107.95
969.063	1124
969.365	1100.72
969.666	1103.66
969.968	1088.97
970.269	1077.44
970.571	1103.66
970.872	1092.81
971.174	1080.16
971.475	1068.4
971.776	1061.17
972.077	1066.14
972.378	1055.98
972.679	1056.88
972.98	1059.14
973.281	1048.07
973.582	1021.85
973.883	1049.87
974.183	1048.52
974.484	1037.22
974.785	1045.81
975.085	1043.55
975.386	1055.3
975.686	1043.55
975.986	1022.3
976.287	990.44
976.587	1000.38
976.887	998.12
977.187	996.54
977.487	1017.11
977.787	1011
978.087	1004.68
978.387	990.21
978.687	997.45
978.987	966.03
979.286	987.73
979.586	971.01
979.885	967.39
980.185	994.96
980.484	951.57
980.784	955.41
981.083	950.44
981.382	990.21
981.682	967.16
981.981	976.2
982.28	962.19
982.579	946.83
982.878	935.3
983.177	947.96
983.475	938.46
983.774	935.75
984.073	927.39
984.372	926.26
984.67	917.45
984.969	949.31
985.267	925.58
985.566	918.58
985.864	917.22
986.162	929.42
986.461	894.4
986.759	927.84
987.057	894.85
987.355	914.51
987.653	895.98
987.951	911.35
988.249	894.4
988.547	893.95
988.844	887.17
989.142	878.13
989.44	867.96
989.737	892.82
990.035	884.68
990.332	861.4
990.63	830.9
990.927	864.12
991.224	851.23
991.521	871.57
991.819	872.93
992.116	839.94
992.413	835.19
992.71	858.92
993.006	837.22
993.303	849.88
993.6	843.1
993.897	825.47
994.193	839.94
994.49	816.89
994.787	829.09
995.083	804.68
995.379	822.31
995.676	816.66
995.972	805.59
996.268	808.3
996.565	809.65
996.861	806.49
997.157	821.18
997.453	790.22
997.749	814.17
998.044	799.48
998.34	803.78
998.636	788.64
998.932	793.38
999.227	815.76
999.523	792.25
999.818	783.44
1000.114	753.38
1000.409	768.75
1000.704	770.56
1001	777.79
1001.295	765.59
1001.59	746.6
1001.885	772.37
1002.18	778.02
1002.475	751.58
1002.77	747.51
1003.065	738.7
1003.359	764.68
1003.654	756.77
1003.949	726.27
1004.243	739.37
1004.538	736.66
1004.832	732.59
1005.127	739.15
1005.421	718.36
1005.715	734.18
1006.009	719.49
1006.304	712.26
1006.598	710.9
1006.892	710.9
1007.186	717
1007.48	717.68
1007.773	700.5
1008.067	717.68
1008.361	692.82
1008.655	711.58
1008.948	686.04
1009.242	685.14
1009.535	695.98
1009.829	677.45
1010.122	668.64
1010.415	678.58
1010.708	677.91
1011.001	667.74
1011.295	700.96
1011.588	655.53
1011.881	656.89
1012.173	665.02
1012.466	669.09
1012.759	681.3
1013.052	654.63
1013.344	668.87
1013.637	658.7
1013.93	629.09
1014.222	656.21
1014.514	646.49
1014.807	660.28
1015.099	658.7
1015.391	625.03
1015.683	629.09
1015.976	630.22
1016.268	634.97
1016.56	634.29
1016.851	628.87
1017.143	611.02
1017.435	624.12
1017.727	608.53
1018.018	616.21
1018.31	619.6
1018.602	597.68
1018.893	602.88
1019.185	615.53
1019.476	592.03
1019.767	580.96
1020.058	588.42
1020.35	568.76
1020.641	592.48
1020.932	590.22
1021.223	598.36
1021.514	600.39
1021.804	576.89
1022.095	577.12
1022.386	556.78
1022.677	576.67
1022.967	574.63
1023.258	558.59
1023.548	559.49
1023.839	545.71
1024.129	564.46
1024.419	529.89
1024.709	572.6
1025	562.2
1025.29	543.9
1025.58	553.62
1025.87	552.03
1026.16	551.58
1026.449	545.93
1026.739	558.81
1027.029	559.26
1027.319	538.7
1027.608	529.44
1027.898	525.37
1028.187	546.61
1028.477	532.82
1028.766	527.63
1029.055	521.3
1029.344	518.14
1029.634	543.22
1029.923	514.29
1030.212	517.46
1030.501	527.4
1030.79	526.72
1031.078	541.64
1031.367	528.31
1031.656	526.05
1031.945	514.29
1032.233	524.01
1032.522	507.51
1032.81	520.17
1033.099	509.32
1033.387	505.26
1033.675	493.05
1033.963	487.18
1034.251	497.12
1034.54	496.89
1034.828	486.95
1035.116	490.34
1035.403	493.05
1035.691	490.11
1035.979	489.21
1036.267	512.71
1036.554	467.06
1036.842	474.97
1037.129	493.73
1037.417	481.07
1037.704	470.91
1037.992	484.24
1038.279	471.13
1038.566	487.85
1038.853	487.85
1039.14	487.85
