Data from blue_clamp_base_FLMS001491_00046.txt Node
Date: Wed Feb 08 15:16:04 GMT 2017
User: dcchb
Spectrometer: FLMS00149
Trigger mode: 0
Integration Time (sec): 2.000000E-2
Scans to average: 10
Electric dark correction enabled: true
Nonlinearity correction enabled: false
Boxcar width: 0
XAxis mode: Wavelengths
Number of Pixels in Spectrum: 2048
>>>>>Begin Spectral Data<<<<<
341.393	9.69
341.776	9.69
342.16	9.69
342.543	-60.37
342.927	-72.12
343.31	-85.68
343.693	-68.95
344.077	-66.69
344.46	-52.23
344.843	-42.06
345.226	-37.09
345.61	-20.82
345.993	-29.18
346.376	-6.81
346.759	29.58
347.142	21.44
347.525	42.23
347.908	58.95
348.291	78.16
348.674	73.42
349.057	105.73
349.44	133.3
349.823	135.79
350.206	171.72
350.588	207.65
350.971	215.11
351.354	234.32
351.737	242.45
352.119	254.88
352.502	288.78
352.884	290.13
353.267	275.9
353.65	296.24
354.032	312.51
354.414	311.6
354.797	320.42
355.179	312.96
355.562	340.3
355.944	346.86
356.326	342.56
356.709	354.54
357.091	343.47
357.473	362.67
357.855	370.58
358.238	360.19
358.62	350.25
359.002	350.47
359.384	348.21
359.766	340.98
360.148	346.63
360.53	358.83
360.912	346.86
361.294	345.95
361.676	352.28
362.057	340.98
362.439	341.43
362.821	343.01
363.203	334.65
363.584	343.47
363.966	349.57
364.348	342.34
364.729	324.26
365.111	357.25
365.493	331.04
365.874	322
366.256	317.03
366.637	341.66
367.019	347.76
367.4	330.13
367.781	346.4
368.163	353.63
368.544	340.53
368.925	358.61
369.306	357.48
369.688	336.91
370.069	333.3
370.45	345.27
370.831	350.25
371.212	340.53
371.593	346.18
371.974	321.55
372.355	343.24
372.736	346.63
373.117	358.15
373.498	358.83
373.879	345.73
374.26	352.05
374.641	344.37
375.021	360.87
375.402	352.05
375.783	353.41
376.163	346.4
376.544	363.8
376.925	360.19
377.305	368.32
377.686	378.49
378.066	353.86
378.447	350.25
378.827	362.9
379.208	361.77
379.588	351.6
379.968	352.05
380.349	384.82
380.729	354.76
381.109	384.14
381.489	368.78
381.87	368.1
382.25	381.88
382.63	396.12
383.01	380.98
383.39	388.89
383.77	390.47
384.15	365.16
384.53	373.75
384.91	429.79
385.29	390.47
385.67	397.48
386.049	406.51
386.429	408.1
386.809	411.71
387.189	424.59
387.568	416.46
387.948	413.07
388.328	410.36
388.707	426.63
389.087	398.61
389.466	432.5
389.846	417.81
390.225	458.49
390.605	458.26
390.984	465.27
391.363	432.73
391.743	458.94
392.122	456.68
392.501	480.41
392.881	471.15
393.26	465.04
393.639	481.77
394.018	474.31
394.397	493.74
394.776	484.03
395.155	486.06
395.534	503.01
395.913	494.2
396.292	489.45
396.671	495.55
397.05	515.89
397.429	524.25
397.808	517.47
398.186	507.3
398.565	519.51
398.944	538.26
399.323	532.39
399.701	530.58
400.08	554.76
400.458	558.6
400.837	594.53
401.215	574.87
401.594	563.35
401.972	565.38
402.351	593.85
402.729	601.76
403.107	612.39
403.486	593.85
403.864	618.49
404.242	623.01
404.62	620.29
404.999	624.36
405.377	640.41
405.755	651.71
406.133	652.38
406.511	664.81
406.889	660.52
407.267	659.39
407.645	671.82
408.023	692.16
408.401	698.48
408.779	708.2
409.156	721.53
409.534	717.92
409.912	736.45
410.29	756.79
410.667	757.01
411.045	757.47
411.422	766.51
411.8	775.54
412.178	770.12
412.555	796.56
412.933	815.09
413.31	806.73
413.687	835.43
414.065	834.98
414.442	863.23
414.819	850.12
415.197	868.88
415.574	863.9
415.951	888.76
416.328	900.29
416.705	926.28
417.082	922.66
417.46	918.37
417.837	917.01
418.214	952.04
418.591	940.06
418.967	946.16
419.344	956.56
419.721	956.1
420.098	954.07
420.475	983.45
420.852	994.97
421.228	1000.4
421.605	1013.73
421.982	1012.83
422.358	1027.74
422.735	1049.44
423.111	1072.71
423.488	1087.4
423.864	1060.06
424.241	1082.2
424.617	1093.5
424.994	1095.99
425.37	1131.24
425.746	1134.41
426.123	1150
426.499	1162.88
426.875	1152.48
427.251	1182.99
427.627	1174.18
428.003	1216.89
428.379	1231.8
428.756	1255.76
429.132	1271.35
429.507	1319.49
429.883	1304.34
430.259	1319.49
430.635	1318.58
431.011	1336.43
431.387	1377.79
431.763	1396.55
432.138	1413.04
432.514	1427.28
432.89	1434.28
433.265	1470.44
433.641	1489.42
434.016	1490.78
434.392	1534.62
434.767	1512.7
435.143	1547.5
435.518	1569.2
435.894	1585.92
436.269	1618.23
436.644	1627.95
437.02	1614.62
437.395	1636.31
437.77	1663.2
438.145	1675.63
438.52	1701.85
438.895	1709.76
439.271	1749.53
439.646	1782.98
440.021	1771
440.395	1781.85
440.77	1782.75
441.145	1836.08
441.52	1833.6
441.895	1866.82
442.27	1888.74
442.645	1885.57
443.019	1923.76
443.394	1925.12
443.769	1926.47
444.143	1929.41
444.518	1956.76
444.892	1926.7
445.267	1957.21
445.641	1981.39
446.016	2008.51
446.39	2030.2
446.764	1991.78
447.139	2051.9
447.513	2060.26
447.887	2077.43
448.262	2072.46
448.636	2111.78
449.01	2128.05
449.384	2146.36
449.758	2179.12
450.132	2168.5
450.506	2212.12
450.88	2208.73
451.254	2188.84
451.628	2218.44
452.002	2295.73
452.376	2313.81
452.75	2324.43
453.123	2313.36
453.497	2361.72
453.871	2357.65
454.244	2447.82
454.618	2442.17
454.992	2485.78
455.365	2471.77
455.739	2586.8
456.112	2558.77
456.486	2571.43
456.859	2601.03
457.232	2626.34
457.606	2652.33
457.979	2680.58
458.352	2722.84
458.725	2744.08
459.099	2755.38
459.472	2820.69
459.845	2862.72
460.218	2909.05
460.591	2863.85
460.964	2892.33
461.337	2962.61
461.71	2996.05
462.083	3047.8
462.456	3047.35
462.829	3029.5
463.201	3104.75
463.574	3101.81
463.947	3139.32
464.32	3240.34
464.692	3262.03
465.065	3269.72
465.438	3330.28
465.81	3357.62
466.183	3389.71
466.555	3464.51
466.928	3466.55
467.3	3455.02
467.672	3500.22
468.045	3619.54
468.417	3602.14
468.789	3620.89
469.161	3640.33
469.534	3724.85
469.906	3763.71
470.278	3868.8
470.65	3856.37
471.022	3915.8
471.394	3982.24
471.766	4005.97
472.138	4038.74
472.51	4132.29
472.882	4180.88
473.253	4204.83
473.625	4243.48
473.997	4357.15
474.369	4329.12
474.74	4388.1
475.112	4463.13
475.484	4537.48
475.855	4589.68
476.227	4641.43
476.598	4746.74
476.97	4739.73
477.341	4845.49
477.713	4924.81
478.084	4901.99
478.455	5040.07
478.827	5059.27
479.198	5176.56
479.569	5200.74
479.94	5365.25
480.311	5291.58
480.682	5463.78
481.053	5525.7
481.424	5611.35
481.795	5670.78
482.166	5681.63
482.537	5790.55
482.908	5832.59
483.279	5929.99
483.65	6009.31
484.021	6048.63
484.391	6184.44
484.762	6107.83
485.133	6250.65
485.503	6292.46
485.874	6433.7
486.244	6387.15
486.615	6551.89
486.985	6562.29
487.356	6658.55
487.726	6694.71
488.097	6856.74
488.467	6816.29
488.837	6918.21
489.207	7007.25
489.578	7081.59
489.948	7139.22
490.318	7116.62
490.688	7229.84
491.058	7291.53
491.428	7300.8
491.798	7414.01
492.168	7427.12
492.538	7463.28
492.908	7532.43
493.278	7594.8
493.648	7602.48
494.017	7693.78
494.387	7690.17
494.757	7771.52
495.126	7831.86
495.496	7832.76
495.866	7927.45
496.235	7943.94
496.605	8018.74
496.974	7969.71
497.344	8057.16
497.713	8037.73
498.082	8096.93
498.452	8147.55
498.821	8148.91
499.19	8152.53
499.559	8291.96
499.928	8250.83
500.298	8273.2
500.667	8371.05
501.036	8323.37
501.405	8392.07
501.774	8374.89
502.143	8422.8
502.512	8415.12
502.88	8524.49
503.249	8464.61
503.618	8507.54
503.987	8535.79
504.356	8646.07
504.724	8603.81
505.093	8682.46
505.462	8681.1
505.83	8657.37
506.199	8729.01
506.567	8804.71
506.936	8788.89
507.304	8840.87
507.672	8868.67
508.041	8869.57
508.409	8984.14
508.777	8982.33
509.145	9000.64
509.514	9058.72
509.882	9065.72
510.25	9026.18
510.618	9065.04
510.986	9159.96
511.354	9194.98
511.722	9260.52
512.09	9248.09
512.458	9257.36
512.826	9285.6
513.193	9350.46
513.561	9362.66
513.929	9367.64
514.297	9474.07
514.664	9514.07
515.032	9530.12
515.4	9558.36
515.767	9547.97
516.135	9615.76
516.502	9544.13
516.869	9693.95
517.237	9751.13
517.604	9664.8
517.972	9741.86
518.339	9766.72
518.706	9750.68
519.073	9711.58
519.44	9869.77
519.808	9927.17
520.175	9958.13
520.542	10035.41
520.909	10060.95
521.276	10028.41
521.643	10128.07
522.009	10148.18
522.376	10175.3
522.743	10211.23
523.11	10342.07
523.477	10306.82
523.843	10441.28
524.21	10506.59
524.577	10522.86
524.943	10538
525.31	10521.05
525.676	10684.89
526.043	10684.44
526.409	10776.41
526.776	10757.65
527.142	10744.55
527.508	10891.89
527.874	10887.6
528.241	10936.41
528.607	10982.06
528.973	11068.61
529.339	11041.26
529.705	11117.42
530.071	11260.24
530.437	11254.82
530.803	11342.95
531.169	11380.92
531.535	11307.7
531.901	11440.12
532.267	11344.31
532.632	11514.25
532.998	11456.39
533.364	11530.52
533.73	11626.56
534.095	11724.41
534.461	11780.45
534.826	11784.52
535.192	11765.99
535.557	11808.7
535.923	11888.25
536.288	11935.25
536.653	11950.17
537.019	11936.16
537.384	11941.35
537.749	12023.38
538.114	12047.56
538.479	12063.16
538.845	12078.75
539.21	12094.57
539.575	12221.12
539.94	12127.56
540.305	12258.18
540.67	12208.46
541.034	12313.77
541.399	12344.51
541.764	12297.73
542.129	12412.3
542.494	12505.86
542.858	12479.42
543.223	12517.61
543.587	12615.91
543.952	12522.35
544.316	12571.62
544.681	12598.06
545.045	12665.4
545.41	12676.93
545.774	12712.41
546.138	12748.79
546.503	12677.83
546.867	12809.35
547.231	12885.51
547.595	12888.9
547.959	12944.26
548.324	12866.98
548.688	13013.41
549.052	12956.47
549.416	12995.79
549.779	13006.41
550.143	13058.16
550.507	13060.87
550.871	13116.46
551.235	13127.31
551.599	13195.78
551.962	13261.54
552.326	13287.98
552.689	13376.12
553.053	13241.88
553.417	13386.29
553.78	13457.25
554.143	13408.66
554.507	13452.27
554.87	13521.2
555.234	13633.29
555.597	13503.8
555.96	13592.16
556.323	13624.02
556.686	13633.74
557.05	13699.95
557.413	13779.04
557.776	13788.76
558.139	13834.64
558.502	13826.05
558.865	13913.5
559.228	13991.92
559.59	14052.71
559.953	14034.4
560.316	14106.04
560.679	14106.27
561.041	14207.28
561.404	14252.93
561.767	14346.94
562.129	14276.21
562.492	14376.54
562.854	14321.18
563.217	14388.29
563.579	14440.72
563.941	14561.4
564.304	14542.19
564.666	14607.27
565.028	14717.55
565.39	14711.9
565.753	14799.13
566.115	14911.67
566.477	14908.05
566.839	15075.28
567.201	15047.26
567.563	15086.81
567.925	15188.95
568.287	15144.21
568.648	15228.72
569.01	15348.49
569.372	15391.21
569.734	15357.08
570.095	15459.23
570.457	15440.7
570.819	15510.07
571.18	15527.7
571.542	15594.14
571.903	15618.77
572.265	15732.21
572.626	15753.46
572.987	15920.68
573.349	15882.72
573.71	15920.68
574.071	16024.64
574.432	16057.85
574.794	16199.32
575.155	16137.85
575.516	16161.58
575.877	16214.46
576.238	16166.1
576.599	16297.4
576.96	16367.9
577.32	16366.77
577.681	16392.31
578.042	16447.45
578.403	16475.7
578.763	16448.58
579.124	16550.72
579.485	16603.6
579.845	16599.54
580.206	16622.13
580.566	16663.26
580.927	16648.12
581.287	16779.64
581.648	16642.7
582.008	16707.78
582.368	16750.94
582.728	16798.4
583.089	16631.62
583.449	16641.57
583.809	16712.07
584.169	16845.86
584.529	16790.26
584.889	16922.24
585.249	16779.64
585.609	16709.14
585.969	16935.12
586.329	16917.49
586.688	16855.35
587.048	16882.01
587.408	16857.83
587.768	16913.88
588.127	16922.01
588.487	16886.76
588.846	17008.11
589.206	16883.82
589.565	16920.43
589.925	16979.86
590.284	16974.67
590.643	17034.78
591.003	17017.6
591.362	17072.52
591.721	17110.48
592.08	17121.33
592.44	17073.42
592.799	17087.43
593.158	17085.4
593.517	17103.02
593.876	17046.98
594.235	17087.88
594.593	17093.99
594.952	17101.67
595.311	17082.46
595.67	17180.76
596.029	17146.41
596.387	17230.25
596.746	17347.99
597.104	17231.38
597.463	17178.96
597.822	17253.53
598.18	17136.7
598.538	17209.46
598.897	17334.43
599.255	17255.79
599.613	17415.79
599.972	17268.9
600.33	17392.51
600.688	17284.94
601.046	17364.71
601.404	17395.45
601.762	17404.94
602.12	17423.02
602.478	17308.44
602.836	17402.45
603.194	17270.93
603.552	17443.13
603.91	17361.32
604.268	17452.62
604.625	17363.13
604.983	17471.6
605.341	17416.24
605.698	17542.11
606.056	17567.19
606.413	17484.48
606.771	17559.74
607.128	17637.7
607.485	17506.63
607.843	17532.62
608.2	17545.95
608.557	17711.37
608.914	17533.52
609.272	17703.69
609.629	17721.77
609.986	17697.13
610.343	17687.87
610.7	17782.78
611.057	17756.12
611.414	17792.5
611.771	17735.1
612.127	17791.14
612.484	17819.16
612.841	17823.23
613.198	17741.2
613.554	17899.61
613.911	17866.85
614.267	17952.49
614.624	17961.08
614.98	17969.22
615.337	18027.52
615.693	18004.47
616.05	17988.2
616.406	18136.9
616.762	18017.58
617.118	18015.77
617.475	18073.17
617.831	18173.51
618.187	18156.78
618.543	18116.11
618.899	18246.05
619.255	18236.1
619.611	18166.05
619.967	18321.98
620.323	18273.39
620.678	18227.74
621.034	18210.79
621.39	18166.73
621.746	18199.04
622.101	18435.42
622.457	18285.14
622.812	18353.16
623.168	18395.42
623.523	18456.89
623.879	18533.27
624.234	18345.7
624.589	18437
624.945	18427.96
625.3	18467.73
625.655	18456.89
626.01	18432.93
626.365	18544.57
626.72	18488.75
627.075	18507.28
627.43	18500.5
627.785	18483.55
628.14	18475.64
628.495	18478.36
628.85	18515.19
629.205	18531.46
629.559	18578.24
629.914	18526.94
630.269	18661.63
630.623	18501.18
630.978	18583.21
631.332	18550.9
631.687	18618.01
632.041	18521.52
632.396	18660.27
632.75	18574.4
633.104	18642.65
633.459	18668.86
633.813	18542.31
634.167	18621.85
634.521	18624.79
634.875	18590.9
635.229	18678.12
635.583	18532.14
635.937	18506.15
636.291	18640.84
636.645	18680.61
636.999	18545.7
637.352	18705.02
637.706	18689.65
638.06	18719.48
638.413	18687.16
638.767	18528.52
639.121	18739.37
639.474	18622.98
639.828	18618.92
640.181	18703.21
640.534	18682.19
640.888	18586.15
641.241	18568.98
641.594	18559.03
641.947	18674.28
642.301	18674.51
642.654	18627.5
643.007	18690.78
643.36	18730.78
643.713	18721.97
644.066	18833.15
644.419	18625.7
644.771	18565.13
645.124	18328.53
645.477	18427.51
645.83	18279.49
646.182	18246.05
646.535	18208.08
646.888	18283.33
647.24	18306.38
647.593	18423.89
647.945	18433.39
648.298	18437.45
648.65	18435.42
649.002	18270.23
649.355	18417.34
649.707	18339.83
650.059	18450.33
650.411	18730.55
650.763	18760.83
651.115	18962.41
651.467	18954.95
651.819	18873.15
652.171	19004.44
652.523	18991.11
652.875	18979.59
653.227	18919.47
653.578	18976.2
653.93	18952.92
654.282	18907.72
654.633	18875.18
654.985	18933.49
655.337	19034.27
655.688	19103.65
656.039	19029.98
656.391	18980.49
656.742	19061.62
657.094	19053.71
657.445	19117.89
657.796	19047.38
658.147	19015.97
658.498	19001.28
658.849	19138
659.2	19100.71
659.551	18938
659.902	19074.72
660.253	19108.62
660.604	19141.39
660.955	19078.34
661.306	19144.33
661.656	19109.07
662.007	19144.78
662.358	19166.7
662.708	19202.18
663.059	19108.17
663.409	19023.88
663.76	19199.69
664.11	19140.26
664.461	19162.41
664.811	19184.78
665.161	19144.33
665.511	19122.41
665.862	19142.75
666.212	19175.06
666.562	19295.06
666.912	19197.89
667.262	19176.87
667.612	19123.99
667.962	19162.18
668.312	19072.01
668.662	19219.81
669.011	19125.8
669.361	19159.92
669.711	19121.73
670.06	19126.93
670.41	19014.61
670.76	18954.95
671.109	18945.01
671.459	18919.47
671.808	19036.76
672.157	19011.68
672.507	18848.74
672.856	18816.65
673.205	18820.04
673.554	18891.23
673.904	18833.37
674.253	18893.94
674.602	18718.58
674.951	18474.97
675.3	18381.64
675.649	18658.92
675.998	18606.04
676.346	18659.82
676.695	18702.98
677.044	18492.82
677.393	18452.82
677.741	18526.26
678.09	18501.86
678.438	18379.6
678.787	18407.4
679.135	18420.96
679.484	18251.7
679.832	18412.82
680.181	18250.11
680.529	18247.18
680.877	18084.02
681.225	18123.34
681.573	18250.34
681.922	17991.14
682.27	18047.86
682.618	18165.37
682.966	18020.97
683.314	18036.11
683.661	18000.85
684.009	17877.24
684.357	17852.84
684.705	17763.35
685.053	17763.12
685.4	17928.99
685.748	17695.33
686.095	17750.01
686.443	17662.33
686.79	17661.88
687.138	17686.29
687.485	17595.89
687.832	17630.69
688.18	17603.58
688.527	17458.72
688.874	17459.17
689.221	17538.95
689.568	17378.72
689.915	17407.88
690.262	17419.63
690.609	17342.34
690.956	17291.72
691.303	17348.22
691.65	17138.96
691.997	17260.31
692.344	17101.67
692.69	17163.14
693.037	17271.16
693.383	16966.08
693.73	17139.41
694.077	17005.63
694.423	17033.2
694.769	16947.77
695.116	16874.1
695.462	16912.97
695.808	16818.51
696.155	16907.78
696.501	16792.52
696.847	16757.5
697.193	16690.61
697.539	16762.69
697.885	16742.58
698.231	16642.02
698.577	16646.77
698.923	16625.52
699.269	16600.67
699.614	16539.42
699.96	16518.63
700.306	16556.6
700.651	16422.59
700.997	16367.45
701.342	16394.34
701.688	16430.5
702.033	16324.74
702.379	16459.65
702.724	16343.04
703.069	16369.26
703.415	16197.96
703.76	16285.42
704.105	16179.21
704.45	16173.11
704.795	16107.8
705.14	16115.25
705.485	16081.36
705.83	16103.73
706.175	16035.03
706.52	16068.7
706.865	16100.11
707.209	16109.6
707.554	16016.5
707.899	16011.98
708.243	15915.71
708.588	15956.39
708.932	15825.09
709.277	15831.19
709.621	15833.91
709.966	15771.08
710.31	15782.83
710.654	15702.38
710.998	15783.06
711.342	15876.39
711.687	15773.34
712.031	15698.54
712.375	15711.2
712.719	15745.32
713.063	15716.62
713.407	15799.33
713.75	15657.19
714.094	15619
714.438	15627.13
714.782	15674.59
715.125	15672.55
715.469	15565.21
715.812	15614.93
716.156	15496.97
716.499	15506.68
716.843	15505.1
717.186	15526.34
717.53	15570.86
717.873	15531.77
718.216	15488.83
718.559	15486.8
718.902	15369.96
719.246	15513.24
719.589	15355.95
719.932	15353.47
720.275	15437.31
720.617	15275.05
720.96	15317.99
721.303	15368.61
721.646	15317.08
721.989	15277.76
722.331	15315.95
722.674	15275.28
723.016	15359.57
723.359	15301.72
723.701	15345.33
724.044	15231.44
724.386	15173.36
724.729	15335.16
725.071	15270.53
725.413	15174.26
725.755	15297.65
726.097	15228.5
726.439	15113.7
726.782	15159.8
727.124	15264.88
727.465	15148.73
727.807	15148.05
728.149	15169.74
728.491	15099.46
728.833	15137.65
729.175	15123.19
729.516	15171.1
729.858	15101.27
730.199	15115.73
730.541	15115.05
730.882	15165.9
731.224	15220.36
731.565	15085
731.906	15170.19
732.248	15226.01
732.589	15100.37
732.93	15056.3
733.271	15096.52
733.612	15176.52
733.953	15202.28
734.294	15188.72
734.635	15138.78
734.976	15138.33
735.317	15162.96
735.658	15196.18
735.999	15186.01
736.339	15262.85
736.68	15245.22
737.021	15155.96
737.361	15203.87
737.702	15308.27
738.042	15219.91
738.383	15329.74
738.723	15312.34
739.063	15270.76
739.404	15347.59
739.744	15422.17
740.084	15292.68
740.424	15407.93
740.764	15347.59
741.104	15404.54
741.444	15308.04
741.784	15354.6
742.124	15456.97
742.464	15457.87
742.804	15444.99
743.143	15444.99
743.483	15510.75
743.823	15496.97
744.162	15512.56
744.502	15573.57
744.841	15581.26
745.181	15708.71
745.52	15637.75
745.86	15679.79
746.199	15813.79
746.538	15679.33
746.877	15772.44
747.216	15816.96
747.556	15872.32
747.895	15873.23
748.234	15807.47
748.573	15913.45
748.911	15934.02
749.25	15912.1
749.589	15944.86
749.928	15974.02
750.267	16081.36
750.605	16052.66
750.944	16015.37
751.283	15993.22
751.621	16128.59
751.96	16036.61
752.298	16084.75
752.636	16135.59
752.975	16040.68
753.313	16147.8
753.651	16222.6
753.989	16228.25
754.327	16272.54
754.666	16193.44
755.004	16235.48
755.342	16236.83
755.679	16345.3
756.017	16290.16
756.355	16346.89
756.693	16293.55
757.031	16386.21
757.368	16319.77
757.706	16412.87
758.044	16412.42
758.381	16431.86
758.719	16343.95
759.056	16543.72
759.394	16550.95
759.731	16491.97
760.068	16567.9
760.405	16558.63
760.743	16549.82
761.08	16572.87
761.417	16535.58
761.754	16608.35
762.091	16702.58
762.428	16565.86
762.765	16570.84
763.102	16677.05
763.438	16614.22
763.775	16576.03
764.112	16674.56
764.449	16684.05
764.785	16616.03
765.122	16548.69
765.458	16619.2
765.795	16676.6
766.131	16661
766.467	16549.37
766.804	16614
767.14	16621.23
767.476	16647.9
767.812	16657.16
768.148	16720.44
768.485	16482.25
768.821	16553.66
769.157	16573.32
769.492	16518.41
769.828	16546.43
770.164	16505.3
770.5	16363.16
770.836	16495.36
771.171	16519.54
771.507	16449.03
771.842	16437.73
772.178	16428.24
772.513	16423.72
772.849	16412.87
773.184	16447.9
773.519	16521.35
773.855	16387.56
774.19	16341.91
774.525	16409.48
774.86	16411.29
775.195	16376.26
775.53	16369.48
775.865	16293.1
776.2	16250.84
776.535	16224.4
776.87	16244.97
777.205	16188.92
777.539	16152.99
777.874	16204.52
778.209	16197.06
778.543	16153.9
778.878	16123.39
779.212	16150.73
779.547	16152.32
779.881	16152.32
780.215	16072.32
780.55	16244.29
780.884	16110.73
781.218	15970.17
781.552	15990.29
781.886	16007.46
782.22	15893.57
782.554	15937.18
782.888	15864.64
783.222	15814.92
783.556	15833.45
783.889	15841.82
784.223	15706.45
784.557	15789.39
784.89	15760.01
785.224	15661.25
785.557	15653.35
785.891	15719.33
786.224	15656.74
786.558	15677.07
786.891	15584.87
787.224	15608.15
787.557	15575.38
787.891	15586.68
788.224	15598.66
788.557	15557.53
788.89	15547.13
789.223	15580.81
789.556	15322.28
789.888	15420.36
790.221	15367.25
790.554	15233.47
790.887	15316.86
791.219	15259.01
791.552	15309.4
791.884	15177.2
792.217	15227.14
792.549	15176.52
792.882	15121.83
793.214	15001.61
793.546	15191.89
793.879	14962.52
794.211	14992.8
794.543	15042.06
794.875	14993.02
795.207	15138.1
795.539	15009.75
795.871	15033.47
796.203	14882.52
796.535	14824.67
796.867	14877.09
797.198	14859.47
797.53	14846.36
797.862	14812.01
798.193	14856.53
798.525	14699.47
798.856	14766.14
799.188	14700.6
799.519	14590.55
799.85	14509.42
800.182	14490.66
800.513	14544.22
800.844	14522.98
801.175	14612.24
801.506	14520.04
801.837	14496.09
802.168	14439.59
802.499	14472.13
802.83	14398.92
803.161	14365.47
803.491	14417.9
803.822	14393.49
804.153	14284.79
804.483	14222.87
804.814	14132.03
805.145	14219.26
805.475	14263.78
805.805	14181.29
806.136	14143.55
806.466	14151.46
806.796	14182.2
807.126	14108.98
807.457	14026.95
807.787	13949.66
808.117	13971.13
808.447	13908.31
808.777	14045.03
809.107	13929.77
809.436	13850
809.766	13992.37
810.096	13897.91
810.426	13809.33
810.755	13719.84
811.085	13824.24
811.414	13797.35
811.744	13729.55
812.073	13710.12
812.403	13715.77
812.732	13600.29
813.061	13699.05
813.39	13583.12
813.719	13557.81
814.049	13613.17
814.378	13640.07
814.707	13559.62
815.036	13514.87
815.365	13469
815.693	13367.53
816.022	13454.99
816.351	13343.58
816.68	13331.6
817.008	13439.39
817.337	13230.13
817.665	13303.12
817.994	13350.58
818.322	13229.45
818.651	13171.38
818.979	13098.16
819.307	13222.45
819.636	13189.46
819.964	13125.95
820.292	13161.89
820.62	13104.49
820.948	13122.34
821.276	13064.04
821.604	13127.76
821.932	13154.43
822.259	13118.5
822.587	13129.8
822.915	13128.21
823.243	13141.1
823.57	13099.06
823.898	13069.23
824.225	13142
824.553	13083.02
824.88	13126.41
825.207	13194.88
825.535	12986.97
825.862	13136.58
826.189	13023.13
826.516	13084.15
826.843	13237.59
827.17	13172.28
827.497	13249.34
827.824	13134.54
828.151	13249.34
828.478	13226.97
828.805	13278.49
829.131	13229
829.458	13216.57
829.785	13180.42
830.111	13158.04
830.438	13203.69
830.764	13242.56
831.09	13200.3
831.417	13209.57
831.743	13222.45
832.069	13197.59
832.395	13108.78
832.722	13155.56
833.048	13138.38
833.374	13164.37
833.7	13158.95
834.026	13138.84
834.351	13143.58
834.677	13154.2
835.003	13174.77
835.329	13150.59
835.654	13113.53
835.98	13076.92
836.306	13138.16
836.631	13103.81
836.956	13151.26
837.282	13120.53
837.607	13026.75
837.932	13031.27
838.258	13042.11
838.583	12977.71
838.908	12857.26
839.233	12997.14
839.558	12945.17
839.883	12868.79
840.208	12870.59
840.533	12903.59
840.858	12842.8
841.182	12895.45
841.507	12828.56
841.832	12781.78
842.156	12690.49
842.481	12803.02
842.805	12788.79
843.13	12754.21
843.454	12619.53
843.778	12662.01
844.103	12635.8
844.427	12661.79
844.751	12553.09
845.075	12565.29
845.399	12556.7
845.723	12378.63
846.047	12516.25
846.371	12426.99
846.695	12429.02
847.019	12349.7
847.343	12360.78
847.666	12235.13
847.99	12141.35
848.313	12083.27
848.637	12049.82
848.96	12074.68
849.284	11981.8
849.607	11969.6
849.931	11960.56
850.254	11810.28
850.577	11741.58
850.9	11707.91
851.223	11752.43
851.546	11684.86
851.869	11648.48
852.192	11615.94
852.515	11542.04
852.838	11455.94
853.161	11427.69
853.483	11389.05
853.806	11334.14
854.129	11360.35
854.451	11348.15
854.774	11312.67
855.096	11297.75
855.419	11202.39
855.741	11136.85
856.063	11070.19
856.385	11126.68
856.708	11112.67
857.03	11009.17
857.352	11013.24
857.674	10994.26
857.996	10931.66
858.318	10925.33
858.64	10912
858.961	10877.2
859.283	10795.17
859.605	10803.3
859.926	10819.57
860.248	10774.6
860.57	10728.96
860.891	10777.77
861.212	10676.3
861.534	10741.61
861.855	10674.27
862.176	10654.83
862.498	10608.28
862.819	10625.23
863.14	10564.89
863.461	10563.08
863.782	10587.04
864.103	10477.44
864.424	10520.37
864.745	10583.2
865.065	10479.47
865.386	10405.35
865.707	10469.75
866.027	10354.28
866.348	10420.49
866.668	10445.12
866.989	10398.12
867.309	10316.76
867.63	10249.42
867.95	10358.34
868.27	10257.1
868.59	10265.46
868.91	10251.91
869.23	10255.3
869.55	10139.82
869.87	10198.35
870.19	10183.66
870.51	10234.28
870.83	10228.18
871.15	10110.21
871.469	10079.48
871.789	10118.8
872.109	10107.95
872.428	9972.36
872.748	10048.07
873.067	10047.62
873.386	10086.71
873.706	10030.67
874.025	9969.88
874.344	9888.3
874.663	9997
874.982	9893.95
875.301	9976.21
875.62	9898.24
875.939	9906.38
876.258	9867.73
876.577	9933.72
876.896	9933.95
877.214	9851.24
877.533	9897.11
877.852	9824.8
878.17	9851.24
878.489	9818.7
878.807	9756.1
879.125	9714.97
879.444	9793.61
879.762	9711.58
880.08	9804.23
880.398	9666.16
880.716	9704.8
881.034	9761.52
881.352	9689.66
881.67	9655.09
881.988	9657.57
882.306	9533.51
882.624	9578.7
882.941	9531.7
883.259	9472.27
883.577	9518.59
883.894	9494.86
884.212	9464.81
884.529	9462.77
884.846	9434.07
885.164	9418.48
885.481	9375.77
885.798	9388.2
886.115	9336.9
886.432	9352.27
886.75	9339.16
887.067	9297.58
887.383	9225.49
887.7	9288.32
888.017	9240.18
888.334	9207.41
888.651	9201.09
888.967	9167.64
889.284	9066.63
889.6	9131.03
889.917	9039.51
890.233	9089.68
890.55	9003.12
890.866	9034.99
891.182	8945.5
891.498	8963.13
891.815	8912.96
892.131	8878.61
892.447	8898.95
892.763	8890.36
893.079	8803.58
893.395	8736.47
893.71	8782.34
894.026	8771.72
894.342	8732.17
894.657	8631.38
894.973	8662.34
895.289	8680.87
895.604	8658.73
895.92	8540.09
896.235	8579.41
896.55	8593.19
896.865	8526.98
897.181	8435
897.496	8454.44
897.811	8436.81
898.126	8378.06
898.441	8412.63
898.756	8389.81
899.071	8335.12
899.386	8284.95
899.7	8270.94
900.015	8250.6
900.33	8110.72
900.644	8134.45
900.959	8148.68
901.273	8139.19
901.588	8064.84
901.902	8051.74
902.216	8027.11
902.531	7995.47
902.845	7947.11
903.159	7917.28
903.473	7958.18
903.787	7865.53
904.101	7858.07
904.415	7793.21
904.729	7751.86
905.042	7730.84
905.356	7769.94
905.67	7700.56
905.984	7722.71
906.297	7631.64
906.611	7604.29
906.924	7550.06
907.237	7556.16
907.551	7519.77
907.864	7518.64
908.177	7411.3
908.491	7433.45
908.804	7435.03
909.117	7355.71
909.43	7304.41
909.743	7281.36
910.056	7322.72
910.368	7298.54
910.681	7280.01
910.994	7230.06
911.307	7169.05
911.619	7131.31
911.932	7144.87
912.244	7099.67
912.557	7047.7
912.869	7004.08
913.181	6981.03
913.494	6958.88
913.806	6909.17
914.118	6922.73
914.43	6866.68
914.742	6880.02
915.054	6859.23
915.366	6793.92
915.678	6760.02
915.99	6767.25
916.302	6677.54
916.613	6652
916.925	6669.17
917.236	6639.35
917.548	6579.23
917.859	6550.31
918.171	6570.42
918.482	6564.32
918.794	6527.94
919.105	6498.11
919.416	6429.18
919.727	6487.26
920.038	6371.1
920.349	6388.73
920.66	6349.64
920.971	6366.81
921.282	6309.86
921.593	6281.61
921.903	6204.33
922.214	6209.98
922.525	6234.61
922.835	6141.51
923.146	6155.97
923.456	6145.8
923.767	6100.15
924.077	6096.76
924.387	6016.54
924.697	6006.59
925.008	5963.88
925.318	5980.83
925.628	5962.53
925.938	5917.1
926.248	5860.16
926.558	5841.17
926.867	5871.46
927.177	5789.88
927.487	5803.89
927.796	5691.8
928.106	5727.5
928.416	5722.53
928.725	5701.29
929.034	5684.79
929.344	5673.49
929.653	5602.08
929.962	5580.16
930.271	5542.2
930.581	5502.43
930.89	5488.19
931.199	5498.58
931.508	5532.48
931.817	5452.03
932.125	5421.3
932.434	5440.96
932.743	5372.26
933.051	5328.65
933.36	5359.6
933.669	5334.07
933.977	5269.66
934.286	5264.69
934.594	5257.46
934.902	5223.79
935.21	5195.77
935.519	5177.24
935.827	5179.27
936.135	5101.98
936.443	5102.44
936.751	5062.66
937.059	5058.6
937.367	5043.68
937.674	5011.59
937.982	4979.5
938.29	4968.2
938.597	5035.77
938.905	4889.33
939.213	4869.22
939.52	4928.88
939.827	4869.45
940.135	4867.19
940.442	4844.82
940.749	4846.62
941.056	4803.46
941.363	4734.08
941.67	4780.19
941.977	4718.27
942.284	4711.03
942.591	4704.25
942.898	4639.17
943.205	4678.94
943.511	4646.63
943.818	4629.45
944.125	4557.14
944.431	4514.66
944.738	4545.84
945.044	4490.7
945.35	4522.11
945.657	4511.27
945.963	4482.11
946.269	4485.96
946.575	4431.04
946.881	4404.6
947.187	4418.39
947.493	4393.3
947.799	4387.2
948.105	4358.28
948.41	4331.16
948.716	4329.12
949.022	4303.59
949.327	4312.17
949.633	4240.31
949.938	4249.8
950.244	4248.67
950.549	4165.51
950.854	4131.61
951.16	4169.81
951.465	4116.02
951.77	4126.87
952.075	4129.81
952.38	4089.13
952.685	4046.42
952.99	3988.12
953.294	4003.26
953.599	4019.98
953.904	3997.38
954.209	3986.08
954.513	3949.47
954.818	3965.97
955.122	3958.51
955.426	3929.59
955.731	3899.98
956.035	3941.11
956.339	3837.84
956.643	3798.29
956.948	3856.37
957.252	3807.1
957.556	3835.58
957.86	3759.19
958.163	3787.67
958.467	3758.29
958.771	3723.04
959.075	3717.61
959.378	3704.28
959.682	3718.52
959.985	3685.75
960.289	3654.34
960.592	3652.08
960.896	3613.44
961.199	3617.05
961.502	3610.5
961.805	3615.24
962.108	3586.77
962.411	3539.31
962.714	3516.94
963.017	3547
963.32	3560.56
963.623	3475.36
963.926	3476.04
964.228	3471.29
964.531	3457.06
964.833	3434.01
965.136	3386.1
965.438	3364.4
965.741	3381.13
966.043	3416.15
966.345	3380.22
966.648	3384.97
966.95	3378.19
967.252	3316.04
967.554	3308.81
967.856	3275.14
968.158	3259.55
968.46	3255.48
968.761	3250.51
969.063	3219.1
969.365	3230.4
969.666	3218.87
969.968	3180
970.269	3131.19
970.571	3169.15
970.872	3134.13
971.174	3076.73
971.475	3152.88
971.776	3099.33
972.077	3075.15
972.378	3063.39
972.679	3042.38
972.98	3067.46
973.281	3058.65
973.582	3014.13
973.883	2993.79
974.183	2991.31
974.484	3011.87
974.785	2963.96
975.085	2990.18
975.386	2990.85
975.686	2930.74
975.986	2907.24
976.287	2885.77
976.587	2857.52
976.887	2858.88
977.187	2891.65
977.487	2827.24
977.787	2862.5
978.087	2823.4
978.387	2824.3
978.687	2797.86
978.987	2794.93
979.286	2788.6
979.586	2758.77
979.885	2761.71
980.185	2719.67
980.484	2689.17
980.784	2751.54
981.083	2747.92
981.382	2705.44
981.682	2675.83
981.981	2683.07
982.28	2669.51
982.579	2702.5
982.878	2668.15
983.177	2639
983.475	2648.04
983.774	2601.94
984.073	2606.46
984.372	2595.16
984.67	2584.76
984.969	2589.96
985.267	2550.41
985.566	2523.75
985.864	2530.53
986.162	2529.4
986.461	2476.52
986.759	2481.49
987.057	2476.74
987.355	2497.31
987.653	2472.45
987.951	2439.68
988.249	2434.48
988.547	2427.25
988.844	2421.38
989.142	2417.08
989.44	2420.25
989.737	2398.78
990.035	2371.21
990.332	2373.02
990.63	2334.37
990.927	2316.3
991.224	2337.54
991.521	2317.42
991.819	2308.16
992.116	2301.38
992.413	2264.09
992.71	2281.27
993.006	2262.29
993.303	2267.26
993.6	2222.96
993.897	2250.31
994.193	2232.68
994.49	2208.28
994.787	2180.25
995.083	2191.1
995.379	2161.04
995.676	2151.55
995.972	2187.26
996.268	2140.93
996.565	2111.33
996.861	2139.8
997.157	2107.26
997.453	2053.48
997.749	2123.53
998.044	2074.27
998.34	2039.69
998.636	2073.59
998.932	2094.38
999.227	2039.47
999.523	2061.16
999.818	2042.86
1000.114	1997.21
1000.409	2035.85
1000.704	2005.57
1001	1973.93
1001.295	1991.33
1001.59	1960.6
1001.885	1948.62
1002.18	1953.14
1002.475	1944.55
1002.77	1921.5
1003.065	1919.47
1003.359	1895.97
1003.654	1895.29
1003.949	1872.01
1004.243	1853.48
1004.538	1844.89
1004.832	1850.09
1005.127	1832.47
1005.421	1857.32
1005.715	1837.89
1006.009	1844.67
1006.304	1795.63
1006.598	1761.96
1006.892	1818.23
1007.186	1767.38
1007.48	1739.36
1007.773	1769.64
1008.067	1738.46
1008.361	1713.37
1008.655	1719.47
1008.948	1711.34
1009.242	1702.98
1009.535	1696.42
1009.829	1703.2
1010.122	1665.92
1010.415	1682.64
1010.708	1639.25
1011.001	1660.27
1011.295	1648.52
1011.588	1644.45
1011.881	1593.38
1012.173	1633.83
1012.466	1572.81
1012.759	1613.26
1013.052	1599.03
1013.344	1589.76
1013.637	1573.94
1013.93	1551.12
1014.222	1551.8
1014.514	1526.71
1014.807	1536.43
1015.099	1545.24
1015.391	1490.55
1015.683	1509.54
1015.976	1503.21
1016.268	1490.55
1016.56	1489.65
1016.851	1483.55
1017.143	1485.36
1017.435	1446.04
1017.727	1464.11
1018.018	1458.24
1018.31	1371.69
1018.602	1399.03
1018.893	1440.16
1019.185	1382.53
1019.476	1382.53
1019.767	1379.6
1020.058	1382.08
1020.35	1385.25
1020.641	1348.18
1020.932	1327.62
1021.223	1332.59
1021.514	1321.29
1021.804	1320.16
1022.095	1276.1
1022.386	1270.9
1022.677	1303.89
1022.967	1287.17
1023.258	1279.71
1023.548	1259.37
1023.839	1254.85
1024.129	1256.89
1024.419	1232.93
1024.709	1235.87
1025	1235.19
1025.29	1261.41
1025.58	1208.53
1025.87	1182.54
1026.16	1177.79
1026.449	1166.95
1026.739	1193.16
1027.029	1193.84
1027.319	1159.04
1027.608	1171.24
1027.898	1166.72
1028.187	1140.51
1028.477	1140.73
1028.766	1125.14
1029.055	1119.49
1029.344	1133.28
1029.634	1097.12
1029.923	1088.08
1030.212	1101.64
1030.501	1081.75
1030.79	1073.62
1031.078	1061.64
1031.367	1063.9
1031.656	1085.14
1031.945	1070
1032.233	1073.62
1032.522	1047.18
1032.81	1025.48
1033.099	1018.48
1033.387	1026.61
1033.675	1018.48
1033.963	997.69
1034.251	1001.08
1034.54	994.75
1034.828	998.14
1035.116	987.52
1035.403	956.1
1035.691	958.36
1035.979	966.27
1036.267	969.66
1036.554	929.21
1036.842	937.35
1037.129	923.79
1037.417	941.64
1037.704	931.25
1037.992	919.95
1038.279	909.55
1038.566	916.33
1038.853	916.33
1039.14	916.33
