Data from blue_chair_FLMS001491_00045.txt Node
Date: Wed Feb 08 10:30:54 GMT 2017
User: dcchb
Spectrometer: FLMS00149
Trigger mode: 0
Integration Time (sec): 2.000000E-2
Scans to average: 10
Electric dark correction enabled: true
Nonlinearity correction enabled: false
Boxcar width: 0
XAxis mode: Wavelengths
Number of Pixels in Spectrum: 2048
>>>>>Begin Spectral Data<<<<<
341.393	-14.11
341.776	-14.11
342.16	-14.11
342.543	-46.43
342.927	-86.88
343.31	-75.8
343.693	-48.01
344.077	-43.49
344.46	-30.83
344.843	-53.2
345.226	-55.24
345.61	-32.41
345.993	-17.5
346.376	-29.7
346.759	0.81
347.142	9.17
347.525	25.66
347.908	67.92
348.291	67.24
348.674	107.92
349.057	107.47
349.44	102.27
349.823	137.52
350.206	149.28
350.588	184.53
350.971	198.99
351.354	215.71
351.737	220.91
352.119	228.82
352.502	227.24
352.884	249.16
353.267	254.13
353.65	245.32
354.032	283.51
354.414	292.77
354.797	297.07
355.179	302.04
355.562	298.2
355.944	322.38
356.326	338.2
356.709	307.01
357.091	322.15
357.473	323.73
357.855	322.38
358.238	329.61
358.62	297.97
359.002	318.54
359.384	308.59
359.766	308.14
360.148	306.11
360.53	314.92
360.912	310.63
361.294	314.7
361.676	320.8
362.057	309.05
362.439	322.15
362.821	283.06
363.203	296.16
363.584	315.37
363.966	295.49
364.348	317.18
364.729	293.23
365.111	289.84
365.493	297.07
365.874	296.84
366.256	287.8
366.637	301.59
367.019	290.06
367.4	278.99
367.781	283.06
368.163	287.58
368.544	274.92
368.925	273.79
369.306	293
369.688	292.32
370.069	294.13
370.45	284.41
370.831	285.32
371.212	283.51
371.593	289.39
371.974	286.45
372.355	297.07
372.736	295.71
373.117	297.29
373.498	285.32
373.879	279.44
374.26	290.51
374.641	288.03
375.021	286.9
375.402	277.41
375.783	303.85
376.163	287.8
376.544	274.47
376.925	295.49
377.305	293.9
377.686	294.13
378.066	314.7
378.447	287.8
378.827	304.98
379.208	309.72
379.588	289.39
379.968	295.03
380.349	311.53
380.729	293.23
381.109	295.94
381.489	316.73
381.87	302.27
382.25	295.03
382.63	296.39
383.01	311.31
383.39	311.53
383.77	324.86
384.15	314.92
384.53	312.21
384.91	329.61
385.29	295.71
385.67	317.41
386.049	317.86
386.429	299.33
386.809	326.9
387.189	322.6
387.568	334.81
387.948	316.05
388.328	310.85
388.707	333.45
389.087	330.06
389.466	332.1
389.846	303.4
390.225	337.52
390.605	316.28
390.984	323.51
391.363	353.79
391.743	331.42
392.122	318.54
392.501	345.65
392.881	356.28
393.26	337.29
393.639	339.1
394.018	332.32
394.397	342.04
394.776	335.71
395.155	330.74
395.534	351.76
395.913	338.2
396.292	339.33
396.671	356.95
397.05	334.36
397.429	347.91
397.808	361.02
398.186	345.88
398.565	348.59
398.944	349.27
399.323	342.27
399.701	363.73
400.08	368.93
400.458	350.17
400.837	356.5
401.215	361.93
401.594	381.59
401.972	361.25
402.351	362.83
402.729	371.64
403.107	360.34
403.486	370.29
403.864	377.07
404.242	375.71
404.62	371.87
404.999	372.09
405.377	375.71
405.755	389.95
406.133	400.79
406.511	402.38
406.889	387.46
407.267	378.65
407.645	393.11
408.023	399.21
408.401	414.13
408.779	407.8
409.156	398.99
409.534	408.25
409.912	406.44
410.29	424.97
410.667	422.94
411.045	430.17
411.422	454.13
411.8	442.15
412.178	437.86
412.555	449.15
412.933	429.04
413.31	440.57
413.687	463.17
414.065	446.9
414.442	476.05
414.819	464.97
415.197	476.95
415.574	466.33
415.951	476.5
416.328	474.01
416.705	467.01
417.082	458.87
417.46	460.23
417.837	489.83
418.214	474.92
418.591	467.46
418.967	497.29
419.344	492.77
419.721	468.82
420.098	478.31
420.475	487.12
420.852	532.77
421.228	506.55
421.605	505.65
421.982	518.76
422.358	521.7
422.735	534.35
423.111	541.36
423.488	544.29
423.864	523.5
424.241	547.46
424.617	548.81
424.994	574.58
425.37	544.97
425.746	552.43
426.123	568.25
426.499	586.78
426.875	592.43
427.251	583.61
427.627	606.66
428.003	605.53
428.379	605.53
428.756	615.7
429.132	631.07
429.507	639.21
429.883	637.17
430.259	630.39
430.635	636.49
431.011	617.51
431.387	650.28
431.763	655.25
432.138	667
432.514	659.54
432.89	669.26
433.265	680.11
433.641	691.63
434.016	696.38
434.392	705.42
434.767	725.98
435.143	734.57
435.518	732.09
435.894	738.41
436.269	777.28
436.644	782.48
437.02	755.59
437.395	783.84
437.77	785.19
438.145	796.94
438.52	795.59
438.895	790.39
439.271	820.44
439.646	850.95
440.021	825.42
440.395	859.31
440.77	870.61
441.145	872.19
441.52	895.24
441.895	897.05
442.27	897.96
442.645	907.9
443.019	925.98
443.394	930.27
443.769	937.28
444.143	937.05
444.518	959.65
444.892	952.42
445.267	967.56
445.641	960.55
446.016	978.86
446.39	982.25
446.764	979.76
447.139	975.02
447.513	995.58
447.887	997.62
448.262	1017.95
448.636	1008.24
449.01	1007.11
449.384	1050.49
449.758	1056.82
450.132	1046.43
450.506	1058.4
450.88	1086.43
451.254	1076.48
451.628	1088.46
452.002	1100.89
452.376	1096.14
452.75	1108.57
453.123	1143.15
453.497	1129.59
453.871	1178.18
454.244	1152.64
454.618	1167.1
454.992	1176.59
455.365	1186.08
455.739	1219.53
456.112	1180.66
456.486	1230.15
456.859	1231.96
457.232	1247.33
457.606	1263.14
457.979	1276.03
458.352	1289.81
458.725	1301.79
459.099	1283.26
459.472	1337.95
459.845	1337.49
460.218	1362.13
460.591	1364.16
460.964	1394.44
461.337	1408.9
461.71	1412.29
462.083	1422.69
462.456	1421.78
462.829	1401.9
463.201	1459.52
463.574	1419.52
463.947	1448.9
464.32	1494.1
464.692	1513.31
465.065	1514.21
465.438	1523.25
465.81	1529.8
466.183	1552.63
466.555	1582.23
466.928	1603.7
467.3	1556.47
467.672	1597.37
468.045	1636.47
468.417	1656.58
468.789	1626.53
469.161	1675.34
469.534	1701.33
469.906	1726.18
470.278	1731.16
470.65	1727.54
471.022	1767.99
471.394	1790.36
471.766	1827.65
472.138	1819.06
472.51	1842.79
472.882	1871.26
473.253	1884.37
473.625	1884.37
473.997	1931.83
474.369	1915.33
474.74	1955.78
475.112	1951.26
475.484	2007.76
475.855	2019.06
476.227	2046.18
476.598	2057.93
476.97	2098.6
477.341	2118.72
477.713	2138.15
478.084	2162.33
478.455	2228.77
478.827	2203.68
479.198	2263.57
479.569	2281.42
479.94	2310.12
480.311	2329.78
480.682	2380.86
481.053	2407.75
481.424	2432.15
481.795	2457.69
482.166	2484.81
482.537	2487.75
482.908	2530.46
483.279	2560.74
483.65	2588.53
484.021	2619.49
484.391	2605.03
484.762	2645.26
485.133	2647.06
485.503	2678.02
485.874	2734.97
486.244	2759.6
486.615	2770.68
486.985	2800.73
487.356	2866.27
487.726	2869.2
488.097	2928.41
488.467	2918.92
488.837	2918.69
489.207	2975.64
489.578	3013.38
489.948	2973.38
490.318	3049.54
490.688	3002.76
491.058	3056.09
491.428	3127.5
491.798	3073.72
492.168	3185.35
492.538	3167.73
492.908	3162.98
493.278	3253.15
493.648	3203.21
494.017	3242.08
494.387	3209.76
494.757	3239.14
495.126	3294.05
495.496	3272.13
495.866	3242.75
496.235	3308.06
496.605	3306.25
496.974	3313.94
497.344	3380.38
497.713	3352.58
498.082	3305.58
498.452	3331.11
498.821	3356.88
499.19	3329.08
499.559	3361.39
499.928	3368.85
500.298	3393.71
500.667	3384.22
501.036	3390.77
501.405	3372.02
501.774	3375.41
502.143	3392.35
502.512	3447.49
502.88	3402.98
503.249	3428.96
503.618	3402.75
503.987	3411.79
504.356	3423.99
504.724	3434.61
505.093	3424.67
505.462	3455.18
505.83	3426.93
506.199	3456.31
506.567	3481.84
506.936	3452.24
507.304	3474.61
507.672	3441.62
508.041	3457.66
508.409	3414.05
508.777	3452.24
509.145	3462.18
509.514	3454.73
509.882	3471.22
510.25	3438.68
510.618	3512.13
510.986	3447.95
511.354	3439.36
511.722	3436.19
512.09	3431
512.458	3468.74
512.826	3424.22
513.193	3422.86
513.561	3438.45
513.929	3466.93
514.297	3482.3
514.664	3446.59
515.032	3455.18
515.4	3455.86
515.767	3453.82
516.135	3454.27
516.502	3415.4
516.869	3444.56
517.237	3445.69
517.604	3383.77
517.972	3409.98
518.339	3430.32
518.706	3397.78
519.073	3370.43
519.44	3383.54
519.808	3405.01
520.175	3411.11
520.542	3390.55
520.909	3403.43
521.276	3363.43
521.643	3353.49
522.009	3360.49
522.376	3411.11
522.743	3377.89
523.11	3391.9
523.477	3370.89
523.843	3390.09
524.21	3381.96
524.577	3414.73
524.943	3346.03
525.31	3410.88
525.676	3380.6
526.043	3364.11
526.409	3397.33
526.776	3398.23
527.142	3348.74
527.508	3374.05
527.874	3336.76
528.241	3331.79
528.607	3339.25
528.973	3339.25
529.339	3363.65
529.705	3340.83
530.071	3379.7
530.437	3377.67
530.803	3329.98
531.169	3289.98
531.535	3282.98
531.901	3287.95
532.267	3292.47
532.632	3286.14
532.998	3307.61
533.364	3301.06
533.73	3274.17
534.095	3309.64
534.461	3265.35
534.826	3280.72
535.192	3289.76
535.557	3262.87
535.923	3249.08
536.288	3217.67
536.653	3209.31
537.019	3222.64
537.384	3201.85
537.749	3229.87
538.114	3171.12
538.479	3171.34
538.845	3179.48
539.21	3153.04
539.575	3169.76
539.94	3144.68
540.305	3144.9
540.67	3134.28
541.034	3097.45
541.399	3080.05
541.764	3082.53
542.129	3082.08
542.494	3040.27
542.858	3048.63
543.223	3052.93
543.587	3040.95
543.952	3057.45
544.316	3004.79
544.681	3002.99
545.045	2997.56
545.41	2995.08
545.774	2985.81
546.138	2953.95
546.503	2974.96
546.867	2938.81
547.231	2955.3
547.595	2926.15
547.959	2925.02
548.324	2897.9
548.688	2840.73
549.052	2826.27
549.416	2853.39
549.779	2847.51
550.143	2842.31
550.507	2892.03
550.871	2860.84
551.235	2822.2
551.599	2800.05
551.962	2824.91
552.326	2805.93
552.689	2785.82
553.053	2795.53
553.417	2748.98
553.78	2779.94
554.143	2759.83
554.507	2739.04
554.87	2759.15
555.234	2755.99
555.597	2700.85
555.96	2729.09
556.323	2699.49
556.686	2703.11
557.05	2706.95
557.413	2725.48
557.776	2704.91
558.139	2687.06
558.502	2696.1
558.865	2639.15
559.228	2701.53
559.59	2693.39
559.953	2682.99
560.316	2695.88
560.679	2678.93
561.041	2671.47
561.404	2660.62
561.767	2652.03
562.129	2647.97
562.492	2647.52
562.854	2682.77
563.217	2675.76
563.579	2639.15
563.941	2684.35
564.304	2668.76
564.666	2668.31
565.028	2692.26
565.39	2661.3
565.753	2671.47
566.115	2652.49
566.477	2685.93
566.839	2689.77
567.201	2660.62
567.563	2703.56
567.925	2673.73
568.287	2720.51
568.648	2671.02
569.01	2705.59
569.372	2707.17
569.734	2710.56
570.095	2683.22
570.457	2688.19
570.819	2732.94
571.18	2738.59
571.542	2711.92
571.903	2739.94
572.265	2698.81
572.626	2743.11
572.987	2790.11
573.349	2770.68
573.71	2770.9
574.071	2768.64
574.432	2751.24
574.794	2812.26
575.155	2784.91
575.516	2800.28
575.877	2795.99
576.238	2770.22
576.599	2847.28
576.96	2819.94
577.32	2794.18
577.681	2840.28
578.042	2877.79
578.403	2847.74
578.763	2847.96
579.124	2869.2
579.485	2866.94
579.845	2890.45
580.206	2863.55
580.566	2887.96
580.927	2864.01
581.287	2930.45
581.648	2901.75
582.008	2868.75
582.368	2907.4
582.728	2905.81
583.089	2905.14
583.449	2943.78
583.809	2934.97
584.169	2941.97
584.529	2962.08
584.889	2953.5
585.249	2938.13
585.609	2919.82
585.969	2956.66
586.329	2932.03
586.688	2968.41
587.048	2960.28
587.408	2932.03
587.768	2979.26
588.127	2979.48
588.487	2950.11
588.846	2991.69
589.206	2945.36
589.565	2961.41
589.925	2974.96
590.284	2975.64
590.643	2948.07
591.003	2997.11
591.362	2994.85
591.721	3027.84
592.08	3007.51
592.44	2963.67
592.799	2975.64
593.158	2984.91
593.517	2995.75
593.876	2945.36
594.235	2945.59
594.593	2950.56
594.952	2944.46
595.311	2937.23
595.67	2982.42
596.029	2978.58
596.387	2959.37
596.746	2998.47
597.104	2951.01
597.463	2933.61
597.822	2938.13
598.18	2958.02
598.538	2946.94
598.897	3006.38
599.255	2940.16
599.613	2994.85
599.972	2938.58
600.33	2969.77
600.688	2952.82
601.046	2991.01
601.404	2966.15
601.762	2957.56
602.12	2974.74
602.478	2976.55
602.836	2981.52
603.194	2965.47
603.552	2974.06
603.91	2980.39
604.268	2949.88
604.625	2959.6
604.983	2963.44
605.341	2948.52
605.698	2945.13
606.056	2974.06
606.413	2983.55
606.771	2954.4
607.128	2983.55
607.485	2957.11
607.843	2957.56
608.2	2958.69
608.557	2988.75
608.914	2962.08
609.272	2962.08
609.629	3001.63
609.986	2975.19
610.343	2981.52
610.7	3005.02
611.057	2975.87
611.414	2963.67
611.771	2984.91
612.127	2982.65
612.484	3008.18
612.841	2990.33
613.198	2959.82
613.554	2982.87
613.911	3000.27
614.267	3011.57
614.624	2991.23
614.98	2992.36
615.337	3015.64
615.693	3014.51
616.05	2971.57
616.406	3000.5
616.762	3032.59
617.118	3001.63
617.475	3052.7
617.831	3049.31
618.187	3037.11
618.543	3001.18
618.899	3046.37
619.255	3026.49
619.611	3030.1
619.967	3047.05
620.323	3027.39
620.678	3039.37
621.034	2970.44
621.39	3021.74
621.746	3016.77
622.101	3067.17
622.457	3021.97
622.812	3017
623.168	3009.09
623.523	3037.79
623.879	3032.14
624.234	3012.03
624.589	3001.86
624.945	2987.17
625.3	3037.79
625.655	3028.52
626.01	2997.11
626.365	3053.83
626.72	3050.89
627.075	3005.7
627.43	3022.65
627.785	3020.61
628.14	3009.54
628.495	3052.7
628.85	3012.93
629.205	2986.26
629.559	2988.75
629.914	3027.17
630.269	3041.86
630.623	2985.81
630.978	3003.89
631.332	3013.16
631.687	3016.54
632.041	3003.89
632.396	3028.75
632.75	3005.25
633.104	3021.29
633.459	2992.82
633.813	3004.57
634.167	2986.26
634.521	2998.01
634.875	3012.25
635.229	2992.82
635.583	2960.28
635.937	2982.2
636.291	2973.61
636.645	3001.4
636.999	3005.7
637.352	2958.24
637.706	2998.47
638.06	2999.14
638.413	2952.82
638.767	2947.85
639.121	2969.54
639.474	2968.41
639.828	2948.52
640.181	2960.95
640.534	2949.43
640.888	2930.67
641.241	2952.82
641.594	2964.57
641.947	2955.08
642.301	2942.87
642.654	2958.47
643.007	2971.8
643.36	2947.39
643.713	2960.5
644.066	2980.39
644.419	2958.92
644.771	2892.48
645.124	2906.49
645.477	2917.56
645.83	2918.92
646.182	2908.75
646.535	2862.65
646.888	2863.33
647.24	2849.32
647.593	2889.99
647.945	2868.07
648.298	2833.72
648.65	2845.25
649.002	2857.23
649.355	2921.63
649.707	2907.85
650.059	2918.69
650.411	2911.24
650.763	2934.51
651.115	2949.88
651.467	2939.26
651.819	2951.69
652.171	2956.89
652.523	2920.73
652.875	2911.24
653.227	2927.06
653.578	2951.46
653.93	2918.69
654.282	2935.19
654.633	2953.5
654.985	2911.69
655.337	2936.1
655.688	2936.55
656.039	2961.86
656.391	2949.88
656.742	2953.95
657.094	2959.6
657.445	2977.22
657.796	2959.82
658.147	2971.12
658.498	2944.46
658.849	2960.73
659.2	2952.14
659.551	2924.12
659.902	2993.95
660.253	2962.99
660.604	2950.56
660.955	2988.3
661.306	3006.83
661.656	2965.02
662.007	2943.1
662.358	2968.18
662.708	2957.79
663.059	2961.18
663.409	2947.85
663.76	2943.1
664.11	2954.17
664.461	2968.18
664.811	2980.61
665.161	2978.58
665.511	2960.28
665.862	2981.29
666.212	2952.82
666.562	3000.95
666.912	2995.98
667.262	2945.36
667.612	2989.43
667.962	2948.52
668.312	2991.23
668.662	2969.09
669.011	2964.34
669.361	2949.88
669.711	2937.68
670.06	2971.8
670.41	2952.14
670.76	2942.65
671.109	2953.95
671.459	2941.52
671.808	2930.67
672.157	2945.36
672.507	2913.72
672.856	2944
673.205	2911.69
673.554	2915.3
673.904	2918.69
674.253	2915.53
674.602	2929.77
674.951	2871.01
675.3	2868.3
675.649	2903.78
675.998	2859.26
676.346	2892.48
676.695	2899.26
677.044	2874.18
677.393	2879.15
677.741	2884.12
678.09	2874.85
678.438	2848.64
678.787	2860.16
679.135	2863.33
679.484	2846.61
679.832	2867.17
680.181	2850.22
680.529	2842.99
680.877	2818.58
681.225	2821.75
681.573	2867.17
681.922	2823.56
682.27	2807.06
682.618	2865.14
682.966	2748.08
683.314	2830.34
683.661	2803.44
684.009	2783.33
684.357	2785.36
684.705	2777.23
685.053	2772.03
685.4	2761.18
685.748	2744.01
686.095	2755.31
686.443	2765.48
686.79	2725.03
687.138	2741.3
687.485	2732.71
687.832	2713.95
688.18	2709.89
688.527	2695.2
688.874	2727.06
689.221	2719.15
689.568	2678.7
689.915	2668.53
690.262	2695.65
690.609	2663.33
690.956	2650.45
691.303	2664.46
691.65	2666.5
691.997	2662.2
692.344	2654.75
692.69	2617.23
693.037	2632.83
693.383	2578.59
693.73	2594.64
694.077	2596.22
694.423	2598.7
694.769	2602.77
695.116	2579.04
695.462	2571.36
695.808	2585.82
696.155	2559.83
696.501	2551.7
696.847	2540.17
697.193	2518.03
697.539	2534.75
697.885	2497.46
698.231	2482.55
698.577	2509.67
698.923	2503.34
699.269	2461.76
699.614	2466.73
699.96	2484.13
700.306	2466.73
700.651	2460.4
700.997	2454.3
701.342	2445.03
701.688	2479.38
702.033	2420.4
702.379	2464.92
702.724	2442.77
703.069	2442.1
703.415	2452.94
703.76	2442.1
704.105	2485.49
704.45	2426.5
704.795	2458.37
705.14	2430.8
705.485	2430.35
705.83	2421.76
706.175	2442.1
706.52	2391.7
706.865	2377.69
707.209	2403
707.554	2408.2
707.899	2435.54
708.243	2366.39
708.588	2390.8
708.932	2344.7
709.277	2386.28
709.621	2397.13
709.966	2390.35
710.31	2408.88
710.654	2422.89
710.998	2396.9
711.342	2402.32
711.687	2395.77
712.031	2376.56
712.375	2386.28
712.719	2387.18
713.063	2405.49
713.407	2361.42
713.75	2431.48
714.094	2426.73
714.438	2402.78
714.782	2407.3
715.125	2416.33
715.469	2401.65
715.812	2416.11
716.156	2393.74
716.499	2434.64
716.843	2430.12
717.186	2443.68
717.53	2446.84
717.873	2445.49
718.216	2430.57
718.559	2419.5
718.902	2449.33
719.246	2472.6
719.589	2428.76
719.932	2422.66
720.275	2421.98
720.617	2432.83
720.96	2471.7
721.303	2452.27
721.646	2499.72
721.989	2477.35
722.331	2484.13
722.674	2460.85
723.016	2476.45
723.359	2502.66
723.701	2473.06
724.044	2475.77
724.386	2487.07
724.729	2522.55
725.071	2497.91
725.413	2497.01
725.755	2515.09
726.097	2530.68
726.439	2526.16
726.782	2529.55
727.124	2556.44
727.465	2563.9
727.807	2574.3
728.149	2600.51
728.491	2580.85
728.833	2622.21
729.175	2599.15
729.516	2579.95
729.858	2559.61
730.199	2573.39
730.541	2637.57
730.882	2624.46
731.224	2595.99
731.565	2596.22
731.906	2635.99
732.248	2644.13
732.589	2669.21
732.93	2673.73
733.271	2652.71
733.612	2649.1
733.953	2728.19
734.294	2685.48
734.635	2690.9
734.976	2744.91
735.317	2704.01
735.658	2752.15
735.999	2722.32
736.339	2777.68
736.68	2785.82
737.021	2793.5
737.361	2806.38
737.702	2786.72
738.042	2809.54
738.383	2829.88
738.723	2874.85
739.063	2913.5
739.404	2889.09
739.744	2890.9
740.084	2926.6
740.424	2915.76
740.764	2945.81
741.104	2968.64
741.444	2981.29
741.784	2982.2
742.124	3021.52
742.464	3075.98
742.804	3105.81
743.143	3127.73
743.483	3144.23
743.823	3175.86
744.162	3197.33
744.502	3199.59
744.841	3278.23
745.181	3324.56
745.52	3348.29
745.86	3404.11
746.199	3402.75
746.538	3433.48
746.877	3496.31
747.216	3503.31
747.556	3574.5
747.895	3635.96
748.234	3584.67
748.573	3652.23
748.911	3775.17
749.25	3760.48
749.589	3840.7
749.928	3892.91
750.267	3944.88
750.605	3955.5
750.944	4056.29
751.283	4133.58
751.621	4185.55
751.96	4220.13
752.298	4315.95
752.636	4364.31
752.975	4453.12
753.313	4464.64
753.651	4589.16
753.989	4658.08
754.327	4694.92
754.666	4743.05
755.004	4868.47
755.342	4966.55
755.679	5009.94
756.017	5059.2
756.355	5190.27
756.693	5302.36
757.031	5356.6
757.368	5387.56
757.706	5507.55
758.044	5559.53
758.381	5655.57
758.719	5797.49
759.056	5944.6
759.394	5909.12
759.731	6033.87
760.068	6090.81
760.405	6188.44
760.743	6286.29
761.08	6405.83
761.417	6413.52
761.754	6536.9
762.091	6616.9
762.428	6704.58
762.765	6763.11
763.102	6870.91
763.438	6942.54
763.775	7043.33
764.112	7089.43
764.449	7195.19
764.785	7286.26
765.122	7305.02
765.458	7376.88
765.795	7531.91
766.131	7535.75
766.467	7587.5
766.804	7716.31
767.14	7734.39
767.476	7781.62
767.812	7808.96
768.148	7886.47
768.485	7953.14
768.821	7982.97
769.157	8132.79
769.492	8144.77
769.828	8219.8
770.164	8255.73
770.5	8346.35
770.836	8355.16
771.171	8380.25
771.507	8473.58
771.842	8420.47
772.178	8468.15
772.513	8525.33
772.849	8580.47
773.184	8587.92
773.519	8604.19
773.855	8621.6
774.19	8646.45
774.525	8700.01
774.86	8764.64
775.195	8820.91
775.53	8757.86
775.865	8806.68
776.2	8771.2
776.535	8843.96
776.87	8787.92
777.205	8862.49
777.539	8848.03
777.874	8870.63
778.209	8839.22
778.543	8879.89
778.878	8886.67
779.212	8876.73
779.547	8878.09
779.881	9001.47
780.215	8995.82
780.55	9063.17
780.884	8951.3
781.218	9011.64
781.552	9067.01
781.886	9114.69
782.22	9037.18
782.554	9054.13
782.888	9050.96
783.222	8962.38
783.556	8922.15
783.889	9001.92
784.223	8963.51
784.557	9008.93
784.89	8910.85
785.224	9002.15
785.557	8980.68
785.891	8948.59
786.224	8958.08
786.558	8971.42
786.891	8902.72
787.224	8918.08
787.557	8909.27
787.891	8888.48
788.224	8902.27
788.557	8939.78
788.89	8964.41
789.223	8970.29
789.556	8917.86
789.888	8924.19
790.221	8885.54
790.554	8811.19
790.887	8862.94
791.219	8847.8
791.552	8832.44
791.884	8856.17
792.217	8826.56
792.549	8808.48
792.882	8785.88
793.214	8723.97
793.546	8722.16
793.879	8751.08
794.211	8769.61
794.543	8739.78
794.875	8732.55
795.207	8763.29
795.539	8743.17
795.871	8750.18
796.203	8696.62
796.535	8645.32
796.867	8629.05
797.198	8599.45
797.53	8570.3
797.862	8638.77
798.193	8640.8
798.525	8551.31
798.856	8588.6
799.188	8543.41
799.519	8516.29
799.85	8452.11
800.182	8512.45
800.513	8551.09
800.844	8465.67
801.175	8495.95
801.506	8472.45
801.837	8399.23
802.168	8353.58
802.499	8406.46
802.83	8349.29
803.161	8369.4
803.491	8385.44
803.822	8460.02
804.153	8356.29
804.483	8318.78
804.814	8262.28
805.145	8265.22
805.475	8284.2
805.805	8304.77
806.136	8270.87
806.466	8278.33
806.796	8274.26
807.126	8131.66
807.457	8156.3
807.787	8198.56
808.117	8129.4
808.447	8115.17
808.777	8142.96
809.107	8138.44
809.436	8149.74
809.766	8144.77
810.096	8049.63
810.426	8123.08
810.755	8133.7
811.085	8086.02
811.414	8110.87
811.744	8031.1
812.073	8010.31
812.403	8001.27
812.732	8022.52
813.061	7927.83
813.39	7989.97
813.719	8000.14
814.049	7982.29
814.378	7940.48
814.707	7914.27
815.036	7968.73
815.365	7951.33
815.693	7839.69
816.022	7877.66
816.351	7846.93
816.68	7801.96
817.008	7789.98
817.337	7773.48
817.665	7735.29
817.994	7745.01
818.322	7788.85
818.651	7688.29
818.979	7738.45
819.307	7740.49
819.636	7691.68
819.964	7716.76
820.292	7708.85
820.62	7771
820.948	7710.66
821.276	7701.62
821.604	7712.47
821.932	7755.63
822.259	7780.94
822.587	7745.69
822.915	7748.4
823.243	7801.05
823.57	7789.98
823.898	7656.87
824.225	7767.83
824.553	7768.96
824.88	7790.2
825.207	7772.13
825.535	7767.83
825.862	7781.84
826.189	7763.99
826.516	7732.13
826.843	7769.87
827.17	7777.32
827.497	7773.26
827.824	7825.91
828.151	7821.84
828.478	7789.07
828.805	7892.8
829.131	7791.56
829.458	7831.33
829.785	7798.79
830.111	7800.83
830.438	7890.54
830.764	7883.08
831.09	7811
831.417	7810.54
831.743	7853.93
832.069	7872.69
832.395	7777.1
832.722	7791.56
833.048	7784.78
833.374	7805.35
833.7	7778.68
834.026	7834.5
834.351	7764.44
834.677	7824.33
835.003	7786.36
835.329	7801.05
835.654	7803.09
835.98	7718.57
836.306	7813.48
836.631	7747.27
836.956	7692.35
837.282	7725.57
837.607	7723.54
837.932	7754.5
838.258	7759.47
838.583	7687.38
838.908	7654.16
839.233	7683.99
839.558	7662.52
839.883	7672.47
840.208	7661.39
840.533	7665.01
840.858	7632.02
841.182	7634.95
841.507	7686.25
841.832	7565.35
842.156	7591.79
842.481	7593.83
842.805	7564
843.13	7569.87
843.454	7554.73
843.778	7484.22
844.103	7426.6
844.427	7500.49
844.751	7515.86
845.075	7411.91
845.399	7448.74
845.723	7401.74
846.047	7484
846.371	7364.23
846.695	7367.84
847.019	7301.18
847.343	7324.45
847.666	7260.95
847.99	7190.9
848.313	7267.73
848.637	7091.69
848.96	7189.09
849.284	7131.24
849.607	7113.61
849.931	7050.11
850.254	7050.79
850.577	6974.86
850.9	6943.67
851.223	6923.11
851.546	6895.99
851.869	6878.36
852.192	6919.72
852.515	6863.68
852.838	6856.9
853.161	6826.16
853.483	6801.98
853.806	6775.32
854.129	6775.09
854.451	6732.38
854.774	6740.29
855.096	6691.7
855.419	6707.3
855.741	6660.29
856.063	6627.52
856.385	6628.88
856.708	6602.89
857.03	6619.16
857.352	6583.68
857.674	6572.38
857.996	6542.78
858.318	6539.16
858.64	6503.01
858.961	6449.22
859.283	6462.33
859.605	6419.85
859.926	6436.12
860.248	6409.22
860.57	6427.98
860.891	6432.5
861.212	6376.68
861.534	6346.4
861.855	6358.83
862.176	6352.05
862.498	6376.91
862.819	6329.68
863.14	6284.03
863.461	6284.71
863.782	6296.23
864.103	6276.12
864.424	6305.27
864.745	6272.5
865.065	6282.22
865.386	6211.04
865.707	6263.92
866.027	6250.13
866.348	6255.56
866.668	6157.93
866.989	6218.49
867.309	6154.99
867.63	6157.93
867.95	6220.75
868.27	6130.36
868.59	6170.81
868.91	6184.6
869.23	6158.61
869.55	6128.33
869.87	6121.1
870.19	6087.65
870.51	6063.47
870.83	6123.13
871.15	6088.1
871.469	6073.19
871.789	6136.46
872.109	6064.6
872.428	6029.8
872.748	6067.09
873.067	5995.68
873.386	6016.69
873.706	6016.24
874.025	5971.27
874.344	5965.62
874.663	5998.84
874.982	5989.35
875.301	6036.13
875.62	6011.27
875.939	5991.16
876.258	5924.49
876.577	5893.98
876.896	5911.84
877.214	5919.75
877.533	5947.54
877.852	5849.01
878.17	5906.64
878.489	5927.65
878.807	5905.96
879.125	5873.64
879.444	5903.02
879.762	5863.48
880.08	5888.79
880.398	5842.91
880.716	5813.76
881.034	5802.23
881.352	5799.07
881.67	5769.92
881.988	5780.09
882.306	5758.85
882.624	5749.13
882.941	5744.38
883.259	5685.63
883.577	5707.1
883.894	5683.14
884.212	5660.54
884.529	5708.9
884.846	5646.76
885.164	5666.64
885.481	5639.53
885.798	5655.35
886.115	5624.61
886.432	5636.14
886.75	5606.53
887.067	5625.29
887.383	5574.9
887.7	5577.61
888.017	5559.75
888.334	5526.08
888.651	5474.56
888.967	5560.88
889.284	5464.62
889.6	5493.09
889.917	5395.01
890.233	5424.84
890.55	5431.17
890.866	5425.52
891.182	5389.36
891.498	5398.63
891.815	5366.77
892.131	5380.78
892.447	5345.07
892.763	5294.23
893.079	5288.8
893.395	5274.11
893.71	5301.91
894.026	5268.69
894.342	5242.48
894.657	5221.01
894.973	5200.67
895.289	5195.24
895.604	5115.7
895.92	5136.72
896.235	5131.07
896.55	5113.44
896.865	5109.82
897.181	5062.82
897.496	5062.37
897.811	5034.12
898.126	5042.71
898.441	5019.43
898.756	4995.48
899.071	4992.31
899.386	5023.72
899.7	4923.84
900.015	4915.7
900.33	4884.74
900.644	4883.84
900.959	4928.81
901.273	4893.33
901.588	4849.94
901.902	4802.26
902.216	4812.2
902.531	4820.11
902.845	4764.3
903.159	4781.7
903.473	4730.17
903.787	4731.3
904.101	4698.53
904.415	4747.35
904.729	4646.33
905.042	4681.59
905.356	4647.46
905.67	4655.82
905.984	4604.3
906.297	4583.06
906.611	4548.26
906.924	4570.85
907.237	4543.28
907.551	4532.89
907.864	4515.04
908.177	4534.02
908.491	4462.16
908.804	4485.21
909.117	4434.36
909.43	4369.05
909.743	4396.17
910.056	4364.76
910.368	4369.5
910.681	4327.92
910.994	4344.19
911.307	4263.74
911.619	4284.08
911.932	4300.13
912.244	4285.44
912.557	4255.16
912.869	4207.7
913.181	4188.94
913.494	4213.58
913.806	4170.64
914.118	4153.01
914.43	4131.77
914.742	4119.34
915.054	4139.68
915.366	4101.26
915.678	4107.82
915.99	4089.51
916.302	4021.94
916.613	4062.62
916.925	4010.64
917.236	4057.65
917.548	4014.71
917.859	4031.21
918.171	3985.33
918.482	3922.06
918.794	3929.52
919.105	3913.02
919.416	3932
919.727	3903.3
920.038	3906.47
920.349	3830.76
920.66	3852
920.971	3827.82
921.282	3842.51
921.593	3800.25
921.903	3794.38
922.214	3784.89
922.525	3761.84
922.835	3695.62
923.146	3742.85
923.456	3722.29
923.767	3674.15
924.077	3695.62
924.387	3648.17
924.697	3647.04
925.008	3649.07
925.318	3674.38
925.628	3632.8
925.938	3626.92
926.248	3559.13
926.558	3593.03
926.867	3608.17
927.177	3540.15
927.487	3547.15
927.796	3511.67
928.106	3534.72
928.416	3517.32
928.725	3511.22
929.034	3480.71
929.344	3446.59
929.653	3482.07
929.962	3431.68
930.271	3396.65
930.581	3385.8
930.89	3382.64
931.199	3380.6
931.508	3358.91
931.817	3373.82
932.125	3386.93
932.434	3347.84
932.743	3318.68
933.051	3325.92
933.36	3299.7
933.669	3277.78
933.977	3226.93
934.286	3209.53
934.594	3234.84
934.902	3198.46
935.21	3209.76
935.519	3214.28
935.827	3221.29
936.135	3147.61
936.443	3141.74
936.751	3139.48
937.059	3145.81
937.367	3111.68
937.674	3132.7
937.982	3145.81
938.29	3082.98
938.597	3082.08
938.905	3052.02
939.213	3037.34
939.52	3021.74
939.827	3056.09
940.135	3007.96
940.442	2977.68
940.749	3016.32
941.056	3012.48
941.363	2990.1
941.67	2948.07
941.977	2930.67
942.284	2916.66
942.591	2916.66
942.898	2896.77
943.205	2897.68
943.511	2876.21
943.818	2857.68
944.125	2893.61
944.431	2857.23
944.738	2840.96
945.044	2852.03
945.35	2840.5
945.657	2799.6
945.963	2826.95
946.269	2763.44
946.575	2774.07
946.881	2740.17
947.187	2752.6
947.493	2732.48
947.799	2761.86
948.105	2724.58
948.41	2703.56
948.716	2715.31
949.022	2733.61
949.327	2678.93
949.633	2688.19
949.938	2640.28
950.244	2671.7
950.549	2625.59
950.854	2623.56
951.16	2610.91
951.465	2614.52
951.77	2603.22
952.075	2566.16
952.38	2574.52
952.685	2564.13
952.99	2562.77
953.294	2541.53
953.599	2553.51
953.904	2535.43
954.209	2522.77
954.513	2517.35
954.818	2493.39
955.122	2496.11
955.426	2514.19
955.731	2479.84
956.035	2487.75
956.339	2454.53
956.643	2450.23
956.948	2430.12
957.252	2423.11
957.556	2402.1
957.86	2403.68
958.163	2397.8
958.467	2371.36
958.771	2387.63
959.075	2394.64
959.378	2332.72
959.682	2338.14
959.985	2337.92
960.289	2341.76
960.592	2324.13
960.896	2304.7
961.199	2290.01
961.502	2308.09
961.805	2278.71
962.108	2276
962.411	2275.1
962.714	2237.36
963.017	2235.32
963.32	2235.55
963.623	2236.9
963.926	2232.84
964.228	2175.44
964.531	2191.71
964.833	2213.63
965.136	2207.75
965.438	2185.83
965.741	2163.46
966.043	2156.91
966.345	2181.76
966.648	2134.31
966.95	2128.21
967.252	2133.63
967.554	2114.42
967.856	2068.32
968.158	2088.66
968.46	2087.3
968.761	2092.5
969.063	2054.54
969.365	2068.32
969.666	2054.08
969.968	2062.45
970.269	2059.51
970.571	2051.15
970.872	2053.63
971.174	2019.28
971.475	1969.34
971.776	2005.5
972.077	2007.08
972.378	1965.05
972.679	1967.53
972.98	1970.47
973.281	1954.43
973.582	1963.47
973.883	1966.63
974.183	1917.14
974.484	1947.65
974.785	1930.92
975.085	1910.36
975.386	1911.04
975.686	1892.51
975.986	1909.46
976.287	1921.21
976.587	1880.76
976.887	1892.51
977.187	1880.76
977.487	1825.16
977.787	1847.99
978.087	1829.46
978.387	1832.4
978.687	1847.08
978.987	1818.38
979.286	1809.57
979.586	1810.02
979.885	1779.97
980.185	1798.27
980.484	1790.36
980.784	1778.16
981.083	1770.7
981.382	1769.8
981.682	1727.31
981.981	1761.66
982.28	1730.03
982.579	1744.94
982.878	1748.33
983.177	1727.31
983.475	1710.82
983.774	1690.03
984.073	1698.39
984.372	1685.51
984.67	1689.12
984.969	1700.65
985.267	1671.27
985.566	1682.34
985.864	1674.21
986.162	1637.82
986.461	1643.7
986.759	1641.44
987.057	1642.57
987.355	1596.24
987.653	1628.78
987.951	1605.96
988.249	1621.33
988.547	1584.94
988.844	1598.05
989.142	1585.4
989.44	1577.94
989.737	1557.83
990.035	1553.08
990.332	1577.26
990.63	1537.94
990.927	1542.46
991.224	1557.83
991.521	1535.23
991.819	1521.9
992.116	1516.7
992.413	1500.65
992.71	1511.27
993.006	1515.57
993.303	1516.02
993.6	1464.5
993.897	1475.57
994.193	1483.25
994.49	1482.8
994.787	1475.34
995.083	1463.82
995.379	1445.51
995.676	1426.98
995.972	1451.84
996.268	1409.13
996.565	1419.75
996.861	1384.95
997.157	1413.65
997.453	1404.38
997.749	1349.92
998.044	1373.88
998.34	1376.36
998.636	1365.74
998.932	1382.69
999.227	1351.5
999.523	1366.87
999.818	1357.15
1000.114	1339.75
1000.409	1314.44
1000.704	1329.36
1001	1332.97
1001.295	1292.75
1001.59	1295.69
1001.885	1291.39
1002.18	1302.92
1002.475	1289.58
1002.77	1277.38
1003.065	1292.07
1003.359	1274.44
1003.654	1251.85
1003.949	1294.78
1004.243	1239.42
1004.538	1233.32
1004.832	1251.85
1005.127	1240.09
1005.421	1229.93
1005.715	1220.66
1006.009	1225.86
1006.304	1219.53
1006.598	1214.33
1006.892	1197.61
1007.186	1180.21
1007.48	1175.46
1007.773	1173.66
1008.067	1187.44
1008.361	1169.59
1008.655	1156.71
1008.948	1171.62
1009.242	1136.59
1009.535	1155.12
1009.829	1126.43
1010.122	1141.34
1010.415	1114.9
1010.708	1150.83
1011.001	1122.13
1011.295	1116.71
1011.588	1090.72
1011.881	1080.32
1012.173	1091.85
1012.466	1093.43
1012.759	1084.62
1013.052	1066.99
1013.344	1059.53
1013.637	1066.99
1013.93	1055.24
1014.222	1062.47
1014.514	1035.35
1014.807	1035.81
1015.099	1032.42
1015.391	1049.37
1015.683	1035.81
1015.976	1020.67
1016.268	982.93
1016.56	990.84
1016.851	992.42
1017.143	998.74
1017.435	996.71
1017.727	982.47
1018.018	982.02
1018.31	967.79
1018.602	984.73
1018.893	930.05
1019.185	949.25
1019.476	946.77
1019.767	957.62
1020.058	960.78
1020.35	930.95
1020.641	925.75
1020.932	949.03
1021.223	936.37
1021.514	903.61
1021.804	892.08
1022.095	914.68
1022.386	900.22
1022.677	888.47
1022.967	906.32
1023.258	866.09
1023.548	875.81
1023.839	878.52
1024.129	867.67
1024.419	869.93
1024.709	874.45
1025	878.97
1025.29	864.06
1025.58	856.38
1025.87	850.5
1026.16	845.08
1026.449	848.01
1026.739	856.38
1027.029	848.47
1027.319	850.5
1027.608	816.15
1027.898	808.92
1028.187	825.64
1028.477	828.81
1028.766	793.33
1029.055	797.62
1029.344	798.3
1029.634	782.03
1029.923	770.95
1030.212	787.45
1030.501	792.42
1030.79	778.19
1031.078	794.91
1031.367	759.66
1031.656	763.72
1031.945	774.12
1032.233	756.94
1032.522	752.42
1032.81	777.51
1033.099	744.29
1033.387	732.31
1033.675	714.23
1033.963	731.18
1034.251	730.5
1034.54	713.55
1034.828	717.17
1035.116	707.45
1035.403	709.49
1035.691	703.84
1035.979	709.94
1036.267	696.83
1036.554	708.58
1036.842	710.84
1037.129	705.42
1037.417	703.39
1037.704	679.88
1037.992	677.4
1038.279	668.36
1038.566	660.22
1038.853	660.22
1039.14	660.22
