Data from blue_chair_FLMS001491_00012.txt Node
Date: Wed Feb 08 10:29:32 GMT 2017
User: dcchb
Spectrometer: FLMS00149
Trigger mode: 0
Integration Time (sec): 2.000000E-2
Scans to average: 10
Electric dark correction enabled: true
Nonlinearity correction enabled: false
Boxcar width: 0
XAxis mode: Wavelengths
Number of Pixels in Spectrum: 2048
>>>>>Begin Spectral Data<<<<<
341.393	-10.59
341.776	-10.59
342.16	-10.59
342.543	-46.07
342.927	-35.45
343.31	-49.69
343.693	-70.7
344.077	-64.6
344.46	-70.03
344.843	-55.56
345.226	-32.06
345.61	-43.13
345.993	-29.8
346.376	2.51
346.759	33.93
347.142	10.65
347.525	39.12
347.908	54.04
348.291	77.99
348.674	95.62
349.057	101.72
349.44	118.44
349.823	126.8
350.206	167.26
350.588	190.31
350.971	180.59
351.354	219.23
351.737	219.46
352.119	228.04
352.502	244.77
352.884	258.55
353.267	257.87
353.65	301.04
354.032	293.58
354.414	286.12
354.797	296.74
355.179	272.34
355.562	321.15
355.944	324.54
356.326	321.6
356.709	304.65
357.091	303.3
357.473	325.67
357.855	324.77
358.238	319.57
358.62	298.78
359.002	289.74
359.384	322.28
359.766	325.9
360.148	303.52
360.53	315.5
360.912	310.3
361.294	308.95
361.676	301.49
362.057	313.01
362.439	306.23
362.821	286.35
363.203	292.68
363.584	320.02
363.966	291.77
364.348	300.36
364.729	294.26
365.111	291.77
365.493	319.57
365.874	292.45
366.256	285.9
366.637	303.3
367.019	293.58
367.4	300.36
367.781	296.52
368.163	263.52
368.544	283.64
368.925	300.13
369.306	283.64
369.688	299.23
370.069	288.83
370.45	281.6
370.831	303.75
371.212	292.68
371.593	295.16
371.974	291.32
372.355	311.88
372.736	287.03
373.117	284.31
373.498	282.51
373.879	293.58
374.26	288.83
374.641	291.09
375.021	273.02
375.402	325.67
375.783	292
376.163	292
376.544	275.95
376.925	301.94
377.305	295.61
377.686	312.56
378.066	298.1
378.447	289.74
378.827	304.88
379.208	305.1
379.588	298.55
379.968	290.64
380.349	305.78
380.729	305.33
381.109	295.61
381.489	300.81
381.87	265.78
382.25	298.55
382.63	299.68
383.01	285.67
383.39	286.35
383.77	306.69
384.15	281.6
384.53	315.05
384.91	301.04
385.29	317.31
385.67	319.12
386.049	311.88
386.429	307.59
386.809	290.64
387.189	314.6
387.568	310.75
387.948	335.61
388.328	321.15
388.707	320.7
389.087	299.68
389.466	301.49
389.846	321.83
390.225	311.66
390.605	300.81
390.984	316.63
391.363	315.95
391.743	315.05
392.122	325.67
392.501	325.44
392.881	333.35
393.26	317.53
393.639	329.96
394.018	340.36
394.397	336.74
394.776	322.51
395.155	345.78
395.534	339
395.913	327.7
396.292	331.54
396.671	339.23
397.05	333.58
397.429	351.43
397.808	349.17
398.186	335.16
398.565	334.71
398.944	343.75
399.323	345.56
399.701	327.03
400.08	335.61
400.458	357.98
400.837	349.85
401.215	347.82
401.594	369.28
401.972	342.17
402.351	334.71
402.729	355.05
403.107	340.13
403.486	348.04
403.864	342.17
404.242	368.61
404.62	364.09
404.999	364.99
405.377	361.15
405.755	371.54
406.133	363.86
406.511	348.27
406.889	367.02
407.267	365.22
407.645	391.88
408.023	372.9
408.401	361.6
408.779	366.8
409.156	395.27
409.534	376.06
409.912	381.94
410.29	385.55
410.667	380.13
411.045	383.97
411.422	393.01
411.8	379.45
412.178	366.35
412.555	402.28
412.933	388.49
413.31	404.76
413.687	414.25
414.065	402.96
414.442	407.02
414.819	407.93
415.197	409.51
415.574	409.51
415.951	428.27
416.328	447.02
416.705	419.9
417.082	411.09
417.46	442.28
417.837	444.31
418.214	420.13
418.591	430.98
418.967	425.78
419.344	438.66
419.721	416.97
420.098	421.03
420.475	428.04
420.852	411.09
421.228	439.79
421.605	429.4
421.982	430.98
422.358	440.24
422.735	428.94
423.111	444.76
423.488	425.55
423.864	447.7
424.241	453.8
424.617	442.95
424.994	454.71
425.37	475.04
425.746	470.3
426.123	472.78
426.499	482.28
426.875	476.85
427.251	498.09
427.627	459.23
428.003	507.13
428.379	508.72
428.756	504.65
429.132	521.6
429.507	501.94
429.883	520.69
430.259	526.57
430.635	526.12
431.011	504.87
431.387	534.93
431.763	544.87
432.138	535.83
432.514	516.62
432.89	543.06
433.265	543.06
433.641	562.27
434.016	539.9
434.392	567.24
434.767	594.81
435.143	570.63
435.518	567.7
435.894	586.23
436.269	561.82
436.644	572.89
437.02	605.89
437.395	615.61
437.77	627.36
438.145	603.18
438.52	621.48
438.895	614.93
439.271	627.36
439.646	656.06
440.021	645.21
440.395	653.8
440.77	641.59
441.145	670.29
441.52	690.18
441.895	685.66
442.27	697.41
442.645	700.8
443.019	699.67
443.394	677.07
443.769	712.33
444.143	699.67
444.518	724.75
444.892	728.82
445.267	714.81
445.641	715.49
446.016	727.47
446.39	725.88
446.764	729.95
447.139	726.56
447.513	742.83
447.887	742.83
448.262	727.69
448.636	767.69
449.01	745.32
449.384	767.24
449.758	745.09
450.132	805.66
450.506	764.75
450.88	784.41
451.254	779.67
451.628	791.42
452.002	789.39
452.376	788.71
452.75	806.56
453.123	806.56
453.497	818.76
453.871	834.58
454.244	859.21
454.618	830.97
454.992	852.89
455.365	841.59
455.739	874.36
456.112	883.39
456.486	872.55
456.859	875.49
457.232	910.06
457.606	877.07
457.979	895.37
458.352	878.88
458.725	901.02
459.099	912.55
459.472	935.82
459.845	938.76
460.218	938.76
460.591	950.06
460.964	968.82
461.337	940.57
461.71	980.57
462.083	974.47
462.456	992.32
462.829	990.28
463.201	967.46
463.574	1006.56
463.947	1017.4
464.32	986.89
464.692	1020.34
465.065	1060.11
465.438	1032.77
465.81	1036.84
466.183	1060.34
466.555	1053.56
466.928	1086.1
467.3	1059.89
467.672	1072.54
468.045	1081.36
468.417	1109.6
468.789	1101.69
469.161	1118.42
469.534	1102.82
469.906	1143.73
470.278	1121.58
470.65	1138.76
471.022	1166.33
471.394	1160
471.766	1163.61
472.138	1163.84
472.51	1205.42
472.882	1196.61
473.253	1208.81
473.625	1206.1
473.997	1220.56
474.369	1258.98
474.74	1251.52
475.112	1290.84
475.484	1279.09
475.855	1308.02
476.227	1299.66
476.598	1321.12
476.97	1325.42
477.341	1346.89
477.713	1357.73
478.084	1364.06
478.455	1379.43
478.827	1367.9
479.198	1431.86
479.569	1414.23
479.94	1444.51
480.311	1420.33
480.682	1475.02
481.053	1490.16
481.424	1479.99
481.795	1501.23
482.166	1533.1
482.537	1531.29
482.908	1561.8
483.279	1555.02
483.65	1568.12
484.021	1589.59
484.391	1641.34
484.762	1592.3
485.133	1599.31
485.503	1644.05
485.874	1640.66
486.244	1659.87
486.615	1654.67
486.985	1693.32
487.356	1665.07
487.726	1670.94
488.097	1691.96
488.467	1690.15
488.837	1705.52
489.207	1740.55
489.578	1757.72
489.948	1743.26
490.318	1759.98
490.688	1776.48
491.058	1755.91
491.428	1777.38
491.798	1799.53
492.168	1810.38
492.538	1782.13
492.908	1813.99
493.278	1829.81
493.648	1841.34
494.017	1847.21
494.387	1812.86
494.757	1823.03
495.126	1823.48
495.496	1833.43
495.866	1825.52
496.235	1855.35
496.605	1849.7
496.974	1824.84
497.344	1847.89
497.713	1855.12
498.082	1852.86
498.452	1872.97
498.821	1875.01
499.19	1833.2
499.559	1842.01
499.928	1841.79
500.298	1859.19
500.667	1880.88
501.036	1845.4
501.405	1869.36
501.774	1858.06
502.143	1856.48
502.512	1856.93
502.88	1875.46
503.249	1844.27
503.618	1843.37
503.987	1863.71
504.356	1870.04
504.724	1886.98
505.093	1857.38
505.462	1835.23
505.83	1864.39
506.199	1896.93
506.567	1869.58
506.936	1852.63
507.304	1871.84
507.672	1851.96
508.041	1870.94
508.409	1851.05
508.777	1851.28
509.145	1866.65
509.514	1890.37
509.882	1875.91
510.25	1853.76
510.618	1854.67
510.986	1825.29
511.354	1842.24
511.722	1859.41
512.09	1830.49
512.458	1821.9
512.826	1817.16
513.193	1839.53
513.561	1812.86
513.929	1817.38
514.297	1837.95
514.664	1849.02
515.032	1825.52
515.4	1837.95
515.767	1853.54
516.135	1843.37
516.502	1803.82
516.869	1820.32
517.237	1782.35
517.604	1809.25
517.972	1777.83
518.339	1823.48
518.706	1802.01
519.073	1781.68
519.44	1789.59
519.808	1801.79
520.175	1781
520.542	1780.77
520.909	1796.37
521.276	1777.16
521.643	1766.76
522.009	1785.07
522.376	1777.38
522.743	1788
523.11	1792.98
523.477	1772.19
523.843	1766.76
524.21	1776.03
524.577	1787.33
524.943	1771.96
525.31	1769.93
525.676	1788.46
526.043	1773.54
526.409	1766.76
526.776	1771.73
527.142	1776.03
527.508	1791.17
527.874	1757.5
528.241	1765.63
528.607	1746.2
528.973	1761.34
529.339	1764.28
529.705	1773.09
530.071	1778.06
530.437	1765.63
530.803	1776.7
531.169	1757.95
531.535	1735.8
531.901	1753.2
532.267	1764.73
532.632	1767.89
532.998	1730.83
533.364	1770.6
533.73	1751.62
534.095	1758.4
534.461	1747.33
534.826	1775.35
535.192	1726.31
535.557	1742.36
535.923	1769.25
536.288	1752.3
536.653	1757.95
537.019	1744.84
537.384	1732.41
537.749	1742.13
538.114	1739.64
538.479	1719.31
538.845	1744.62
539.21	1712.75
539.575	1714.33
539.94	1701.23
540.305	1749.13
540.67	1744.16
541.034	1703.26
541.399	1707.1
541.764	1700.77
542.129	1703.03
542.494	1689.7
542.858	1705.52
543.223	1712.07
543.587	1706.65
543.952	1702.36
544.316	1685.63
544.681	1672.07
545.045	1672.75
545.41	1661.45
545.774	1692.19
546.138	1687.44
546.503	1659.19
546.867	1689.7
547.231	1686.09
547.595	1667.33
547.959	1686.31
548.324	1637.73
548.688	1660.1
549.052	1639.99
549.416	1659.65
549.779	1639.76
550.143	1630.49
550.507	1663.49
550.871	1637.73
551.235	1649.25
551.599	1630.95
551.962	1631.62
552.326	1639.08
552.689	1663.49
553.053	1632.75
553.417	1643.15
553.78	1635.01
554.143	1626.43
554.507	1632.08
554.87	1628.69
555.234	1637.95
555.597	1614.45
555.96	1603.38
556.323	1600.89
556.686	1621.23
557.05	1632.75
557.413	1613.32
557.776	1616.71
558.139	1613.55
558.502	1597.05
558.865	1587.56
559.228	1624.62
559.59	1643.83
559.953	1601.57
560.316	1576.26
560.679	1652.41
561.041	1635.47
561.404	1628.01
561.767	1615.8
562.129	1615.35
562.492	1610.61
562.854	1627.1
563.217	1605.64
563.579	1621.23
563.941	1633.43
564.304	1644.73
564.666	1635.24
565.028	1634.79
565.39	1636.82
565.753	1648.8
566.115	1646.76
566.477	1615.35
566.839	1658.52
567.201	1664.84
567.563	1664.39
567.925	1668.68
568.287	1651.96
568.648	1669.59
569.01	1652.87
569.372	1680.21
569.734	1653.32
570.095	1688.35
570.457	1679.31
570.819	1673.2
571.18	1674.79
571.542	1661.23
571.903	1689.93
572.265	1686.09
572.626	1706.65
572.987	1656.48
573.349	1698.29
573.71	1714.79
574.071	1694.67
574.432	1701.45
574.794	1722.69
575.155	1721.11
575.516	1731.73
575.877	1723.6
576.238	1738.97
576.599	1716.82
576.96	1726.54
577.32	1756.59
577.681	1715.69
578.042	1750.26
578.403	1738.29
578.763	1748.68
579.124	1770.83
579.485	1773.09
579.845	1739.64
580.206	1758.63
580.566	1700.55
580.927	1750.49
581.287	1738.74
581.648	1779.42
582.008	1776.93
582.368	1770.83
582.728	1786.42
583.089	1757.5
583.449	1759.53
583.809	1775.8
584.169	1766.99
584.529	1764.5
584.889	1770.6
585.249	1768.57
585.609	1774.67
585.969	1759.76
586.329	1783.26
586.688	1777.16
587.048	1781.45
587.408	1791.17
587.768	1779.42
588.127	1783.03
588.487	1770.15
588.846	1782.13
589.206	1788
589.565	1795.91
589.925	1787.33
590.284	1784.39
590.643	1799.98
591.003	1784.39
591.362	1792.98
591.721	1766.99
592.08	1769.47
592.44	1809.25
592.799	1787.78
593.158	1776.93
593.517	1773.31
593.876	1780.32
594.235	1784.61
594.593	1776.93
594.952	1769.47
595.311	1795.46
595.67	1781.22
596.029	1784.16
596.387	1788.68
596.746	1782.58
597.104	1812.41
597.463	1771.73
597.822	1770.6
598.18	1777.61
598.538	1776.7
598.897	1785.97
599.255	1750.49
599.613	1807.44
599.972	1768.57
600.33	1774.9
600.688	1764.05
601.046	1788.68
601.404	1766.99
601.762	1784.61
602.12	1782.13
602.478	1762.24
602.836	1783.03
603.194	1780.77
603.552	1796.37
603.91	1762.92
604.268	1792.07
604.625	1771.73
604.983	1767.89
605.341	1792.75
605.698	1791.39
606.056	1788.91
606.413	1795.24
606.771	1764.5
607.128	1809.25
607.485	1798.85
607.843	1775.57
608.2	1821
608.557	1768.57
608.914	1794.11
609.272	1797.72
609.629	1782.81
609.986	1803.6
610.343	1785.07
610.7	1800.88
611.057	1792.98
611.414	1786.87
611.771	1802.69
612.127	1830.49
612.484	1802.69
612.841	1802.47
613.198	1809.47
613.554	1815.8
613.911	1816.7
614.267	1821.68
614.624	1815.8
614.98	1818.74
615.337	1794.78
615.693	1800.88
616.05	1810.15
616.406	1815.12
616.762	1828.23
617.118	1830.26
617.475	1798.17
617.831	1787.1
618.187	1827.78
618.543	1842.69
618.899	1845.18
619.255	1807.89
619.611	1847.21
619.967	1829.58
620.323	1831.39
620.678	1832.97
621.034	1837.95
621.39	1829.58
621.746	1824.39
622.101	1833.65
622.457	1828.23
622.812	1818.51
623.168	1830.26
623.523	1832.3
623.879	1846.76
624.234	1792.07
624.589	1818.96
624.945	1856.48
625.3	1846.99
625.655	1849.92
626.01	1829.81
626.365	1830.26
626.72	1813.09
627.075	1854.89
627.43	1853.09
627.785	1840.21
628.14	1856.25
628.495	1851.05
628.85	1854.22
629.205	1839.53
629.559	1857.61
629.914	1837.49
630.269	1841.34
630.623	1871.62
630.978	1846.99
631.332	1849.02
631.687	1848.79
632.041	1818.96
632.396	1846.08
632.75	1850.6
633.104	1808.12
633.459	1826.19
633.813	1814.22
634.167	1835.91
634.521	1835.23
634.875	1839.3
635.229	1823.94
635.583	1841.79
635.937	1798.4
636.291	1859.19
636.645	1819.64
636.999	1859.87
637.352	1822.13
637.706	1840.88
638.06	1847.66
638.413	1804.73
638.767	1820.55
639.121	1818.29
639.474	1838.4
639.828	1806.99
640.181	1806.76
640.534	1844.5
640.888	1851.73
641.241	1822.81
641.594	1831.62
641.947	1829.81
642.301	1853.09
642.654	1823.48
643.007	1810.38
643.36	1804.95
643.713	1818.51
644.066	1840.43
644.419	1832.3
644.771	1809.7
645.124	1802.92
645.477	1779.42
645.83	1797.5
646.182	1756.14
646.535	1799.75
646.888	1792.98
647.24	1736.71
647.593	1756.37
647.945	1820.77
648.298	1759.3
648.65	1806.99
649.002	1791.39
649.355	1840.66
649.707	1794.11
650.059	1824.61
650.411	1807.89
650.763	1846.31
651.115	1836.59
651.467	1834.1
651.819	1875.01
652.171	1863.71
652.523	1808.57
652.875	1838.62
653.227	1849.02
653.578	1860.77
653.93	1843.82
654.282	1835.91
654.633	1833.2
654.985	1858.06
655.337	1820.55
655.688	1860.54
656.039	1835.01
656.391	1849.47
656.742	1858.06
657.094	1860.77
657.445	1840.21
657.796	1839.3
658.147	1849.25
658.498	1862.8
658.849	1889.92
659.2	1866.19
659.551	1858.28
659.902	1849.02
660.253	1829.81
660.604	1879.07
660.955	1872.75
661.306	1852.86
661.656	1856.93
662.007	1872.97
662.358	1885.18
662.708	1850.15
663.059	1885.18
663.409	1867.78
663.76	1900.54
664.11	1879.3
664.461	1822.58
664.811	1865.74
665.161	1863.71
665.511	1878.17
665.862	1879.98
666.212	1870.71
666.562	1903.26
666.912	1868.23
667.262	1892.86
667.612	1891.73
667.962	1866.87
668.312	1867.1
668.662	1865.06
669.011	1903.26
669.361	1885.18
669.711	1869.58
670.06	1853.76
670.41	1849.92
670.76	1849.02
671.109	1858.74
671.459	1868.68
671.808	1836.82
672.157	1885.63
672.507	1819.64
672.856	1863.71
673.205	1860.77
673.554	1830.71
673.904	1846.53
674.253	1861.9
674.602	1865.29
674.951	1815.57
675.3	1833.43
675.649	1851.73
675.998	1804.27
676.346	1847.66
676.695	1812.64
677.044	1807.44
677.393	1835.01
677.741	1830.26
678.09	1828.23
678.438	1806.76
678.787	1829.13
679.135	1803.14
679.484	1794.78
679.832	1808.57
680.181	1789.13
680.529	1815.8
680.877	1779.42
681.225	1802.69
681.573	1797.04
681.922	1761.11
682.27	1768.34
682.618	1776.93
682.966	1758.63
683.314	1795.69
683.661	1766.76
684.009	1782.35
684.357	1728.57
684.705	1776.25
685.053	1757.72
685.4	1768.57
685.748	1761.34
686.095	1775.57
686.443	1735.35
686.79	1752.52
687.138	1764.28
687.485	1745.29
687.832	1729.7
688.18	1727.21
688.527	1750.26
688.874	1731.06
689.221	1729.02
689.568	1743.94
689.915	1741
690.262	1726.76
690.609	1729.02
690.956	1690.15
691.303	1716.37
691.65	1697.38
691.997	1679.76
692.344	1684.05
692.69	1669.36
693.037	1675.69
693.383	1649.7
693.73	1684.73
694.077	1639.53
694.423	1651.28
694.769	1661.91
695.116	1645.63
695.462	1653.54
695.808	1670.94
696.155	1644.73
696.501	1614.9
696.847	1649.7
697.193	1610.83
697.539	1607.22
697.885	1631.62
698.231	1629.82
698.577	1591.62
698.923	1597.27
699.269	1614.9
699.614	1595.01
699.96	1575.35
700.306	1603.15
700.651	1623.49
700.997	1601.79
701.342	1590.04
701.688	1621.68
702.033	1588.91
702.379	1564.96
702.724	1606.09
703.069	1585.98
703.415	1577.84
703.76	1566.99
704.105	1572.19
704.45	1551.17
704.795	1588.69
705.14	1574.68
705.485	1584.17
705.83	1577.39
706.175	1561.8
706.52	1588.69
706.865	1538.97
707.209	1573.55
707.554	1567.67
707.899	1563.38
708.243	1550.27
708.588	1551.4
708.932	1544.39
709.277	1543.94
709.621	1566.77
709.966	1566.77
710.31	1582.59
710.654	1573.09
710.998	1538.29
711.342	1560.89
711.687	1548.69
712.031	1554.34
712.375	1551.17
712.719	1558.63
713.063	1573.32
713.407	1574.68
713.75	1586.65
714.094	1571.06
714.438	1553.43
714.782	1593.66
715.125	1559.99
715.469	1548.46
715.812	1567.22
716.156	1551.63
716.499	1549.82
716.843	1552.98
717.186	1571.06
717.53	1580.78
717.873	1584.85
718.216	1570.16
718.559	1578.74
718.902	1595.92
719.246	1603.6
719.589	1599.76
719.932	1574.45
720.275	1613.55
720.617	1593.21
720.96	1631.62
721.303	1599.53
721.646	1604.05
721.989	1593.66
722.331	1604.73
722.674	1584.85
723.016	1648.8
723.359	1637.27
723.701	1629.59
724.044	1632.53
724.386	1623.71
724.729	1627.56
725.071	1639.99
725.413	1614.22
725.755	1655.58
726.097	1626.43
726.439	1644.96
726.782	1660.1
727.124	1682.02
727.465	1660.32
727.807	1677.27
728.149	1687.89
728.491	1665.3
728.833	1663.26
729.175	1658.74
729.516	1686.31
729.858	1688.35
730.199	1674.79
730.541	1723.37
730.882	1697.61
731.224	1713.43
731.565	1733.32
731.906	1729.7
732.248	1718.18
732.589	1735.35
732.93	1747.78
733.271	1747.33
733.612	1725.18
733.953	1759.08
734.294	1783.94
734.635	1780.32
734.976	1796.14
735.317	1795.24
735.658	1788.91
735.999	1811.51
736.339	1812.86
736.68	1842.01
737.021	1851.96
737.361	1835.23
737.702	1853.31
738.042	1873.88
738.383	1875.46
738.723	1909.81
739.063	1905.51
739.404	1948.45
739.744	1929.7
740.084	1921.56
740.424	1965.63
740.764	1986.19
741.104	1990.26
741.444	1994.1
741.784	2037.04
742.124	2037.94
742.464	2050.6
742.804	2062.8
743.143	2060.99
743.483	2094.89
743.823	2108.9
744.162	2147.09
744.502	2140.31
744.841	2175.56
745.181	2226.86
745.52	2212.63
745.86	2240.87
746.199	2248.56
746.538	2292.85
746.877	2274.09
747.216	2339.85
747.556	2361.32
747.895	2378.27
748.234	2431.6
748.573	2446.97
748.911	2469.12
749.25	2486.97
749.589	2518.61
749.928	2577.59
750.267	2602.9
750.605	2631.82
750.944	2656.68
751.283	2703.23
751.621	2781.65
751.96	2816
752.298	2886.51
752.636	2922.21
752.975	2927.41
753.313	2944.36
753.651	3039.5
753.989	3051.93
754.327	3150.45
754.666	3175.54
755.004	3242.2
755.342	3263.9
755.679	3303.44
756.017	3361.97
756.355	3464.34
756.693	3467.28
757.031	3556.77
757.368	3603.55
757.706	3626.37
758.044	3688.29
758.381	3761.74
758.719	3812.36
759.056	3871.34
759.394	3947.72
759.731	3964.9
760.068	4038.79
760.405	4101.84
760.743	4200.6
761.08	4279.01
761.417	4281.72
761.754	4335.28
762.091	4420.7
762.428	4464.09
762.765	4517.42
763.102	4572.11
763.438	4645.33
763.775	4681.26
764.112	4765.33
764.449	4768.72
764.785	4821.14
765.122	4879.9
765.458	4884.87
765.795	4977.98
766.131	5033.79
766.467	5123.06
766.804	5095.26
767.14	5157.18
767.476	5230.4
767.812	5264.07
768.148	5351.07
768.485	5378.19
768.821	5377.97
769.157	5459.32
769.492	5514.69
769.828	5502.93
770.164	5579.99
770.5	5616.15
770.836	5692.99
771.171	5618.19
771.507	5687.34
771.842	5714.68
772.178	5761.01
772.513	5779.99
772.849	5788.8
773.184	5889.59
773.519	5946.31
773.855	5885.98
774.19	5947.22
774.525	5960.1
774.86	6005.52
775.195	6001
775.53	6050.49
775.865	6040.1
776.2	6071.73
776.535	6044.84
776.87	6098.85
777.205	6112.64
777.539	6153.99
777.874	6152.86
778.209	6194.44
778.543	6190.83
778.878	6171.39
779.212	6189.24
779.547	6201.9
779.881	6215.46
780.215	6209.13
780.55	6241.45
780.884	6244.38
781.218	6294.55
781.552	6282.57
781.886	6222.01
782.22	6223.82
782.554	6281.9
782.888	6208.68
783.222	6247.32
783.556	6282.12
783.889	6271.28
784.223	6224.95
784.557	6211.16
784.89	6271.73
785.224	6256.36
785.557	6270.15
785.891	6235.12
786.224	6286.87
786.558	6270.82
786.891	6320.99
787.224	6236.47
787.557	6275.57
787.891	6239.64
788.224	6304.04
788.557	6250.26
788.89	6255.23
789.223	6302.01
789.556	6253.65
789.888	6186.31
790.221	6290.26
790.554	6201.9
790.887	6259.07
791.219	6261.33
791.552	6257.26
791.884	6263.37
792.217	6257.94
792.549	6247.77
792.882	6209.81
793.214	6186.98
793.546	6199.87
793.879	6223.82
794.211	6199.64
794.543	6224.72
794.875	6127.55
795.207	6168
795.539	6218.85
795.871	6178.4
796.203	6162.8
796.535	6108.57
796.867	6092.75
797.198	6099.98
797.53	6096.59
797.862	6125.29
798.193	6140.43
798.525	6042.81
798.856	6060.66
799.188	6050.26
799.519	6044.39
799.85	5992.64
800.182	6002.81
800.513	5997.16
800.844	6008.01
801.175	6041.45
801.506	6065.41
801.837	6015.69
802.168	5963.71
802.499	5992.64
802.83	5972.3
803.161	5949.93
803.491	5978.4
803.822	5990.83
804.153	5938.63
804.483	5909.03
804.814	5894.34
805.145	5946.54
805.475	5872.64
805.805	5829.48
806.136	5892.3
806.466	5906.99
806.796	5824.73
807.126	5841.46
807.457	5863.83
807.787	5803.04
808.117	5827.67
808.447	5812.08
808.777	5815.47
809.107	5801.91
809.436	5815.47
809.766	5778.41
810.096	5769.37
810.426	5774.57
810.755	5784.51
811.085	5748.13
811.414	5776.15
811.744	5691.4
812.073	5708.13
812.403	5709.03
812.732	5704.96
813.061	5692.31
813.39	5689.82
813.719	5622.03
814.049	5681.46
814.378	5681.46
814.707	5602.82
815.036	5689.82
815.365	5631.29
815.693	5592.42
816.022	5611.86
816.351	5586.77
816.68	5576.15
817.008	5545.19
817.337	5616.15
817.665	5525.08
817.994	5563.05
818.322	5531.18
818.651	5481.24
818.979	5455.7
819.307	5479.88
819.636	5519.66
819.964	5447.12
820.292	5502.26
820.62	5525.53
820.948	5515.14
821.276	5539.32
821.604	5554.01
821.932	5489.38
822.259	5502.03
822.587	5467
822.915	5516.27
823.243	5545.87
823.57	5511.07
823.898	5504.06
824.225	5485.31
824.553	5517.62
824.88	5551.97
825.207	5535.93
825.535	5499.54
825.862	5496.38
826.189	5528.24
826.516	5579.32
826.843	5531.63
827.17	5507.23
827.497	5473.1
827.824	5519.43
828.151	5583.84
828.478	5548.81
828.805	5572.76
829.131	5560.56
829.458	5583.84
829.785	5521.01
830.111	5552.65
830.438	5544.74
830.764	5582.03
831.09	5570.96
831.417	5547.45
831.743	5589.71
832.069	5549.26
832.395	5578.19
832.722	5558.75
833.048	5614.34
833.374	5565.98
833.7	5507.45
834.026	5481.92
834.351	5507.91
834.677	5534.8
835.003	5532.99
835.329	5511.07
835.654	5563.5
835.98	5549.26
836.306	5545.42
836.631	5481.24
836.956	5480.34
837.282	5485.76
837.607	5468.59
837.932	5448.47
838.258	5475.82
838.583	5464.74
838.908	5493.67
839.233	5469.26
839.558	5423.16
839.883	5416.61
840.208	5396.95
840.533	5433.56
840.858	5423.84
841.182	5420
841.507	5417.06
841.832	5355.14
842.156	5403.73
842.481	5387.46
842.805	5340.68
843.13	5354.46
843.454	5336.84
843.778	5298.87
844.103	5313.11
844.427	5307.46
844.751	5299.32
845.075	5314.01
845.399	5266.78
845.723	5202.38
846.047	5240.12
846.371	5216.84
846.695	5241.47
847.019	5148.14
847.343	5143.85
847.666	5133.45
847.99	5071.53
848.313	5117.18
848.637	5052.32
848.96	5062.49
849.284	5062.49
849.607	5057.75
849.931	5023.17
850.254	4985.66
850.577	4951.76
850.9	4936.17
851.223	4913.57
851.546	4924.64
851.869	4888.04
852.192	4940.01
852.515	4863.63
852.838	4795.16
853.161	4810.07
853.483	4846.23
853.806	4766.68
854.129	4805.55
854.451	4771.2
854.774	4753.35
855.096	4710.19
855.419	4690.53
855.741	4713.8
856.063	4704.09
856.385	4669.74
856.708	4682.84
857.03	4648.49
857.352	4676.06
857.674	4643.75
857.996	4612.11
858.318	4587.25
858.64	4619.12
858.961	4552.9
859.283	4524.43
859.605	4593.35
859.926	4598.1
860.248	4547.93
860.57	4538.44
860.891	4554.03
861.212	4517.88
861.534	4488.95
861.855	4475.62
862.176	4513.36
862.498	4462.51
862.819	4450.31
863.14	4469.29
863.461	4444.21
863.782	4402.4
864.103	4410.31
864.424	4400.82
864.745	4429.97
865.065	4405.56
865.386	4370.31
865.707	4405.56
866.027	4375.96
866.348	4399.91
866.668	4396.75
866.989	4351.55
867.309	4331.21
867.63	4368.95
867.95	4367.6
868.27	4335.51
868.59	4320.14
868.91	4373.02
869.23	4319.01
869.55	4265.45
869.87	4301.84
870.19	4294.83
870.51	4278.56
870.83	4302.74
871.15	4293.93
871.469	4249.86
871.789	4281.5
872.109	4270.42
872.428	4242.4
872.748	4258.45
873.067	4281.27
873.386	4292.12
873.706	4213.93
874.025	4212.35
874.344	4218.67
874.663	4204.44
874.982	4180.94
875.301	4178.22
875.62	4200.6
875.939	4151.33
876.258	4163.76
876.577	4182.97
876.896	4147.04
877.214	4159.24
877.533	4104.33
877.852	4143.65
878.17	4138.68
878.489	4131.22
878.807	4112.01
879.125	4127.38
879.444	4130.77
879.762	4080.37
880.08	4090.77
880.398	4078.11
880.716	4074.27
881.034	4057.1
881.352	4051.67
881.67	4009.41
881.988	3997.89
882.306	4006.02
882.624	3987.04
882.941	4059.81
883.259	4010.77
883.577	3971.45
883.894	3998.34
884.212	3964.67
884.529	4006.25
884.846	3973.94
885.164	3947.27
885.481	3934.61
885.798	3937.1
886.115	3906.37
886.432	3904.56
886.75	3902.75
887.067	3878.34
887.383	3840.61
887.7	3901.17
888.017	3904.78
888.334	3852.81
888.651	3835.18
888.967	3821.4
889.284	3800.61
889.6	3830.21
889.917	3814.17
890.233	3767.39
890.55	3774.62
890.866	3792.92
891.182	3738.24
891.498	3750.89
891.815	3729.2
892.131	3743.43
892.447	3747.95
892.763	3721.29
893.079	3682.42
893.395	3682.87
893.71	3655.53
894.026	3693.49
894.342	3665.69
894.657	3603.32
894.973	3617.79
895.289	3632.02
895.604	3626.15
895.92	3564.45
896.235	3581.18
896.55	3594.96
896.865	3532.14
897.181	3553.16
897.496	3520.84
897.811	3519.94
898.126	3497.11
898.441	3500.28
898.756	3511.35
899.071	3477.68
899.386	3436.55
899.7	3457.34
900.015	3424.12
900.33	3425.47
900.644	3408.53
900.959	3404.01
901.273	3383.44
901.588	3360.17
901.902	3364.23
902.216	3334.86
902.531	3350.67
902.845	3384.8
903.159	3280.17
903.473	3273.61
903.787	3313.61
904.101	3260.51
904.415	3298.47
904.729	3284.01
905.042	3236.1
905.356	3231.36
905.67	3253.73
905.984	3231.58
906.297	3208.08
906.611	3173.96
906.924	3175.76
907.237	3177.12
907.551	3153.39
907.864	3100.29
908.177	3127.18
908.491	3097.8
908.804	3141.19
909.117	3107.97
909.43	3081.53
909.743	3105.26
910.056	3089.21
910.368	3061.87
910.681	3003.57
910.994	3029.33
911.307	2973.51
911.619	2963.79
911.932	2983
912.244	2982.32
912.557	2962.21
912.869	2928.76
913.181	2932.15
913.494	2938.03
913.806	2907.3
914.118	2897.35
914.43	2884.7
914.742	2867.75
915.054	2876.11
915.366	2831.14
915.678	2863
915.99	2819.16
916.302	2779.62
916.613	2814.64
916.925	2802.89
917.236	2785.72
917.548	2819.84
917.859	2777.58
918.171	2744.14
918.482	2766.96
918.794	2738.71
919.105	2764.93
919.416	2687.64
919.727	2705.95
920.038	2698.71
920.349	2703.01
920.66	2684.93
920.971	2676.12
921.282	2677.47
921.593	2630.24
921.903	2592.95
922.214	2592.28
922.525	2644.25
922.835	2597.47
923.146	2610.13
923.456	2577.59
923.767	2587.98
924.077	2579.62
924.387	2543.92
924.697	2547.31
925.008	2557.25
925.318	2540.53
925.628	2546.85
925.938	2496.23
926.248	2519.96
926.558	2494.2
926.867	2491.04
927.177	2461.88
927.487	2486.52
927.796	2473.64
928.106	2437.25
928.416	2415.33
928.725	2427.54
929.034	2428.66
929.344	2419.4
929.653	2437.48
929.962	2397.93
930.271	2421.89
930.581	2370.59
930.89	2369.01
931.199	2368.1
931.508	2359.74
931.817	2347.31
932.125	2334.2
932.434	2343.02
932.743	2321.78
933.051	2340.98
933.36	2327.88
933.669	2283.13
933.977	2281.32
934.286	2247.2
934.594	2284.49
934.902	2234.77
935.21	2231.61
935.519	2262.57
935.827	2247.2
936.135	2220.08
936.443	2217.37
936.751	2207.88
937.059	2193.19
937.367	2169.46
937.674	2193.87
937.982	2192.96
938.29	2192.06
938.597	2150.93
938.905	2150.93
939.213	2119.75
939.52	2111.84
939.827	2136.02
940.135	2136.7
940.442	2091.95
940.749	2096.24
941.056	2106.87
941.363	2058.73
941.67	2071.84
941.977	2072.97
942.284	2061.22
942.591	2045.4
942.898	2041.33
943.205	2073.65
943.511	2002.24
943.818	2017.83
944.125	1998.62
944.431	2012.18
944.738	2002.46
945.044	1980.54
945.35	2015.79
945.657	1991.39
945.963	1971.5
946.269	1954.1
946.575	1960.2
946.881	1956.36
947.187	1954.78
947.493	1961.56
947.799	1943.93
948.105	1910.26
948.41	1908.23
948.716	1905.51
949.022	1896.25
949.327	1921.56
949.633	1838.62
949.938	1884.5
950.244	1848.79
950.549	1850.83
950.854	1853.54
951.16	1839.53
951.465	1819.64
951.77	1844.5
952.075	1812.41
952.38	1818.06
952.685	1798.4
952.99	1815.8
953.294	1777.61
953.599	1806.76
953.904	1742.58
954.209	1760.89
954.513	1762.47
954.818	1771.06
955.122	1741.45
955.426	1746.87
955.731	1741.9
956.035	1716.82
956.339	1736.93
956.643	1729.25
956.948	1729.7
957.252	1708.46
957.556	1716.82
957.86	1699.19
958.163	1698.51
958.467	1681.79
958.771	1672.75
959.075	1672.07
959.378	1680.89
959.682	1665.75
959.985	1651.28
960.289	1632.75
960.592	1632.53
960.896	1656.93
961.199	1646.54
961.502	1641.57
961.805	1612.19
962.108	1602.47
962.411	1597.05
962.714	1565.86
963.017	1613.09
963.32	1591.4
963.623	1574.9
963.926	1573.77
964.228	1603.38
964.531	1564.05
964.833	1579.65
965.136	1537.84
965.438	1540.55
965.741	1536.49
966.043	1492.87
966.345	1532.42
966.648	1500.55
966.95	1513.43
967.252	1495.81
967.554	1512.98
967.856	1480.89
968.158	1463.94
968.46	1496.49
968.761	1497.62
969.063	1479.99
969.365	1475.92
969.666	1508.01
969.968	1461.46
970.269	1468.92
970.571	1423.72
970.872	1465.07
971.174	1447.67
971.475	1446.32
971.776	1433.66
972.077	1416.49
972.378	1420.78
972.679	1404.96
972.98	1418.75
973.281	1392.76
973.582	1423.04
973.883	1389.37
974.183	1403.16
974.484	1374.46
974.785	1394.12
975.085	1391.86
975.386	1373.55
975.686	1338.52
975.986	1347.11
976.287	1346.43
976.587	1361.35
976.887	1348.92
977.187	1362.03
977.487	1322.93
977.787	1322.03
978.087	1314.34
978.387	1292.42
978.687	1296.72
978.987	1310.05
979.286	1305.53
979.586	1294.01
979.885	1277.28
980.185	1287.68
980.484	1272.76
980.784	1263.27
981.083	1276.15
981.382	1285.64
981.682	1263.27
981.981	1256.49
982.28	1260.56
982.579	1254.23
982.878	1261.92
983.177	1268.92
983.475	1241.58
983.774	1223.72
984.073	1211.3
984.372	1206.55
984.67	1213.33
984.969	1225.98
985.267	1211.3
985.566	1208.36
985.864	1217.17
986.162	1202.26
986.461	1176.27
986.759	1158.64
987.057	1183.27
987.355	1172.43
987.653	1165.42
987.951	1155.93
988.249	1153.9
988.547	1169.49
988.844	1160
989.142	1181.01
989.44	1145.76
989.737	1124.74
990.035	1115.48
990.332	1119.77
990.63	1103.05
990.927	1099.89
991.224	1128.59
991.521	1114.35
991.819	1113.9
992.116	1082.49
992.413	1102.15
992.71	1084.29
993.006	1083.84
993.303	1085.88
993.6	1080.23
993.897	1078.64
994.193	1072.54
994.49	1085.88
994.787	1075.25
995.083	1063.05
995.379	1087.91
995.676	1064.86
995.972	1041.58
996.268	1050.85
996.565	1029.61
996.861	1042.94
997.157	1051.3
997.453	1048.81
997.749	1002.71
998.044	1022.83
998.34	1005.2
998.636	1012.88
998.932	1013.79
999.227	997.29
999.523	977.18
999.818	973.11
1000.114	973.11
1000.409	1003.17
1000.704	987.35
1001	966.1
1001.295	968.36
1001.59	1011.08
1001.885	984.64
1002.18	962.26
1002.475	992.77
1002.77	913.9
1003.065	963.62
1003.359	954.58
1003.654	931.08
1003.949	914.13
1004.243	912.55
1004.538	921.59
1004.832	929.5
1005.127	917.74
1005.421	918.87
1005.715	926.78
1006.009	897.18
1006.304	859.21
1006.598	896.05
1006.892	900.12
1007.186	854.47
1007.48	875.71
1007.773	869.61
1008.067	871.19
1008.361	855.15
1008.655	891.53
1008.948	858.54
1009.242	863.96
1009.535	869.61
1009.829	842.72
1010.122	858.76
1010.415	824.19
1010.708	837.52
1011.001	810.85
1011.295	842.04
1011.588	831.42
1011.881	820.8
1012.173	829.84
1012.466	821.48
1012.759	813.57
1013.052	805.88
1013.344	827.8
1013.637	784.41
1013.93	801.82
1014.222	794.36
1014.514	824.87
1014.807	781.25
1015.099	786.22
1015.391	784.19
1015.683	755.94
1015.976	771.76
1016.268	768.82
1016.56	756.39
1016.851	772.66
1017.143	763.17
1017.435	759.78
1017.727	758.65
1018.018	753.23
1018.31	737.64
1018.602	754.36
1018.893	728.6
1019.185	735.38
1019.476	741.25
1019.767	736.28
1020.058	718.43
1020.35	724.98
1020.641	722.72
1020.932	710.74
1021.223	720.24
1021.514	713.23
1021.804	700.12
1022.095	729.05
1022.386	708.26
1022.677	686.11
1022.967	685.21
1023.258	692.44
1023.548	667.36
1023.839	684.53
1024.129	676.17
1024.419	696.06
1024.709	657.64
1025	667.81
1025.29	671.42
1025.58	679.78
1025.87	672.1
1026.16	658.09
1026.449	654.7
1026.739	649.05
1027.029	668.03
1027.319	664.42
1027.608	642.05
1027.898	635.94
1028.187	619.9
1028.477	633.46
1028.766	647.69
1029.055	638.2
1029.344	606.57
1029.634	619.22
1029.923	620.35
1030.212	610.86
1030.501	619.67
1030.79	611.76
1031.078	634.81
1031.367	621.71
1031.656	623.97
1031.945	598.43
1032.233	609.96
1032.522	599.11
1032.81	606.34
1033.099	581.26
1033.387	593.46
1033.675	582.84
1033.963	581.03
1034.251	578.54
1034.54	581.48
1034.828	578.09
1035.116	567.7
1035.403	581.93
1035.691	576.51
1035.979	560.01
1036.267	575.61
1036.554	566.57
1036.842	563.18
1037.129	584.42
1037.417	559.56
1037.704	558.43
1037.992	535.61
1038.279	535.83
1038.566	549.62
1038.853	549.62
1039.14	549.62
