Data from blue_clamp_base_FLMS001491_00015.txt Node
Date: Wed Feb 08 15:15:37 GMT 2017
User: dcchb
Spectrometer: FLMS00149
Trigger mode: 0
Integration Time (sec): 2.000000E-2
Scans to average: 10
Electric dark correction enabled: true
Nonlinearity correction enabled: false
Boxcar width: 0
XAxis mode: Wavelengths
Number of Pixels in Spectrum: 2048
>>>>>Begin Spectral Data<<<<<
341.393	-21.37
341.776	-21.37
342.16	-21.37
342.543	-60.46
342.927	-59.11
343.31	-50.97
343.693	-79.22
344.077	-62.27
344.46	-58.88
344.843	-86.45
345.226	-50.52
345.61	-32.67
345.993	-23.63
346.376	-18.66
346.759	17.95
347.142	33.32
347.525	43.94
347.908	76.71
348.291	78.74
348.674	93.66
349.057	118.97
349.44	140.89
349.823	137.04
350.206	159.19
350.588	201.22
350.971	237.61
351.354	217.04
351.737	246.19
352.119	259.3
352.502	266.31
352.884	298.17
353.267	280.32
353.65	288
354.032	298.4
354.414	319.64
354.797	301.33
355.179	330.94
355.562	324.16
355.944	339.3
356.326	337.27
356.709	337.49
357.091	344.04
357.473	371.39
357.855	353.31
358.238	361.22
358.62	353.54
359.002	332.52
359.384	356.93
359.766	364.38
360.148	360.09
360.53	356.7
360.912	363.93
361.294	337.27
361.676	345.17
362.057	335.01
362.439	328
362.821	329.58
363.203	356.02
363.584	327.77
363.966	348.11
364.348	337.72
364.729	340.88
365.111	318.06
365.493	318.96
365.874	326.19
366.256	325.06
366.637	331.84
367.019	349.69
367.4	319.19
367.781	324.84
368.163	305.63
368.544	328.23
368.925	315.8
369.306	321.45
369.688	334.33
370.069	320.77
370.45	308.34
370.831	322.58
371.212	328.9
371.593	323.48
371.974	354.21
372.355	333.65
372.736	324.84
373.117	335.01
373.498	319.41
373.879	306.76
374.26	325.74
374.641	325.29
375.021	320.32
375.402	339.98
375.783	344.95
376.163	324.38
376.544	353.31
376.925	333.2
377.305	358.06
377.686	356.25
378.066	352.41
378.447	352.18
378.827	343.14
379.208	357.15
379.588	337.27
379.968	337.04
380.349	338.62
380.729	337.04
381.109	351.73
381.489	384.04
381.87	372.29
382.25	355.34
382.63	374.1
383.01	375.23
383.39	359.86
383.77	365.96
384.15	365.96
384.53	361.67
384.91	379.98
385.29	392.4
385.67	375
386.049	373.2
386.429	378.17
386.809	399.64
387.189	389.24
387.568	391.73
387.948	421.33
388.328	365.06
388.707	419.52
389.087	402.57
389.466	410.71
389.846	411.16
390.225	400.99
390.605	413.65
390.984	400.09
391.363	413.87
391.743	419.97
392.122	430.37
392.501	417.49
392.881	426.75
393.26	439.86
393.639	436.92
394.018	437.38
394.397	440.77
394.776	445.06
395.155	469.01
395.534	459.07
395.913	471.05
396.292	461.1
396.671	464.49
397.05	464.95
397.429	480.76
397.808	486.87
398.186	496.13
398.565	505.62
398.944	484.83
399.323	488
399.701	488.9
400.08	513.53
400.458	511.27
400.837	515.79
401.215	522.57
401.594	506.75
401.972	506.3
402.351	537.26
402.729	553.3
403.107	541.55
403.486	550.59
403.864	567.09
404.242	559.41
404.62	567.99
404.999	562.8
405.377	595.56
405.755	585.17
406.133	611.38
406.511	597.6
406.889	618.84
407.267	610.03
407.645	597.6
408.023	640.99
408.401	635.79
408.779	617.71
409.156	657.48
409.534	661.32
409.912	658.16
410.29	681.66
410.667	681.89
411.045	669.01
411.422	693.41
411.8	705.39
412.178	715.33
412.555	751.94
412.933	718.5
413.31	742.45
413.687	729.12
414.065	751.27
414.442	774.99
414.819	758.72
415.197	798.95
415.574	810.93
415.951	778.38
416.328	818.16
416.705	800.53
417.082	801.21
417.46	807.54
417.837	839.17
418.214	840.53
418.591	846.4
418.967	812.05
419.344	837.59
419.721	854.77
420.098	877.82
420.475	893.41
420.852	895.67
421.228	888.66
421.605	914.88
421.982	918.27
422.358	916.01
422.735	946.97
423.111	947.64
423.488	938.61
423.864	954.42
424.241	999.17
424.617	982.45
424.994	980.86
425.37	1004.14
425.746	978.83
426.123	1018.6
426.499	1041.43
426.875	1047.3
427.251	1048.21
427.627	1080.97
428.003	1079.62
428.379	1121.2
428.756	1124.36
429.132	1118.49
429.507	1128.2
429.883	1133.85
430.259	1182.89
430.635	1198.03
431.011	1179.28
431.387	1230.8
431.763	1253.4
432.138	1249.56
432.514	1244.36
432.89	1268.77
433.265	1272.16
433.641	1327.07
434.016	1325.26
434.392	1344.47
434.767	1376.56
435.143	1354.41
435.518	1392.83
435.894	1400.51
436.269	1422.66
436.644	1425.82
437.02	1459.5
437.395	1442.77
437.77	1505.82
438.145	1502.88
438.52	1529.78
438.895	1538.82
439.271	1541.08
439.646	1571.13
440.021	1558.25
440.395	1602.09
440.77	1587.85
441.145	1618.14
441.52	1650.68
441.895	1656.1
442.27	1675.99
442.645	1686.38
443.019	1679.38
443.394	1710.56
443.769	1713.5
444.143	1732.93
444.518	1727.06
444.892	1728.87
445.267	1780.17
445.641	1786.49
446.016	1784.01
446.39	1809.77
446.764	1812.25
447.139	1837.34
447.513	1882.31
447.887	1862.42
448.262	1882.99
448.636	1864
449.01	1892.03
449.384	1901.29
449.758	1942.87
450.132	1946.71
450.506	1968.86
450.88	2020.38
451.254	1983.1
451.628	2007.5
452.002	2049.76
452.376	2041.4
452.75	2089.76
453.123	2117.11
453.497	2086.15
453.871	2112.36
454.244	2174.5
454.618	2198.23
454.992	2219.25
455.365	2202.53
455.739	2289.08
456.112	2287.5
456.486	2303.32
456.859	2372.69
457.232	2367.72
457.606	2377.66
457.979	2406.14
458.352	2446.59
458.725	2438.68
459.099	2474.84
459.472	2548.05
459.845	2542.18
460.218	2568.62
460.591	2565.46
460.964	2635.51
461.337	2670.31
461.71	2699.69
462.083	2728.16
462.456	2749.86
462.829	2731.33
463.201	2817.88
463.574	2831.21
463.947	2844.77
464.32	2885.9
464.692	2933.36
465.065	2967.25
465.438	2996.86
465.81	3034.82
466.183	3033.69
466.555	3113.92
466.928	3135.84
467.3	3114.59
467.672	3155.5
468.045	3256.96
468.417	3248.6
468.789	3264.42
469.161	3300.58
469.534	3381.7
469.906	3402.04
470.278	3431.42
470.65	3444.53
471.022	3540.34
471.394	3565.43
471.766	3639.33
472.138	3611.76
472.51	3732.2
472.882	3761.36
473.253	3794.8
473.625	3808.59
473.997	3935.14
474.369	3908.24
474.74	3994.57
475.112	4045.87
475.484	4084.51
475.855	4189.37
476.227	4164.51
476.598	4293.09
476.97	4307.33
477.341	4413.77
477.713	4450.38
478.084	4409.7
478.455	4567.89
478.827	4562.69
479.198	4748.9
479.569	4698.05
479.94	4837.94
480.311	4893.53
480.682	4918.84
481.053	5066.18
481.424	5116.8
481.795	5143.47
482.166	5190.24
482.537	5268.21
482.908	5359.28
483.279	5366.74
483.65	5458.03
484.021	5531.25
484.391	5569.9
484.762	5674.3
485.133	5712.94
485.503	5768.31
485.874	5871.58
486.244	5879.49
486.615	5963.33
486.985	6054.4
487.356	6112.25
487.726	6166.26
488.097	6190.22
488.467	6225.92
488.837	6324.68
489.207	6389.08
489.578	6442.87
489.948	6488.97
490.318	6589.98
490.688	6560.38
491.058	6586.37
491.428	6683.99
491.798	6763.31
492.168	6876.08
492.538	6866.13
492.908	6937.09
493.278	6980.25
493.648	6992.46
494.017	7071.33
494.387	7066.35
494.757	7129.18
495.126	7258.44
495.496	7184.09
495.866	7196.75
496.235	7281.49
496.605	7303.64
496.974	7344.76
497.344	7339.11
497.713	7420.47
498.082	7420.24
498.452	7530.52
498.821	7495.95
499.19	7491.2
499.559	7597.19
499.928	7556.51
500.298	7597.19
500.667	7696.62
501.036	7700.46
501.405	7743.4
501.774	7719.44
502.143	7748.6
502.512	7778.65
502.88	7796.28
503.249	7847.12
503.618	7907.01
503.987	7845.54
504.356	7965.54
504.724	7922.38
505.093	7994.24
505.462	8050.73
505.83	8011.41
506.199	8092.09
506.567	8130.28
506.936	8181.58
507.304	8190.62
507.672	8210.28
508.041	8244.4
508.409	8320.56
508.777	8319.88
509.145	8346.32
509.514	8354.91
509.882	8414.11
510.25	8494.56
510.618	8451.85
510.986	8447.33
511.354	8529.59
511.722	8516.94
512.09	8650.27
512.458	8618.63
512.826	8696.82
513.193	8717.61
513.561	8647.78
513.929	8734.33
514.297	8788.79
514.664	8850.94
515.032	8832.63
515.4	8913.31
515.767	8890.26
516.135	8902.92
516.502	8913.08
516.869	8993.53
517.237	9025.17
517.604	8980.2
517.972	9077.6
518.339	9060.65
518.706	9125.51
519.073	9139.97
519.44	9199.63
519.808	9281.66
520.175	9190.37
520.542	9276.24
520.909	9366.18
521.276	9350.36
521.643	9443.69
522.009	9483.69
522.376	9488.44
522.743	9588.77
523.11	9616.8
523.477	9675.1
523.843	9782.44
524.21	9761.88
524.577	9895.66
524.943	9821.08
525.31	9897.01
525.676	10000.06
526.043	9998.48
526.409	10019.95
526.776	10151.92
527.142	10111.02
527.508	10151.02
527.874	10260.85
528.241	10266.27
528.607	10289.77
528.973	10318.92
529.339	10346.95
529.705	10474.17
530.071	10503.78
530.437	10512.14
530.803	10525.02
531.169	10581.74
531.535	10572.93
531.901	10644.11
532.267	10705.81
532.632	10739.7
532.998	10767.05
533.364	10809.76
533.73	10863.99
534.095	10876.88
534.461	10912.35
534.826	10948.51
535.192	10981.51
535.557	11092.24
535.923	11103.54
536.288	11068.06
536.653	11123.87
537.019	11147.15
537.384	11184.66
537.749	11223.31
538.114	11321.38
538.479	11251.55
538.845	11305.34
539.21	11311.21
539.575	11404.32
539.94	11482.51
540.305	11442.74
540.67	11443.87
541.034	11503.98
541.399	11527.48
541.764	11473.24
542.129	11556.86
542.494	11662.17
542.858	11652.67
543.223	11631.21
543.587	11694.25
543.952	11743.97
544.316	11747.36
544.681	11710.53
545.045	11730.19
545.41	11811.77
545.774	11876.4
546.138	11920.92
546.503	11915.27
546.867	11911.88
547.231	12018.09
547.595	11990.74
547.959	12039.1
548.324	12030.07
548.688	12113.9
549.052	12120.23
549.416	12132.44
549.779	12101.93
550.143	12162.04
550.507	12195.94
550.871	12242.49
551.235	12229.16
551.599	12294.46
551.962	12298.08
552.326	12322.49
552.689	12427.34
553.053	12352.09
553.417	12361.58
553.78	12566.1
554.143	12495.14
554.507	12520
554.87	12482.71
555.234	12671.4
555.597	12641.12
555.96	12632.76
556.323	12704.17
556.686	12647.22
557.05	12798.63
557.413	12782.36
557.776	12749.82
558.139	12892.19
558.502	12865.07
558.865	12835.47
559.228	12998.85
559.59	12930.83
559.953	13030.26
560.316	13186.42
560.679	13048.8
561.041	13109.58
561.404	13240.65
561.767	13264.38
562.129	13246.08
562.492	13315.23
562.854	13294.89
563.217	13339.41
563.579	13394.1
563.941	13523.81
564.304	13550.25
564.666	13660.98
565.028	13580.76
565.39	13637.25
565.753	13747.99
566.115	13769.23
566.477	13807.65
566.839	13808.78
567.201	13912.95
567.563	13886.51
567.925	14088.77
568.287	14019.17
568.648	13985.72
569.01	14118.37
569.372	14190.01
569.734	14200.4
570.095	14271.36
570.457	14346.39
570.819	14425.26
571.18	14380.96
571.542	14446.95
571.903	14529.21
572.265	14539.15
572.626	14554.97
572.987	14611.69
573.349	14618.7
573.71	14638.13
574.071	14833.16
574.432	14748.19
574.794	14900.72
575.155	14872.93
575.516	14841.97
575.877	14904.79
576.238	14992.7
576.599	14950.44
576.96	15123.99
577.32	15134.62
577.681	15104.33
578.042	15236.53
578.403	15192.92
578.763	15198.12
579.124	15268.17
579.485	15262.3
579.845	15262.52
580.206	15366.02
580.566	15327.15
580.927	15361.28
581.287	15413.93
581.648	15395.85
582.008	15459.13
582.368	15458
582.728	15497.54
583.089	15463.65
583.449	15519.46
583.809	15530.09
584.169	15495.28
584.529	15508.39
584.889	15645.79
585.249	15426.59
585.609	15517.2
585.969	15644.43
586.329	15556.75
586.688	15560.14
587.048	15617.32
587.408	15578.67
587.768	15692.12
588.127	15665.9
588.487	15598.56
588.846	15713.81
589.206	15615.51
589.565	15680.14
589.925	15687.14
590.284	15730.53
590.643	15757.42
591.003	15740.7
591.362	15805.78
591.721	15853.24
592.08	15775.96
592.44	15803.3
592.799	15888.49
593.158	15804.43
593.517	15910.41
593.876	15876.74
594.235	15892.56
594.593	15882.17
594.952	15938.21
595.311	15890.53
595.67	15819.8
596.029	15947.02
596.387	15921.49
596.746	16062.95
597.104	15982.73
597.463	15989.06
597.822	16018.21
598.18	15966.46
598.538	15850.08
598.897	16033.35
599.255	15944.76
599.613	16163.74
599.972	16126.23
600.33	16152.22
600.688	16012.33
601.046	16097.75
601.404	16179.56
601.762	16067.47
602.12	16083.29
602.478	16208.26
602.836	16134.36
603.194	16112.44
603.552	16156.06
603.91	16134.59
604.268	16252.55
604.625	16151.09
604.983	16236.51
605.341	16203.29
605.698	16219.33
606.056	16251.42
606.413	16281.93
606.771	16345.21
607.128	16333.68
607.485	16272.67
607.843	16378.65
608.2	16393.34
608.557	16479.21
608.914	16442.6
609.272	16380.01
609.629	16488.25
609.986	16545.2
610.343	16522.38
610.7	16574.58
611.057	16564.41
611.414	16521.47
611.771	16534.13
612.127	16604.41
612.484	16649.15
612.841	16725.31
613.198	16621.13
613.554	16593.11
613.911	16806.89
614.267	16707.91
614.624	16709.49
614.98	16768.02
615.337	16742.48
615.693	16810.96
616.05	16739.09
616.406	16898.19
616.762	16891.18
617.118	16861.8
617.475	16851.63
617.831	16957.39
618.187	16897.73
618.543	16918.98
618.899	17061.57
619.255	16993.1
619.611	16947.68
619.967	17118.07
620.323	17107.22
620.678	17041.46
621.034	17049.14
621.39	17069.93
621.746	17068.8
622.101	17277.38
622.457	17125.3
622.812	17189.25
623.168	17253.2
623.523	17174.56
623.879	17282.36
624.234	17141.57
624.589	17218.86
624.945	17330.49
625.3	17244.84
625.655	17233.32
626.01	17381.56
626.365	17420.21
626.72	17321.9
627.075	17335.24
627.43	17396.93
627.785	17417.95
628.14	17377.04
628.495	17410.49
628.85	17379.75
629.205	17350.83
629.559	17497.27
629.914	17345.63
630.269	17387.44
630.623	17390.6
630.978	17424.95
631.332	17511.5
631.687	17591.05
632.041	17553.99
632.396	17511.95
632.75	17547.43
633.104	17536.59
633.459	17492.97
633.813	17464.05
634.167	17441.9
634.521	17518.73
634.875	17543.37
635.229	17580.88
635.583	17490.94
635.937	17547.43
636.291	17614.1
636.645	17617.49
636.999	17520.09
637.352	17593.76
637.706	17457.94
638.06	17674.21
638.413	17566.64
638.767	17478.28
639.121	17566.87
639.474	17551.05
639.828	17435.35
640.181	17603.7
640.534	17583.59
640.888	17583.14
641.241	17505.18
641.594	17498.17
641.947	17579.98
642.301	17665.17
642.654	17624.72
643.007	17689.8
643.36	17610.26
643.713	17683.25
644.066	17671.72
644.419	17635.79
644.771	17551.95
645.124	17439.19
645.477	17346.99
645.83	17199.65
646.182	17369.59
646.535	17226.31
646.888	17295.69
647.24	17209.36
647.593	17357.38
647.945	17331.85
648.298	17129.14
648.65	17189.7
649.002	17223.6
649.355	17382.24
649.707	17313.99
650.059	17412.52
650.411	17650.26
650.763	17717.6
651.115	17835.34
651.467	17741.33
651.819	17895.67
652.171	17859.29
652.523	17838.5
652.875	17896.35
653.227	17781.33
653.578	17887.76
653.93	17841.89
654.282	17831.04
654.633	17704.72
654.985	17854.77
655.337	17836.47
655.688	17845.05
656.039	18023.35
656.391	17824.71
656.742	17875.56
657.094	17939.51
657.445	18053.86
657.796	17870.82
658.147	17940.42
658.498	17915.11
658.849	17923.02
659.2	17932.51
659.551	17943.13
659.902	18014.54
660.253	17952.62
660.604	17923.47
660.955	17817.26
661.306	17964.37
661.656	18016.12
662.007	17924.15
662.358	17964.82
662.708	17924.37
663.059	18014.54
663.409	17876.46
663.76	18006.41
664.11	18002.34
664.461	18048.21
664.811	18026.07
665.161	17939.51
665.511	18008.44
665.862	17975.22
666.212	18059.74
666.562	17964.15
666.912	17983.58
667.262	17933.64
667.612	17971.83
667.962	18082.56
668.312	17872.85
668.662	18061.77
669.011	17999.63
669.361	17816.13
669.711	17853.41
670.06	17905.16
670.41	17787.65
670.76	17864.94
671.109	17921.66
671.459	17814.09
671.808	17776.81
672.157	17710.37
672.507	17678.5
672.856	17688.67
673.205	17776.35
673.554	17752.17
673.904	17602.35
674.253	17857.71
674.602	17645.96
674.951	17389.92
675.3	17340.21
675.649	17617.71
675.998	17485.51
676.346	17579.3
676.695	17558.73
677.044	17446.19
677.393	17401.68
677.741	17521.9
678.09	17309.47
678.438	17379.3
678.787	17320.1
679.135	17368
679.484	17262.47
679.832	17273.09
680.181	17133.66
680.529	17206.88
680.877	17154
681.225	17150.83
681.573	17295.92
681.922	17109.71
682.27	16945.19
682.618	16972.76
682.966	17074.45
683.314	16922.37
683.661	16956.26
684.009	16832.65
684.357	16780
684.705	16846.21
685.053	16743.16
685.4	16760.11
685.748	16755.59
686.095	16722.15
686.443	16631.3
686.79	16579.32
687.138	16650.73
687.485	16612.09
687.832	16502.04
688.18	16595.82
688.527	16384.07
688.874	16468.37
689.221	16387.46
689.568	16355.38
689.915	16374.36
690.262	16383.85
690.609	16345.88
690.956	16387.24
691.303	16331.19
691.65	16254.59
691.997	16175.94
692.344	16149.5
692.69	16152.89
693.037	16128.94
693.383	16041.03
693.73	16041.94
694.077	15999.68
694.423	15902.51
694.769	15959
695.116	15937.53
695.462	15927.82
695.808	15884.65
696.155	15927.14
696.501	15836.74
696.847	15785.45
697.193	15695.73
697.539	15801.27
697.885	15693.7
698.231	15626.35
698.577	15624.77
698.923	15650.08
699.269	15697.77
699.614	15523.53
699.96	15547.26
700.306	15570.76
700.651	15498.45
700.997	15467.26
701.342	15508.62
701.688	15462.74
702.033	15456.64
702.379	15405.12
702.724	15360.37
703.069	15412.57
703.415	15341.84
703.76	15376.42
704.105	15357.21
704.45	15323.76
704.795	15256.19
705.14	15241.05
705.485	15181.17
705.83	15180.49
706.175	15190.89
706.52	15121.28
706.865	15084.9
707.209	15204.22
707.554	15109.98
707.899	15073.15
708.243	15104.56
708.588	15031.12
708.932	14898.01
709.277	14933.49
709.621	14972.13
709.966	14782.08
710.31	14889.88
710.654	14810.78
710.998	14868.86
711.342	14891.68
711.687	14809.88
712.031	14811.91
712.375	14819.6
712.719	14814.62
713.063	14764.68
713.407	14805.36
713.75	14718.36
714.094	14836.09
714.438	14679.26
714.782	14747.96
715.125	14671.35
715.469	14661.41
715.812	14662.09
716.156	14657.11
716.499	14553.61
716.843	14709.99
717.186	14536.44
717.53	14536.44
717.873	14607.4
718.216	14632.93
718.559	14560.62
718.902	14463.9
719.246	14497.8
719.589	14477.91
719.932	14423
720.275	14497.57
720.617	14483.56
720.96	14412.6
721.303	14383
721.646	14475.65
721.989	14384.35
722.331	14437.46
722.674	14463.67
723.016	14396.33
723.359	14471.13
723.701	14401.75
724.044	14349.33
724.386	14293.96
724.729	14317.91
725.071	14326.95
725.413	14314.3
725.755	14304.58
726.097	14239.5
726.439	14234.98
726.782	14235.66
727.124	14400.62
727.465	14290.57
727.807	14245.83
728.149	14275.66
728.491	14268.2
728.833	14286.95
729.175	14142.33
729.516	14216.45
729.858	14265.71
730.199	14213.74
730.541	14333.96
730.882	14253.51
731.224	14263.23
731.565	14140.74
731.906	14210.35
732.248	14282.44
732.589	14217.8
732.93	14147.52
733.271	14277.46
733.612	14244.47
733.953	14304.58
734.294	14289.21
734.635	14239.95
734.976	14308.42
735.317	14235.88
735.658	14287.86
735.999	14293.73
736.339	14250.12
736.68	14361.3
737.021	14341.64
737.361	14303.9
737.702	14364.01
738.042	14501.41
738.383	14396.1
738.723	14455.09
739.063	14414.41
739.404	14423.45
739.744	14433.39
740.084	14355.65
740.424	14501.86
740.764	14483.79
741.104	14538.93
741.444	14480.4
741.784	14536.67
742.124	14499.6
742.464	14559.94
742.804	14504.12
743.143	14637
743.483	14562.65
743.823	14589.32
744.162	14657.11
744.502	14641.52
744.841	14635.65
745.181	14614.4
745.52	14786.38
745.86	14768.52
746.199	14663.44
746.538	14666.61
746.877	14885.36
747.216	14781.18
747.556	14868.86
747.895	14899.37
748.234	14827.05
748.573	14857.34
748.911	14939.59
749.25	14931.68
749.589	14847.17
749.928	15035.64
750.267	15047.84
750.605	15091.23
750.944	15018.91
751.283	15016.88
751.621	15079.7
751.96	15051.23
752.298	15116.76
752.636	15109.98
752.975	15171.9
753.313	15145.01
753.651	15197.67
753.989	15194.73
754.327	15303.43
754.666	15130.32
755.004	15307.04
755.342	15356.08
755.679	15330.54
756.017	15264.1
756.355	15389.52
756.693	15326.93
757.031	15419.13
757.368	15325.12
757.706	15403.54
758.044	15401.73
758.381	15383.2
758.719	15426.36
759.056	15514.49
759.394	15467.49
759.731	15405.8
760.068	15455.06
760.405	15383.2
760.743	15404.67
761.08	15546.81
761.417	15457.55
761.754	15482.4
762.091	15572.12
762.428	15457.55
762.765	15486.92
763.102	15573.93
763.438	15512.46
763.775	15416.64
764.112	15517.43
764.449	15476.75
764.785	15523.08
765.122	15516.75
765.458	15514.95
765.795	15478.79
766.131	15589.52
766.467	15518.11
766.804	15485.57
767.14	15500.03
767.476	15497.32
767.812	15501.84
768.148	15549.29
768.485	15435.17
768.821	15469.75
769.157	15476.75
769.492	15518.79
769.828	15495.74
770.164	15350.66
770.5	15380.94
770.836	15414.16
771.171	15364.89
771.507	15396.3
771.842	15270.21
772.178	15363.54
772.513	15399.69
772.849	15289.41
773.184	15269.75
773.519	15272.01
773.855	15287.83
774.19	15202.86
774.525	15317.66
774.86	15338.9
775.195	15252.58
775.53	15217.33
775.865	15345.91
776.2	15138.68
776.535	15150.21
776.87	15194.28
777.205	15228.4
777.539	15174.84
777.874	15159.02
778.209	15110.89
778.543	15134.39
778.878	15014.85
779.212	15041.74
779.547	15027.5
779.881	15025.01
780.215	14994.73
780.55	14992.92
780.884	14999.7
781.218	14880.84
781.552	15004.45
781.886	14987.28
782.22	14805.59
782.554	14852.14
782.888	14706.15
783.222	14730.33
783.556	14744.12
783.889	14811.23
784.223	14658.92
784.557	14722.2
784.89	14772.82
785.224	14658.7
785.557	14664.57
785.891	14559.49
786.224	14547.06
786.558	14686.27
786.891	14531.02
787.224	14471.36
787.557	14495.08
787.891	14517.01
788.224	14494.18
788.557	14437.69
788.89	14483.56
789.223	14527.85
789.556	14349.33
789.888	14379.83
790.221	14413.73
790.554	14276.56
790.887	14334.64
791.219	14272.04
791.552	14269.55
791.884	14199.73
792.217	14218.03
792.549	14260.29
792.882	14217.8
793.214	14065.27
793.546	14141.65
793.879	14058.03
794.211	14038.6
794.543	14080.86
794.875	14021.88
795.207	14004.25
795.539	14022.1
795.871	14075.66
796.203	14000.18
796.535	13900.52
796.867	13931.71
797.198	13896.46
797.53	13891.94
797.862	13794.09
798.193	13861.88
798.525	13734.2
798.856	13835.89
799.188	13698.95
799.519	13724.26
799.85	13706.63
800.182	13629.12
800.513	13677.03
800.844	13549.35
801.175	13623.02
801.506	13662.11
801.837	13530.36
802.168	13577.14
802.499	13554.09
802.83	13598.84
803.161	13423.02
803.491	13462.8
803.822	13411.72
804.153	13364.49
804.483	13376.24
804.814	13368.33
805.145	13290.37
805.475	13319.3
805.805	13261.67
806.136	13276.81
806.466	13216.7
806.796	13304.61
807.126	13149.58
807.457	13171.96
807.787	13230.71
808.117	13149.13
808.447	13119.98
808.777	13086.76
809.107	13142.35
809.436	13069.36
809.766	13078.17
810.096	13009.7
810.426	12957.05
810.755	12995.46
811.085	12959.76
811.414	12954.11
811.744	12870.49
812.073	12871.62
812.403	12842.7
812.732	12849.93
813.061	12832.76
813.39	12698.97
813.719	12717.05
814.049	12839.54
814.378	12759.31
814.707	12639.31
815.036	12645.87
815.365	12701.23
815.693	12562.03
816.022	12584.85
816.351	12548.92
816.68	12503.27
817.008	12547.11
817.337	12401.81
817.665	12487.23
817.994	12446.78
818.322	12385.99
818.651	12395.48
818.979	12335.82
819.307	12398.42
819.636	12338.53
819.964	12281.58
820.292	12377.17
820.62	12340.57
820.948	12300.79
821.276	12317.06
821.604	12315.93
821.932	12331.07
822.259	12346.67
822.587	12339.89
822.915	12261.02
823.243	12360
823.57	12334.24
823.898	12374.01
824.225	12306.44
824.553	12288.82
824.88	12431.18
825.207	12339.66
825.535	12397.06
825.862	12422.37
826.189	12334.46
826.516	12390.96
826.843	12429.6
827.17	12404.29
827.497	12445.87
827.824	12406.78
828.151	12467.34
828.478	12434.57
828.805	12396.38
829.131	12477.06
829.458	12420.79
829.785	12408.36
830.111	12345.99
830.438	12457.85
830.764	12392.32
831.09	12521.8
831.417	12343.96
831.743	12413.56
832.069	12485.42
832.395	12351.64
832.722	12429.38
833.048	12337.63
833.374	12376.5
833.7	12352.09
834.026	12320.68
834.351	12393.67
834.677	12329.94
835.003	12404.07
835.329	12352.09
835.654	12351.41
835.98	12374.01
836.306	12259.44
836.631	12253.11
836.956	12293.33
837.282	12292.66
837.607	12221.7
837.932	12221.02
838.258	12214.47
838.583	12280.45
838.908	12205.88
839.233	12249.49
839.558	12222.6
839.883	12067.58
840.208	12216.73
840.533	12091.08
840.858	12043.62
841.182	12050.18
841.507	12102.83
841.832	12029.61
842.156	11982.83
842.481	12030.52
842.805	11975.6
843.13	11965.21
843.454	11997.98
843.778	11891.99
844.103	11854.48
844.427	11898.32
844.751	11884.76
845.075	11804.08
845.399	11826.68
845.723	11765.67
846.047	11775.83
846.371	11734.71
846.695	11720.92
847.019	11533.81
847.343	11527.25
847.666	11468.27
847.99	11438.89
848.313	11424.66
848.637	11364.32
848.96	11318.22
849.284	11275.28
849.607	11169.52
849.931	11255.62
850.254	11144.66
850.577	11071.45
850.9	10993.26
851.223	10995.97
851.546	10935.63
851.869	10914.16
852.192	10964.56
852.515	10855.18
852.838	10797.78
853.161	10747.61
853.483	10772.92
853.806	10727.95
854.129	10692.93
854.451	10692.7
854.774	10676.88
855.096	10599.14
855.419	10586.04
855.741	10579.26
856.063	10496.55
856.385	10479.15
856.708	10406.15
857.03	10337.68
857.352	10421.07
857.674	10350.56
857.996	10275.31
858.318	10319.83
858.64	10292.94
858.961	10298.13
859.283	10169.55
859.605	10182.43
859.926	10171.36
860.248	10130.45
860.57	10177.91
860.891	10126.61
861.212	10062.66
861.534	10012.72
861.855	10125.03
862.176	10056.56
862.498	10078.48
862.819	10010.68
863.14	10027.86
863.461	9940.85
863.782	9951.48
864.103	9937.69
864.424	9945.37
864.745	9944.7
865.065	9896.34
865.386	9879.16
865.707	9838.71
866.027	9878.03
866.348	9825.15
866.668	9814.3
866.989	9722.56
867.309	9723.91
867.63	9762.1
867.95	9681.65
868.27	9637.81
868.59	9738.37
868.91	9686.85
869.23	9697.25
869.55	9661.99
869.87	9675.32
870.19	9636.23
870.51	9600.07
870.83	9609.79
871.15	9545.84
871.469	9600.75
871.789	9598.94
872.109	9545.84
872.428	9566.63
872.748	9534.99
873.067	9502.9
873.386	9557.59
873.706	9527.08
874.025	9485.5
874.344	9489.11
874.663	9477.14
874.982	9425.61
875.301	9439.17
875.62	9401.21
875.939	9402.11
876.258	9365.95
876.577	9344.94
876.896	9338.38
877.214	9350.81
877.533	9313.75
877.852	9321.44
878.17	9291.61
878.489	9320.76
878.807	9261.78
879.125	9180.42
879.444	9224.94
879.762	9199.63
880.08	9212.96
880.398	9189.01
880.716	9206.86
881.034	9146.75
881.352	9154.43
881.67	9088.45
881.988	9180.2
882.306	9104.72
882.624	9072.85
882.941	9024.04
883.259	8953.99
883.577	8952.41
883.894	9037.6
884.212	8964.16
884.529	8987.43
884.846	8979.07
885.164	8928.68
885.481	8870.6
885.798	8897.04
886.115	8841.9
886.432	8825.18
886.75	8796.03
887.067	8815.23
887.383	8762.58
887.7	8773.65
888.017	8706.54
888.334	8668.12
888.651	8706.76
888.967	8622.25
889.284	8708.12
889.6	8599.42
889.917	8569.14
890.233	8576.82
890.55	8566.43
890.866	8530.04
891.182	8505.41
891.498	8525.3
891.815	8470.16
892.131	8447.56
892.447	8406.43
892.763	8396.49
893.079	8324.4
893.395	8296.6
893.71	8349.03
894.026	8289.15
894.342	8258.19
894.657	8228.36
894.973	8170.51
895.289	8180.22
895.604	8192.43
895.92	8098.19
896.235	8104.07
896.55	8092.32
896.865	8010.51
897.181	8009.61
897.496	8042.83
897.811	7980.68
898.126	7947.46
898.441	7917.63
898.756	7949.04
899.071	7891.42
899.386	7873.34
899.7	7779.33
900.015	7786.33
900.33	7712.44
900.644	7719.67
900.959	7694.81
901.273	7694.81
901.588	7646
901.902	7597.41
902.216	7563.06
902.531	7543.18
902.845	7536.17
903.159	7493.46
903.473	7450.52
903.787	7466.57
904.101	7420.02
904.415	7382.73
904.729	7382.05
905.042	7355.61
905.356	7348.61
905.67	7265.44
905.984	7313.8
906.297	7300.25
906.611	7170.31
906.924	7216.86
907.237	7195.84
907.551	7167.37
907.864	7086.24
908.177	7099.57
908.491	7100.93
908.804	7069.07
909.117	7011.67
909.43	6974.15
909.743	6967.37
910.056	6950.88
910.368	6916.98
910.681	6855.06
910.994	6915.4
911.307	6777.32
911.619	6751.11
911.932	6815.06
912.244	6665.46
912.557	6724.89
912.869	6678.57
913.181	6623.65
913.494	6641.96
913.806	6627.5
914.118	6578.01
914.43	6512.7
914.742	6569.42
915.054	6496.65
915.366	6480.83
915.678	6459.14
915.99	6441.29
916.302	6345.02
916.613	6367.39
916.925	6340.5
917.236	6295.75
917.548	6277.67
917.859	6284.45
918.171	6276.09
918.482	6251.69
918.794	6139.6
919.105	6139.37
919.416	6134.63
919.727	6065.48
920.038	6101.41
920.349	6054.85
920.66	6049.66
920.971	6072.26
921.282	6004.91
921.593	5934.63
921.903	5916.78
922.214	5889.44
922.525	5920.4
922.835	5852.83
923.146	5863.22
923.456	5825.03
923.767	5791.59
924.077	5759.5
924.387	5712.72
924.697	5714.3
925.008	5716.78
925.318	5640.85
925.628	5638.14
925.938	5616.9
926.248	5578.71
926.558	5505.49
926.867	5526.28
927.177	5515.66
927.487	5483.34
927.796	5377.81
928.106	5424.81
928.416	5457.36
928.725	5428.66
929.034	5351.14
929.344	5352.95
929.653	5378.71
929.962	5317.47
930.271	5305.27
930.581	5285.16
930.89	5222.33
931.199	5216.91
931.508	5214.43
931.817	5198.83
932.125	5180.08
932.434	5145.05
932.743	5144.82
933.051	5116.57
933.36	5051.49
933.669	5052.4
933.977	4992.74
934.286	5006.52
934.594	4971.49
934.902	4961.32
935.21	4910.48
935.519	4929.01
935.827	4907.99
936.135	4891.72
936.443	4859.86
936.751	4829.58
937.059	4840.88
937.367	4783.25
937.674	4830.48
937.982	4784.83
938.29	4743.7
938.597	4734.44
938.905	4682.69
939.213	4688.11
939.52	4658.73
939.827	4666.87
940.135	4649.92
940.442	4593.65
940.749	4600.2
941.056	4639.3
941.363	4522.47
941.67	4578.28
941.977	4491.51
942.284	4465.07
942.591	4503.94
942.898	4468.91
943.205	4439.3
943.511	4397.05
943.818	4423.26
944.125	4355.46
944.431	4361.57
944.738	4348.46
945.044	4342.81
945.35	4358.63
945.657	4302.36
945.963	4264.39
946.269	4269.59
946.575	4242.25
946.881	4252.87
947.187	4214.23
947.493	4166.99
947.799	4151.63
948.105	4137.62
948.41	4124.06
948.716	4129.71
949.022	4071.86
949.327	4115.02
949.633	4066.43
949.938	4030.73
950.244	4020.56
950.549	3982.37
950.854	3986.21
951.16	3998.41
951.465	3986.21
951.77	3950.73
952.075	3945.08
952.38	3925.42
952.685	3899.88
952.99	3830.96
953.294	3908.7
953.599	3842.03
953.904	3805.42
954.209	3800.45
954.513	3774.46
954.818	3800
955.122	3773.56
955.426	3735.37
955.731	3718.65
956.035	3724.75
956.339	3721.13
956.643	3688.59
956.948	3677.29
957.252	3657.86
957.556	3628.7
957.86	3642.94
958.163	3661.7
958.467	3602.04
958.771	3598.65
959.075	3565.88
959.378	3509.84
959.682	3477.75
959.985	3524.07
960.289	3502.83
960.592	3513.9
960.896	3443.85
961.199	3427.58
961.502	3450.86
961.805	3432.1
962.108	3359.33
962.411	3422.83
962.714	3394.81
963.017	3364.76
963.32	3380.12
963.623	3355.49
963.926	3342.38
964.228	3309.16
964.531	3288.15
964.833	3274.82
965.136	3273.69
965.438	3286.79
965.741	3254.7
966.043	3260.13
966.345	3214.7
966.648	3208.83
966.95	3228.26
967.252	3202.73
967.554	3163.18
967.856	3161.82
968.158	3145.55
968.46	3119.56
968.761	3089.74
969.063	3080.7
969.365	3077.31
969.666	3057.65
969.968	3007.25
970.269	3035.95
970.571	3047.48
970.872	2995.73
971.174	2989.4
971.475	2977.42
971.776	2976.52
972.077	2955.5
972.378	2958.89
972.679	2968.16
972.98	2976.52
973.281	2910.53
973.582	2895.16
973.883	2900.14
974.183	2852.91
974.484	2849.29
974.785	2879.8
975.085	2862.62
975.386	2830.98
975.686	2832.34
975.986	2810.19
976.287	2790.53
976.587	2752.34
976.887	2779.91
977.187	2763.19
977.487	2739.24
977.787	2754.83
978.087	2710.99
978.387	2707.15
978.687	2732.68
978.987	2679.8
979.286	2705.79
979.586	2674.6
979.885	2657.66
980.185	2634.38
980.484	2623.31
980.784	2629.41
981.083	2633.02
981.382	2613.36
981.682	2577.43
981.981	2576.98
982.28	2549.18
982.579	2541.95
982.878	2543.53
983.177	2529.75
983.475	2507.15
983.774	2504.67
984.073	2524.33
984.372	2516.87
984.67	2457.21
984.969	2461.5
985.267	2460.6
985.566	2449.3
985.864	2422.18
986.162	2428.28
986.461	2381.96
986.759	2408.17
987.057	2438.23
987.355	2402.52
987.653	2380.15
987.951	2372.47
988.249	2325.46
988.547	2353.48
988.844	2322.75
989.142	2308.06
989.44	2314.61
989.737	2276.65
990.035	2273.49
990.332	2286.14
990.63	2248.63
990.927	2245.24
991.224	2245.92
991.521	2263.09
991.819	2242.07
992.116	2222.19
992.413	2196.2
992.71	2183.77
993.006	2177.67
993.303	2195.75
993.6	2153.26
993.897	2139.48
994.193	2153.71
994.49	2127.27
994.787	2090.21
995.083	2100.83
995.379	2125.24
995.676	2101.06
995.972	2081.4
996.268	2052.02
996.565	2054.96
996.861	2029.42
997.157	2047.5
997.453	2045.92
997.749	2000.05
998.044	2004.11
998.34	1991.91
998.636	2015.19
998.932	1996.43
999.227	1968.41
999.523	1977.22
999.818	1937.68
1000.114	1935.64
1000.409	1947.39
1000.704	1951.23
1001	1917.11
1001.295	1905.13
1001.59	1884.34
1001.885	1866.49
1002.18	1891.57
1002.475	1864
1002.77	1852.25
1003.065	1839.6
1003.359	1876.66
1003.654	1840.05
1003.949	1813.38
1004.243	1772.26
1004.538	1818.36
1004.832	1787.4
1005.127	1802.31
1005.421	1760.5
1005.715	1759.6
1006.009	1770
1006.304	1743.78
1006.598	1756.21
1006.892	1738.36
1007.186	1730.67
1007.48	1710.79
1007.773	1693.39
1008.067	1694.52
1008.361	1693.61
1008.655	1672.37
1008.948	1675.99
1009.242	1658.13
1009.535	1642.54
1009.829	1595.54
1010.122	1641.64
1010.415	1642.99
1010.708	1604.12
1011.001	1615.88
1011.295	1581.75
1011.588	1567.29
1011.881	1582.88
1012.173	1587.18
1012.466	1561.41
1012.759	1523.22
1013.052	1535.65
1013.344	1500.62
1013.637	1517.8
1013.93	1536.1
1014.222	1524.8
1014.514	1496.56
1014.807	1485.26
1015.099	1456.11
1015.391	1465.37
1015.683	1446.16
1015.976	1453.62
1016.268	1475.77
1016.56	1452.94
1016.851	1433.73
1017.143	1429.67
1017.435	1403.9
1017.727	1386.05
1018.018	1370.68
1018.31	1391.25
1018.602	1367.75
1018.893	1369.55
1019.185	1386.28
1019.476	1334.75
1019.767	1346.73
1020.058	1345.15
1020.35	1338.37
1020.641	1287.07
1020.932	1275.09
1021.223	1299.73
1021.514	1301.31
1021.804	1271.03
1022.095	1275.32
1022.386	1278.48
1022.677	1271.48
1022.967	1254.76
1023.258	1234.87
1023.548	1255.66
1023.839	1210.24
1024.129	1202.1
1024.419	1194.42
1024.709	1217.24
1025	1194.87
1025.29	1168.66
1025.58	1181.54
1025.87	1185.15
1026.16	1149.67
1026.449	1146.74
1026.739	1161.65
1027.029	1160.29
1027.319	1168.43
1027.608	1131.14
1027.898	1138.37
1028.187	1120.52
1028.477	1111.03
1028.766	1111.71
1029.055	1100.63
1029.344	1076.45
1029.634	1082.78
1029.923	1072.16
1030.212	1070.58
1030.501	1071.94
1030.79	1045.27
1031.078	1037.13
1031.367	1038.72
1031.656	1052.27
1031.945	1014.76
1032.233	1037.13
1032.522	1036.91
1032.81	1037.36
1033.099	987.64
1033.387	996.91
1033.675	996.23
1033.963	991.49
1034.251	978.83
1034.54	961.43
1034.828	957.59
1035.116	965.05
1035.403	952.84
1035.691	950.36
1035.979	942.45
1036.267	924.37
1036.554	954.2
1036.842	940.19
1037.129	913.75
1037.417	909.91
1037.704	923.24
1037.992	902
1038.279	869.91
1038.566	888.44
1038.853	888.44
1039.14	888.44
