Data from blue_surface_keyboard_FLMS001491_074.txt Node
Date: Tue Feb 07 11:13:38 GMT 2017
User: dcchb
Spectrometer: FLMS00149
Trigger mode: 0
Integration Time (sec): 2.000000E-2
Scans to average: 10
Electric dark correction enabled: true
Nonlinearity correction enabled: false
Boxcar width: 0
XAxis mode: Wavelengths
Number of Pixels in Spectrum: 2048
>>>>>Begin Spectral Data<<<<<
341.393	-2.42
341.776	-2.42
342.16	-2.42
342.543	-64.33
342.927	-65.46
343.31	-61.4
343.693	-76.54
344.077	-78.57
344.46	-72.24
344.843	-65.92
345.226	-36.76
345.61	-35.41
345.993	-28.63
346.376	-3.32
346.759	14.31
347.142	48.88
347.525	41.43
347.908	60.41
348.291	75.1
348.674	110.12
349.057	108.54
349.44	106.28
349.823	141.76
350.206	140.63
350.588	169.11
350.971	200.52
351.354	207.3
351.737	214.3
352.119	233.06
352.502	214.98
352.884	238.48
353.267	262.66
353.65	284.36
354.032	265.83
354.414	292.94
354.797	288.65
355.179	281.87
355.562	294.75
355.944	272.83
356.326	304.92
356.709	314.41
357.091	304.02
357.473	331.81
357.855	327.97
358.238	341.53
358.62	329.33
359.002	326.16
359.384	304.47
359.766	309.67
360.148	321.19
360.53	303.57
360.912	293.62
361.294	307.41
361.676	306.05
362.057	306.5
362.439	326.39
362.821	301.31
363.203	325.49
363.584	289.78
363.966	300.4
364.348	280.97
364.729	290.46
365.111	300.18
365.493	287.75
365.874	300.63
366.256	289.1
366.637	286.84
367.019	297.01
367.4	282.32
367.781	266.05
368.163	292.04
368.544	298.59
368.925	280.52
369.306	296.56
369.688	283.45
370.069	282.55
370.45	281.65
370.831	292.27
371.212	287.52
371.593	296.79
371.974	264.7
372.355	290.01
372.736	286.16
373.117	265.37
373.498	285.71
373.879	292.72
374.26	287.07
374.641	290.23
375.021	293.62
375.402	282.78
375.783	281.87
376.163	279.16
376.544	303.57
376.925	294.53
377.305	297.69
377.686	304.47
378.066	291.59
378.447	304.7
378.827	323.9
379.208	292.94
379.588	316.67
379.968	294.3
380.349	290.91
380.729	298.37
381.109	293.85
381.489	305.15
381.87	282.1
382.25	276.67
382.63	289.55
383.01	310.8
383.39	304.47
383.77	322.77
384.15	300.18
384.53	301.31
384.91	286.39
385.29	315.32
385.67	292.27
386.049	313.96
386.429	322.77
386.809	304.24
387.189	318.03
387.568	289.1
387.948	306.05
388.328	322.77
388.707	295.2
389.087	308.76
389.466	286.84
389.846	312.38
390.225	309.44
390.605	322.55
390.984	315.09
391.363	315.54
391.743	304.7
392.122	294.3
392.501	300.63
392.881	339.27
393.26	324.13
393.639	310.12
394.018	319.38
394.397	331.59
394.776	322.77
395.155	317.35
395.534	322.55
395.913	307.41
396.292	337.46
396.671	310.12
397.05	321.87
397.429	324.36
397.808	315.99
398.186	301.31
398.565	339.5
398.944	344.24
399.323	340.63
399.701	324.13
400.08	312.83
400.458	318.93
400.837	324.36
401.215	310.12
401.594	333.85
401.972	338.82
402.351	337.01
402.729	346.73
403.107	323
403.486	332.27
403.864	334.75
404.242	345.6
404.62	334.53
404.999	333.17
405.377	358.25
405.755	350.57
406.133	334.3
406.511	329.55
406.889	326.84
407.267	348.08
407.645	345.15
408.023	358.71
408.401	348.99
408.779	367.74
409.156	372.49
409.534	349.21
409.912	353.73
410.29	337.46
410.667	366.16
411.045	354.41
411.422	364.13
411.8	357.58
412.178	370.23
412.555	360.97
412.933	370.46
413.31	352.6
413.687	374.07
414.065	377.91
414.442	390.57
414.819	378.37
415.197	364.35
415.574	388.31
415.951	366.16
416.328	366.16
416.705	389.89
417.082	380.4
417.46	384.69
417.837	385.15
418.214	384.92
418.591	386.05
418.967	398.7
419.344	391.47
419.721	383.56
420.098	378.59
420.475	365.94
420.852	402.55
421.228	397.8
421.605	391.7
421.982	409.33
422.358	388.76
422.735	393.05
423.111	383.79
423.488	405.26
423.864	394.86
424.241	412.04
424.617	420.17
424.994	428.08
425.37	414.52
425.746	387.63
426.123	396.9
426.499	410.68
426.875	436.9
427.251	426.5
427.627	421.3
428.003	433.96
428.379	429.44
428.756	418.59
429.132	428.76
429.507	441.64
429.883	431.92
430.259	436.9
430.635	408.87
431.011	439.16
431.387	447.97
431.763	435.31
432.138	443.22
432.514	450.68
432.89	439.16
433.265	465.6
433.641	449.78
434.016	449.55
434.392	459.49
434.767	447.06
435.143	453.62
435.518	447.52
435.894	457.46
436.269	461.53
436.644	459.27
437.02	494.75
437.395	463.79
437.77	478.93
438.145	477.8
438.52	464.01
438.895	492.26
439.271	488.87
439.646	486.84
440.021	481.41
440.395	483
440.77	499.27
441.145	489.55
441.52	503.56
441.895	508.31
442.27	506.95
442.645	491.81
443.019	505.59
443.394	522.32
443.769	517.57
444.143	524.12
444.518	512.15
444.892	519.15
445.267	512.15
445.641	519.15
446.016	528.42
446.39	520.73
446.764	516.67
447.139	527.06
447.513	524.35
447.887	541.53
448.262	557.57
448.636	532.26
449.01	531.58
449.384	549.89
449.758	545.14
450.132	541.3
450.506	551.47
450.88	535.88
451.254	529.1
451.628	542.66
452.002	548.53
452.376	548.53
452.75	551.92
453.123	548.3
453.497	550.11
453.871	544.24
454.244	537.46
454.618	577
454.992	572.71
455.365	591.92
455.739	577.91
456.112	604.57
456.486	574.07
456.859	579.94
457.232	593.73
457.606	597.8
457.979	614.74
458.352	589.89
458.725	589.43
459.099	594.41
459.472	624.01
459.845	621.52
460.218	597.8
460.591	613.61
460.964	640.96
461.337	614.29
461.71	643.67
462.083	635.76
462.456	634.86
462.829	624.69
463.201	662.43
463.574	626.49
463.947	652.03
464.32	651.35
464.692	645.93
465.065	648.64
465.438	652.03
465.81	668.53
466.183	650.22
466.555	708.3
466.928	682.54
467.3	667.85
467.672	678.02
468.045	711.69
468.417	711.46
468.789	715.31
469.161	706.72
469.534	725.48
469.906	741.29
470.278	719.15
470.65	755.3
471.022	749.66
471.394	756.89
471.766	749.88
472.138	764.34
472.51	759.82
472.882	778.13
473.253	772.48
473.625	771.12
473.997	788.07
474.369	809.09
474.74	800.5
475.112	824.68
475.484	846.83
475.855	837.79
476.227	816.32
476.598	819.03
476.97	877.34
477.341	870.78
477.713	849.09
478.084	885.47
478.455	885.47
478.827	882.53
479.198	885.92
479.569	890.89
479.94	919.59
480.311	941.51
480.682	946.49
481.053	947.39
481.424	977.9
481.795	969.76
482.166	972.93
482.537	971.57
482.908	989.65
483.279	973.83
483.65	1012.47
484.021	988.52
484.391	1004.34
484.762	1018.8
485.133	1021.96
485.503	1014.73
485.874	1058.12
486.244	1064.22
486.615	1052.25
486.985	1066.48
487.356	1101.74
487.726	1080.49
488.097	1091.34
488.467	1089.99
488.837	1102.64
489.207	1140.38
489.578	1121.85
489.948	1103.32
490.318	1140.38
490.688	1132.47
491.058	1135.63
491.428	1139.7
491.798	1142.19
492.168	1158.01
492.538	1174.73
492.908	1186.25
493.278	1184.45
493.648	1203.88
494.017	1179.47
494.387	1180.6
494.757	1194.39
495.126	1191.45
495.496	1225.12
495.866	1229.42
496.235	1216.54
496.605	1238.23
496.974	1225.58
497.344	1238.46
497.713	1250.21
498.082	1258.79
498.452	1252.24
498.821	1217.67
499.19	1219.93
499.559	1271
499.928	1235.29
500.298	1234.84
500.667	1274.16
501.036	1242.98
501.405	1277.33
501.774	1276.87
502.143	1261.73
502.512	1269.19
502.88	1296.99
503.249	1271.45
503.618	1281.84
503.987	1277.78
504.356	1287.27
504.724	1305.12
505.093	1294.05
505.462	1273.71
505.83	1294.95
506.199	1278.68
506.567	1297.21
506.936	1312.8
507.304	1305.12
507.672	1336.98
508.041	1304.67
508.409	1306.02
508.777	1324.56
509.145	1334.95
509.514	1343.54
509.882	1336.76
510.25	1352.35
510.618	1333.14
510.986	1332.92
511.354	1352.8
511.722	1380.6
512.09	1364.1
512.458	1351.67
512.826	1361.84
513.193	1327.72
513.561	1348.06
513.929	1369.53
514.297	1367.04
514.664	1367.94
515.032	1377.21
515.4	1379.02
515.767	1413.14
516.135	1423.99
516.502	1387.38
516.869	1402.07
517.237	1415.85
517.604	1395.97
517.972	1417.66
518.339	1411.56
518.706	1402.75
519.073	1401.62
519.44	1391.45
519.808	1412.24
520.175	1393.25
520.542	1424.67
520.909	1427.83
521.276	1425.57
521.643	1424.89
522.009	1419.47
522.376	1422.63
522.743	1445.23
523.11	1416.3
523.477	1453.14
523.843	1421.73
524.21	1468.96
524.577	1433.25
524.943	1469.86
525.31	1485.91
525.676	1471.44
526.043	1468.96
526.409	1488.39
526.776	1473.7
527.142	1477.09
527.508	1491.1
527.874	1475.96
528.241	1485.23
528.607	1482.97
528.973	1503.31
529.339	1497.88
529.705	1499.24
530.071	1498.34
530.437	1504.21
530.803	1520.71
531.169	1518
531.535	1512.8
531.901	1497.21
532.267	1519.58
532.632	1536.98
532.998	1509.64
533.364	1539.47
533.73	1503.76
534.095	1514.38
534.461	1548.5
534.826	1539.69
535.192	1542.4
535.557	1533.82
535.923	1523.87
536.288	1532.91
536.653	1520.26
537.019	1560.26
537.384	1550.09
537.749	1533.82
538.114	1525.23
538.479	1537.88
538.845	1550.31
539.21	1554.38
539.575	1541.95
539.94	1521.16
540.305	1523.65
540.67	1559.8
541.034	1574.27
541.399	1560.48
541.764	1566.13
542.129	1553.93
542.494	1536.53
542.858	1578.79
543.223	1553.7
543.587	1537.21
543.952	1569.07
544.316	1553.7
544.681	1544.66
545.045	1556.19
545.41	1535.17
545.774	1585.34
546.138	1570.65
546.503	1581.72
546.867	1544.89
547.231	1575.62
547.595	1551.89
547.959	1555.28
548.324	1579.01
548.688	1567.04
549.052	1575.17
549.416	1589.18
549.779	1567.26
550.143	1577.2
550.507	1578.56
550.871	1567.71
551.235	1567.04
551.599	1586.92
551.962	1615.4
552.326	1591.22
552.689	1570.65
553.053	1586.47
553.417	1588.96
553.78	1619.69
554.143	1634.6
554.507	1626.47
554.87	1619.92
555.234	1595.28
555.597	1592.12
555.96	1625.11
556.323	1617.2
556.686	1620.82
557.05	1603.87
557.413	1599.58
557.776	1604.55
558.139	1624.43
558.502	1636.19
558.865	1638.22
559.228	1597.32
559.59	1633.02
559.953	1633.93
560.316	1611.78
560.679	1645.9
561.041	1632.8
561.404	1643.64
561.767	1642.06
562.129	1641.61
562.492	1642.29
562.854	1627.15
563.217	1622.85
563.579	1654.49
563.941	1669.18
564.304	1666.92
564.666	1682.29
565.028	1683.42
565.39	1647.71
565.753	1660.37
566.115	1677.31
566.477	1681.16
566.839	1676.86
567.201	1687.03
567.563	1698.33
567.925	1694.49
568.287	1714.15
568.648	1681.38
569.01	1685.9
569.372	1674.6
569.734	1713.02
570.095	1701.72
570.457	1701.49
570.819	1682.96
571.18	1717.54
571.542	1729.06
571.903	1729.52
572.265	1706.69
572.626	1708.95
572.987	1739.23
573.349	1748.73
573.71	1741.04
574.071	1732.45
574.432	1707.82
574.794	1704.43
575.155	1729.74
575.516	1726.8
575.877	1747.6
576.238	1749.4
576.599	1765.45
576.96	1737.65
577.32	1743.75
577.681	1763.41
578.042	1733.58
578.403	1761.83
578.763	1764.09
579.124	1794.15
579.485	1739.46
579.845	1781.49
580.206	1754.37
580.566	1779.46
580.927	1762.74
581.287	1776.52
581.648	1764.77
582.008	1779.23
582.368	1772.68
582.728	1796.41
583.089	1781.04
583.449	1768.39
583.809	1768.16
584.169	1812
584.529	1755.5
584.889	1774.71
585.249	1775.39
585.609	1777.65
585.969	1781.94
586.329	1793.7
586.688	1777.2
587.048	1798.67
587.408	1772.68
587.768	1796.18
588.127	1783.3
588.487	1764.54
588.846	1786.24
589.206	1785.11
589.565	1767.26
589.925	1786.69
590.284	1812
590.643	1813.58
591.003	1782.4
591.362	1814.26
591.721	1819.68
592.08	1812.45
592.44	1811.55
592.799	1837.31
593.158	1820.36
593.517	1822.17
593.876	1826.69
594.235	1811.55
594.593	1812.23
594.952	1774.26
595.311	1797.99
595.67	1815.39
596.029	1820.36
596.387	1853.81
596.746	1816.29
597.104	1810.42
597.463	1833.92
597.822	1832.11
598.18	1831.89
598.538	1818.33
598.897	1827.37
599.255	1818.55
599.613	1826.01
599.972	1851.32
600.33	1832.11
600.688	1805.45
601.046	1832.79
601.404	1859
601.762	1850.42
602.12	1810.19
602.478	1872.34
602.836	1842.51
603.194	1843.86
603.552	1829.85
603.91	1849.74
604.268	1848.61
604.625	1850.64
604.983	1817.65
605.341	1867.37
605.698	1832.56
606.056	1860.81
606.413	1858.1
606.771	1873.47
607.128	1863.98
607.485	1834.37
607.843	1871.43
608.2	1861.94
608.557	1853.58
608.914	1891.32
609.272	1856.29
609.629	1892.9
609.986	1894.94
610.343	1854.94
610.7	1884.31
611.057	1886.57
611.414	1858.33
611.771	1921.6
612.127	1898.78
612.484	1930.64
612.841	1926.12
613.198	1910.98
613.554	1886.35
613.911	1905.56
614.267	1927.25
614.624	1897.42
614.98	1911.21
615.337	1917.76
615.693	1937.65
616.05	1913.24
616.406	1941.71
616.762	1906.24
617.118	1957.53
617.475	1935.61
617.831	1965.44
618.187	1948.72
618.543	1960.92
618.899	1942.17
619.255	1972.45
619.611	1927.7
619.967	1995.72
620.323	1955.95
620.678	1937.42
621.034	1938.78
621.39	1959.12
621.746	1955.27
622.101	2002.96
622.457	1960.7
622.812	1967.02
623.168	1968.61
623.523	1938.32
623.879	2004.99
624.234	2005.67
624.589	1977.87
624.945	1969.96
625.3	1958.89
625.655	1981.26
626.01	1988.72
626.365	1983.52
626.72	2002.28
627.075	1956.63
627.43	1976.52
627.785	1989.17
628.14	1995.05
628.495	2002.28
628.85	1987.59
629.205	1988.04
629.559	2013.58
629.914	2004.31
630.269	2024.88
630.623	1976.29
630.978	2015.16
631.332	2064.2
631.687	2041.37
632.041	2014.71
632.396	2017.19
632.75	2008.61
633.104	2027.59
633.459	2016.29
633.813	2022.62
634.167	2038.44
634.521	2044.31
634.875	2029.62
635.229	2070.98
635.583	2044.08
635.937	2023.29
636.291	2035.05
636.645	2047.02
636.999	2078.21
637.352	2045.89
637.706	2071.65
638.06	2073.24
638.413	2056.51
638.767	2077.08
639.121	2082.05
639.474	2075.27
639.828	2099.68
640.181	2079.34
640.534	2099.9
640.888	2099.9
641.241	2072.11
641.594	2126.79
641.947	2135.38
642.301	2131.77
642.654	2151.88
643.007	2115.5
643.36	2124.31
643.713	2144.42
644.066	2164.99
644.419	2134.25
644.771	2117.08
645.124	2144.87
645.477	2112.11
645.83	2108.26
646.182	2130.64
646.535	2118.21
646.888	2108.49
647.24	2149.17
647.593	2144.87
647.945	2168.83
648.298	2144.65
648.65	2142.39
649.002	2171.09
649.355	2160.47
649.707	2183.97
650.059	2170.64
650.411	2235.94
650.763	2259.67
651.115	2271.2
651.467	2277.52
651.819	2264.87
652.171	2278.65
652.523	2280.69
652.875	2285.66
653.227	2307.13
653.578	2309.16
653.93	2314.13
654.282	2298.77
654.633	2314.59
654.985	2341.48
655.337	2306.22
655.688	2362.04
656.039	2341.03
656.391	2379.67
656.742	2371.76
657.094	2392.55
657.445	2380.35
657.796	2426.45
658.147	2397.52
658.498	2431.65
658.849	2444.75
659.2	2456.28
659.551	2448.82
659.902	2511.64
660.253	2472.55
660.604	2502.83
660.955	2468.48
661.306	2512.77
661.656	2531.3
662.007	2511.19
662.358	2532.66
662.708	2525.2
663.059	2582.15
663.409	2534.92
663.76	2550.29
664.11	2584.86
664.461	2574.47
664.811	2612.21
665.161	2599.32
665.511	2637.52
665.862	2642.04
666.212	2604.75
666.562	2648.59
666.912	2623.5
667.262	2698.08
667.612	2666.44
667.962	2695.37
668.312	2690.17
668.662	2704.18
669.011	2694.92
669.361	2722.48
669.711	2712.32
670.06	2749.6
670.41	2752.54
670.76	2737.85
671.109	2745.54
671.459	2771.07
671.808	2768.13
672.157	2805.87
672.507	2789.38
672.856	2782.6
673.205	2797.74
673.554	2847.68
673.904	2855.36
674.253	2878.19
674.602	2850.39
674.951	2852.42
675.3	2828.02
675.649	2888.81
675.998	2884.97
676.346	2943.72
676.695	2910.05
677.044	2920.22
677.393	2913.67
677.741	2905.08
678.09	2936.49
678.438	2933.78
678.787	2954.8
679.135	2999.54
679.484	2969.71
679.832	3014.68
680.181	2955.93
680.529	2979.65
680.877	2980.11
681.225	3005.87
681.573	3048.8
681.922	3030.27
682.27	3031.63
682.618	3044.96
682.966	3043.38
683.314	3042.93
683.661	3066.43
684.009	3056.49
684.357	3060.56
684.705	3081.35
685.053	3060.33
685.4	3097.16
685.748	3079.99
686.095	3110.95
686.443	3070.5
686.79	3115.92
687.138	3143.94
687.485	3134
687.832	3113.21
688.18	3089.48
688.527	3139.88
688.874	3113.66
689.221	3155.02
689.568	3103.04
689.915	3065.98
690.262	3105.07
690.609	3124.28
690.956	3136.03
691.303	3142.13
691.65	3145.52
691.997	3117.95
692.344	3101.68
692.69	3103.27
693.037	3145.98
693.383	3089.03
693.73	3143.72
694.077	3093.55
694.423	3136.71
694.769	3103.49
695.116	3106.43
695.462	3122.47
695.808	3142.13
696.155	3169.03
696.501	3126.99
696.847	3097.16
697.193	3115.92
697.539	3111.4
697.885	3110.95
698.231	3106.2
698.577	3100.33
698.923	3121.57
699.269	3084.06
699.614	3062.36
699.96	3063.94
700.306	3086.54
700.651	3091.29
700.997	3076.37
701.342	3096.03
701.688	3062.36
702.033	3059.43
702.379	3082.25
702.724	3050.84
703.069	3049.48
703.415	3060.33
703.76	3037.73
704.105	3043.38
704.45	3017.39
704.795	3027.34
705.14	3054.91
705.485	3029.6
705.83	3037.28
706.175	3021.91
706.52	3033.66
706.865	3002.7
707.209	2999.09
707.554	3002.48
707.899	3022.36
708.243	2985.53
708.588	3045.87
708.932	2992.76
709.277	2970.16
709.621	3018.3
709.966	2991.18
710.31	3006.09
710.654	2971.07
710.998	2981.69
711.342	3005.42
711.687	2980.33
712.031	2960.67
712.375	2961.12
712.719	2961.35
713.063	2967.45
713.407	3015.36
713.75	2967
714.094	2961.57
714.438	2932.42
714.782	2972.65
715.125	2966.55
715.469	2982.14
715.812	2960.22
716.156	2916.38
716.499	2943.27
716.843	2951.63
717.186	2911.86
717.53	2983.04
717.873	2969.48
718.216	2968.58
718.559	2979.65
718.902	2938.3
719.246	2931.52
719.589	2935.13
719.932	2954.8
720.275	2938.07
720.617	2891.52
720.96	2942.59
721.303	2943.72
721.646	2924.97
721.989	2975.81
722.331	2945.98
722.674	2937.62
723.016	2914.12
723.359	2941.46
723.701	2941.24
724.044	2926.32
724.386	2954.8
724.729	2922.25
725.071	2927.23
725.413	2944.63
725.755	2921.58
726.097	2938.75
726.439	2974.23
726.782	2901.92
727.124	2944.63
727.465	2926.55
727.807	2909.82
728.149	2962.7
728.491	2913.67
728.833	2945.53
729.175	2984.62
729.516	2953.67
729.858	2930.39
730.199	2972.87
730.541	2978.07
730.882	2971.97
731.224	2952.54
731.565	2952.54
731.906	2979.88
732.248	2958.86
732.589	2993.66
732.93	2933.78
733.271	2988.47
733.612	2946.89
733.953	2989.37
734.294	3000.67
734.635	2948.02
734.976	2991.18
735.317	2975.36
735.658	3005.42
735.999	2981.24
736.339	2963.83
736.68	3004.29
737.021	2997.96
737.361	3005.19
737.702	3028.47
738.042	3011.74
738.383	3019.88
738.723	3034.79
739.063	3049.48
739.404	3044.06
739.744	3044.74
740.084	3070.05
740.424	3052.42
740.764	3069.82
741.104	3127.67
741.444	3098.97
741.784	3043.83
742.124	3080.67
742.464	3142.81
742.804	3139.65
743.143	3136.03
743.483	3141.91
743.823	3124.51
744.162	3132.19
744.502	3141.46
744.841	3208.57
745.181	3207.22
745.52	3179.65
745.86	3218.07
746.199	3198.4
746.538	3205.41
746.877	3252.41
747.216	3255.8
747.556	3214.9
747.895	3288.57
748.234	3284.05
748.573	3281.79
748.911	3299.19
749.25	3300.77
749.589	3327.67
749.928	3372.86
750.267	3416.7
750.605	3402.47
750.944	3396.82
751.283	3408.79
751.621	3435.01
751.96	3453.77
752.298	3484.05
752.636	3473.65
752.975	3512.29
753.313	3536.02
753.651	3538.96
753.989	3534.21
754.327	3559.53
754.666	3578.51
755.004	3667.54
755.342	3603.37
755.679	3670.48
756.017	3679.3
756.355	3724.72
756.693	3725.85
757.031	3733.76
757.368	3724.94
757.706	3732.4
758.044	3757.71
758.381	3822.57
758.719	3836.81
759.056	3864.6
759.394	3848.78
759.731	3846.3
760.068	3852.62
760.405	3904.15
760.743	3859.18
761.08	3886.97
761.417	3889.69
761.754	3899.4
762.091	3923.13
762.428	3941.89
762.765	3938.27
763.102	3982.79
763.438	3924.71
763.775	3990.02
764.112	3966.07
764.449	3985.5
764.785	3998.16
765.122	3982.79
765.458	3985.73
765.795	3997.93
766.131	4015.56
766.467	4022.11
766.804	4032.28
767.14	4026.86
767.476	4025.28
767.812	4046.07
768.148	4069.12
768.485	4026.86
768.821	4031.38
769.157	4052.62
769.492	4061.66
769.828	4058.27
770.164	4003.81
770.5	4046.29
770.836	4005.16
771.171	4014.88
771.507	4026.86
771.842	3987.31
772.178	4020.08
772.513	4010.59
772.849	4018.95
773.184	3957.93
773.519	4025.73
773.855	3988.67
774.19	3984.82
774.525	3964.94
774.86	3979.4
775.195	3973.3
775.53	3961.55
775.865	3921.32
776.2	3943.92
776.535	3892.85
776.87	3926.97
777.205	3921.78
777.539	3877.26
777.874	3883.13
778.209	3847.65
778.543	3903.7
778.878	3834.77
779.212	3855.34
779.547	3813.3
779.881	3841.55
780.215	3830.25
780.55	3830.48
780.884	3794.77
781.218	3794.1
781.552	3806.07
781.886	3821.89
782.22	3806.52
782.554	3723.36
782.888	3754.1
783.222	3731.5
783.556	3757.94
783.889	3775.56
784.223	3680.43
784.557	3705.96
784.89	3680.88
785.224	3670.26
785.557	3677.49
785.891	3625.29
786.224	3661.67
786.558	3669.8
786.891	3631.84
787.224	3588.9
787.557	3616.25
787.891	3589.35
788.224	3606.76
788.557	3604.27
788.89	3583.48
789.223	3544.61
789.556	3558.4
789.888	3548.68
790.221	3504.84
790.554	3525.18
790.887	3515.91
791.219	3443.14
791.552	3495.8
791.884	3509.81
792.217	3483.82
792.549	3476.59
792.882	3465.97
793.214	3452.86
793.546	3466.87
793.879	3448.79
794.211	3421.45
794.543	3442.47
794.875	3392.98
795.207	3413.99
795.539	3433.65
795.871	3411.05
796.203	3383.26
796.535	3375.8
796.867	3396.59
797.198	3366.54
797.53	3366.08
797.862	3322.47
798.193	3362.24
798.525	3312.07
798.856	3299.64
799.188	3323.83
799.519	3259.87
799.85	3252.41
800.182	3281.57
800.513	3230.72
800.844	3225.75
801.175	3263.04
801.506	3288.12
801.837	3211.96
802.168	3252.41
802.499	3199.08
802.83	3162.93
803.161	3179.87
803.491	3178.07
803.822	3194.34
804.153	3150.04
804.483	3159.08
804.814	3135.36
805.145	3149.59
805.475	3154.34
805.805	3133.55
806.136	3101.91
806.466	3119.31
806.796	3121.8
807.126	3110.95
807.457	3077.5
807.787	3130.84
808.117	3086.77
808.447	3040.67
808.777	3084.06
809.107	3073.44
809.436	3055.36
809.766	3057.39
810.096	3057.62
810.426	3029.6
810.755	3044.96
811.085	3031.86
811.414	2995.92
811.744	2995.92
812.073	3027.34
812.403	2982.37
812.732	2971.29
813.061	2989.14
813.39	2931.07
813.719	2995.25
814.049	2975.13
814.378	2993.66
814.707	2947.34
815.036	2956.15
815.365	2980.33
815.693	2875.02
816.022	2914.34
816.351	2938.3
816.68	2941.91
817.008	2877.96
817.337	2885.19
817.665	2872.09
817.994	2917.96
818.322	2905.53
818.651	2880.9
818.979	2851.97
819.307	2868.02
819.636	2863.5
819.964	2852.42
820.292	2865.98
820.62	2837.06
820.948	2839.09
821.276	2853.55
821.604	2842.03
821.932	2851.75
822.259	2866.66
822.587	2823.5
822.915	2825.53
823.243	2865.53
823.57	2827.79
823.898	2865.31
824.225	2833.44
824.553	2852.42
824.88	2814.46
825.207	2828.02
825.535	2828.24
825.862	2852.42
826.189	2863.5
826.516	2835.02
826.843	2833.89
827.17	2875.7
827.497	2865.53
827.824	2855.14
828.151	2870.96
828.478	2853.33
828.805	2830.5
829.131	2821.92
829.458	2828.7
829.785	2825.08
830.111	2816.95
830.438	2814.46
830.764	2841.58
831.09	2857.17
831.417	2825.99
831.743	2826.66
832.069	2858.75
832.395	2813.33
832.722	2840.22
833.048	2816.04
833.374	2812.2
833.7	2865.76
834.026	2840.9
834.351	2817.85
834.677	2845.19
835.003	2832.76
835.329	2798.64
835.654	2825.08
835.98	2802.26
836.306	2795.93
836.631	2780.11
836.956	2764.07
837.282	2812.88
837.607	2790.51
837.932	2803.61
838.258	2797.96
838.583	2801.35
838.908	2747.34
839.233	2744.41
839.558	2761.35
839.883	2770.85
840.208	2772.43
840.533	2747.57
840.858	2731.3
841.182	2716.61
841.507	2767.91
841.832	2710.96
842.156	2721.13
842.481	2776.95
842.805	2724.07
843.13	2752.99
843.454	2698.08
843.778	2683.84
844.103	2695.59
844.427	2661.7
844.751	2684.52
845.075	2665.31
845.399	2656.95
845.723	2636.61
846.047	2647.23
846.371	2625.99
846.695	2635.03
847.019	2627.12
847.343	2628.48
847.666	2617.4
847.99	2601.58
848.313	2625.99
848.637	2557.97
848.96	2576.95
849.284	2583.28
849.607	2550.74
849.931	2540.79
850.254	2551.42
850.577	2561.36
850.9	2535.37
851.223	2519.55
851.546	2502.15
851.869	2498.99
852.192	2505.09
852.515	2477.75
852.838	2480.23
853.161	2519.55
853.483	2443.4
853.806	2433
854.129	2436.62
854.451	2419.89
854.774	2428.71
855.096	2393.68
855.419	2394.58
855.741	2451.53
856.063	2389.61
856.385	2421.25
856.708	2413.79
857.03	2421.02
857.352	2372.44
857.674	2384.19
857.996	2350.97
858.318	2334.92
858.64	2348.71
858.961	2321.82
859.283	2349.61
859.605	2350.97
859.926	2320.91
860.248	2330.18
860.57	2344.19
860.891	2333.12
861.212	2315.49
861.534	2339.67
861.855	2291.54
862.176	2330.18
862.498	2310.29
862.819	2279.78
863.14	2285.89
863.461	2292.67
863.782	2285.21
864.103	2268.49
864.424	2243.85
864.745	2273.91
865.065	2264.19
865.386	2210.86
865.707	2270.29
866.027	2262.61
866.348	2247.24
866.668	2248.37
866.989	2260.58
867.309	2246.11
867.63	2239.79
867.95	2228.94
868.27	2240.46
868.59	2246.57
868.91	2238.88
869.23	2226
869.55	2218.09
869.87	2213.12
870.19	2248.83
870.51	2224.42
870.83	2231.65
871.15	2198.43
871.469	2222.61
871.789	2218.09
872.109	2230.97
872.428	2198.66
872.748	2194.14
873.067	2188.94
873.386	2202.05
873.706	2208.37
874.025	2187.13
874.344	2190.75
874.663	2193.69
874.982	2182.84
875.301	2163.63
875.62	2151.65
875.939	2186.45
876.258	2152.1
876.577	2143.07
876.896	2177.87
877.214	2165.89
877.533	2162.5
877.852	2160.24
878.17	2152.78
878.489	2162.05
878.807	2163.86
879.125	2175.15
879.444	2143.07
879.762	2114.14
880.08	2117.76
880.398	2112.56
880.716	2127.92
881.034	2149.84
881.352	2125.44
881.67	2106.23
881.988	2097.64
882.306	2112.33
882.624	2082.95
882.941	2107.81
883.259	2086.34
883.577	2067.59
883.894	2052.22
884.212	2075.04
884.529	2091.99
884.846	2079.34
885.164	2039.57
885.481	2067.59
885.798	2075.72
886.115	2049.73
886.432	2051.77
886.75	2045.44
887.067	2075.27
887.383	2054.25
887.7	2072.78
888.017	2022.84
888.334	2045.67
888.651	2031.43
888.967	2023.97
889.284	2021.94
889.6	2042.05
889.917	2003.63
890.233	1991.43
890.55	1986.23
890.866	1981.26
891.182	2005.22
891.498	2006.57
891.815	1970.87
892.131	1979.23
892.447	1981.26
892.763	1953.69
893.079	1974.26
893.395	1927.48
893.71	1973.13
894.026	1949.4
894.342	1936.29
894.657	1948.95
894.973	1948.27
895.289	1936.06
895.604	1947.14
895.92	1909.62
896.235	1927.7
896.55	1909.17
896.865	1886.8
897.181	1936.29
897.496	1899.23
897.811	1898.33
898.126	1873.92
898.441	1886.8
898.756	1896.74
899.071	1866.69
899.386	1870.53
899.7	1834.82
900.015	1824.43
900.33	1825.79
900.644	1878.21
900.959	1834.37
901.273	1802.96
901.588	1795.28
901.902	1836.86
902.216	1816.52
902.531	1846.58
902.845	1823.75
903.159	1806.12
903.473	1782.4
903.787	1768.16
904.101	1760.7
904.415	1788.72
904.729	1774.94
905.042	1728.61
905.356	1755.96
905.67	1779.91
905.984	1766.58
906.297	1758.89
906.611	1744.88
906.924	1741.49
907.237	1735.84
907.551	1737.2
907.864	1730.42
908.177	1699.46
908.491	1738.33
908.804	1714.83
909.117	1675.28
909.43	1698.11
909.743	1703.3
910.056	1671.21
910.368	1691.1
910.681	1671.67
910.994	1681.83
911.307	1675.73
911.619	1638.22
911.932	1653.13
912.244	1633.02
912.557	1631.44
912.869	1638.67
913.181	1627.6
913.494	1611.33
913.806	1640.25
914.118	1630.08
914.43	1622.4
914.742	1612.68
915.054	1566.58
915.366	1568.39
915.678	1587.83
915.99	1600.93
916.302	1598.45
916.613	1568.39
916.925	1565.91
917.236	1559.8
917.548	1563.19
917.859	1556.64
918.171	1542.85
918.482	1564.55
918.794	1542.63
919.105	1529.97
919.416	1530.2
919.727	1509.41
920.038	1506.7
920.349	1501.05
920.66	1505.12
920.971	1512.8
921.282	1501.95
921.593	1479.13
921.903	1500.14
922.214	1459.02
922.525	1477.77
922.835	1460.6
923.146	1466.25
923.456	1466.47
923.767	1464.44
924.077	1441.84
924.387	1466.25
924.697	1428.28
925.008	1439.13
925.318	1429.86
925.628	1417.21
925.938	1424.21
926.248	1411.33
926.558	1445
926.867	1444.1
927.177	1391.22
927.487	1429.64
927.796	1408.85
928.106	1409.53
928.416	1381.28
928.725	1391.45
929.034	1372.92
929.344	1393.71
929.653	1343.31
929.962	1377.89
930.271	1339.92
930.581	1366.36
930.89	1340.83
931.199	1333.82
931.508	1341.28
931.817	1354.84
932.125	1303.09
932.434	1333.82
932.743	1311.9
933.051	1319.13
933.36	1301.28
933.669	1300.15
933.977	1316.19
934.286	1295.63
934.594	1306.48
934.902	1293.14
935.21	1281.17
935.519	1303.09
935.827	1274.84
936.135	1287.72
936.443	1274.16
936.751	1254.05
937.059	1256.76
937.367	1275.29
937.674	1274.39
937.982	1256.53
938.29	1231.68
938.597	1249.98
938.905	1251.79
939.213	1235.74
939.52	1216.99
939.827	1223.09
940.135	1194.39
940.442	1211.11
940.749	1207.72
941.056	1219.47
941.363	1192.58
941.67	1216.54
941.977	1212.92
942.284	1203.2
942.591	1186.93
942.898	1181.96
943.205	1169.98
943.511	1156.88
943.818	1156.2
944.125	1155.29
944.431	1180.83
944.738	1154.39
945.044	1160.72
945.35	1165.01
945.657	1140.83
945.963	1171.79
946.269	1170.89
946.575	1139.93
946.881	1164.79
947.187	1149.19
947.493	1134.73
947.799	1132.7
948.105	1138.35
948.41	1118.69
948.716	1116.43
949.022	1107.84
949.327	1118.69
949.633	1090.66
949.938	1108.29
950.244	1102.87
950.549	1091.34
950.854	1116.88
951.16	1116.2
951.465	1098.57
951.77	1081.4
952.075	1078.23
952.38	1088.18
952.685	1072.13
952.99	1036.65
953.294	1085.92
953.599	1066.71
953.904	1061.06
954.209	1059.93
954.513	1042.53
954.818	1056.09
955.122	1043.66
955.426	1043.88
955.731	1046.37
956.035	1056.99
956.339	990.55
956.643	1019.48
956.948	1021.74
957.252	1020.16
957.556	1028.07
957.86	1040.04
958.163	1004.56
958.467	997.11
958.771	1009.54
959.075	1024
959.378	1014.28
959.682	1014.06
959.985	1021.74
960.289	1010.89
960.592	979.71
960.896	1003.43
961.199	988.97
961.502	985.58
961.805	972.93
962.108	962.53
962.411	954.62
962.714	956.43
963.017	986.03
963.32	960.95
963.623	952.14
963.926	962.76
964.228	964.34
964.531	946.94
964.833	944.23
965.136	924.34
965.438	951.91
965.741	927.73
966.043	934.51
966.345	921.4
966.648	937.67
966.95	932.48
967.252	911.91
967.554	928.86
967.856	928.41
968.158	915.53
968.46	878.24
968.761	912.59
969.063	927.96
969.365	918.01
969.666	896.09
969.968	880.73
970.269	888.18
970.571	910.78
970.872	879.14
971.174	875.08
971.475	905.13
971.776	888.18
972.077	891.12
972.378	877.34
972.679	879.6
972.98	879.14
973.281	855.42
973.582	888.18
973.883	849.99
974.183	847.96
974.484	883.44
974.785	870.78
975.085	851.35
975.386	861.29
975.686	879.14
975.986	842.76
976.287	832.14
976.587	866.49
976.887	856.77
977.187	850.22
977.487	832.14
977.787	830.56
978.087	845.7
978.387	823.78
978.687	832.14
978.987	842.99
979.286	818.81
979.586	826.26
979.885	809.99
980.185	812.93
980.484	814.51
980.784	811.35
981.083	796.43
981.382	807.96
981.682	809.54
981.981	785.81
982.28	823.1
982.579	782.65
982.878	799.15
983.177	788.52
983.475	804.34
983.774	774.51
984.073	755.08
984.372	778.13
984.67	767.28
984.969	799.15
985.267	788.3
985.566	774.51
985.864	778.58
986.162	775.42
986.461	763.21
986.759	771.35
987.057	755.08
987.355	759.6
987.653	751.69
987.951	762.08
988.249	750.11
988.547	744.01
988.844	751.24
989.142	731.8
989.44	756.21
989.737	733.61
990.035	740.16
990.332	728.19
990.63	733.38
990.927	730.67
991.224	727.51
991.521	754.85
991.819	719.15
992.116	724.8
992.413	725.48
992.71	715.08
993.006	740.62
993.303	719.83
993.6	730.22
993.897	695.87
994.193	698.36
994.49	719.15
994.787	704.01
995.083	691.8
995.379	717.57
995.676	692.03
995.972	692.71
996.268	696.78
996.565	688.87
996.861	693.16
997.157	679.37
997.453	681.86
997.749	691.58
998.044	680.28
998.34	656.32
998.636	668.3
998.932	669.21
999.227	681.86
999.523	664.23
999.818	656.32
1000.114	638.7
1000.409	647.06
1000.704	669.43
1001	670.79
1001.295	674.18
1001.59	639.15
1001.885	650
1002.18	634.63
1002.475	649.32
1002.77	642.09
1003.065	618.13
1003.359	644.8
1003.654	647.74
1003.949	655.42
1004.243	651.8
1004.538	635.76
1004.832	634.63
1005.127	629.66
1005.421	635.08
1005.715	637.34
1006.009	612.71
1006.304	607.51
1006.598	611.58
1006.892	596.44
1007.186	612.71
1007.48	617.23
1007.773	599.6
1008.067	607.74
1008.361	616.33
1008.655	605.7
1008.948	622.43
1009.242	613.39
1009.535	587.17
1009.829	574.74
1010.122	601.64
1010.415	598.02
1010.708	587.63
1011.001	588.53
1011.295	582.43
1011.588	606.38
1011.881	584.01
1012.173	577.46
1012.466	608.42
1012.759	571.13
1013.052	583.33
1013.344	581.98
1013.637	587.17
1013.93	590.34
1014.222	565.25
1014.514	558.93
1014.807	569.77
1015.099	571.81
1015.391	571.81
1015.683	568.19
1015.976	577
1016.268	569.1
1016.56	544.01
1016.851	558.47
1017.143	559.15
1017.435	548.98
1017.727	552.37
1018.018	520.73
1018.31	542.66
1018.602	543.56
1018.893	541.98
1019.185	541.98
1019.476	517.8
1019.767	533.39
1020.058	545.59
1020.35	518.02
1020.641	535.88
1020.932	539.27
1021.223	518.02
1021.514	534.75
1021.804	515.76
1022.095	533.84
1022.386	504.46
1022.677	513.73
1022.967	508.53
1023.258	497.91
1023.548	515.09
1023.839	522.77
1024.129	497.68
1024.419	498.81
1024.709	510.57
1025	515.76
1025.29	501.53
1025.58	502.2
1025.87	488.87
1026.16	519.15
1026.449	509.21
1026.739	479.61
1027.029	488.65
1027.319	500.17
1027.608	505.14
1027.898	461.08
1028.187	497.91
1028.477	476.67
1028.766	482.09
1029.055	484.13
1029.344	473.5
1029.634	495.42
1029.923	472.15
1030.212	482.32
1030.501	483.22
1030.79	462.66
1031.078	470.79
1031.367	474.86
1031.656	463.11
1031.945	478.7
1032.233	452.94
1032.522	479.83
1032.81	486.84
1033.099	461.98
1033.387	456.56
1033.675	462.66
1033.963	456.56
1034.251	478.02
1034.54	431.92
1034.828	451.81
1035.116	454.3
1035.403	465.6
1035.691	441.87
1035.979	450.68
1036.267	446.16
1036.554	433.51
1036.842	453.17
1037.129	439.16
1037.417	447.52
1037.704	430.34
1037.992	459.49
1038.279	428.53
1038.566	434.86
1038.853	434.86
1039.14	434.86
