Data from blue_chair_FLMS001491_00097.txt Node
Date: Wed Feb 08 10:32:19 GMT 2017
User: dcchb
Spectrometer: FLMS00149
Trigger mode: 0
Integration Time (sec): 2.000000E-2
Scans to average: 10
Electric dark correction enabled: true
Nonlinearity correction enabled: false
Boxcar width: 0
XAxis mode: Wavelengths
Number of Pixels in Spectrum: 2048
>>>>>Begin Spectral Data<<<<<
341.393	-12.91
341.776	-12.91
342.16	-12.91
342.543	-30.54
342.927	-55.85
343.31	-70.31
343.693	-66.24
344.077	-72.57
344.46	-52.68
344.843	-52
345.226	-42.51
345.61	-21.27
345.993	-28.73
346.376	-3.42
346.759	26.19
347.142	11.95
347.525	44.49
347.908	65.73
348.291	77.26
348.674	82.68
349.057	101.44
349.44	125.17
349.823	138.27
350.206	163.13
350.588	177.14
350.971	183.02
351.354	192.51
351.737	230.47
352.119	224.6
352.502	243.13
352.884	245.39
353.267	267.31
353.65	270.47
354.032	284.94
354.414	275.44
354.797	292.17
355.179	292.85
355.562	282.9
355.944	305.95
356.326	315.22
356.709	316.12
357.091	317.03
357.473	299.17
357.855	329
358.238	308.66
358.62	320.64
359.002	333.07
359.384	318.61
359.766	321.77
360.148	319.96
360.53	318.61
360.912	334.43
361.294	309.57
361.676	328.78
362.057	310.25
362.439	295.33
362.821	316.8
363.203	307.31
363.584	304.37
363.966	300.75
364.348	310.25
364.729	280.87
365.111	321.09
365.493	287.65
365.874	299.4
366.256	325.61
366.637	259.63
367.019	270.02
367.4	292.85
367.781	289.68
368.163	308.44
368.544	281.09
368.925	277.03
369.306	311.38
369.688	268.89
370.069	284.03
370.45	284.94
370.831	305.27
371.212	291.72
371.593	287.2
371.974	271.15
372.355	281.32
372.736	288.1
373.117	293.3
373.498	290.59
373.879	285.61
374.26	290.13
374.641	274.31
375.021	270.25
375.402	310.02
375.783	295.78
376.163	299.85
376.544	299.17
376.925	286.52
377.305	278.83
377.686	294.43
378.066	303.24
378.447	317.93
378.827	301.66
379.208	317.93
379.588	299.62
379.968	283.81
380.349	302.11
380.729	287.42
381.109	294.2
381.489	277.48
381.87	315.67
382.25	305.73
382.63	300.08
383.01	287.87
383.39	315.9
383.77	302.79
384.15	319.29
384.53	292.17
384.91	303.24
385.29	315.67
385.67	322.9
386.049	306.18
386.429	306.86
386.809	301.66
387.189	308.21
387.568	302.56
387.948	327.42
388.328	324.26
388.707	311.38
389.087	310.02
389.466	328.55
389.846	307.53
390.225	320.19
390.605	327.87
390.984	314.09
391.363	312.05
391.743	320.64
392.122	317.7
392.501	318.83
392.881	322.9
393.26	331.71
393.639	307.31
394.018	346.63
394.397	313.86
394.776	334.65
395.155	319.96
395.534	329.23
395.913	305.73
396.292	336.69
396.671	331.04
397.05	357.7
397.429	328.32
397.808	331.49
398.186	342.79
398.565	333.3
398.944	335.1
399.323	330.58
399.701	338.95
400.08	344.37
400.458	315.44
400.837	327.65
401.215	341.66
401.594	339.85
401.972	358.15
402.351	335.1
402.729	343.24
403.107	345.05
403.486	331.26
403.864	343.92
404.242	366.52
404.62	356.12
404.999	369.23
405.377	351.6
405.755	356.8
406.133	379.62
406.511	368.32
406.889	342.56
407.267	363.35
407.645	361.09
408.023	364.93
408.401	362.67
408.779	364.93
409.156	389.57
409.534	361.09
409.912	363.8
410.29	387.53
410.667	372.17
411.045	372.17
411.422	375.1
411.8	390.24
412.178	399.28
412.555	392.96
412.933	370.58
413.31	387.76
413.687	404.48
414.065	393.41
414.442	405.84
414.819	397.7
415.197	392.5
415.574	399.51
415.951	416.68
416.328	413.75
416.705	405.16
417.082	411.94
417.46	403.35
417.837	417.81
418.214	420.07
418.591	392.05
418.967	405.61
419.344	413.29
419.721	433.63
420.098	423.92
420.475	413.52
420.852	420.53
421.228	413.29
421.605	414.2
421.982	440.41
422.358	449
422.735	437.47
423.111	436.12
423.488	442.9
423.864	446.51
424.241	450.13
424.617	453.75
424.994	470.69
425.37	449
425.746	480.41
426.123	464.59
426.499	465.95
426.875	460.52
427.251	488.09
427.627	469.56
428.003	490.81
428.379	466.17
428.756	474.31
429.132	491.26
429.507	463.91
429.883	482.9
430.259	500.75
430.635	505.27
431.011	532.16
431.387	524.48
431.763	529.9
432.138	532.39
432.514	538.26
432.89	529.22
433.265	533.07
433.641	525.83
434.016	526.06
434.392	543.46
434.767	566.06
435.143	534.65
435.518	550.47
435.894	569
436.269	557.7
436.644	561.09
437.02	580.52
437.395	584.82
437.77	591.59
438.145	609.67
438.52	612.39
438.895	619.84
439.271	606.06
439.646	621.2
440.021	630.24
440.395	619.84
440.77	613.51
441.145	613.51
441.52	648.32
441.895	654.64
442.27	644.02
442.645	631.37
443.019	636.79
443.394	668.43
443.769	676.79
444.143	662.78
444.518	670.24
444.892	671.37
445.267	682.67
445.641	701.87
446.016	687.19
446.39	707.07
446.764	706.39
447.139	685.83
447.513	703.23
447.887	700.29
448.262	715.89
448.636	703
449.01	732.16
449.384	710.46
449.758	731.7
450.132	729.9
450.506	709.78
450.88	766.28
451.254	728.31
451.628	743
452.002	770.35
452.376	762.66
452.75	777.8
453.123	745.26
453.497	776.45
453.871	781.87
454.244	768.31
454.618	798.14
454.992	813.96
455.365	795.88
455.739	814.19
456.112	823.23
456.486	823.68
456.859	833.17
457.232	828.2
457.606	840.63
457.979	859.38
458.352	868.2
458.725	861.64
459.099	850.34
459.472	875.2
459.845	879.72
460.218	889.44
460.591	888.08
460.964	889.44
461.337	921.3
461.71	907.29
462.083	934.64
462.456	929.21
462.829	938.25
463.201	928.31
463.574	919.27
463.947	947.52
464.32	972.38
464.692	984.58
465.065	949.55
465.438	1000.62
465.81	994.07
466.183	992.04
466.555	992.71
466.928	1001.3
467.3	1018.7
467.672	1028.42
468.045	1050.34
468.417	1037.91
468.789	1032.49
469.161	1046.05
469.534	1072.71
469.906	1083.11
470.278	1103.67
470.65	1087.63
471.022	1117
471.394	1124.01
471.766	1124.91
472.138	1139.15
472.51	1157.23
472.882	1186.61
473.253	1174.86
473.625	1144.57
473.997	1176.44
474.369	1188.19
474.74	1213.73
475.112	1222.54
475.484	1218.02
475.855	1260.96
476.227	1240.39
476.598	1264.35
476.97	1289.43
477.341	1296.89
477.713	1309.77
478.084	1315.19
478.455	1354.74
478.827	1327.39
479.198	1366.26
479.569	1360.84
479.94	1389.09
480.311	1396.09
480.682	1409.88
481.053	1418.01
481.424	1441.29
481.795	1446.26
482.166	1460.95
482.537	1474.06
482.908	1487.39
483.279	1507.73
483.65	1514.96
484.021	1540.5
484.391	1543.66
484.762	1558.12
485.133	1539.37
485.503	1564.68
485.874	1595.64
486.244	1612.13
486.615	1626.6
486.985	1613.04
487.356	1641.51
487.726	1677.89
488.097	1691.45
488.467	1655.52
488.837	1695.07
489.207	1689.87
489.578	1713.37
489.948	1706.82
490.318	1732.36
490.688	1755.18
491.058	1753.6
491.428	1774.16
491.798	1787.27
492.168	1792.69
492.538	1772.35
492.908	1802.18
493.278	1793.6
493.648	1818.46
494.017	1829.08
494.387	1808.74
494.757	1827.27
495.126	1829.75
495.496	1858.45
495.866	1849.19
496.235	1850.09
496.605	1850.32
496.974	1834.5
497.344	1875.85
497.713	1879.7
498.082	1848.96
498.452	1871.56
498.821	1879.02
499.19	1873.14
499.559	1855.06
499.928	1876.08
500.298	1889.87
500.667	1903.2
501.036	1898.68
501.405	1875.18
501.774	1853.03
502.143	1918.34
502.512	1882.63
502.88	1903.42
503.249	1874.5
503.618	1858.45
503.987	1888.96
504.356	1905.91
504.724	1876.53
505.093	1865.46
505.462	1874.72
505.83	1895.97
506.199	1890.54
506.567	1868.62
506.936	1871.79
507.304	1913.82
507.672	1882.18
508.041	1883.99
508.409	1894.16
508.777	1927.83
509.145	1918.57
509.514	1884.44
509.882	1928.06
510.25	1899.81
510.618	1902.97
510.986	1911.11
511.354	1932.12
511.722	1889.87
512.09	1900.03
512.458	1891.22
512.826	1901.39
513.193	1896.42
513.561	1858
513.929	1890.54
514.297	1877.21
514.664	1890.32
515.032	1889.41
515.4	1869.98
515.767	1853.03
516.135	1897.32
516.502	1851
516.869	1841.28
517.237	1867.72
517.604	1851.9
517.972	1843.77
518.339	1826.14
518.706	1858
519.073	1847.83
519.44	1854.61
519.808	1811.45
520.175	1834.73
520.542	1825.23
520.909	1799.47
521.276	1807.83
521.643	1842.41
522.009	1849.41
522.376	1832.92
522.743	1810.32
523.11	1803.99
523.477	1869.3
523.843	1854.16
524.21	1796.76
524.577	1831.79
524.943	1821.39
525.31	1849.64
525.676	1826.36
526.043	1822.97
526.409	1828.62
526.776	1812.58
527.142	1867.04
527.508	1837.21
527.874	1829.08
528.241	1801.51
528.607	1816.87
528.973	1797.66
529.339	1833.37
529.705	1806.93
530.071	1794.05
530.437	1802.18
530.803	1785.24
531.169	1800.83
531.535	1777.78
531.901	1796.08
532.267	1776.65
532.632	1740.04
532.998	1769.19
533.364	1771.68
533.73	1802.86
534.095	1780.04
534.461	1764.22
534.826	1752.92
535.192	1786.82
535.557	1767.61
535.923	1737.55
536.288	1755.86
536.653	1726.03
537.019	1728.06
537.384	1733.03
537.749	1726.48
538.114	1738.68
538.479	1707.05
538.845	1699.81
539.21	1690.32
539.575	1668.18
539.94	1708.85
540.305	1713.15
540.67	1697.78
541.034	1667.5
541.399	1688.06
541.764	1674.05
542.129	1671.79
542.494	1691.45
542.858	1670.21
543.223	1678.12
543.587	1661.17
543.952	1646.48
544.316	1645.35
544.681	1632.92
545.045	1649.19
545.41	1620.95
545.774	1644.22
546.138	1611
546.503	1580.27
546.867	1614.39
547.231	1585.92
547.595	1603.09
547.959	1575.07
548.324	1569.87
548.688	1590.21
549.052	1559.48
549.416	1605.58
549.779	1608.29
550.143	1570.78
550.507	1548.63
550.871	1571.23
551.235	1545.69
551.599	1583.66
551.962	1555.41
552.326	1531.46
552.689	1531
553.053	1528.52
553.417	1561.06
553.78	1538.46
554.143	1520.16
554.507	1502.31
554.87	1521.29
555.234	1521.06
555.597	1512.93
555.96	1535.3
556.323	1495.75
556.686	1466.83
557.05	1477.67
557.413	1493.72
557.776	1491.91
558.139	1487.39
558.502	1491.91
558.865	1462.98
559.228	1503.44
559.59	1459.59
559.953	1492.36
560.316	1491.23
560.679	1467.73
561.041	1448.3
561.404	1501.18
561.767	1464.57
562.129	1449.65
562.492	1478.35
562.854	1472.02
563.217	1467.05
563.579	1478.12
563.941	1461.18
564.304	1477
564.666	1492.36
565.028	1489.88
565.39	1515.64
565.753	1491.68
566.115	1503.44
566.477	1484.68
566.839	1483.77
567.201	1488.07
567.563	1508.41
567.925	1498.69
568.287	1526.71
568.648	1470.67
569.01	1493.49
569.372	1532.13
569.734	1521.74
570.095	1499.59
570.457	1531.91
570.819	1492.14
571.18	1504.34
571.542	1520.16
571.903	1509.08
572.265	1504.56
572.626	1498.92
572.987	1520.61
573.349	1522.87
573.71	1531.46
574.071	1525.81
574.432	1526.03
574.794	1560.38
575.155	1522.64
575.516	1539.14
575.877	1552.02
576.238	1573.04
576.599	1538.24
576.96	1545.02
577.32	1545.69
577.681	1538.01
578.042	1587.95
578.403	1552.7
578.763	1564.45
579.124	1564
579.485	1542.53
579.845	1580.72
580.206	1588.4
580.566	1583.66
580.927	1588.4
581.287	1585.24
581.648	1578.69
582.008	1587.05
582.368	1601.74
582.728	1592.25
583.089	1562.42
583.449	1594.51
583.809	1588.4
584.169	1586.6
584.529	1602.64
584.889	1618.69
585.249	1577.11
585.609	1606.94
585.969	1580.95
586.329	1572.59
586.688	1620.95
587.048	1599.03
587.408	1604.68
587.768	1610.78
588.127	1599.03
588.487	1589.99
588.846	1598.12
589.206	1593.15
589.565	1602.19
589.925	1622.53
590.284	1578.01
590.643	1602.19
591.003	1615.52
591.362	1595.41
591.721	1602.87
592.08	1606.48
592.44	1617.56
592.799	1590.44
593.158	1600.38
593.517	1602.87
593.876	1629.99
594.235	1609.42
594.593	1582.75
594.952	1611.23
595.311	1605.35
595.67	1596.99
596.029	1617.56
596.387	1636.76
596.746	1599.48
597.104	1607.16
597.463	1622.98
597.822	1580.95
598.18	1609.65
598.538	1618.01
598.897	1604.68
599.255	1587.5
599.613	1611.91
599.972	1616.65
600.33	1586.82
600.688	1621.4
601.046	1616.43
601.404	1594.28
601.762	1596.99
602.12	1596.31
602.478	1608.29
602.836	1605.13
603.194	1607.16
603.552	1569.87
603.91	1596.77
604.268	1612.81
604.625	1578.91
604.983	1605.35
605.341	1613.26
605.698	1591.79
606.056	1604.68
606.413	1587.27
606.771	1600.61
607.128	1608.07
607.485	1640.83
607.843	1618.23
608.2	1606.94
608.557	1614.84
608.914	1590.66
609.272	1609.19
609.629	1616.2
609.986	1639.48
610.343	1605.35
610.7	1627.05
611.057	1582.3
611.414	1581.85
611.771	1599.25
612.127	1606.03
612.484	1632.47
612.841	1638.8
613.198	1606.71
613.554	1601.06
613.911	1596.99
614.267	1636.76
614.624	1607.39
614.98	1615.97
615.337	1635.41
615.693	1612.58
616.05	1603.32
616.406	1617.78
616.762	1618.91
617.118	1618.01
617.475	1614.84
617.831	1642.87
618.187	1617.33
618.543	1604.9
618.899	1666.14
619.255	1634.73
619.611	1608.74
619.967	1637.67
620.323	1622.98
620.678	1630.44
621.034	1639.02
621.39	1640.83
621.746	1634.05
622.101	1628.63
622.457	1632.02
622.812	1647.84
623.168	1644.67
623.523	1653.94
623.879	1636.99
624.234	1625.69
624.589	1623.88
624.945	1639.02
625.3	1620.04
625.655	1636.54
626.01	1630.44
626.365	1654.62
626.72	1623.66
627.075	1632.25
627.43	1638.57
627.785	1653.71
628.14	1634.73
628.495	1624.79
628.85	1608.07
629.205	1639.48
629.559	1653.26
629.914	1606.26
630.269	1633.15
630.623	1644
630.978	1628.63
631.332	1645.35
631.687	1649.65
632.041	1622.08
632.396	1640.83
632.75	1614.17
633.104	1635.86
633.459	1666.37
633.813	1673.6
634.167	1651.23
634.521	1649.87
634.875	1638.8
635.229	1646.26
635.583	1644.9
635.937	1622.75
636.291	1625.01
636.645	1635.18
636.999	1639.02
637.352	1588.18
637.706	1659.14
638.06	1614.84
638.413	1648.52
638.767	1651.68
639.121	1630.66
639.474	1639.48
639.828	1617.33
640.181	1630.21
640.534	1649.87
640.888	1639.93
641.241	1626.82
641.594	1638.12
641.947	1621.17
642.301	1641.28
642.654	1613.04
643.007	1594.51
643.36	1612.58
643.713	1597.9
644.066	1646.03
644.419	1594.73
644.771	1622.98
645.124	1637.22
645.477	1609.42
645.83	1587.95
646.182	1601.51
646.535	1596.54
646.888	1603.55
647.24	1618.01
647.593	1599.48
647.945	1610.32
648.298	1599.03
648.65	1632.92
649.002	1600.61
649.355	1628.86
649.707	1599.25
650.059	1571.46
650.411	1636.76
650.763	1621.62
651.115	1656.2
651.467	1651.23
651.819	1658.23
652.171	1681.96
652.523	1643.54
652.875	1631.34
653.227	1630.89
653.578	1650.78
653.93	1650.1
654.282	1654.39
654.633	1646.26
654.985	1646.71
655.337	1685.13
655.688	1644.67
656.039	1653.71
656.391	1626.14
656.742	1678.35
657.094	1660.49
657.445	1669.31
657.796	1654.84
658.147	1666.59
658.498	1637.67
658.849	1661.62
659.2	1625.69
659.551	1660.49
659.902	1669.08
660.253	1643.77
660.604	1637.22
660.955	1646.03
661.306	1671.79
661.656	1633.6
662.007	1671.34
662.358	1653.71
662.708	1685.58
663.059	1698.01
663.409	1658.01
663.76	1686.93
664.11	1683.77
664.461	1680.61
664.811	1656.43
665.161	1677.44
665.511	1641.06
665.862	1665.69
666.212	1675.86
666.562	1659.14
666.912	1685.13
667.262	1661.17
667.612	1669.31
667.962	1672.24
668.312	1650.78
668.662	1667.72
669.011	1659.14
669.361	1656.43
669.711	1634.73
670.06	1642.41
670.41	1654.17
670.76	1630.21
671.109	1664.33
671.459	1640.61
671.808	1630.89
672.157	1675.41
672.507	1634.96
672.856	1617.56
673.205	1631.34
673.554	1643.54
673.904	1622.75
674.253	1634.73
674.602	1643.77
674.951	1600.61
675.3	1604.22
675.649	1641.74
675.998	1662.75
676.346	1606.94
676.695	1645.58
677.044	1620.95
677.393	1632.47
677.741	1617.1
678.09	1634.28
678.438	1623.43
678.787	1632.25
679.135	1610.78
679.484	1595.18
679.832	1595.64
680.181	1592.02
680.529	1627.27
680.877	1614.17
681.225	1610.32
681.573	1603.77
681.922	1588.4
682.27	1586.14
682.618	1581.4
682.966	1575.3
683.314	1597.44
683.661	1572.59
684.009	1561.06
684.357	1573.94
684.705	1587.5
685.053	1557.67
685.4	1560.16
685.748	1555.86
686.095	1550.67
686.443	1541.85
686.79	1578.69
687.138	1559.93
687.485	1565.58
687.832	1591.12
688.18	1538.01
688.527	1492.81
688.874	1531.91
689.221	1496.43
689.568	1520.84
689.915	1543.21
690.262	1520.16
690.609	1508.63
690.956	1502.76
691.303	1485.36
691.65	1531
691.997	1491.91
692.344	1518.12
692.69	1484.45
693.037	1495.3
693.383	1488.29
693.73	1500.27
694.077	1468.18
694.423	1473.61
694.769	1462.31
695.116	1478.12
695.462	1474.96
695.808	1499.82
696.155	1487.84
696.501	1448.52
696.847	1438.13
697.193	1460.72
697.539	1458.92
697.885	1453.27
698.231	1455.3
698.577	1452.81
698.923	1416.88
699.269	1424.79
699.614	1424.57
699.96	1439.71
700.306	1434.51
700.651	1417.56
700.997	1427.73
701.342	1423.21
701.688	1412.82
702.033	1419.37
702.379	1420.5
702.724	1404.23
703.069	1414.17
703.415	1386.15
703.76	1406.71
704.105	1363.78
704.45	1381.4
704.795	1375.75
705.14	1383.44
705.485	1377.79
705.83	1392.93
706.175	1378.24
706.52	1375.08
706.865	1392.25
707.209	1388.64
707.554	1366.04
707.899	1381.4
708.243	1385.02
708.588	1414.4
708.932	1379.37
709.277	1376.43
709.621	1410.33
709.966	1373.95
710.31	1362.2
710.654	1386.83
710.998	1387.96
711.342	1405.36
711.687	1364.68
712.031	1378.69
712.375	1387.28
712.719	1377.34
713.063	1390.67
713.407	1411.01
713.75	1373.27
714.094	1388.41
714.438	1355.64
714.782	1418.69
715.125	1395.19
715.469	1404.68
715.812	1379.82
716.156	1394.74
716.499	1396.77
716.843	1392.93
717.186	1399.71
717.53	1423.66
717.873	1409.43
718.216	1412.82
718.559	1401.97
718.902	1384.12
719.246	1400.61
719.589	1414.85
719.932	1378.92
720.275	1432.7
720.617	1425.25
720.96	1426.6
721.303	1415.08
721.646	1425.02
721.989	1435.64
722.331	1446.04
722.674	1427.28
723.016	1464.11
723.359	1474.74
723.701	1442.19
724.044	1469.09
724.386	1452.14
724.729	1448.52
725.071	1459.59
725.413	1471.8
725.755	1470.22
726.097	1469.76
726.439	1458.01
726.782	1468.41
727.124	1472.25
727.465	1497.11
727.807	1491.46
728.149	1486.94
728.491	1515.64
728.833	1495.07
729.175	1518.8
729.516	1531.23
729.858	1534.17
730.199	1525.81
730.541	1526.26
730.882	1540.95
731.224	1562.42
731.565	1540.72
731.906	1552.93
732.248	1553.38
732.589	1547.5
732.93	1585.69
733.271	1582.3
733.612	1590.66
733.953	1601.96
734.294	1599.03
734.635	1601.06
734.976	1592.92
735.317	1583.21
735.658	1642.64
735.999	1649.65
736.339	1636.09
736.68	1632.25
737.021	1653.04
737.361	1640.38
737.702	1662.98
738.042	1702.07
738.383	1699.81
738.723	1713.37
739.063	1710.66
739.404	1714.5
739.744	1744.11
740.084	1721.96
740.424	1745.24
740.764	1774.39
741.104	1780.04
741.444	1775.29
741.784	1804.22
742.124	1852.13
742.464	1851.22
742.804	1840.83
743.143	1830.43
743.483	1899.81
743.823	1908.62
744.162	1921.73
744.502	1955.4
744.841	1946.81
745.181	1970.99
745.52	1995.17
745.86	2060.71
746.199	2049.41
746.538	2066.36
746.877	2109.97
747.216	2120.59
747.556	2146.36
747.895	2197.88
748.234	2187.48
748.573	2254.6
748.911	2244.21
749.25	2296.41
749.589	2316.07
749.928	2318.1
750.267	2356.07
750.605	2387.71
750.944	2454.82
751.283	2450.53
751.621	2500.7
751.96	2550.41
752.298	2603.07
752.636	2618.66
752.975	2628.15
753.313	2686
753.651	2689.39
753.989	2800.12
754.327	2795.83
754.666	2833.12
755.004	2931.87
755.342	2968.71
755.679	2989.72
756.017	3014.36
756.355	3098.87
756.693	3122.15
757.031	3212.09
757.368	3248.02
757.706	3259.55
758.044	3312.2
758.381	3376.38
758.719	3429.49
759.056	3471.97
759.394	3537.28
759.731	3538.18
760.068	3602.14
760.405	3665.41
760.743	3704.51
761.08	3723.49
761.417	3772.75
761.754	3824.96
762.091	3858.85
762.428	3930.94
762.765	3986.53
763.102	4022.24
763.438	4096.36
763.775	4067.66
764.112	4156.7
764.449	4194.89
764.785	4242.57
765.122	4279.18
765.458	4322.34
765.795	4322.57
766.131	4424.26
766.467	4442.57
766.804	4467.2
767.14	4489.12
767.476	4492.06
767.812	4544.26
768.148	4615.44
768.485	4645.5
768.821	4677.59
769.157	4701.09
769.492	4737.7
769.828	4761.43
770.164	4793.74
770.5	4761.65
770.836	4878.94
771.171	4887.75
771.507	4891.82
771.842	4882.1
772.178	4921.42
772.513	4946.73
772.849	5004.59
773.184	4972.95
773.519	5016.79
773.855	5056.56
774.19	5046.17
774.525	5036.45
774.86	5089.33
775.195	5064.92
775.53	5095.66
775.865	5106.5
776.2	5059.73
776.535	5134.07
776.87	5122.55
777.205	5112.83
777.539	5150.57
777.874	5180.85
778.209	5166.84
778.543	5208.42
778.878	5191.7
779.212	5203.9
779.547	5183.34
779.881	5239.83
780.215	5167.75
780.55	5268.53
780.884	5285.26
781.218	5207.97
781.552	5256.78
781.886	5241.19
782.22	5191.02
782.554	5208.65
782.888	5195.32
783.222	5183.11
783.556	5202.32
783.889	5192.15
784.223	5180.63
784.557	5226.73
784.89	5210
785.224	5265.82
785.557	5216.78
785.891	5241.87
786.224	5276.22
786.558	5222.89
786.891	5188.76
787.224	5221.3
787.557	5204.35
787.891	5222.66
788.224	5204.58
788.557	5234.18
788.89	5206.16
789.223	5207.29
789.556	5201.87
789.888	5157.12
790.221	5160.29
790.554	5158.03
790.887	5144.24
791.219	5150.12
791.552	5141.31
791.884	5112.61
792.217	5134.98
792.549	5154.86
792.882	5157.35
793.214	5071.7
793.546	5109.44
793.879	5110.12
794.211	5078.93
794.543	5124.13
794.875	5091.82
795.207	5085.04
795.539	5057.92
795.871	5094.98
796.203	5085.26
796.535	5031.7
796.867	5049.1
797.198	5065.38
797.53	5061.08
797.862	5053.4
798.193	4986.28
798.525	4991.7
798.856	5043.45
799.188	4960.75
799.519	4990.8
799.85	4980.63
800.182	4977.47
800.513	4986.06
800.844	4956
801.175	4977.24
801.506	5010.01
801.837	4991.25
802.168	4962.33
802.499	4946.51
802.83	4934.76
803.161	4926.85
803.491	4891.82
803.822	4873.52
804.153	4923.91
804.483	4829.22
804.814	4864.02
805.145	4880.07
805.475	4872.61
805.805	4859.73
806.136	4833.29
806.466	4805.5
806.796	4830.58
807.126	4832.39
807.457	4774.99
807.787	4806.85
808.117	4774.31
808.447	4775.67
808.777	4855.89
809.107	4800.3
809.436	4793.52
809.766	4737.7
810.096	4730.69
810.426	4681.66
810.755	4738.38
811.085	4753.07
811.414	4716.91
811.744	4684.82
812.073	4721.2
812.403	4719.85
812.732	4710.36
813.061	4693.41
813.39	4680.3
813.719	4654.54
814.049	4668.1
814.378	4635.33
814.707	4665.39
815.036	4631.04
815.365	4607.53
815.693	4542
816.022	4612.96
816.351	4581.32
816.68	4590.36
817.008	4584.48
817.337	4530.93
817.665	4565.95
817.994	4571.83
818.322	4535.67
818.651	4519.17
818.979	4532.96
819.307	4606.63
819.636	4583.13
819.964	4508.1
820.292	4522.11
820.62	4574.54
820.948	4514.43
821.276	4523.69
821.604	4565.5
821.932	4572.96
822.259	4575.22
822.587	4535.67
822.915	4539.06
823.243	4572.96
823.57	4523.24
823.898	4544.94
824.225	4568.44
824.553	4557.82
824.88	4552.17
825.207	4579.74
825.535	4509.46
825.862	4532.96
826.189	4565.28
826.516	4593.3
826.843	4549.23
827.17	4585.61
827.497	4553.07
827.824	4591.94
828.151	4566.63
828.478	4603.92
828.805	4637.59
829.131	4612.05
829.458	4552.62
829.785	4544.94
830.111	4543.13
830.438	4583.35
830.764	4614.77
831.09	4570.25
831.417	4572.96
831.743	4572.73
832.069	4556.69
832.395	4590.59
832.722	4618.61
833.048	4590.36
833.374	4578.38
833.7	4572.73
834.026	4581.09
834.351	4635.33
834.677	4578.38
835.003	4573.18
835.329	4603.69
835.654	4553.3
835.98	4500.64
836.306	4565.05
836.631	4565.5
836.956	4524.15
837.282	4535.22
837.607	4505.62
837.932	4562.79
838.258	4499.74
838.583	4525.95
838.908	4481.21
839.233	4503.81
839.558	4469.91
839.883	4466.97
840.208	4460.19
840.533	4461.78
840.858	4462.45
841.182	4513.98
841.507	4490.25
841.832	4427.65
842.156	4448.89
842.481	4448.22
842.805	4442.57
843.13	4397.37
843.454	4400.08
843.778	4418.84
844.103	4392.62
844.427	4398.5
844.751	4389.69
845.075	4359.41
845.399	4357.15
845.723	4322.12
846.047	4355.34
846.371	4378.16
846.695	4297.26
847.019	4269.01
847.343	4239.63
847.666	4223.59
847.99	4223.59
848.313	4182.01
848.637	4136.81
848.96	4221.33
849.284	4187.43
849.607	4120.54
849.931	4175.68
850.254	4121.9
850.577	4099.07
850.9	4099.98
851.223	4083.25
851.546	4074.21
851.869	4051.62
852.192	4055.68
852.515	4051.16
852.838	4033.54
853.161	3997.15
853.483	3959.42
853.806	3986.31
854.129	3971.84
854.451	3990.6
854.774	3937.04
855.096	3984.27
855.419	3947.21
855.741	3889.14
856.063	3897.27
856.385	3905.86
856.708	3889.59
857.03	3871.06
857.352	3903.6
857.674	3833.32
857.996	3868.57
858.318	3798.06
858.64	3833.54
858.961	3846.2
859.283	3801.45
859.605	3780.66
859.926	3861.57
860.248	3760.55
860.57	3794.67
860.891	3766.43
861.212	3764.39
861.534	3727.33
861.855	3744.96
862.176	3716.71
862.498	3765.75
862.819	3761.23
863.14	3711.74
863.461	3719.42
863.782	3730.04
864.103	3739.99
864.424	3703.83
864.745	3686.88
865.065	3690.5
865.386	3670.61
865.707	3656.15
866.027	3665.64
866.348	3643.49
866.668	3650.5
866.989	3658.18
867.309	3638.07
867.63	3600.78
867.95	3610.95
868.27	3583.38
868.59	3606.2
868.91	3594.68
869.23	3616.37
869.55	3605.3
869.87	3570.95
870.19	3582.7
870.51	3624.96
870.83	3621.57
871.15	3566.21
871.469	3545.42
871.789	3588.35
872.109	3572.53
872.428	3550.39
872.748	3537.96
873.067	3565.08
873.386	3555.13
873.706	3547.22
874.025	3542.25
874.344	3533.89
874.663	3534.79
874.982	3516.94
875.301	3548.8
875.62	3507.22
875.939	3485.98
876.258	3502.7
876.577	3502.25
876.896	3483.04
877.214	3492.08
877.533	3457.73
877.852	3480.11
878.17	3496.6
878.489	3450.28
878.807	3464.51
879.125	3467
879.444	3437.62
879.762	3443.27
880.08	3475.81
880.398	3446.43
880.716	3468.13
881.034	3429.26
881.352	3409.15
881.67	3381.8
881.988	3407.79
882.306	3387.91
882.624	3415.93
882.941	3361.01
883.259	3378.87
883.577	3323.27
883.894	3374.12
884.212	3322.6
884.529	3314.91
884.846	3353.33
885.164	3330.96
885.481	3314.91
885.798	3317.62
886.115	3294.12
886.432	3279.43
886.75	3298.42
887.067	3293.67
887.383	3264.74
887.7	3231.53
888.017	3254.58
888.334	3260.23
888.651	3250.96
888.967	3221.81
889.284	3250.06
889.6	3191.07
889.917	3189.72
890.233	3170.51
890.55	3200.34
890.866	3175.03
891.182	3145.88
891.498	3169.83
891.815	3108.14
892.131	3154.92
892.447	3154.69
892.763	3142.94
893.079	3088.93
893.395	3084.41
893.71	3107.46
894.026	3141.13
894.342	3103.39
894.657	3080.57
894.973	3083.96
895.289	3104.52
895.604	3065.2
895.92	3012.1
896.235	3023.85
896.55	3042.38
896.865	3042.6
897.181	3012.32
897.496	2988.14
897.811	2947.01
898.126	3012.55
898.441	2972.77
898.756	2963.06
899.071	2949.05
899.386	2938.43
899.7	2912.89
900.015	2953.57
900.33	2918.99
900.644	2921.7
900.959	2917.18
901.273	2899.78
901.588	2864.76
901.902	2840.35
902.216	2853
902.531	2801.71
902.845	2807.58
903.159	2834.47
903.473	2790.18
903.787	2782.95
904.101	2801.48
904.415	2765.1
904.729	2797.41
905.042	2746.79
905.356	2760.13
905.67	2731.88
905.984	2744.53
906.297	2734.82
906.611	2743.4
906.924	2714.93
907.237	2747.02
907.551	2711.09
907.864	2687.13
908.177	2674.93
908.491	2664.31
908.804	2646.23
909.117	2617.98
909.43	2644.2
909.743	2613.46
910.056	2589.73
910.368	2596.74
910.681	2593.58
910.994	2587.02
911.307	2550.19
911.619	2542.28
911.932	2535.5
912.244	2508.83
912.557	2513.35
912.869	2505.22
913.181	2505.22
913.494	2509.51
913.806	2495.95
914.118	2499.34
914.43	2466.12
914.742	2486.46
915.054	2478.78
915.366	2459.34
915.678	2437.2
915.99	2391.77
916.302	2410.98
916.613	2403.75
916.925	2403.3
917.236	2389.06
917.548	2398.1
917.859	2426.12
918.171	2371.43
918.482	2365.79
918.794	2370.53
919.105	2360.36
919.416	2317.65
919.727	2365.11
920.038	2337.54
920.349	2313.81
920.66	2291.21
920.971	2314.49
921.282	2290.98
921.593	2283.75
921.903	2258.22
922.214	2237.65
922.525	2253.92
922.835	2269.06
923.146	2267.48
923.456	2216.86
923.767	2241.04
924.077	2217.99
924.387	2188.61
924.697	2194.49
925.008	2229.52
925.318	2210.31
925.628	2194.72
925.938	2187.71
926.248	2132.57
926.558	2167.6
926.867	2107.26
927.177	2111.33
927.487	2125.79
927.796	2096.64
928.106	2107.26
928.416	2126.7
928.725	2132.57
929.034	2113.36
929.344	2100.26
929.653	2082.18
929.962	2054.16
930.271	2090.76
930.581	2047.38
930.89	2053.03
931.199	2022.29
931.508	2010.31
931.817	2034.49
932.125	2004.89
932.434	2006.47
932.743	2002.4
933.051	1993.14
933.36	1998.11
933.669	2000.37
933.977	1971.45
934.286	1971.22
934.594	1986.13
934.902	1963.76
935.21	1930.77
935.519	1978
935.827	1937.77
936.135	1939.58
936.443	1914.72
936.751	1913.14
937.059	1909.07
937.367	1887.83
937.674	1904.78
937.982	1877.66
938.29	1872.01
938.597	1857.55
938.905	1865.91
939.213	1866.36
939.52	1853.03
939.827	1853.93
940.135	1848.74
940.442	1836.99
940.749	1820.94
941.056	1803.09
941.363	1799.47
941.67	1802.86
941.977	1804.9
942.284	1777.1
942.591	1803.54
942.898	1760.6
943.205	1774.84
943.511	1749.3
943.818	1749.3
944.125	1727.61
944.431	1734.84
944.738	1721.73
945.044	1750.43
945.35	1752.02
945.657	1728.29
945.963	1714.95
946.269	1693.49
946.575	1716.31
946.881	1710.21
947.187	1691.9
947.493	1696.2
947.799	1685.8
948.105	1679.02
948.41	1636.09
948.716	1648.74
949.022	1637.22
949.327	1648.97
949.633	1622.53
949.938	1642.41
950.244	1650.55
950.549	1614.84
950.854	1627.27
951.16	1608.97
951.465	1595.41
951.77	1596.99
952.075	1591.79
952.38	1612.81
952.685	1586.14
952.99	1590.66
953.294	1576.65
953.599	1580.27
953.904	1535.98
954.209	1557.67
954.513	1558.8
954.818	1534.62
955.122	1513.6
955.426	1541.17
955.731	1531
956.035	1524.23
956.339	1511.34
956.643	1505.24
956.948	1538.24
957.252	1519.48
957.556	1477.67
957.86	1493.27
958.163	1500.5
958.467	1479.71
958.771	1457.11
959.075	1480.84
959.378	1443.1
959.682	1465.47
959.985	1462.98
960.289	1456.66
960.592	1454.85
960.896	1434.06
961.199	1433.83
961.502	1450.78
961.805	1412.14
962.108	1384.34
962.411	1412.36
962.714	1404.45
963.017	1377.56
963.32	1390.67
963.623	1388.41
963.926	1399.71
964.228	1398.81
964.531	1376.88
964.833	1370.78
965.136	1361.97
965.438	1346.83
965.741	1333.5
966.043	1343.67
966.345	1355.64
966.648	1364.68
966.95	1349.09
967.252	1338.47
967.554	1344.57
967.856	1328.07
968.158	1306.15
968.46	1333.5
968.761	1287.4
969.063	1275.87
969.365	1286.72
969.666	1297.56
969.968	1302.08
970.269	1246.72
970.571	1295.3
970.872	1269.54
971.174	1289.2
971.475	1268.19
971.776	1279.71
972.077	1258.47
972.378	1281.07
972.679	1262.99
972.98	1245.36
973.281	1226.61
973.582	1256.89
973.883	1250.56
974.183	1226.38
974.484	1197
974.785	1222.76
975.085	1200.62
975.386	1213.05
975.686	1199.49
975.986	1214.18
976.287	1207.85
976.587	1201.3
976.887	1177.12
977.187	1206.72
977.487	1173.73
977.787	1179.6
978.087	1172.37
978.387	1167.62
978.687	1165.14
978.987	1145.93
979.286	1142.09
979.586	1157.91
979.885	1157.68
980.185	1119.72
980.484	1127.85
980.784	1128.3
981.083	1131.02
981.382	1127.85
981.682	1132.6
981.981	1134.18
982.28	1087.63
982.579	1107.74
982.878	1122.88
983.177	1126.72
983.475	1112.26
983.774	1115.65
984.073	1110.45
984.372	1111.58
984.67	1078.81
984.969	1079.49
985.267	1055.76
985.566	1055.54
985.864	1065.93
986.162	1073.84
986.461	1071.13
986.759	1037.46
987.057	1043.79
987.355	1032.71
987.653	1062.99
987.951	1062.99
988.249	1058.25
988.547	1018.25
988.844	1023.22
989.142	1036.78
989.44	1036.78
989.737	994.07
990.035	1001.98
990.332	1010.57
990.63	1018.25
990.927	993.17
991.224	1015.31
991.521	1010.34
991.819	985.03
992.116	998.59
992.413	1005.14
992.71	972.15
993.006	999.04
993.303	983.9
993.6	972.38
993.897	978.03
994.193	962.43
994.49	961.98
994.787	949.33
995.083	973.05
995.379	950.91
995.676	973.73
995.972	928.76
996.268	935.31
996.565	933.28
996.861	939.61
997.157	943.9
997.453	951.13
997.749	906.84
998.044	887.86
998.34	926.5
998.636	921.98
998.932	898.71
999.227	907.74
999.523	896.67
999.818	896.22
1000.114	884.69
1000.409	889.67
1000.704	905.03
1001	862.77
1001.295	857.58
1001.59	877.01
1001.885	895.09
1002.18	877.69
1002.475	856.9
1002.77	874.75
1003.065	862.1
1003.359	854.64
1003.654	869.55
1003.949	859.84
1004.243	847.18
1004.538	848.76
1004.832	867.97
1005.127	845.83
1005.421	840.18
1005.715	839.5
1006.009	832.94
1006.304	834.98
1006.598	810.35
1006.892	791.59
1007.186	813.74
1007.48	808.31
1007.773	816.22
1008.067	782.32
1008.361	795.21
1008.655	802.44
1008.948	764.02
1009.242	787.75
1009.535	790.23
1009.829	768.31
1010.122	764.02
1010.415	782.32
1010.708	787.52
1011.001	758.82
1011.295	770.57
1011.588	768.77
1011.881	747.97
1012.173	746.17
1012.466	755.88
1012.759	749.56
1013.052	748.2
1013.344	763.12
1013.637	764.25
1013.93	744.13
1014.222	738.71
1014.514	738.71
1014.807	713.17
1015.099	742.78
1015.391	731.03
1015.683	731.48
1015.976	720.86
1016.268	705.26
1016.56	701.2
1016.851	702.55
1017.143	701.2
1017.435	715.21
1017.727	694.19
1018.018	726.96
1018.31	686.06
1018.602	688.77
1018.893	677.24
1019.185	665.04
1019.476	673.17
1019.767	663.46
1020.058	675.89
1020.35	681.08
1020.641	644.02
1020.932	660.97
1021.223	663.23
1021.514	673.85
1021.804	649.9
1022.095	670.46
1022.386	653.74
1022.677	659.84
1022.967	649.9
1023.258	637.92
1023.548	646.73
1023.839	638.15
1024.129	663.68
1024.419	626.85
1024.709	638.83
1025	616.9
1025.29	625.94
1025.58	632.05
1025.87	612.16
1026.16	603.12
1026.449	636.79
1026.739	611.71
1027.029	615.1
1027.319	599.28
1027.608	639.28
1027.898	606.96
1028.187	590.92
1028.477	592.5
1028.766	587.75
1029.055	588.88
1029.344	584.14
1029.634	580.75
1029.923	601.99
1030.212	575.32
1030.501	573.97
1030.79	560.41
1031.078	588.2
1031.367	546.17
1031.656	559.51
1031.945	568.54
1032.233	584.14
1032.522	551.6
1032.81	559.28
1033.099	552.73
1033.387	543.46
1033.675	544.59
1033.963	556.79
1034.251	534.19
1034.54	514.53
1034.828	544.82
1035.116	520.86
1035.403	541.65
1035.691	550.24
1035.979	545.72
1036.267	536
1036.554	551.14
1036.842	537.81
1037.129	528.32
1037.417	514.08
1037.704	526.74
1037.992	519.73
1038.279	534.87
1038.566	526.96
1038.853	526.96
1039.14	526.96
