Data from blue_clamp_base_FLMS001491_00019.txt Node
Date: Wed Feb 08 15:15:38 GMT 2017
User: dcchb
Spectrometer: FLMS00149
Trigger mode: 0
Integration Time (sec): 2.000000E-2
Scans to average: 10
Electric dark correction enabled: true
Nonlinearity correction enabled: false
Boxcar width: 0
XAxis mode: Wavelengths
Number of Pixels in Spectrum: 2048
>>>>>Begin Spectral Data<<<<<
341.393	-11.89
341.776	-11.89
342.16	-11.89
342.543	-53.02
342.927	-53.7
343.31	-65.22
343.693	-53.93
344.077	-65
344.46	-59.8
344.843	-45.79
345.226	-21.84
345.61	-28.62
345.993	-22.97
346.376	-24.32
346.759	0.08
347.142	26.52
347.525	58.39
347.908	66.07
348.291	72.85
348.674	68.56
349.057	95
349.44	114.21
349.823	141.32
350.206	167.76
350.588	191.72
350.971	202.79
351.354	222.9
351.737	231.49
352.119	243.92
352.502	264.26
352.884	256.58
353.267	274.2
353.65	283.02
354.032	299.96
354.414	303.81
354.797	302.9
355.179	325.5
355.562	315.1
355.944	317.59
356.326	315.78
356.709	316.01
357.091	331.38
357.473	343.8
357.855	326.4
358.238	337.93
358.62	330.7
359.002	327.76
359.384	345.16
359.766	334.77
360.148	332.05
360.53	310.36
360.912	334.99
361.294	343.58
361.676	339.74
362.057	317.36
362.439	322.11
362.821	312.39
363.203	336.57
363.584	317.36
363.966	333.86
364.348	312.39
364.729	320.53
365.111	314.88
365.493	332.28
365.874	323.47
366.256	321.21
366.637	334.54
367.019	308.55
367.4	311.71
367.781	317.59
368.163	311.71
368.544	299.74
368.925	301.32
369.306	313.3
369.688	308.78
370.069	318.49
370.45	312.17
370.831	319.17
371.212	332.73
371.593	336.8
371.974	329.12
372.355	320.53
372.736	305.61
373.117	301.32
373.498	319.85
373.879	321.21
374.26	320.53
374.641	316.23
375.021	318.95
375.402	324.37
375.783	333.86
376.163	335.44
376.544	340.19
376.925	342.67
377.305	310.36
377.686	337.7
378.066	331.6
378.447	337.48
378.827	351.71
379.208	325.73
379.588	343.58
379.968	332.73
380.349	342.9
380.729	332.51
381.109	342.9
381.489	343.58
381.87	373.86
382.25	346.29
382.63	353.07
383.01	354.65
383.39	349.68
383.77	346.74
384.15	379.06
384.53	353.97
384.91	356.01
385.29	343.13
385.67	367.08
386.049	364.37
386.429	377.93
386.809	382.67
387.189	369.57
387.568	378.15
387.948	393.29
388.328	405.72
388.707	387.19
389.087	384.71
389.466	404.59
389.846	403.24
390.225	405.05
390.605	413.63
390.984	390.81
391.363	393.29
391.743	400.07
392.122	403.01
392.501	409.79
392.881	426.29
393.26	433.52
393.639	423.12
394.018	418.38
394.397	438.49
394.776	419.73
395.155	440.3
395.534	429.9
395.913	429.9
396.292	443.91
396.671	453.18
397.05	459.51
397.429	466.74
397.808	478.26
398.186	465.16
398.565	473.97
398.944	469.9
399.323	450.69
399.701	481.65
400.08	497.02
400.458	490.24
400.837	493.18
401.215	482.11
401.594	502.67
401.972	525.72
402.351	531.14
402.729	520.52
403.107	562.33
403.486	550.58
403.864	555.78
404.242	540.64
404.62	563.91
404.999	578.6
405.377	559.17
405.755	562.33
406.133	578.6
406.511	589.45
406.889	569.34
407.267	578.15
407.645	605.04
408.023	614.98
408.401	578.37
408.779	611.59
409.156	635.55
409.534	631.25
409.912	627.41
410.29	680.52
410.667	673.97
411.045	684.36
411.422	680.97
411.8	684.13
412.178	680.52
412.555	719.84
412.933	745.38
413.31	715.09
413.687	732.04
414.065	724.13
414.442	741.08
414.819	766.84
415.197	767.97
415.574	795.32
415.951	776.11
416.328	782.66
416.705	799.61
417.082	797.35
417.46	804.13
417.837	820.18
418.214	819.27
418.591	843.9
418.967	844.36
419.344	848.65
419.721	859.05
420.098	873.28
420.475	873.73
420.852	878.93
421.228	889.55
421.605	924.35
421.982	911.02
422.358	925.03
422.735	943.79
423.111	927.29
423.488	921.87
423.864	933.17
424.241	936.56
424.617	978.14
424.994	987.63
425.37	977.01
425.746	974.07
426.123	990.79
426.499	1029.21
426.875	1029.44
427.251	1051.81
427.627	1064.24
428.003	1076.21
428.379	1107.17
428.756	1103.33
429.132	1113.5
429.507	1137
429.883	1129.32
430.259	1151.01
430.635	1167.06
431.011	1188.53
431.387	1185.82
431.763	1198.47
432.138	1227.62
432.514	1246.15
432.89	1238.92
433.265	1291.35
433.641	1280.5
434.016	1317.34
434.392	1314.63
434.767	1377.68
435.143	1366.38
435.518	1360.73
435.894	1397.56
436.269	1395.75
436.644	1430.1
437.02	1463.55
437.395	1446.83
437.77	1452.02
438.145	1513.27
438.52	1520.72
438.895	1521.4
439.271	1506.26
439.646	1590.78
440.021	1600.04
440.395	1592.81
440.77	1572.02
441.145	1591.46
441.52	1614.73
441.895	1651.34
442.27	1642.08
442.645	1661.06
443.019	1668.52
443.394	1694.5
443.769	1711.9
444.143	1733.6
444.518	1769.76
444.892	1773.15
445.267	1766.59
445.641	1779.7
446.016	1781.73
446.39	1793.71
446.764	1792.13
447.139	1811.56
447.513	1838.68
447.887	1867.83
448.262	1881.84
448.636	1849.98
449.01	1862.63
449.384	1906.25
449.758	1891.56
450.132	1937.66
450.506	1949.19
450.88	1986.93
451.254	1969.07
451.628	2005.23
452.002	2039.35
452.376	2043.65
452.75	2061.5
453.123	2090.88
453.497	2092.91
453.871	2140.37
454.244	2179.69
454.618	2192.34
454.992	2188.95
455.365	2213.13
455.739	2272.12
456.112	2300.14
456.486	2328.61
456.859	2321.15
457.232	2371.1
457.606	2353.24
457.979	2392.11
458.352	2429.63
458.725	2484.31
459.099	2500.58
459.472	2508.04
459.845	2573.35
460.218	2547.59
460.591	2614.48
460.964	2591.2
461.337	2678.21
461.71	2723.4
462.083	2691.99
462.456	2736.28
462.829	2722.5
463.201	2801.37
463.574	2787.13
463.947	2848.37
464.32	2869.84
464.692	2854.25
465.065	2904.87
465.438	2984.19
465.81	3011.08
466.183	3038.42
466.555	3105.54
466.928	3099.44
467.3	3131.53
467.672	3159.32
468.045	3238.19
468.417	3290.62
468.789	3250.17
469.161	3285.42
469.534	3349.83
469.906	3408.58
470.278	3392.31
470.65	3461.24
471.022	3564.51
471.394	3583.04
471.766	3584.62
472.138	3643.83
472.51	3739.2
472.882	3732.87
473.253	3779.65
473.625	3840.66
473.997	3909.81
474.369	3933.99
474.74	3973.31
475.112	3994.56
475.484	4080.66
475.855	4149.35
476.227	4158.39
476.598	4260.54
476.97	4304.83
477.341	4345.28
477.713	4454.88
478.084	4457.82
478.455	4578.04
478.827	4600.19
479.198	4743.69
479.569	4701.66
479.94	4800.18
480.311	4888.54
480.682	4963.12
481.053	4991.37
481.424	5075.66
481.795	5110.91
482.166	5210.8
482.537	5223
482.908	5343.22
483.279	5375.76
483.65	5436.78
484.021	5510.9
484.391	5583.21
484.762	5607.85
485.133	5681.52
485.503	5719.71
485.874	5805.36
486.244	5849.87
486.615	5937.78
486.985	5983.2
487.356	6092.58
487.726	6163.99
488.097	6218.23
488.467	6244.44
488.837	6342.52
489.207	6381.61
489.578	6522.17
489.948	6470.2
490.318	6564.88
490.688	6556.97
491.058	6676.29
491.428	6668.16
491.798	6782.51
492.168	6859.79
492.538	6833.58
492.908	6885.33
493.278	6970.3
493.648	6938.89
494.017	7022.5
494.387	7100.01
494.757	7095.94
495.126	7131.2
495.496	7168.03
495.866	7209.39
496.235	7210.52
496.605	7308.14
496.974	7303.62
497.344	7419.1
497.713	7394.24
498.082	7457.97
498.452	7531.64
498.821	7515.59
499.19	7546.33
499.559	7593.11
499.928	7592.88
500.298	7594.24
500.667	7657.96
501.036	7592.65
501.405	7777.06
501.774	7720.33
502.143	7784.29
502.512	7837.39
502.88	7846.21
503.249	7875.13
503.618	7876.94
503.987	7895.7
504.356	7972.3
504.724	7962.14
505.093	7997.61
505.462	7979.99
505.83	8088.01
506.199	8062.7
506.567	8170.49
506.936	8119.19
507.304	8190.6
507.672	8230.6
508.041	8275.8
508.409	8251.39
508.777	8321.67
509.145	8375.46
509.514	8303.6
509.882	8349.92
510.25	8436.25
510.618	8490.71
510.986	8492.52
511.354	8514.89
511.722	8563.48
512.09	8593.76
512.458	8601.21
512.826	8629.46
513.193	8690.03
513.561	8712.85
513.929	8718.05
514.297	8798.72
514.664	8793.53
515.032	8827.65
515.4	8810.02
515.767	8905.39
516.135	8904.71
516.502	8866.74
516.869	9035.78
517.237	9038.49
517.604	9061.54
517.972	9086.85
518.339	9144.25
518.706	9093.4
519.073	9104.48
519.44	9191.48
519.808	9290.46
520.175	9277.35
520.542	9355.54
520.909	9318.03
521.276	9365.49
521.643	9424.24
522.009	9505.15
522.376	9546.05
522.743	9512.15
523.11	9644.12
523.477	9652.03
523.843	9682.09
524.21	9835.76
524.577	9850.67
524.943	9822.2
525.31	9922.76
525.676	9895.19
526.043	10041.63
526.409	10007.73
526.776	10151.23
527.142	10083.21
527.508	10144
527.874	10227.84
528.241	10304.9
528.607	10309.64
528.973	10350.32
529.339	10325.01
529.705	10438
530.071	10479.13
530.437	10498.79
530.803	10565.68
531.169	10641.61
531.535	10602.74
531.901	10629.64
532.267	10706.02
532.632	10690.88
532.998	10710.09
533.364	10815.17
533.73	10826.01
534.095	10869.86
534.461	10917.54
534.826	10962.96
535.192	10997.99
535.557	11075.95
535.923	11042.96
536.288	11088.61
536.653	11142.84
537.019	11098.32
537.384	11154.59
537.749	11219
538.114	11265.55
538.479	11193.46
538.845	11306
539.21	11280.24
539.575	11347.36
539.94	11340.8
540.305	11489.05
540.67	11478.88
541.034	11481.14
541.399	11466.45
541.764	11554.36
542.129	11593.9
542.494	11598.42
542.858	11629.38
543.223	11724.97
543.587	11735.37
543.952	11639.33
544.316	11723.62
544.681	11736.05
545.045	11755.26
545.41	11777.63
545.774	11910.28
546.138	11815.14
546.503	11905.99
546.867	11876.83
547.231	12007.45
547.595	12019.2
547.959	12019.43
548.324	11999.09
548.688	11935.82
549.052	12007.9
549.416	12076.83
549.779	12127.9
550.143	12092.42
550.507	12166.77
550.871	12237.73
551.235	12185.75
551.599	12288.8
551.962	12286.99
552.326	12353.88
552.689	12358.18
553.053	12302.59
553.417	12356.82
553.78	12518.17
554.143	12388.01
554.507	12504.84
554.87	12556.82
555.234	12627.1
555.597	12611.28
555.96	12605.85
556.323	12639.3
556.686	12604.95
557.05	12758.17
557.413	12800.43
557.776	12814.89
558.139	12789.58
558.502	12827.54
558.865	12896.69
559.228	12925.85
559.59	12977.6
559.953	12978.5
560.316	13171.04
560.679	13093.07
561.041	13192.51
561.404	13201.09
561.767	13303.46
562.129	13228.44
562.492	13343.01
562.854	13299.62
563.217	13315.67
563.579	13332.16
563.941	13469.56
564.304	13583.68
564.666	13562.44
565.028	13617.13
565.39	13635.88
565.753	13751.14
566.115	13697.8
566.477	13861.19
566.839	13794.75
567.201	13813.51
567.563	13904.58
567.925	14038.81
568.287	14022.31
568.648	14085.59
569.01	14138.47
569.372	14184.57
569.734	14183.21
570.095	14273.16
570.457	14339.37
570.819	14435.41
571.18	14327.17
571.542	14435.64
571.903	14477.22
572.265	14541.85
572.626	14557.44
572.987	14587.27
573.349	14669.98
573.71	14671.79
574.071	14750.43
574.432	14869.3
574.794	14950.65
575.155	14807.15
575.516	14909.75
575.877	15034.04
576.238	14930.54
576.599	15041.5
576.96	15014.38
577.32	15008.28
577.681	15156.52
578.042	15182.28
578.403	15149.97
578.763	15200.82
579.124	15219.12
579.485	15226.58
579.845	15326.69
580.206	15273.58
580.566	15366.91
580.927	15371.88
581.287	15498.89
581.648	15377.53
582.008	15521.71
582.368	15438.1
582.728	15539.79
583.089	15418.89
583.449	15468.15
583.809	15524.65
584.169	15492.78
584.529	15509.28
584.889	15640.35
585.249	15542.5
585.609	15544.08
585.969	15666.57
586.329	15517.42
586.688	15608.94
587.048	15627.24
587.408	15568.49
587.768	15628.15
588.127	15577.98
588.487	15678.77
588.846	15706.56
589.206	15664.76
589.565	15708.15
589.925	15738.43
590.284	15660.24
590.643	15818.65
591.003	15745.21
591.362	15765.09
591.721	15869.05
592.08	15794.02
592.44	15796.05
592.799	15838.54
593.158	15785.21
593.517	15906.33
593.876	15928.03
594.235	15837.41
594.593	15872.21
594.952	15902.27
595.311	15791.08
595.67	15884.41
596.029	15936.61
596.387	15869.72
596.746	15930.06
597.104	15875.15
597.463	15916.28
597.822	15910.63
598.18	15928.48
598.538	15927.8
598.897	15998.99
599.255	15910.4
599.613	16103.62
599.972	16013.9
600.33	16048.48
600.688	16051.64
601.046	16147.91
601.404	16113.33
601.762	16069.04
602.12	16181.35
602.478	16064.75
602.836	16139.55
603.194	16165.54
603.552	16093.9
603.91	16168.47
604.268	16182.48
604.625	16131.41
604.983	16224.06
605.341	16088.48
605.698	16180.68
606.056	16228.58
606.413	16304.29
606.771	16344.97
607.128	16332.54
607.485	16218.19
607.843	16231.75
608.2	16455.7
608.557	16465.87
608.914	16349.94
609.272	16430.84
609.629	16509.48
609.986	16445.53
610.343	16499.99
610.7	16592.87
611.057	16519.65
611.414	16521.68
611.771	16563.04
612.127	16631.06
612.484	16645.75
612.841	16668.35
613.198	16575.69
613.554	16578.86
613.911	16776.37
614.267	16699.76
614.624	16791.51
614.98	16729.81
615.337	16892.3
615.693	16825.41
616.05	16815.91
616.406	16886.65
616.762	16819.98
617.118	16794.45
617.475	16876.93
617.831	16931.16
618.187	16913.31
618.543	16954.22
618.899	17041.22
619.255	17043.93
619.611	17033.99
619.967	17017.94
620.323	17163.02
620.678	17025.4
621.034	17074.89
621.39	17007.32
621.746	17039.41
622.101	17181.1
622.457	17004.84
622.812	17116.7
623.168	17210.25
623.523	17235.56
623.879	17313.53
624.234	17095.68
624.589	17291.61
624.945	17239.86
625.3	17311.72
625.655	17249.12
626.01	17267.65
626.365	17339.06
626.72	17373.19
627.075	17216.13
627.43	17360.98
627.785	17235.79
628.14	17414.77
628.495	17421.77
628.85	17406.86
629.205	17280.08
629.559	17422.68
629.914	17453.41
630.269	17395.79
630.623	17477.82
630.978	17368.22
631.332	17433.75
631.687	17640.3
632.041	17503.35
632.396	17512.17
632.75	17459.29
633.104	17611.15
633.459	17518.04
633.813	17457.7
634.167	17549.45
634.521	17525.05
634.875	17555.56
635.229	17532.73
635.583	17479.17
635.937	17532.73
636.291	17579.28
636.645	17510.58
636.999	17538.38
637.352	17593.97
637.706	17512.62
638.06	17593.52
638.413	17573.18
638.767	17471.26
639.121	17589.45
639.474	17519.17
639.828	17460.19
640.181	17620.86
640.534	17549
640.888	17583.35
641.241	17510.81
641.594	17591.03
641.947	17600.98
642.301	17579.74
642.654	17562.11
643.007	17633.29
643.36	17612.28
643.713	17703.12
644.066	17783.8
644.419	17676
644.771	17464.94
645.124	17316.24
645.477	17391.27
645.83	17341.78
646.182	17277.6
646.535	17222.23
646.888	17233.3
647.24	17202.34
647.593	17300.42
647.945	17195.56
648.298	17170.03
648.65	17132.29
649.002	17129.13
649.355	17349.01
649.707	17227.43
650.059	17442.34
650.411	17582.67
650.763	17649.34
651.115	17818.6
651.467	17773.4
651.819	17804.59
652.171	17850.24
652.523	17896.34
652.875	17790.35
653.227	17717.36
653.578	17886.17
653.93	17842.33
654.282	17784.7
654.633	17803.68
654.985	17854.08
655.337	17936.11
655.688	17791.26
656.039	18000.97
656.391	17836.68
656.742	17846.62
657.094	17903.57
657.445	18000.06
657.796	17876.45
658.147	18008.42
658.498	17858.15
658.849	17921.42
659.2	18030.12
659.551	17839.62
659.902	17991.25
660.253	17949.67
660.604	18009.1
660.955	17889.11
661.306	18028.54
661.656	18003.45
662.007	18014.3
662.358	17979.27
662.708	17931.14
663.059	17987.18
663.409	17897.47
663.76	18057.69
664.11	17885.49
664.461	18001.42
664.811	17987.86
665.161	17989.67
665.511	17971.82
665.862	18070.34
666.212	18016.11
666.562	17949.9
666.912	17913.06
667.262	17942.44
667.612	17906.96
667.962	17980.85
668.312	18019.72
668.662	18013.4
669.011	18026.73
669.361	17883.91
669.711	17904.02
670.06	17866.96
670.41	17763.46
670.76	17890.01
671.109	17911.7
671.459	17876
671.808	17708.77
672.157	17844.81
672.507	17660.19
672.856	17706.29
673.205	17680.07
673.554	17608.66
673.904	17715.33
674.253	17727.98
674.602	17566.85
674.951	17367.09
675.3	17278.05
675.649	17585.84
675.998	17560.53
676.346	17479.4
676.695	17568.44
677.044	17422.9
677.393	17393.75
677.741	17469.91
678.09	17343.36
678.438	17301.1
678.787	17397.37
679.135	17314.66
679.484	17172.29
679.832	17282.57
680.181	17116.02
680.529	17164.83
680.877	17128.67
681.225	17156.02
681.573	17226.98
681.922	16998.28
682.27	16990.82
682.618	16998.51
682.966	16960.54
683.314	17016.36
683.661	16904.27
684.009	16782.47
684.357	16760.32
684.705	16738.63
685.053	16754.45
685.4	16782.69
685.748	16635.81
686.095	16659.76
686.443	16646.88
686.79	16517.16
687.138	16577.05
687.485	16509.26
687.832	16460.22
688.18	16461.57
688.527	16512.64
688.874	16425.42
689.221	16433.1
689.568	16394.68
689.915	16385.64
690.262	16331.41
690.609	16295.25
690.956	16283.95
691.303	16287.57
691.65	16197.85
691.997	16219.32
692.344	16061.58
692.69	16078.53
693.037	16112.66
693.383	15971.64
693.73	15934.13
694.077	15941.81
694.423	15938.2
694.769	15928.93
695.116	15916.05
695.462	15940.68
695.808	15869.05
696.155	15875.37
696.501	15835.37
696.847	15807.8
697.193	15759.44
697.539	15848.93
697.885	15650.07
698.231	15609.39
698.577	15730.52
698.923	15595.83
699.269	15681.48
699.614	15489.17
699.96	15562.84
700.306	15557.42
700.651	15563.74
700.997	15444.88
701.342	15498.89
701.688	15475.16
702.033	15398.78
702.379	15356.07
702.724	15362.62
703.069	15332.56
703.415	15223.64
703.76	15348.61
704.105	15287.14
704.45	15257.99
704.795	15205.56
705.14	15250.53
705.485	15209.85
705.83	15163.3
706.175	15154.26
706.52	15204.88
706.865	15156.3
707.209	15053.93
707.554	15028.62
707.899	15110.2
708.243	15037.66
708.588	15066.13
708.932	14990.88
709.277	14897.55
709.621	14908.85
709.966	14883.08
710.31	14969.86
710.654	14810.09
710.998	14854.61
711.342	14860.48
711.687	14888.73
712.031	14766.48
712.375	14815.06
712.719	14804.44
713.063	14776.65
713.407	14854.38
713.75	14707.72
714.094	14756.08
714.438	14707.95
714.782	14670.21
715.125	14574.39
715.469	14706.36
715.812	14674.28
716.156	14571.23
716.499	14628.17
716.843	14591.11
717.186	14532.36
717.53	14575.07
717.873	14571.68
718.216	14612.58
718.559	14613.71
718.902	14369.2
719.246	14546.82
719.589	14429.76
719.932	14410.1
720.275	14522.64
720.617	14358.58
720.96	14421.17
721.303	14439.25
721.646	14420.5
721.989	14423.89
722.331	14427.5
722.674	14429.31
723.016	14425.47
723.359	14353.38
723.701	14398.58
724.044	14294.17
724.386	14247.17
724.729	14354.28
725.071	14319.71
725.413	14384.57
725.755	14353.15
726.097	14311.12
726.439	14171.24
726.782	14235.64
727.124	14361.52
727.465	14276.32
727.807	14260.95
728.149	14192.25
728.491	14292.59
728.833	14296.66
729.175	14317.67
729.516	14300.5
729.858	14152.71
730.199	14198.13
730.541	14199.49
730.882	14197.45
731.224	14239.48
731.565	14193.16
731.906	14167.17
732.248	14328.97
732.589	14179.15
732.93	14189.32
733.271	14301.18
733.612	14172.14
733.953	14312.7
734.294	14182.08
734.635	14224.8
734.976	14298.92
735.317	14192.48
735.658	14277.22
735.999	14280.61
736.339	14243.1
736.68	14345.92
737.021	14288.52
737.361	14299.82
737.702	14435.41
738.042	14343.21
738.383	14459.14
738.723	14487.39
739.063	14333.04
739.404	14406.71
739.744	14418.46
740.084	14436.99
740.424	14477.22
740.764	14462.08
741.104	14554.28
741.444	14487.16
741.784	14467.05
742.124	14622.07
742.464	14564.67
742.804	14557.22
743.143	14616.42
743.483	14643.77
743.823	14572.58
744.162	14598.8
744.502	14641.06
744.841	14651.9
745.181	14802.18
745.52	14687.83
745.86	14763.09
746.199	14798.57
746.538	14768.51
746.877	14827.49
747.216	14873.82
747.556	14855.06
747.895	14879.47
748.234	14859.81
748.573	14917.66
748.911	14883.08
749.25	15005.57
749.589	14987.04
749.928	15000.82
750.267	14992.68
750.605	15076.3
750.944	15079.24
751.283	15058.45
751.621	15156.97
751.96	15026.36
752.298	15115.62
752.636	15099.57
752.975	15166.24
753.313	15142.96
753.651	15249.63
753.989	15101.61
754.327	15214.6
754.666	15190.19
755.004	15296.41
755.342	15256.41
755.679	15335.95
756.017	15296.86
756.355	15329.17
756.693	15232.23
757.031	15338.89
757.368	15328.95
757.706	15321.26
758.044	15373.69
758.381	15417.98
758.719	15403.52
759.056	15437.42
759.394	15500.47
759.731	15423.41
760.068	15414.14
760.405	15357.42
760.743	15466.8
761.08	15620.24
761.417	15382.05
761.754	15459.57
762.091	15447.81
762.428	15486.46
762.765	15436.06
763.102	15522.39
763.438	15469.28
763.775	15420.02
764.112	15531.88
764.449	15500.92
764.785	15517.87
765.122	15542.5
765.458	15428.61
765.795	15541.6
766.131	15508.6
766.467	15493.24
766.804	15444.2
767.14	15384.76
767.476	15480.81
767.812	15514.25
768.148	15535.72
768.485	15432.22
768.821	15426.12
769.157	15547.02
769.492	15488.49
769.828	15483.75
770.164	15382.96
770.5	15348.16
770.836	15434.93
771.171	15353.35
771.507	15404.2
771.842	15331.89
772.178	15351.09
772.513	15320.81
772.849	15331.43
773.184	15265.67
773.519	15400.13
773.855	15325.56
774.19	15260.7
774.525	15263.64
774.86	15259.8
775.195	15332.34
775.53	15287.59
775.865	15229.51
776.2	15230.19
776.535	15209.4
776.87	15195.17
777.205	15098.44
777.539	15113.13
777.874	15208.27
778.209	15102.74
778.543	15108.39
778.878	15059.35
779.212	15081.04
779.547	15008.28
779.881	15085.34
780.215	15012.8
780.55	15080.14
780.884	14975.51
781.218	14892.57
781.552	14977.09
781.886	14949.52
782.22	14886.92
782.554	14808.73
782.888	14876.76
783.222	14731.22
783.556	14707.72
783.889	14835.17
784.223	14640.83
784.557	14666.37
784.89	14698.68
785.224	14639.47
785.557	14648.74
785.891	14609.42
786.224	14608.51
786.558	14608.74
786.891	14482.87
787.224	14514.96
787.557	14441.51
787.891	14450.55
788.224	14432.02
788.557	14492.59
788.89	14512.02
789.223	14553.37
789.556	14330.56
789.888	14427.28
790.221	14396.77
790.554	14242.42
790.887	14313.38
791.219	14305.02
791.552	14315.87
791.884	14192.25
792.217	14216.89
792.549	14256.21
792.882	14043.33
793.214	14195.42
793.546	14196.32
793.879	14042.2
794.211	14021.19
794.543	14087.62
794.875	14078.58
795.207	14082.88
795.539	13998.36
795.871	14016.67
796.203	13979.15
796.535	13935.99
796.867	13889.89
797.198	13892.6
797.53	13837.46
797.862	13818.25
798.193	13905.03
798.525	13757.69
798.856	13839.72
799.188	13730.12
799.519	13686.73
799.85	13646.05
800.182	13686.5
800.513	13704.58
800.844	13567.64
801.175	13596.56
801.506	13641.31
801.837	13555.89
802.168	13628.2
802.499	13539.16
802.83	13483.57
803.161	13490.58
803.491	13441.54
803.822	13450.35
804.153	13415.78
804.483	13274.76
804.814	13298.04
805.145	13269.34
805.475	13285.16
805.805	13225.05
806.136	13273.86
806.466	13303.01
806.796	13182.34
807.126	13164.94
807.457	13134.65
807.787	13079.97
808.117	13076.8
808.447	13108.67
808.777	13194.54
809.107	13075.22
809.436	12964.04
809.766	13094.66
810.096	13025.5
810.426	13026.63
810.755	13016.47
811.085	12962
811.414	13013.98
811.744	12840.2
812.073	12869.58
812.403	12867.77
812.732	12759.3
813.061	12835
813.39	12782.8
813.719	12714.33
814.049	12817.83
814.378	12710.94
814.707	12725.63
815.036	12712.07
815.365	12626.42
815.693	12508.68
816.022	12628.91
816.351	12538.51
816.68	12459.19
817.008	12586.19
817.337	12445.63
817.665	12364.96
817.994	12423.03
818.322	12391.17
818.651	12284.73
818.979	12375.13
819.307	12387.1
819.636	12371.74
819.964	12264.85
820.292	12337.39
820.62	12409.02
820.948	12261.46
821.276	12361.12
821.604	12282.02
821.932	12363.83
822.259	12331.29
822.587	12264.4
822.915	12244.96
823.243	12389.59
823.57	12346.88
823.898	12359.53
824.225	12303.94
824.553	12294.45
824.88	12334.68
825.207	12328.12
825.535	12237.05
825.862	12416.93
826.189	12398.63
826.516	12454.67
826.843	12504.61
827.17	12431.17
827.497	12433.88
827.824	12455.8
828.151	12480.21
828.478	12425.52
828.805	12417.61
829.131	12399.76
829.458	12375.58
829.785	12335.35
830.111	12335.81
830.438	12449.25
830.764	12451.28
831.09	12399.76
831.417	12365.41
831.743	12472.75
832.069	12503.94
832.395	12448.57
832.722	12421.23
833.048	12366.54
833.374	12387.33
833.7	12252.87
834.026	12386.88
834.351	12385.52
834.677	12401.79
835.003	12352.98
835.329	12328.35
835.654	12320.21
835.98	12312.08
836.306	12330.83
836.631	12265.52
836.956	12313.66
837.282	12363.15
837.607	12247.67
837.932	12249.71
838.258	12252.87
838.583	12207.67
838.908	12177.84
839.233	12303.04
839.558	12178.52
839.883	12106.21
840.208	12063.27
840.533	12050.84
840.858	12100.56
841.182	12117.05
841.507	12100.78
841.832	12044.97
842.156	12051.52
842.481	12022.82
842.805	11930.62
843.13	11912.99
843.454	11924.74
843.778	11899.66
844.103	11864.18
844.427	11892.65
844.751	11851.98
845.075	11822.15
845.399	11762.71
845.723	11678.87
846.047	11737.4
846.371	11663.73
846.695	11590.74
847.019	11535.15
847.343	11502.61
847.666	11443.85
847.99	11513.91
848.313	11408.37
848.637	11386.45
848.96	11355.94
849.284	11303.52
849.607	11247.25
849.931	11155.27
850.254	11131.09
850.577	11151.2
850.9	10999.12
851.223	10993.47
851.546	10954.6
851.869	10862.17
852.192	10974.49
852.515	10878.44
852.838	10778.33
853.161	10801.61
853.483	10820.82
853.806	10649.97
854.129	10698.11
854.451	10638.9
854.774	10632.8
855.096	10545.57
855.419	10598.68
855.741	10528.85
856.063	10469.87
856.385	10458.34
856.708	10404.56
857.03	10333.15
857.352	10440.04
857.674	10357.78
857.996	10264.22
858.318	10293.6
858.64	10269.87
858.961	10179.93
859.283	10158.69
859.605	10218.57
859.926	10246.14
860.248	10187.84
860.57	10085.7
860.891	10134.28
861.212	10133.83
861.534	10072.14
861.855	10032.14
862.176	10034.62
862.498	10028.97
862.819	10025.36
863.14	10015.19
863.461	9902.2
863.782	9888.86
864.103	9899.03
864.424	9947.39
864.745	9921.18
865.065	9820.84
865.386	9804.35
865.707	9842.99
866.027	9816.78
866.348	9812.26
866.668	9856.1
866.989	9808.64
867.309	9711.92
867.63	9695.88
867.95	9707.4
868.27	9709.21
868.59	9655.65
868.91	9661.98
869.23	9727.74
869.55	9624.24
869.87	9665.59
870.19	9613.62
870.51	9608.87
870.83	9630.79
871.15	9515.09
871.469	9617.23
871.789	9628.76
872.109	9585.6
872.428	9481.42
872.748	9545.82
873.067	9548.53
873.386	9458.37
873.706	9520.06
874.025	9442.32
874.344	9473.06
874.663	9425.37
874.982	9385.83
875.301	9419.72
875.62	9355.54
875.939	9322.33
876.258	9358.26
876.577	9313.29
876.896	9356.9
877.214	9314.19
877.533	9380.86
877.852	9346.51
878.17	9208.66
878.489	9279.39
878.807	9243.23
879.125	9251.14
879.444	9245.04
879.762	9227.41
880.08	9255.21
880.398	9176.57
880.716	9172.05
881.034	9092.5
881.352	9198.49
881.67	9057.47
881.988	9095.66
882.306	9130.01
882.624	9044.82
882.941	8975.67
883.259	9071.71
883.577	9009.11
883.894	8987.87
884.212	8921.43
884.529	8950.81
884.846	8890.92
885.164	8908.33
885.481	8819.74
885.798	8903.35
886.115	8785.16
886.432	8778.84
886.75	8797.37
887.067	8814.54
887.383	8744.26
887.7	8737.93
888.017	8711.04
888.334	8719.4
888.651	8705.39
888.967	8673.53
889.284	8596.02
889.6	8595.34
889.917	8505.62
890.233	8572.74
890.55	8581.78
890.866	8598.95
891.182	8496.58
891.498	8474.21
891.815	8514.21
892.131	8420.88
892.447	8395.12
892.763	8362.8
893.079	8335.68
893.395	8283.71
893.71	8329.81
894.026	8335.01
894.342	8243.48
894.657	8196.93
894.973	8148.8
895.289	8162.36
895.604	8174.11
895.92	8139.31
896.235	8096.37
896.55	8101.11
896.865	8040.55
897.181	8048.23
897.496	8038.52
897.811	7974.11
898.126	7931.63
898.441	7911.52
898.756	7888.24
899.071	7895.92
899.386	7899.31
899.7	7823.83
900.015	7787
900.33	7688.02
900.644	7681.92
900.959	7693.44
901.273	7671.07
901.588	7656.61
901.902	7572.09
902.216	7581.81
902.531	7545.2
902.845	7509.72
903.159	7488.02
903.473	7473.33
903.787	7442.15
904.101	7402.38
904.415	7358.99
904.729	7394.47
905.042	7353.79
905.356	7348.37
905.67	7284.64
905.984	7281.48
906.297	7271.08
906.611	7204.42
906.924	7248.03
907.237	7200.8
907.551	7131.42
907.864	7107.92
908.177	7083.74
908.491	7091.65
908.804	7050.75
909.117	7019.56
909.43	6978.88
909.743	6905.44
910.056	6900.24
910.368	6871.09
910.681	6844.2
910.994	6781.38
911.307	6820.47
911.619	6824.31
911.932	6813.92
912.244	6702.73
912.557	6657.31
912.869	6630.64
913.181	6616.63
913.494	6618.22
913.806	6593.58
914.118	6610.08
914.43	6537.31
914.742	6510.42
915.054	6517.2
915.366	6485.11
915.678	6443.31
915.99	6414.61
916.302	6353.82
916.613	6345.68
916.925	6341.84
917.236	6336.19
917.548	6294.61
917.859	6277.21
918.171	6251.45
918.482	6241.95
918.794	6234.27
919.105	6136.42
919.416	6140.49
919.727	6071.79
920.038	6112.01
920.349	6022.07
920.66	6044.9
920.971	6016.2
921.282	6003.32
921.593	5952.7
921.903	5965.13
922.214	5911.79
922.525	5895.52
922.835	5817.11
923.146	5833.15
923.456	5803.1
923.767	5818.91
924.077	5733.49
924.387	5730.33
924.697	5681.07
925.008	5674.96
925.318	5678.13
925.628	5636.77
925.938	5613.04
926.248	5603.55
926.558	5551.13
926.867	5515.19
927.177	5498.02
927.487	5491.47
927.796	5432.48
928.106	5469.32
928.416	5437.91
928.725	5391.81
929.034	5368.53
929.344	5364.92
929.653	5361.75
929.962	5314.52
930.271	5296.22
930.581	5268.87
930.89	5218.48
931.199	5203.79
931.508	5192.49
931.817	5180.97
932.125	5134.86
932.434	5100.29
932.743	5080.4
933.051	5095.32
933.36	5015.55
933.669	5016.9
933.977	5002.89
934.286	5007.64
934.594	5002.67
934.902	4980.74
935.21	4943.68
935.519	4900.97
935.827	4904.14
936.135	4883.57
936.443	4852.84
936.751	4811.26
937.059	4829.56
937.367	4775.55
937.674	4846.51
937.982	4783.24
938.29	4735.55
938.597	4768.55
938.905	4714.09
939.213	4712.96
939.52	4667.53
939.827	4653.52
940.135	4611.49
940.442	4622.34
940.749	4609.68
941.056	4549.57
941.363	4551.83
941.67	4531.72
941.977	4515.22
942.284	4467.09
942.591	4490.36
942.898	4426.86
943.205	4486.29
943.511	4440.65
943.818	4373.76
944.125	4348.67
944.431	4375.79
944.738	4315
945.044	4333.53
945.35	4329.01
945.657	4306.64
945.963	4300.31
946.269	4241.78
946.575	4221.22
946.881	4236.36
947.187	4223.02
947.493	4182.8
947.799	4171.05
948.105	4120.88
948.41	4121.11
948.716	4131.28
949.022	4075.46
949.327	4062.35
949.633	4019.87
949.938	4057.38
950.244	4067.55
950.549	3993.65
950.854	3993.65
951.16	3983.71
951.465	3938.29
951.77	3947.1
952.075	3930.83
952.38	3905.52
952.685	3896.03
952.99	3866.88
953.294	3844.28
953.599	3809.7
953.904	3842.7
954.209	3778.74
954.513	3758.63
954.818	3760.21
955.122	3740.1
955.426	3735.35
955.731	3693.09
956.035	3708.69
956.339	3671.85
956.643	3667.11
956.948	3656.49
957.252	3656.26
957.556	3659.88
957.86	3594.11
958.163	3600.44
958.467	3609.26
958.771	3574.91
959.075	3559.77
959.378	3547.79
959.682	3500.11
959.985	3534.91
960.289	3475.02
960.592	3492.87
960.896	3474.12
961.199	3435.25
961.502	3427.79
961.805	3414.68
962.108	3371.3
962.411	3392.09
962.714	3365.87
963.017	3365.42
963.32	3353.67
963.623	3313.9
963.926	3351.41
964.228	3268.47
964.531	3273.45
964.833	3260.11
965.136	3255.82
965.438	3253.78
965.741	3221.02
966.043	3230.96
966.345	3201.81
966.648	3201.58
966.95	3194.8
967.252	3144.63
967.554	3134.92
967.856	3162.71
968.158	3134.24
968.46	3113.68
968.761	3135.37
969.063	3060.57
969.365	3084.07
969.666	3089.04
969.968	3086.33
970.269	3056.05
970.571	3002.72
970.872	3016.05
971.174	2981.25
971.475	2974.24
971.776	2977.86
972.077	2953.23
972.378	2956.39
972.679	2910.06
972.98	2953
973.281	2883.4
973.582	2894.7
973.883	2858.31
974.183	2904.42
974.484	2856.73
974.785	2827.81
975.085	2849.95
975.386	2802.27
975.686	2803.85
975.986	2779.67
976.287	2811.31
976.587	2769.05
976.887	2786.23
977.187	2769.96
977.487	2735.83
977.787	2694.7
978.087	2699.45
978.387	2718.21
978.687	2703.06
978.987	2670.75
979.286	2628.04
979.586	2672.1
979.885	2644.99
980.185	2665.1
980.484	2586.68
980.784	2575.84
981.083	2592.78
981.382	2602.95
981.682	2579
981.981	2550.53
982.28	2542.16
982.579	2528.38
982.878	2568.83
983.177	2516.4
983.475	2570.41
983.774	2510.75
984.073	2469.62
984.372	2470.53
984.67	2495.61
984.969	2441.83
985.267	2484.99
985.566	2435.27
985.864	2419.91
986.162	2399.57
986.461	2399.34
986.759	2392.56
987.057	2382.62
987.355	2355.05
987.653	2379.01
987.951	2372.23
988.249	2326.13
988.547	2315.5
988.844	2329.97
989.142	2305.79
989.44	2258.1
989.737	2299.46
990.035	2299.46
990.332	2269.86
990.63	2237.77
990.927	2233.02
991.224	2211.55
991.521	2226.92
991.819	2197.77
992.116	2218.33
992.413	2204.32
992.71	2190.54
993.006	2204.77
993.303	2166.36
993.6	2147.82
993.897	2103.76
994.193	2172.01
994.49	2140.37
994.787	2113.7
995.083	2079.13
995.379	2102.63
995.676	2079.35
995.972	2078.9
996.268	2042.06
996.565	2046.81
996.861	2038.22
997.157	2033.48
997.453	2003.42
997.749	2036.87
998.044	1997.55
998.34	2000.26
998.636	1986.7
998.932	1971.78
999.227	1962.29
999.523	1977.21
999.818	1945.57
1000.114	1934.95
1000.409	1926.36
1000.704	1900.6
1001	1896.53
1001.295	1864.22
1001.59	1903.31
1001.885	1879.36
1002.18	1865.57
1002.475	1862.63
1002.77	1875.06
1003.065	1850.21
1003.359	1826.25
1003.654	1822.64
1003.949	1800.94
1004.243	1814.95
1004.538	1809.75
1004.832	1759.81
1005.127	1763.43
1005.421	1750.32
1005.715	1748.06
1006.009	1743.99
1006.304	1761.17
1006.598	1722.07
1006.892	1722.07
1007.186	1714.39
1007.48	1706.03
1007.773	1716.2
1008.067	1659.48
1008.361	1654.05
1008.655	1671.68
1008.948	1646.82
1009.242	1653.83
1009.535	1624.67
1009.829	1649.31
1010.122	1613.83
1010.415	1590.33
1010.708	1587.61
1011.001	1575.18
1011.295	1559.59
1011.588	1570.89
1011.881	1571.12
1012.173	1546.48
1012.466	1548.74
1012.759	1519.37
1013.052	1556.65
1013.344	1509.2
1013.637	1491.12
1013.93	1501.51
1014.222	1493.6
1014.514	1488.86
1014.807	1470.1
1015.099	1460.39
1015.391	1452.93
1015.683	1448.18
1015.976	1413.15
1016.268	1421.52
1016.56	1423.32
1016.851	1420.84
1017.143	1410.22
1017.435	1390.33
1017.727	1370.22
1018.018	1380.61
1018.31	1369.31
1018.602	1386.49
1018.893	1363.89
1019.185	1339.71
1019.476	1369.09
1019.767	1326.6
1020.058	1315.3
1020.35	1315.08
1020.641	1335.19
1020.932	1288.41
1021.223	1286.38
1021.514	1268.75
1021.804	1259.26
1022.095	1246.15
1022.386	1263.33
1022.677	1233.05
1022.967	1247.28
1023.258	1232.37
1023.548	1229.66
1023.839	1229.66
1024.129	1193.95
1024.419	1223.56
1024.709	1181.97
1025	1179.49
1025.29	1165.03
1025.58	1137.68
1025.87	1173.39
1026.16	1166.61
1026.449	1165.93
1026.739	1140.85
1027.029	1119.83
1027.319	1126.83
1027.608	1140.39
1027.898	1128.42
1028.187	1118.25
1028.477	1102.65
1028.766	1090.45
1029.055	1086.38
1029.344	1103.33
1029.634	1075.31
1029.923	1062.66
1030.212	1064.69
1030.501	1066.95
1030.79	1046.84
1031.078	1027.85
1031.367	1034.86
1031.656	1021.53
1031.945	1036.67
1032.233	1020.62
1032.522	1006.61
1032.81	1024.69
1033.099	989.66
1033.387	996.22
1033.675	987.63
1033.963	976.1
1034.251	964.81
1034.54	948.53
1034.828	946.95
1035.116	919.61
1035.403	923.45
1035.691	923.9
1035.979	942.43
1036.267	923
1036.554	922.55
1036.842	932.49
1037.129	931.36
1037.417	934.3
1037.704	879.38
1037.992	878.93
1038.279	866.05
1038.566	866.5
1038.853	866.5
1039.14	866.5
