Data from blue_surface_keyboard_FLMS001491_099.txt Node
Date: Tue Feb 07 11:13:55 GMT 2017
User: dcchb
Spectrometer: FLMS00149
Trigger mode: 0
Integration Time (sec): 2.000000E-2
Scans to average: 10
Electric dark correction enabled: true
Nonlinearity correction enabled: false
Boxcar width: 0
XAxis mode: Wavelengths
Number of Pixels in Spectrum: 2048
>>>>>Begin Spectral Data<<<<<
341.393	-27.82
341.776	-27.82
342.16	-27.82
342.543	-58.56
342.927	-78.22
343.31	-63.53
343.693	-80.03
344.077	-54.26
344.46	-54.26
344.843	-60.37
345.226	-51.55
345.61	-12.46
345.993	-20.37
346.376	2.01
346.759	7.2
347.142	17.6
347.525	42.46
347.908	48.33
348.291	93.3
348.674	76.58
349.057	109.35
349.44	125.39
349.823	140.08
350.206	153.19
350.588	180.08
350.971	184.83
351.354	202.45
351.737	230.02
352.119	231.15
352.502	233.64
352.884	253.75
353.267	254.2
353.65	270.25
354.032	293.98
354.414	289.46
354.797	301.66
355.179	301.66
355.562	296.46
355.944	304.82
356.326	309.12
356.709	307.08
357.091	328.78
357.473	317.7
357.855	311.38
358.238	305.27
358.62	335.78
359.002	329
359.384	314.09
359.766	319.96
360.148	319.74
360.53	306.63
360.912	322.22
361.294	303.92
361.676	310.92
362.057	329.91
362.439	301.43
362.821	310.47
363.203	301.66
363.584	292.39
363.966	311.15
364.348	295.11
364.729	303.92
365.111	312.05
365.493	314.54
365.874	302.34
366.256	303.47
366.637	292.85
367.019	300.53
367.4	271.15
367.781	284.94
368.163	303.69
368.544	278.16
368.925	282.22
369.306	299.62
369.688	278.38
370.069	289
370.45	282
370.831	277.25
371.212	303.69
371.593	286.29
371.974	287.87
372.355	291.26
372.736	298.04
373.117	289.46
373.498	292.39
373.879	296.46
374.26	285.84
374.641	272.05
375.021	292.85
375.402	281.55
375.783	308.89
376.163	303.47
376.544	295.56
376.925	298.49
377.305	306.4
377.686	297.37
378.066	307.99
378.447	300.08
378.827	304.14
379.208	304.82
379.588	275.9
379.968	287.2
380.349	302.11
380.729	293.98
381.109	294.2
381.489	283.13
381.87	296.24
382.25	305.27
382.63	304.6
383.01	313.18
383.39	308.21
383.77	300.3
384.15	312.96
384.53	313.41
384.91	328.55
385.29	314.09
385.67	318.83
386.049	312.73
386.429	329.45
386.809	306.86
387.189	303.69
387.568	317.25
387.948	310.25
388.328	318.38
388.707	308.21
389.087	321.77
389.466	320.64
389.846	301.88
390.225	327.65
390.605	317.93
390.984	311.15
391.363	340.53
391.743	330.13
392.122	334.65
392.501	342.34
392.881	328.32
393.26	322.9
393.639	344.14
394.018	323.13
394.397	321.77
394.776	333.07
395.155	338.72
395.534	325.84
395.913	314.09
396.292	322.9
396.671	319.74
397.05	334.88
397.429	350.92
397.808	321.77
398.186	337.14
398.565	326.74
398.944	336.23
399.323	327.87
399.701	339.62
400.08	342.11
400.458	338.49
400.837	338.04
401.215	341.21
401.594	329
401.972	346.63
402.351	336.91
402.729	340.98
403.107	330.13
403.486	315.22
403.864	342.56
404.242	352.05
404.62	355.22
404.999	333.75
405.377	347.08
405.755	349.79
406.133	353.63
406.511	376.91
406.889	367.65
407.267	371.04
407.645	382.56
408.023	372.17
408.401	359.28
408.779	370.81
409.156	352.73
409.534	341.21
409.912	393.63
410.29	380.07
410.667	366.74
411.045	381.66
411.422	377.14
411.8	379.62
412.178	370.36
412.555	376.23
412.933	387.53
413.31	377.14
413.687	374.2
414.065	383.24
414.442	372.39
414.819	372.39
415.197	382.11
415.574	374.88
415.951	381.66
416.328	389.57
416.705	378.72
417.082	390.47
417.46	390.02
417.837	399.51
418.214	400.19
418.591	395.22
418.967	396.57
419.344	402.45
419.721	388.89
420.098	392.96
420.475	404.03
420.852	405.38
421.228	406.06
421.605	410.81
421.982	410.13
422.358	405.61
422.735	390.7
423.111	410.36
423.488	397.93
423.864	412.84
424.241	434.54
424.617	407.87
424.994	417.36
425.37	394.76
425.746	423.46
426.123	423.01
426.499	424.14
426.875	424.59
427.251	416.01
427.627	455.1
428.003	434.76
428.379	419.85
428.756	450.36
429.132	455.33
429.507	432.5
429.883	457.36
430.259	449
430.635	460.07
431.011	435.44
431.387	457.13
431.763	412.62
432.138	474.99
432.514	473.41
432.89	452.84
433.265	454.65
433.641	474.08
434.016	457.59
434.392	470.69
434.767	460.07
435.143	449.45
435.518	474.31
435.894	476.12
436.269	485.61
436.644	485.61
437.02	492.39
437.395	506.85
437.77	484.03
438.145	485.61
438.52	499.85
438.895	511.6
439.271	500.98
439.646	509.34
440.021	523.8
440.395	510.01
440.77	515.21
441.145	529.22
441.52	504.37
441.895	526.29
442.27	511.82
442.645	519.96
443.019	512.5
443.394	527.42
443.769	517.47
444.143	523.12
444.518	530.58
444.892	522.9
445.267	532.84
445.641	537.81
446.016	519.05
446.39	547.3
446.764	547.53
447.139	550.01
447.513	545.95
447.887	533.74
448.262	556.34
448.636	560.41
449.01	565.83
449.384	552.73
449.758	553.86
450.132	550.69
450.506	560.18
450.88	582.33
451.254	558.83
451.628	556.12
452.002	567.87
452.376	551.6
452.75	567.19
453.123	574.42
453.497	571.93
453.871	601.99
454.244	581.88
454.618	579.84
454.992	591.82
455.365	591.82
455.739	620.07
456.112	611.71
456.486	583.46
456.859	603.8
457.232	611.03
457.606	617.36
457.979	612.16
458.352	615.77
458.725	631.14
459.099	646.73
459.472	626.4
459.845	623.68
460.218	633.63
460.591	648.99
460.964	645.6
461.337	652.38
461.71	636.79
462.083	655.77
462.456	672.27
462.829	664.14
463.201	662.33
463.574	671.14
463.947	682.44
464.32	692.38
464.692	698.94
465.065	698.26
465.438	691.25
465.81	719.95
466.183	713.85
466.555	726.05
466.928	733.74
467.3	715.21
467.672	719.27
468.045	742.78
468.417	757.01
468.789	750.69
469.161	742.78
469.534	766.28
469.906	754.3
470.278	754.98
470.65	744.36
471.022	779.39
471.394	776.22
471.766	789.78
472.138	793.4
472.51	798.37
472.882	810.12
473.253	806.73
473.625	816
473.997	819.16
474.369	808.31
474.74	842.44
475.112	867.52
475.484	872.27
475.855	872.72
476.227	867.29
476.598	906.39
476.97	877.01
477.341	900.74
477.713	902.32
478.084	904.35
478.455	907.97
478.827	925.37
479.198	921.3
479.569	950
479.94	959.27
480.311	954.97
480.682	979.38
481.053	1013.73
481.424	1023.9
481.795	1014.63
482.166	1003.79
482.537	1009.44
482.908	1030.68
483.279	1030
483.65	1060.96
484.021	1052.15
484.391	1039.72
484.762	1087.17
485.133	1062.32
485.503	1071.13
485.874	1129.89
486.244	1098.93
486.615	1113.61
486.985	1111.81
487.356	1182.54
487.726	1134.86
488.097	1159.26
488.467	1162.2
488.837	1152.03
489.207	1157.68
489.578	1157.23
489.948	1193.61
490.318	1171.47
490.688	1211.69
491.058	1188.87
491.428	1215.76
491.798	1207.62
492.168	1216.44
492.538	1237.68
492.908	1265.48
493.278	1263.89
493.648	1240.39
494.017	1243.1
494.387	1266.83
494.757	1273.16
495.126	1282.65
495.496	1295.76
495.866	1263.22
496.235	1261.41
496.605	1276.77
496.974	1303.44
497.344	1320.84
497.713	1308.86
498.082	1281.75
498.452	1307.73
498.821	1310.9
499.19	1305.93
499.559	1315.64
499.928	1295.3
500.298	1329.2
500.667	1356.55
501.036	1322.42
501.405	1349.54
501.774	1340.5
502.143	1354.74
502.512	1337.56
502.88	1351.12
503.249	1361.52
503.618	1358.58
503.987	1350.9
504.356	1366.26
504.724	1374.4
505.093	1361.29
505.462	1364.23
505.83	1391.12
506.199	1376.66
506.567	1393.38
506.936	1386.38
507.304	1403.55
507.672	1395.87
508.041	1377.34
508.409	1425.7
508.777	1389.09
509.145	1429.54
509.514	1378.01
509.882	1402.65
510.25	1404.45
510.618	1394.51
510.986	1400.39
511.354	1434.51
511.722	1431.57
512.09	1445.58
512.458	1424.34
512.826	1413.72
513.193	1440.84
513.561	1420.73
513.929	1459.82
514.297	1453.94
514.664	1452.81
515.032	1416.21
515.4	1422.99
515.767	1447.39
516.135	1423.66
516.502	1500.95
516.869	1452.59
517.237	1458.24
517.604	1457.33
517.972	1471.57
518.339	1458.24
518.706	1458.69
519.073	1449.43
519.44	1478.58
519.808	1504.56
520.175	1485.58
520.542	1493.94
520.909	1470.89
521.276	1487.16
521.643	1477
522.009	1462.08
522.376	1502.31
522.743	1500.05
523.11	1498.92
523.477	1486.71
523.843	1524
524.21	1500.72
524.577	1523.32
524.943	1545.92
525.31	1524.23
525.676	1530.55
526.043	1544.79
526.409	1529.88
526.776	1544.34
527.142	1566.03
527.508	1556.09
527.874	1571.68
528.241	1544.34
528.607	1575.98
528.973	1557.22
529.339	1571.23
529.705	1572.59
530.071	1591.12
530.437	1579.82
530.803	1613.94
531.169	1580.72
531.535	1590.21
531.901	1587.27
532.267	1597.67
532.632	1600.38
532.998	1587.5
533.364	1599.03
533.73	1593.6
534.095	1613.26
534.461	1600.61
534.826	1603.32
535.192	1593.15
535.557	1604.45
535.923	1569.87
536.288	1596.31
536.653	1625.69
537.019	1598.12
537.384	1602.42
537.749	1615.07
538.114	1596.77
538.479	1617.56
538.845	1626.37
539.21	1602.19
539.575	1601.74
539.94	1617.56
540.305	1634.96
540.67	1603.32
541.034	1625.47
541.399	1628.86
541.764	1628.4
542.129	1606.26
542.494	1632.25
542.858	1642.19
543.223	1597.44
543.587	1629.53
543.952	1645.58
544.316	1611.23
544.681	1623.43
545.045	1626.82
545.41	1590.21
545.774	1634.05
546.138	1617.56
546.503	1626.37
546.867	1647.84
547.231	1628.4
547.595	1629.31
547.959	1643.54
548.324	1621.4
548.688	1615.07
549.052	1607.84
549.416	1666.14
549.779	1667.5
550.143	1611.45
550.507	1640.83
550.871	1631.79
551.235	1629.99
551.599	1628.4
551.962	1665.69
552.326	1635.41
552.689	1638.12
553.053	1625.01
553.417	1673.37
553.78	1656.65
554.143	1667.05
554.507	1652.81
554.87	1662.98
555.234	1665.46
555.597	1658.01
555.96	1651.23
556.323	1642.64
556.686	1624.56
557.05	1668.18
557.413	1653.26
557.776	1657.33
558.139	1667.27
558.502	1641.06
558.865	1661.85
559.228	1665.46
559.59	1680.15
559.953	1673.6
560.316	1707.05
560.679	1692.36
561.041	1691.68
561.404	1680.83
561.767	1682.64
562.129	1694.84
562.492	1691
562.854	1729.19
563.217	1706.37
563.579	1691.9
563.941	1684
564.304	1703.66
564.666	1703.88
565.028	1720.38
565.39	1703.66
565.753	1720.83
566.115	1714.73
566.477	1749.53
566.839	1715.18
567.201	1719.25
567.563	1727.61
567.925	1742.75
568.287	1707.95
568.648	1733.26
569.01	1711.57
569.372	1743.65
569.734	1737.1
570.095	1766.7
570.457	1765.12
570.819	1733.71
571.18	1725.35
571.542	1752.69
571.903	1753.15
572.265	1748.17
572.626	1748.85
572.987	1744.78
573.349	1761.73
573.71	1749.76
574.071	1764.67
574.432	1802.64
574.794	1766.03
575.155	1766.25
575.516	1752.02
575.877	1757.21
576.238	1780.26
576.599	1786.37
576.96	1772.58
577.32	1785.69
577.681	1792.24
578.042	1808.74
578.403	1799.92
578.763	1802.64
579.124	1791.79
579.485	1818.46
579.845	1832.69
580.206	1806.25
580.566	1840.6
580.927	1785.01
581.287	1815.07
581.648	1826.36
582.008	1837.21
582.368	1822.52
582.728	1785.69
583.089	1831.11
583.449	1825.91
583.809	1806.25
584.169	1799.7
584.529	1834.95
584.889	1843.54
585.249	1825.46
585.609	1840.38
585.969	1820.49
586.329	1836.99
586.688	1825.91
587.048	1824.78
587.408	1810.55
587.768	1818
588.127	1814.61
588.487	1845.35
588.846	1864.56
589.206	1828.4
589.565	1823.43
589.925	1866.82
590.284	1838.79
590.643	1806.03
591.003	1829.75
591.362	1842.41
591.721	1854.16
592.08	1843.77
592.44	1835.4
592.799	1836.08
593.158	1867.95
593.517	1849.87
593.876	1839.47
594.235	1823.43
594.593	1843.54
594.952	1851.45
595.311	1869.98
595.67	1861.39
596.029	1883.99
596.387	1836.31
596.746	1863.88
597.104	1886.25
597.463	1877.21
597.822	1860.26
598.18	1847.15
598.538	1857.32
598.897	1889.19
599.255	1860.26
599.613	1881.28
599.972	1861.62
600.33	1891.22
600.688	1881.5
601.046	1910.2
601.404	1875.18
601.762	1875.4
602.12	1898.9
602.478	1897.32
602.836	1923.31
603.194	1911.79
603.552	1899.36
603.91	1877.89
604.268	1893.93
604.625	1869.98
604.983	1912.24
605.341	1907.94
605.698	1870.21
606.056	1907.94
606.413	1892.8
606.771	1925.34
607.128	1910.88
607.485	1903.65
607.843	1910.43
608.2	1932.35
608.557	1928.28
608.914	1907.49
609.272	1945.91
609.629	1933.71
609.986	1965.12
610.343	1932.58
610.7	1937.55
611.057	1952.69
611.414	1945.91
611.771	1939.58
612.127	1953.14
612.484	1971.45
612.841	1981.84
613.198	1973.25
613.554	1949.98
613.911	1990.65
614.267	1986.13
614.624	1950.65
614.98	1978.45
615.337	1962.86
615.693	1976.87
616.05	1978.9
616.406	1979.81
616.762	1981.16
617.118	1992.69
617.475	1983.2
617.831	1990.2
618.187	1989.3
618.543	2020.48
618.899	2010.99
619.255	1987.94
619.611	2010.54
619.967	2019.81
620.323	2002.4
620.678	2018.68
621.034	1998.79
621.39	2032.69
621.746	1995.63
622.101	2015.51
622.457	2007.38
622.812	2023.87
623.168	2023.65
623.523	2030.65
623.879	2042.4
624.234	2033.59
624.589	2033.14
624.945	2021.39
625.3	2026.36
625.655	2056.41
626.01	2061.16
626.365	2058
626.72	2055.06
627.075	2057.32
627.43	2051.44
627.785	2051.67
628.14	2043.76
628.495	2060.93
628.85	2056.64
629.205	2065.45
629.559	2116.07
629.914	2081.72
630.269	2089.41
630.623	2048.05
630.978	2107.49
631.332	2122.63
631.687	2123.31
632.041	2089.41
632.396	2110.88
632.75	2088.73
633.104	2123.31
633.459	2126.24
633.813	2124.66
634.167	2142.74
634.521	2129.18
634.875	2143.87
635.229	2138.45
635.583	2145.68
635.937	2151.78
636.291	2095.28
636.645	2164.89
636.999	2153.14
637.352	2137.77
637.706	2156.07
638.06	2163.53
638.413	2148.84
638.767	2157.2
639.121	2174.6
639.474	2138.9
639.828	2182.06
640.181	2177.54
640.534	2195.39
640.888	2192.91
641.241	2212.79
641.594	2187.26
641.947	2206.92
642.301	2212.12
642.654	2191.33
643.007	2227.03
643.36	2254.6
643.713	2205.34
644.066	2248.27
644.419	2255.96
644.771	2272.45
645.124	2232.68
645.477	2231.55
645.83	2251.66
646.182	2191.33
646.535	2253.25
646.888	2219.8
647.24	2262.51
647.593	2281.49
647.945	2258.22
648.298	2270.19
648.65	2247.14
649.002	2262.51
649.355	2329.4
649.707	2326.24
650.059	2320.59
650.411	2357.88
650.763	2356.29
651.115	2359.23
651.467	2395.84
651.819	2382.73
652.171	2390.42
652.523	2396.07
652.875	2430.87
653.227	2428.83
653.578	2469.51
653.93	2417.76
654.282	2474.03
654.633	2431.77
654.985	2479.23
655.337	2460.7
655.688	2497.99
656.039	2487.14
656.391	2490.3
656.742	2511.77
657.094	2533.69
657.445	2558.1
657.796	2536.63
658.147	2552.22
658.498	2590.41
658.849	2561.94
659.2	2584.76
659.551	2588.15
659.902	2648.04
660.253	2647.81
660.604	2669.05
660.955	2674.25
661.306	2667.25
661.656	2657.53
662.007	2704.99
662.358	2670.86
662.708	2700.01
663.059	2753.57
663.409	2713.8
663.76	2766.23
664.11	2746.79
664.461	2787.92
664.811	2784.08
665.161	2817.07
665.511	2810.29
665.862	2817.07
666.212	2864.76
666.562	2885.77
666.912	2868.14
667.262	2856.85
667.612	2875.6
667.962	2886.45
668.312	2916.05
668.662	2923.28
669.011	2970.29
669.361	2943.85
669.711	2971.65
670.06	2993.34
670.41	3008.71
670.76	2986.33
671.109	3002.38
671.459	3050.51
671.808	3040.8
672.157	3074.24
672.507	3055.94
672.856	3105.65
673.205	3068.14
673.554	3077.4
673.904	3122.38
674.253	3135.71
674.602	3134.8
674.951	3141.81
675.3	3072.21
675.649	3171.64
675.998	3186.78
676.346	3191.98
676.695	3195.14
677.044	3207.8
677.393	3195.37
677.741	3222.94
678.09	3266.1
678.438	3266.1
678.787	3263.16
679.135	3292.31
679.484	3289.6
679.832	3283.95
680.181	3286.21
680.529	3347.45
680.877	3338.42
681.225	3300
681.573	3331.41
681.922	3328.02
682.27	3345.87
682.618	3372.99
682.966	3360.11
683.314	3393.55
683.661	3426.1
684.009	3379.32
684.357	3403.72
684.705	3422.03
685.053	3415.25
685.4	3392.65
685.748	3450.28
686.095	3465.42
686.443	3447.11
686.79	3460.22
687.138	3420.9
687.485	3487.34
687.832	3444.17
688.18	3492.76
688.527	3474.46
688.874	3515.13
689.221	3471.74
689.568	3485.53
689.915	3490.73
690.262	3501.35
690.609	3520.78
690.956	3528.69
691.303	3528.24
691.65	3491.63
691.997	3486.66
692.344	3505.87
692.69	3507.45
693.037	3544.06
693.383	3535.47
693.73	3537.05
694.077	3548.13
694.423	3559.2
694.769	3557.62
695.116	3510.39
695.462	3530.05
695.808	3525.75
696.155	3519.65
696.501	3503.61
696.847	3548.13
697.193	3498.86
697.539	3481.01
697.885	3519.2
698.231	3480.56
698.577	3528.01
698.923	3519.65
699.269	3493.89
699.614	3490.05
699.96	3489.37
700.306	3517.62
700.651	3502.7
700.997	3480.78
701.342	3484.4
701.688	3513.55
702.033	3482.14
702.379	3500.67
702.724	3481.24
703.069	3502.48
703.415	3449.6
703.76	3507.45
704.105	3455.47
704.45	3512.87
704.795	3445.76
705.14	3444.4
705.485	3462.03
705.83	3454.12
706.175	3476.04
706.52	3470.16
706.865	3457.73
707.209	3479.2
707.554	3436.72
707.899	3456.83
708.243	3414.57
708.588	3423.16
708.932	3420.22
709.277	3437.17
709.621	3408.7
709.966	3426.32
710.31	3422.93
710.654	3395.14
710.998	3411.86
711.342	3459.32
711.687	3389.71
712.031	3380.67
712.375	3340.22
712.719	3398.53
713.063	3394.91
713.407	3418.86
713.75	3422.25
714.094	3371.18
714.438	3383.84
714.782	3362.6
715.125	3385.65
715.469	3403.27
715.812	3392.88
716.156	3345.42
716.499	3375.25
716.843	3405.08
717.186	3354.91
717.53	3375.48
717.873	3400.33
718.216	3405.98
718.559	3405.08
718.902	3398.98
719.246	3381.13
719.589	3399.2
719.932	3404.4
720.275	3387.23
720.617	3363.27
720.96	3353.1
721.303	3355.59
721.646	3384.52
721.989	3388.13
722.331	3406.89
722.674	3334.12
723.016	3419.09
723.359	3410.5
723.701	3391.07
724.044	3345.42
724.386	3380.22
724.729	3399.2
725.071	3342.03
725.413	3384.97
725.755	3413.67
726.097	3375.93
726.439	3382.93
726.782	3369.37
727.124	3396.49
727.465	3366.21
727.807	3394.91
728.149	3380
728.491	3375.48
728.833	3415.02
729.175	3400.56
729.516	3347
729.858	3367.79
730.199	3424.74
730.541	3382.26
730.882	3396.49
731.224	3386.55
731.565	3371.63
731.906	3400.56
732.248	3413.22
732.589	3407.11
732.93	3375.02
733.271	3407.34
733.612	3406.89
733.953	3424.74
734.294	3415.93
734.635	3398.07
734.976	3467
735.317	3431.07
735.658	3444.63
735.999	3454.12
736.339	3456.38
736.68	3466.77
737.021	3442.14
737.361	3467.68
737.702	3512.87
738.042	3471.07
738.383	3482.59
738.723	3519.65
739.063	3499.77
739.404	3454.8
739.744	3528.01
740.084	3491.18
740.424	3488.92
740.764	3518.52
741.104	3535.02
741.444	3515.81
741.784	3560.1
742.124	3557.17
742.464	3554.91
742.804	3541.35
743.143	3569.6
743.483	3589.26
743.823	3590.84
744.162	3603.94
744.502	3590.16
744.841	3625.64
745.181	3663.15
745.52	3574.57
745.86	3670.84
746.199	3668.12
746.538	3662.47
746.877	3713.55
747.216	3694.56
747.556	3739.08
747.895	3718.07
748.234	3739.53
748.573	3762.58
748.911	3775.47
749.25	3797.39
749.589	3796.03
749.928	3838.74
750.267	3819.31
750.605	3838.29
750.944	3874.22
751.283	3879.87
751.621	3926.65
751.96	3941.11
752.298	3975.91
752.636	3955.12
752.975	3946.31
753.313	3993.09
753.651	4020.21
753.989	4058.85
754.327	4039.41
754.666	4078.73
755.004	4057.49
755.342	4104.72
755.679	4139.3
756.017	4200.54
756.355	4138.62
756.693	4181.1
757.031	4179.75
757.368	4179.75
757.706	4218.39
758.044	4232.4
758.381	4267.2
758.719	4274.21
759.056	4311.04
759.394	4257.94
759.731	4296.13
760.068	4317.15
760.405	4340.42
760.743	4330.71
761.08	4384.94
761.417	4379.97
761.754	4345.39
762.091	4407.77
762.428	4364.6
762.765	4423.13
763.102	4431.04
763.438	4424.49
763.775	4426.97
764.112	4389.23
764.449	4500.19
764.785	4458.16
765.122	4429.91
765.458	4417.26
765.795	4455.22
766.131	4494.09
766.467	4440.08
766.804	4485.05
767.14	4446.63
767.476	4456.13
767.812	4497.71
768.148	4499.51
768.485	4462.68
768.821	4485.96
769.157	4511.72
769.492	4440.76
769.828	4489.35
770.164	4466.29
770.5	4477.37
770.836	4492.28
771.171	4471.94
771.507	4419.97
771.842	4428.1
772.178	4454.09
772.513	4417.93
772.849	4436.24
773.184	4441.66
773.519	4462.23
773.855	4443.47
774.19	4443.24
774.525	4373.19
774.86	4419.52
775.195	4385.85
775.53	4364.15
775.865	4426.3
776.2	4360.99
776.535	4358.28
776.87	4370.25
777.205	4341.33
777.539	4347.65
777.874	4300.42
778.209	4315.56
778.543	4304.27
778.878	4251.16
779.212	4279.63
779.547	4249.13
779.881	4324.15
780.215	4206.41
780.55	4287.09
780.884	4233.08
781.218	4214.1
781.552	4259.97
781.886	4198.28
782.22	4174.78
782.554	4134.1
782.888	4160.77
783.222	4115.12
783.556	4121.45
783.889	4073.99
784.223	4045.97
784.557	4106.76
784.89	4087.32
785.224	4067.89
785.557	4036.93
785.891	4026.98
786.224	4044.16
786.558	4045.29
786.891	4026.98
787.224	4013.65
787.557	4005.74
787.891	3983.14
788.224	4004.16
788.557	3975.46
788.89	3957.83
789.223	3950.15
789.556	3928.46
789.888	3940.89
790.221	3913.09
790.554	3893.2
790.887	3899.08
791.219	3880.55
791.552	3912.64
791.884	3855.46
792.217	3850.94
792.549	3857.72
792.882	3831.51
793.214	3808.46
793.546	3779.53
793.879	3782.7
794.211	3756.71
794.543	3761.45
794.875	3794.45
795.207	3771.17
795.539	3798.74
795.871	3768.01
796.203	3730.04
796.535	3735.69
796.867	3712.87
797.198	3665.19
797.53	3676.71
797.862	3702.02
798.193	3704.96
798.525	3645.53
798.856	3701.12
799.188	3625.41
799.519	3621.35
799.85	3605.53
800.182	3619.31
800.513	3607.11
800.844	3593.1
801.175	3589.48
801.506	3587.45
801.837	3559.65
802.168	3564.17
802.499	3602.59
802.83	3572.53
803.161	3507.9
803.491	3508.58
803.822	3536.83
804.153	3473.33
804.483	3415.25
804.814	3485.76
805.145	3447.56
805.475	3447.11
805.805	3448.02
806.136	3467.9
806.466	3434.91
806.796	3462.71
807.126	3470.39
807.457	3433.78
807.787	3395.81
808.117	3397.17
808.447	3380.67
808.777	3394.91
809.107	3374.35
809.436	3375.25
809.766	3374.57
810.096	3350.17
810.426	3351.07
810.755	3335.03
811.085	3364.86
811.414	3297.74
811.744	3343.84
812.073	3274.91
812.403	3328.25
812.732	3299.55
813.061	3290.05
813.39	3295.7
813.719	3298.42
814.049	3263.84
814.378	3260.68
814.707	3235.82
815.036	3217.97
815.365	3250.51
815.693	3208.25
816.022	3229.72
816.351	3167.57
816.68	3184.07
817.008	3164.63
817.337	3182.94
817.665	3177.06
817.994	3224.97
818.322	3164.86
818.651	3172.77
818.979	3140.91
819.307	3158.76
819.636	3169.83
819.964	3126.67
820.292	3161.7
820.62	3128.93
820.948	3100.68
821.276	3115.82
821.604	3093
821.932	3140.45
822.259	3163.96
822.587	3135.03
822.915	3126.67
823.243	3098.2
823.57	3118.31
823.898	3131.41
824.225	3102.72
824.553	3085.54
824.88	3160.34
825.207	3107.91
825.535	3139.78
825.862	3138.19
826.189	3135.71
826.516	3153.56
826.843	3091.19
827.17	3131.87
827.497	3157.63
827.824	3129.61
828.151	3134.13
828.478	3133.67
828.805	3099.33
829.131	3118.53
829.458	3095.71
829.785	3113.11
830.111	3103.84
830.438	3110.62
830.764	3073.79
831.09	3074.92
831.417	3100.91
831.743	3130.96
832.069	3131.19
832.395	3139.55
832.722	3114.92
833.048	3105.88
833.374	3119.21
833.7	3102.49
834.026	3096.39
834.351	3092.09
834.677	3092.32
835.003	3104.97
835.329	3090.51
835.654	3095.94
835.98	3089.61
836.306	3086.67
836.631	3108.59
836.956	3077.18
837.282	3106.1
837.607	3081.02
837.932	3016.84
838.258	3061.59
838.583	3093.45
838.908	3042.38
839.233	3035.6
839.558	3036.5
839.883	3063.62
840.208	3023.62
840.533	3008.25
840.858	2992.21
841.182	3030.85
841.507	3007.35
841.832	2994.02
842.156	2996.5
842.481	2980.46
842.805	2980.68
843.13	2981.59
843.454	3002.6
843.778	2962.61
844.103	2950.18
844.427	2967.13
844.751	2979.33
845.075	2964.19
845.399	2955.6
845.723	2908.6
846.047	2928.93
846.371	2928.48
846.695	2907.92
847.019	2895.71
847.343	2875.15
847.666	2853.91
847.99	2883.51
848.313	2843.74
848.637	2853.68
848.96	2814.36
849.284	2831.08
849.607	2817.75
849.931	2759.9
850.254	2838.77
850.577	2767.36
850.9	2777.75
851.223	2763.06
851.546	2732.33
851.869	2765.55
852.192	2735.72
852.515	2729.17
852.838	2736.85
853.161	2734.82
853.483	2696.4
853.806	2671.31
854.129	2701.6
854.451	2693.23
854.774	2669.51
855.096	2617.76
855.419	2654.59
855.741	2672.67
856.063	2629.51
856.385	2622.28
856.708	2622.5
857.03	2646.91
857.352	2632.22
857.674	2597.19
857.996	2649.62
858.318	2589.06
858.64	2580.47
858.961	2606
859.283	2571.43
859.605	2591.09
859.926	2576.85
860.248	2556.74
860.57	2536.63
860.891	2547.7
861.212	2537.98
861.534	2526.91
861.855	2547.7
862.176	2557.87
862.498	2545.67
862.819	2534.59
863.14	2502.96
863.461	2529.4
863.782	2488.49
864.103	2501.37
864.424	2507.02
864.745	2514.71
865.065	2485.78
865.386	2444.43
865.707	2484.43
866.027	2460.7
866.348	2461.83
866.668	2504.09
866.989	2458.44
867.309	2463.41
867.63	2456.63
867.95	2475.61
868.27	2460.25
868.59	2448.04
868.91	2439.68
869.23	2454.14
869.55	2435.39
869.87	2456.86
870.19	2450.75
870.51	2455.05
870.83	2438.33
871.15	2424.09
871.469	2434.03
871.789	2433.35
872.109	2412.34
872.428	2428.16
872.748	2449.17
873.067	2423.64
873.386	2341.83
873.706	2410.98
874.025	2375.05
874.344	2373.92
874.663	2410.3
874.982	2400.81
875.301	2403.07
875.62	2367.82
875.939	2402.39
876.258	2346.8
876.577	2366.01
876.896	2378.67
877.214	2349.97
877.533	2343.64
877.852	2390.42
878.17	2353.36
878.489	2383.86
878.807	2369.17
879.125	2365.56
879.444	2324.88
879.762	2347.03
880.08	2316.3
880.398	2302.28
880.716	2329.18
881.034	2343.19
881.352	2331.21
881.67	2322.4
881.988	2306.8
882.306	2307.48
882.624	2293.24
882.941	2271.32
883.259	2277.65
883.577	2300.93
883.894	2287.6
884.212	2282.4
884.529	2304.77
884.846	2271.1
885.164	2292.11
885.481	2290.98
885.798	2269.29
886.115	2266.13
886.432	2268.16
886.75	2272.45
887.067	2262.96
887.383	2230.42
887.7	2260.93
888.017	2226.13
888.334	2239.46
888.651	2215.05
888.967	2225.22
889.284	2203.08
889.6	2204.43
889.917	2189.97
890.233	2193.81
890.55	2200.14
890.866	2191.55
891.182	2169.18
891.498	2189.07
891.815	2187.26
892.131	2162.85
892.447	2137.99
892.763	2146.81
893.079	2170.99
893.395	2152.46
893.71	2186.58
894.026	2128.28
894.342	2106.36
894.657	2123.08
894.973	2123.08
895.289	2083.53
895.604	2106.81
895.92	2075.4
896.235	2080.14
896.55	2092.35
896.865	2073.14
897.181	2091.89
897.496	2073.36
897.811	2051.22
898.126	2081.05
898.441	2044.89
898.756	2035.4
899.071	2027.04
899.386	2036.98
899.7	2001.05
900.015	2034.27
900.33	2007.6
900.644	1985.91
900.959	2031.78
901.273	1971.9
901.588	1982.07
901.902	2002.86
902.216	2003.31
902.531	2016.19
902.845	1968.51
903.159	1964.89
903.473	1932.58
903.787	1967.38
904.101	1922.63
904.415	1951.56
904.729	1920.15
905.042	1941.62
905.356	1938.45
905.67	1904.55
905.984	1912.46
906.297	1888.06
906.611	1896.87
906.924	1888.28
907.237	1877.44
907.551	1871.33
907.864	1847.83
908.177	1853.03
908.491	1860.49
908.804	1879.24
909.117	1876.31
909.43	1831.56
909.743	1860.71
910.056	1795.18
910.368	1836.76
910.681	1852.35
910.994	1808.96
911.307	1845.8
911.619	1821.62
911.932	1758.57
912.244	1778.46
912.557	1779.13
912.869	1798.57
913.181	1756.54
913.494	1762.64
913.806	1757.44
914.118	1797.21
914.43	1764.67
914.742	1729.87
915.054	1727.38
915.366	1728.29
915.678	1717.67
915.99	1695.52
916.302	1711.57
916.613	1690.32
916.925	1710.89
917.236	1675.18
917.548	1683.77
917.859	1687.39
918.171	1679.93
918.482	1668.18
918.794	1651.68
919.105	1672.24
919.416	1629.31
919.727	1649.87
920.038	1664.33
920.349	1637.67
920.66	1643.32
920.971	1662.3
921.282	1609.65
921.593	1604.9
921.903	1614.62
922.214	1568.07
922.525	1587.27
922.835	1606.48
923.146	1580.04
923.456	1595.18
923.767	1574.17
924.077	1574.39
924.387	1584.79
924.697	1577.78
925.008	1542.3
925.318	1559.93
925.628	1561.96
925.938	1538.91
926.248	1550.21
926.558	1538.46
926.867	1540.95
927.177	1523.77
927.487	1517.9
927.796	1522.42
928.106	1488.75
928.416	1506.82
928.725	1499.82
929.034	1481.97
929.344	1480.61
929.653	1500.5
929.962	1466.83
930.271	1476.32
930.581	1460.5
930.89	1445.13
931.199	1441.29
931.508	1448.52
931.817	1442.65
932.125	1447.62
932.434	1446.26
932.743	1434.28
933.051	1441.97
933.36	1422.76
933.669	1414.4
933.977	1412.14
934.286	1420.73
934.594	1413.72
934.902	1403.1
935.21	1393.61
935.519	1401.97
935.827	1384.34
936.135	1388.41
936.443	1372.82
936.751	1374.17
937.059	1354.74
937.367	1373.27
937.674	1364.46
937.982	1370.56
938.29	1350.67
938.597	1352.48
938.905	1324.23
939.213	1326.94
939.52	1343.44
939.827	1339.82
940.135	1343.67
940.442	1306.6
940.749	1311.12
941.056	1321.74
941.363	1304.57
941.67	1308.86
941.977	1309.32
942.284	1294.85
942.591	1292.82
942.898	1284.68
943.205	1268.41
943.511	1296.89
943.818	1279.26
944.125	1276.32
944.431	1246.27
944.738	1254.18
945.044	1284.46
945.35	1257.57
945.657	1261.18
945.963	1234.52
946.269	1238.36
946.575	1246.72
946.881	1244.68
947.187	1223.67
947.493	1208.75
947.799	1231.8
948.105	1201.07
948.41	1204.46
948.716	1193.39
949.022	1180.73
949.327	1213.27
949.633	1198.81
949.938	1166.72
950.244	1179.6
950.549	1188.19
950.854	1176.66
951.16	1161.52
951.465	1157.68
951.77	1183.67
952.075	1167.85
952.38	1150.45
952.685	1128.76
952.99	1159.94
953.294	1144.35
953.599	1133.28
953.904	1148.19
954.209	1131.24
954.513	1137.79
954.818	1117.23
955.122	1131.02
955.426	1141.64
955.731	1138.47
956.035	1107.51
956.339	1095.08
956.643	1118.59
956.948	1106.16
957.252	1101.64
957.556	1082.88
957.86	1099.15
958.163	1095.76
958.467	1085.37
958.771	1090.11
959.075	1077.91
959.378	1080.4
959.682	1072.71
959.985	1070.45
960.289	1047.18
960.592	1061.64
960.896	1069.77
961.199	1042.2
961.502	1087.17
961.805	1057.35
962.108	1051.92
962.411	1060.73
962.714	1060.28
963.017	1007.85
963.32	1056.22
963.623	1009.66
963.926	1046.95
964.228	1050.34
964.531	1009.89
964.833	1040.85
965.136	1032.04
965.438	1015.54
965.741	1013.5
966.043	996.56
966.345	986.84
966.648	1001.75
966.95	994.97
967.252	996.33
967.554	1004.92
967.856	981.19
968.158	967.4
968.46	994.52
968.761	995.88
969.063	969.21
969.365	943.9
969.666	980.06
969.968	943.68
970.269	958.59
970.571	975.09
970.872	948.2
971.174	988.19
971.475	943.45
971.776	954.75
972.077	980.51
972.378	929.44
972.679	968.76
972.98	919.04
973.281	940.06
973.582	914.52
973.883	940.96
974.183	955.43
974.484	911.36
974.785	923.79
975.085	909.33
975.386	901.87
975.686	922.89
975.986	917.91
976.287	895.32
976.587	898.71
976.887	913.17
977.187	885.37
977.487	891.7
977.787	880.17
978.087	877.69
978.387	872.04
978.687	879.95
978.987	856.45
979.286	849.21
979.586	879.04
979.885	902.77
980.185	867.75
980.484	843.57
980.784	868.65
981.083	838.82
981.382	837.46
981.682	855.09
981.981	853.73
982.28	858.71
982.579	852.38
982.878	823.68
983.177	812.83
983.475	837.69
983.774	820.29
984.073	847.18
984.372	858.71
984.67	837.92
984.969	820.06
985.267	848.54
985.566	838.82
985.864	805.6
986.162	815.32
986.461	820.06
986.759	824.36
987.057	833.62
987.355	811.93
987.653	809.89
987.951	821.42
988.249	808.09
988.547	780.06
988.844	778.26
989.142	813.51
989.44	809.22
989.737	780.74
990.035	778.93
990.332	779.84
990.63	768.77
990.927	783.45
991.224	747.97
991.521	785.94
991.819	758.6
992.116	773.28
992.413	794.08
992.71	781.65
993.006	789.78
993.303	768.54
993.6	773.96
993.897	756.11
994.193	747.52
994.49	752.04
994.787	750.91
995.083	736.68
995.379	746.84
995.676	741.65
995.972	721.08
996.268	740.52
996.565	734.19
996.861	754.3
997.157	747.75
997.453	739.84
997.749	714.76
998.044	721.31
998.34	735.77
998.636	698.71
998.932	716.34
999.227	714.08
999.523	720.18
999.818	726.96
1000.114	700.07
1000.409	688.09
1000.704	695.77
1001	702.1
1001.295	674.53
1001.59	672.5
1001.885	694.42
1002.18	683.57
1002.475	672.72
1002.77	700.52
1003.065	662.78
1003.359	694.87
1003.654	686.96
1003.949	677.24
1004.243	692.16
1004.538	684.93
1004.832	689.22
1005.127	665.49
1005.421	665.72
1005.715	659.84
1006.009	669.56
1006.304	646.51
1006.598	672.04
1006.892	649.45
1007.186	669.78
1007.48	651.03
1007.773	655.77
1008.067	662.33
1008.361	656.23
1008.655	658.49
1008.948	646.96
1009.242	616.23
1009.535	653.51
1009.829	630.01
1010.122	627.75
1010.415	644.47
1010.708	621.88
1011.001	628.43
1011.295	622.55
1011.588	616.9
1011.881	628.43
1012.173	622.78
1012.466	614.19
1012.759	611.71
1013.052	600.18
1013.344	618.94
1013.637	596.34
1013.93	605.38
1014.222	602.44
1014.514	586.85
1014.807	602.67
1015.099	620.07
1015.391	596.57
1015.683	590.46
1015.976	606.96
1016.268	576.45
1016.56	571.93
1016.851	578.49
1017.143	578.04
1017.435	571.48
1017.727	592.27
1018.018	589.79
1018.31	576.68
1018.602	564.7
1018.893	562.67
1019.185	578.04
1019.476	579.39
1019.767	568.32
1020.058	588.43
1020.35	594.53
1020.641	553.86
1020.932	559.05
1021.223	560.41
1021.514	555.44
1021.804	550.69
1022.095	550.47
1022.386	540.97
1022.677	534.87
1022.967	520.64
1023.258	537.81
1023.548	527.64
1023.839	533.29
1024.129	537.13
1024.419	536.91
1024.709	510.92
1025	527.42
1025.29	533.29
1025.58	541.43
1025.87	518.6
1026.16	508.21
1026.449	526.06
1026.739	537.13
1027.029	531.03
1027.319	503.91
1027.608	508.21
1027.898	529
1028.187	494.2
1028.477	516.57
1028.766	520.64
1029.055	519.73
1029.344	503.01
1029.634	492.16
1029.923	470.02
1030.212	489
1030.501	507.76
1030.79	500.52
1031.078	500.98
1031.367	471.6
1031.656	500.3
1031.945	490.58
1032.233	480.64
1032.522	473.86
1032.81	485.38
1033.099	482.67
1033.387	464.37
1033.675	460.98
1033.963	464.59
1034.251	469.34
1034.54	467.08
1034.828	481.09
1035.116	452.62
1035.403	442.67
1035.691	469.56
1035.979	468.66
1036.267	473.18
1036.554	439.28
1036.842	470.69
1037.129	481.54
1037.417	456.23
1037.704	447.42
1037.992	457.13
1038.279	466.4
1038.566	474.08
1038.853	474.08
1039.14	474.08
