Data from blue_surface_keyboard_FLMS001491_007.txt Node
Date: Tue Feb 07 11:12:33 GMT 2017
User: dcchb
Spectrometer: FLMS00149
Trigger mode: 0
Integration Time (sec): 2.000000E-2
Scans to average: 10
Electric dark correction enabled: true
Nonlinearity correction enabled: false
Boxcar width: 0
XAxis mode: Wavelengths
Number of Pixels in Spectrum: 2048
>>>>>Begin Spectral Data<<<<<
341.393	-18.53
341.776	-18.53
342.16	-18.53
342.543	-44.29
342.927	-65.99
343.31	-72.09
343.693	-85.65
344.077	-62.82
344.46	-68.25
344.843	-38.87
345.226	-38.64
345.61	-29.15
345.993	-9.94
346.376	-4.07
346.759	10.4
347.142	24.86
347.525	55.37
347.908	63.05
348.291	73.9
348.674	71.18
349.057	110.73
349.44	136.04
349.823	149.6
350.206	176.72
350.588	192.31
350.971	193.22
351.354	209.03
351.737	214.91
352.119	247.23
352.502	217.17
352.884	242.25
353.267	270.28
353.65	255.81
354.032	239.99
354.414	280.44
354.797	292.87
355.179	291.97
355.562	311.63
355.944	307.79
356.326	310.05
356.709	312.31
357.091	293.55
357.473	314.57
357.855	311.4
358.238	317.28
358.62	331.06
359.002	306.88
359.384	329.93
359.766	317.73
360.148	326.09
360.53	327.67
360.912	316.15
361.294	323.61
361.676	322.48
362.057	320.44
362.439	306.66
362.821	301.46
363.203	295.36
363.584	308.92
363.966	305.3
364.348	295.81
364.729	303.04
365.111	286.55
365.493	282.48
365.874	279.09
366.256	308.92
366.637	276.15
367.019	303.27
367.4	289.48
367.781	292.65
368.163	282.48
368.544	293.78
368.925	283.61
369.306	288.81
369.688	293.33
370.069	275.25
370.45	291.07
370.831	266.66
371.212	302.82
371.593	298.3
371.974	267.79
372.355	286.55
372.736	269.15
373.117	304.4
373.498	285.19
373.879	264.4
374.26	283.61
374.641	291.07
375.021	286.32
375.402	310.05
375.783	316.15
376.163	305.08
376.544	290.39
376.925	308.69
377.305	284.51
377.686	311.63
378.066	302.14
378.447	278.41
378.827	294
379.208	325.19
379.588	288.58
379.968	295.36
380.349	306.43
380.729	306.66
381.109	297.85
381.489	313.44
381.87	308.92
382.25	301.46
382.63	311.18
383.01	289.48
383.39	316.83
383.77	291.52
384.15	312.31
384.53	291.07
384.91	322.7
385.29	302.36
385.67	302.36
386.049	305.3
386.429	335.36
386.809	323.16
387.189	300.78
387.568	351.4
387.948	296.04
388.328	295.81
388.707	306.88
389.087	314.34
389.466	314.57
389.846	325.42
390.225	312.53
390.605	313.89
390.984	312.08
391.363	303.04
391.743	308.47
392.122	329.48
392.501	295.59
392.881	319.31
393.26	338.75
393.639	330.16
394.018	330.61
394.397	302.82
394.776	334.23
395.155	337.84
395.534	317.05
395.913	331.74
396.292	335.58
396.671	344.62
397.05	331.29
397.429	333.1
397.808	324.06
398.186	341.01
398.565	338.3
398.944	328.13
399.323	326.77
399.701	328.8
400.08	345.98
400.458	349.82
400.837	354.79
401.215	338.3
401.594	316.83
401.972	341.23
402.351	331.97
402.729	352.99
403.107	332.87
403.486	349.6
403.864	329.03
404.242	346.21
404.62	325.19
404.999	326.55
405.377	341.46
405.755	370.16
406.133	354.34
406.511	362.48
406.889	352.08
407.267	357.28
407.645	367.9
408.023	352.76
408.401	319.54
408.779	355.92
409.156	360.67
409.534	353.66
409.912	372.65
410.29	360.44
410.667	356.83
411.045	371.29
411.422	346.66
411.8	376.71
412.178	369.48
412.555	374.68
412.933	362.7
413.31	385.07
413.687	369.71
414.065	389.14
414.442	376.04
414.819	378.3
415.197	382.14
415.574	383.72
415.951	383.49
416.328	394.57
416.705	405.87
417.082	397.28
417.46	399.54
417.837	385.07
418.214	380.78
418.591	410.38
418.967	392.98
419.344	397.96
419.721	398.63
420.098	382.59
420.475	407.9
420.852	400.22
421.228	419.65
421.605	414.45
421.982	402.48
422.358	410.84
422.735	397.5
423.111	424.62
423.488	413.55
423.864	407.9
424.241	422.59
424.617	418.52
424.994	420.55
425.37	428.92
425.746	429.14
426.123	436.37
426.499	431.18
426.875	414.23
427.251	417.16
427.627	430.95
428.003	421.46
428.379	438.63
428.756	436.82
429.132	420.78
429.507	449.03
429.883	432.98
430.259	444.51
430.635	451.06
431.011	447.45
431.387	486.99
431.763	453.55
432.138	443.6
432.514	460.55
432.89	445.86
433.265	461.23
433.641	482.02
434.016	458.74
434.392	473.43
434.767	463.49
435.143	453.1
435.518	460.55
435.894	464.62
436.269	483.83
436.644	503.94
437.02	486.54
437.395	501.23
437.77	493.32
438.145	506.2
438.52	500.78
438.895	488.57
439.271	531.29
439.646	496.03
440.021	511.17
440.395	526.99
440.77	507.11
441.145	526.77
441.52	519.99
441.895	519.31
442.27	524.73
442.645	529.03
443.019	523.6
443.394	508.91
443.769	511.62
444.143	545.97
444.518	538.97
444.892	532.64
445.267	519.76
445.641	527.9
446.016	542.81
446.39	554.56
446.764	538.52
447.139	529.7
447.513	545.97
447.887	533.77
448.262	553.88
448.636	565.41
449.01	538.74
449.384	552.75
449.758	568.57
450.132	562.47
450.506	554.11
450.88	580.55
451.254	569.02
451.628	568.8
452.002	568.57
452.376	570.38
452.75	601.57
453.123	579.42
453.497	583.71
453.871	567.67
454.244	597.95
454.618	594.56
454.992	578.52
455.365	603.6
455.739	601.79
456.112	602.47
456.486	612.87
456.859	613.09
457.232	612.19
457.606	607.44
457.979	604.96
458.352	614.22
458.725	634.33
459.099	635.01
459.472	625.97
459.845	628.23
460.218	658.51
460.591	652.41
460.964	653.54
461.337	655.58
461.71	658.51
462.083	668.68
462.456	674.56
462.829	683.15
463.201	655.12
463.574	678.85
463.947	669.13
464.32	662.81
464.692	685.63
465.065	702.58
465.438	677.5
465.81	720.66
466.183	713.88
466.555	720.43
466.928	712.3
467.3	715.01
467.672	721.56
468.045	737.16
468.417	737.38
468.789	755.69
469.161	761.34
469.534	718.17
469.906	754.78
470.278	774.22
470.65	772.18
471.022	771.05
471.394	783.03
471.766	788.23
472.138	778.51
472.51	788.91
472.882	805.18
473.253	802.01
473.625	818.51
473.997	806.76
474.369	815.12
474.74	818.28
475.112	864.61
475.484	855.12
475.855	858.28
476.227	879.3
476.598	878.62
476.97	884.5
477.341	900.32
477.713	922.46
478.084	931.27
478.455	937.38
478.827	908
479.198	951.61
479.569	938.28
479.94	931.95
480.311	973.08
480.682	994.55
481.053	993.87
481.424	990.48
481.795	997.04
482.166	1017.37
482.537	1021.22
482.908	1029.13
483.279	1031.61
483.65	1034.55
484.021	1049.01
484.391	1065.28
484.762	1053.31
485.133	1046.07
485.503	1063.02
485.874	1067.77
486.244	1098.28
486.615	1123.81
486.985	1113.42
487.356	1135.56
487.726	1136.47
488.097	1155.45
488.467	1138.95
488.837	1163.36
489.207	1159.97
489.578	1188.22
489.948	1173.75
490.318	1221.89
490.688	1191.16
491.058	1240.87
491.428	1232.96
491.798	1223.92
492.168	1258.05
492.538	1257.37
492.908	1239.29
493.278	1237.93
493.648	1244.04
494.017	1265.28
494.387	1263.7
494.757	1272.28
495.126	1292.4
495.496	1284.94
495.866	1267.54
496.235	1283.36
496.605	1289.91
496.974	1262.34
497.344	1299.17
497.713	1303.24
498.082	1282.45
498.452	1322.68
498.821	1347.76
499.19	1310.7
499.559	1308.44
499.928	1299.85
500.298	1368.33
500.667	1342.56
501.036	1334.88
501.405	1331.49
501.774	1354.99
502.143	1333.3
502.512	1348.89
502.88	1364.03
503.249	1375.11
503.618	1371.49
503.987	1342.34
504.356	1355.22
504.724	1352.05
505.093	1340.98
505.462	1386.86
505.83	1362.22
506.199	1395.67
506.567	1393.18
506.936	1403.8
507.304	1389.34
507.672	1387.08
508.041	1380.08
508.409	1391.6
508.777	1390.7
509.145	1431.37
509.514	1404.71
509.882	1412.84
510.25	1421.43
510.618	1404.71
510.986	1404.93
511.354	1422.34
511.722	1425.27
512.09	1438.38
512.458	1415.78
512.826	1435.67
513.193	1439.28
513.561	1440.64
513.929	1467.53
514.297	1440.19
514.664	1464.59
515.032	1484.03
515.4	1449.23
515.767	1474.76
516.135	1485.61
516.502	1456.91
516.869	1432.05
517.237	1465.72
517.604	1439.74
517.972	1486.29
518.339	1503.46
518.706	1475.89
519.073	1496.46
519.44	1478.61
519.808	1488.32
520.175	1496.23
520.542	1493.29
520.909	1512.5
521.276	1503.46
521.643	1480.87
522.009	1507.3
522.376	1531.03
522.743	1493.97
523.11	1523.12
523.477	1513.41
523.843	1540.75
524.21	1522.22
524.577	1549.11
524.943	1567.42
525.31	1542.33
525.676	1561.77
526.043	1534.65
526.409	1553.86
526.776	1562.22
527.142	1535.33
527.508	1575.33
527.874	1557.02
528.241	1566.06
528.607	1556.12
528.973	1604.93
529.339	1573.97
529.705	1574.2
530.071	1600.86
530.437	1584.37
530.803	1571.26
531.169	1586.17
531.535	1597.02
531.901	1592.73
532.267	1583.46
532.632	1597.92
532.998	1613.74
533.364	1607.19
533.73	1566.29
534.095	1625.27
534.461	1611.71
534.826	1621.43
535.192	1624.36
535.557	1606.74
535.923	1601.31
536.288	1632.27
536.653	1637.47
537.019	1602.9
537.384	1627.53
537.749	1643.12
538.114	1628.21
538.479	1606.51
538.845	1627.98
539.21	1606.29
539.575	1616
539.94	1588.66
540.305	1592.95
540.67	1597.92
541.034	1604.93
541.399	1660.52
541.764	1606.06
542.129	1635.21
542.494	1606.96
542.858	1635.44
543.223	1615.55
543.587	1626.4
543.952	1644.25
544.316	1640.18
544.681	1635.44
545.045	1627.08
545.41	1641.99
545.774	1617.13
546.138	1642.22
546.503	1605.83
546.867	1631.14
547.231	1615.78
547.595	1628.21
547.959	1615.55
548.324	1622.1
548.688	1616.91
549.052	1623.69
549.416	1639.73
549.779	1642.67
550.143	1643.12
550.507	1632.05
550.871	1647.64
551.235	1644.25
551.599	1630.92
551.962	1615.32
552.326	1642.44
552.689	1663.01
553.053	1630.92
553.417	1644.02
553.78	1665.94
554.143	1644.7
554.507	1649
554.87	1667.07
555.234	1649.22
555.597	1660.97
555.96	1649.67
556.323	1668.43
556.686	1659.84
557.05	1667.98
557.413	1665.27
557.776	1641.31
558.139	1683.8
558.502	1680.18
558.865	1659.84
559.228	1688.09
559.59	1683.12
559.953	1673.63
560.316	1664.81
560.679	1644.48
561.041	1688.54
561.404	1727.41
561.767	1641.54
562.129	1660.07
562.492	1710.92
562.854	1727.41
563.217	1714.98
563.579	1706.17
563.941	1709.33
564.304	1691.71
564.666	1724.7
565.028	1746.39
565.39	1696
565.753	1727.19
566.115	1700.07
566.477	1744.36
566.839	1736.68
567.201	1731.03
567.563	1697.58
567.925	1735.1
568.287	1739.62
568.648	1748.2
569.01	1710.01
569.372	1744.59
569.734	1761.76
570.095	1741.2
570.457	1735.55
570.819	1744.81
571.18	1742.33
571.542	1755.43
571.903	1725.83
572.265	1748.65
572.626	1724.47
572.987	1771.93
573.349	1759.95
573.71	1752.72
574.071	1735.55
574.432	1773.74
574.794	1790.46
575.155	1770.35
575.516	1793.4
575.877	1786.62
576.238	1778.71
576.599	1774.64
576.96	1775.77
577.32	1801.76
577.681	1761.99
578.042	1783.68
578.403	1763.34
578.763	1808.77
579.124	1815.55
579.485	1841.08
579.845	1834.75
580.206	1788.65
580.566	1787.07
580.927	1804.47
581.287	1789.11
581.648	1770.8
582.008	1797.92
582.368	1823.23
582.728	1804.7
583.089	1823
583.449	1783.46
583.809	1806.51
584.169	1795.66
584.529	1820.52
584.889	1804.02
585.249	1793.63
585.609	1785.94
585.969	1848.54
586.329	1805.83
586.688	1805.15
587.048	1817.81
587.408	1802.66
587.768	1792.5
588.127	1816.45
588.487	1787.07
588.846	1792.27
589.206	1792.72
589.565	1828.43
589.925	1827.75
590.284	1814.64
590.643	1821.65
591.003	1806.96
591.362	1837.01
591.721	1826.17
592.08	1827.75
592.44	1812.16
592.799	1820.07
593.158	1820.52
593.517	1852.15
593.876	1817.81
594.235	1812.16
594.593	1830.46
594.952	1836.11
595.311	1827.52
595.67	1859.61
596.029	1860.97
596.387	1860.29
596.746	1864.81
597.104	1826.39
597.463	1847.64
597.822	1839.05
598.18	1853.51
598.538	1875.88
598.897	1854.64
599.255	1865.71
599.613	1865.49
599.972	1832.95
600.33	1892.61
600.688	1879.72
601.046	1852.38
601.404	1864.81
601.762	1828.88
602.12	1864.36
602.478	1868.2
602.836	1882.44
603.194	1894.87
603.552	1866.62
603.91	1893.06
604.268	1893.28
604.625	1890.12
604.983	1899.16
605.341	1881.31
605.698	1883.57
606.056	1902.1
606.413	1905.03
606.771	1912.27
607.128	1903.9
607.485	1879.95
607.843	1902.55
608.2	1921.31
608.557	1889.67
608.914	1888.99
609.272	1899.61
609.629	1921.76
609.986	1882.89
610.343	1923.11
610.7	1913.17
611.057	1961.53
611.414	1930.34
611.771	1910.46
612.127	1923.11
612.484	1876.79
612.841	1952.94
613.198	1939.84
613.554	1931.7
613.911	1945.26
614.267	1951.59
614.624	1959.27
614.98	1957.24
615.337	1954.3
615.693	1952.04
616.05	1983.22
616.406	1968.76
616.762	1968.54
617.118	1949.1
617.475	1984.81
617.831	1983.22
618.187	1992.94
618.543	1991.59
618.899	1985.71
619.255	2037.23
619.611	2008.76
619.967	2012.83
620.323	2033.39
620.678	2024.58
621.034	2018.25
621.39	2005.82
621.746	1998.37
622.101	2046.73
622.457	2025.94
622.812	2031.13
623.168	2009.66
623.523	2034.97
623.879	2012.15
624.234	2042.66
624.589	2022.09
624.945	2024.35
625.3	2060.51
625.655	2021.64
626.01	2037.23
626.365	2073.39
626.72	2059.15
627.075	2037.23
627.43	2058.02
627.785	2044.92
628.14	2044.69
628.495	2063.9
628.85	2067.52
629.205	2069.78
629.559	2083.79
629.914	2056.22
630.269	2060.51
630.623	2074.97
630.978	2094.18
631.332	2090.57
631.687	2075.65
632.041	2075.65
632.396	2127.85
632.75	2101.41
633.104	2151.81
633.459	2084.24
633.813	2110.68
634.167	2125.14
634.521	2117.23
634.875	2117.23
635.229	2106.39
635.583	2126.05
635.937	2138.7
636.291	2114.97
636.645	2147.06
636.999	2150
637.352	2140.28
637.706	2150.23
638.06	2156.78
638.413	2149.1
638.767	2139.38
639.121	2174.41
639.474	2152.71
639.828	2170.11
640.181	2184.35
640.534	2182.77
640.888	2202.88
641.241	2176.21
641.594	2158.59
641.947	2216.21
642.301	2199.49
642.654	2210.56
643.007	2214.63
643.36	2206.04
643.713	2215.53
644.066	2234.74
644.419	2261.64
644.771	2225.25
645.124	2232.03
645.477	2251.92
645.83	2182.32
646.182	2220.51
646.535	2228.42
646.888	2224.35
647.24	2221.18
647.593	2288.53
647.945	2238.36
648.298	2231.35
648.65	2254.86
649.002	2290.34
649.355	2289.21
649.707	2291.47
650.059	2296.44
650.411	2344.12
650.763	2387.73
651.115	2383.21
651.467	2419.15
651.819	2399.48
652.171	2411.91
652.523	2425.25
652.875	2395.64
653.227	2403.55
653.578	2424.12
653.93	2423.44
654.282	2424.57
654.633	2431.35
654.985	2460.5
655.337	2508.63
655.688	2469.31
656.039	2506.6
656.391	2505.24
656.742	2519.03
657.094	2506.83
657.445	2566.94
657.796	2570.78
658.147	2520.61
658.498	2595.41
658.849	2593.15
659.2	2553.83
659.551	2556.54
659.902	2622.3
660.253	2671.12
660.604	2657.11
660.955	2680.61
661.306	2666.6
661.656	2641.74
662.007	2713.15
662.358	2731
662.708	2729.65
663.059	2748.63
663.409	2739.14
663.76	2765.8
664.11	2749.76
664.461	2726.03
664.811	2806.25
665.161	2780.94
665.511	2856.87
665.862	2811.23
666.212	2876.53
666.562	2878.57
666.912	2871.79
667.262	2865.69
667.612	2876.31
667.962	2928.28
668.312	2927.38
668.662	2976.87
669.011	2994.95
669.361	2944.33
669.711	3018
670.06	2972.58
670.41	2995.18
670.76	3045.34
671.109	3007.15
671.459	3005.34
671.808	3018.23
672.157	3052.35
672.507	3036.76
672.856	3091.67
673.205	3072.91
673.554	3104.33
673.904	3103.2
674.253	3151.78
674.602	3093.93
674.951	3131.9
675.3	3101.61
675.649	3161.27
675.998	3153.82
676.346	3186.36
676.695	3219.35
677.044	3178.67
677.393	3245.34
677.741	3302.06
678.09	3241.95
678.438	3273.59
678.787	3250.99
679.135	3298.9
679.484	3308.16
679.832	3335.73
680.181	3325.56
680.529	3334.6
680.877	3288.95
681.225	3315.62
681.573	3357.65
681.922	3356.3
682.27	3369.18
682.618	3386.58
682.966	3352
683.314	3380.48
683.661	3375.28
684.009	3389.74
684.357	3444.43
684.705	3376.41
685.053	3398.78
685.4	3436.07
685.748	3399.46
686.095	3445.79
686.443	3449.63
686.79	3428.84
687.138	3474.26
687.485	3480.13
687.832	3458.21
688.18	3482.85
688.527	3503.64
688.874	3485.33
689.221	3506.12
689.568	3472.23
689.915	3503.64
690.262	3532.34
690.609	3518.1
690.956	3519.23
691.303	3514.71
691.65	3577.31
691.997	3548.38
692.344	3520.81
692.69	3516.52
693.037	3530.3
693.383	3545.9
693.73	3542.28
694.077	3529.62
694.423	3551.77
694.769	3534.6
695.116	3546.12
695.462	3534.14
695.808	3527.36
696.155	3562.17
696.501	3551.77
696.847	3552.9
697.193	3528.04
697.539	3550.64
697.885	3523.3
698.231	3521.26
698.577	3500.92
698.923	3545.9
699.269	3534.6
699.614	3539.79
699.96	3502.73
700.306	3532.56
700.651	3508.38
700.997	3511.77
701.342	3540.47
701.688	3525.78
702.033	3477.2
702.379	3506.57
702.724	3498.21
703.069	3494.37
703.415	3470.42
703.76	3463.41
704.105	3483.98
704.45	3490.98
704.795	3476.97
705.14	3431.77
705.485	3457.08
705.83	3470.87
706.175	3441.94
706.52	3454.6
706.865	3427.25
707.209	3457.76
707.554	3423.19
707.899	3429.51
708.243	3406.46
708.588	3434.71
708.932	3438.1
709.277	3428.61
709.621	3443.53
709.966	3408.5
710.31	3412.57
710.654	3402.62
710.998	3403.07
711.342	3446.92
711.687	3414.83
712.031	3398.33
712.375	3388.61
712.719	3385.67
713.063	3394.04
713.407	3419.57
713.75	3392.91
714.094	3360.36
714.438	3359.91
714.782	3384.54
715.125	3419.57
715.469	3403.98
715.812	3371.21
716.156	3387.03
716.499	3352.45
716.843	3384.54
717.186	3424.09
717.53	3395.62
717.873	3432.68
718.216	3360.82
718.559	3377.31
718.902	3344.77
719.246	3369.18
719.589	3397.88
719.932	3391.32
720.275	3398.33
720.617	3363.53
720.96	3389.29
721.303	3346.58
721.646	3352.68
721.989	3370.53
722.331	3369.4
722.674	3355.62
723.016	3386.13
723.359	3375.73
723.701	3385.9
724.044	3358.33
724.386	3358.56
724.729	3369.63
725.071	3384.32
725.413	3340.48
725.755	3383.64
726.097	3345
726.439	3346.8
726.782	3339.12
727.124	3352.68
727.465	3349.29
727.807	3363.98
728.149	3362.4
728.491	3365.79
728.833	3356.75
729.175	3381.83
729.516	3341.83
729.858	3387.93
730.199	3360.36
730.541	3360.82
730.882	3356.07
731.224	3419.35
731.565	3386.13
731.906	3394.04
732.248	3384.54
732.589	3356.75
732.93	3358.33
733.271	3352.91
733.612	3380.93
733.953	3394.04
734.294	3424.54
734.635	3404.88
734.976	3411.44
735.317	3380.48
735.658	3429.51
735.999	3394.26
736.339	3413.47
736.68	3407.14
737.021	3415.28
737.361	3440.14
737.702	3430.87
738.042	3425.67
738.383	3430.87
738.723	3474.26
739.063	3446.46
739.404	3441.94
739.744	3463.19
740.084	3464.99
740.424	3488.95
740.764	3466.35
741.104	3447.59
741.444	3512
741.784	3519
742.124	3549.51
742.464	3549.74
742.804	3526.69
743.143	3519
743.483	3535.95
743.823	3535.05
744.162	3596.29
744.502	3600.81
744.841	3572.56
745.181	3596.29
745.52	3585.22
745.86	3601.71
746.199	3609.17
746.538	3626.35
746.877	3680.36
747.216	3700.69
747.556	3693.24
747.895	3711.77
748.234	3700.02
748.573	3723.29
748.911	3727.13
749.25	3735.04
749.589	3736.85
749.928	3771.65
750.267	3819.33
750.605	3794.7
750.944	3814.59
751.283	3848.94
751.621	3860.92
751.96	3899.56
752.298	3881.25
752.636	3874.47
752.975	3902.72
753.313	3932.1
753.651	3960.12
753.989	3969.84
754.327	3990.63
754.666	3958.31
755.004	4022.72
755.342	4037.41
755.679	4102.49
756.017	4063.17
756.355	4109.04
756.693	4139.55
757.031	4134.35
757.368	4161.25
757.706	4147.24
758.044	4141.13
758.381	4163.73
758.719	4215.48
759.056	4232.21
759.394	4249.15
759.731	4262.49
760.068	4237.4
760.405	4253.22
760.743	4256.16
761.08	4325.76
761.417	4310.85
761.754	4294.58
762.091	4337.29
762.428	4325.08
762.765	4320.34
763.102	4291.64
763.438	4330.28
763.775	4351.07
764.112	4399.21
764.449	4374.12
764.785	4367.34
765.122	4394.69
765.458	4357.17
765.795	4376.38
766.131	4373.44
766.467	4384.07
766.804	4395.14
767.14	4387.91
767.476	4398.08
767.812	4396.49
768.148	4371.64
768.485	4413.44
768.821	4410.28
769.157	4365.31
769.492	4384.97
769.828	4384.97
770.164	4387.46
770.5	4368.02
770.836	4386.78
771.171	4368.02
771.507	4399.21
771.842	4364.41
772.178	4376.61
772.513	4361.24
772.849	4362.82
773.184	4335.48
773.519	4381.58
773.855	4356.95
774.19	4345.2
774.525	4313.33
774.86	4333.22
775.195	4324.63
775.53	4281.24
775.865	4302.03
776.2	4253
776.535	4242.37
776.87	4279.44
777.205	4231.08
777.539	4246.44
777.874	4265.65
778.209	4238.31
778.543	4220.23
778.878	4203.51
779.212	4246.67
779.547	4155.6
779.881	4180
780.215	4190.62
780.55	4160.12
780.884	4188.14
781.218	4168.25
781.552	4133.22
781.886	4100.01
782.22	4047.8
782.554	4102.94
782.888	4089.61
783.222	4069.72
783.556	4059.1
783.889	4039.44
784.223	4062.04
784.557	3994.47
784.89	4044.87
785.224	3999.89
785.557	4001.93
785.891	3973.45
786.224	3998.54
786.558	3979.1
786.891	3915.15
787.224	3919.67
787.557	3951.76
787.891	3917.41
788.224	3899.33
788.557	3909.5
788.89	3909.5
789.223	3888.49
789.556	3856.17
789.888	3830.18
790.221	3874.47
790.554	3820.01
790.887	3835.61
791.219	3799.9
791.552	3797.19
791.884	3781.37
792.217	3805.32
792.549	3782.5
792.882	3737.3
793.214	3732.56
793.546	3699.11
793.879	3714.7
794.211	3722.16
794.543	3726.46
794.875	3724.65
795.207	3689.62
795.539	3703.18
795.871	3683.97
796.203	3640.58
796.535	3649.85
796.867	3635.38
797.198	3638.32
797.53	3634.48
797.862	3614.59
798.193	3608.72
798.525	3575.27
798.856	3631.99
799.188	3552.22
799.519	3529.17
799.85	3566.01
800.182	3533.92
800.513	3563.07
800.844	3515.39
801.175	3526.46
801.506	3538.66
801.837	3514.48
802.168	3474.94
802.499	3477.2
802.83	3457.54
803.161	3443.75
803.491	3465.67
803.822	3464.09
804.153	3428.16
804.483	3430.64
804.814	3413.02
805.145	3411.66
805.475	3393.36
805.805	3407.14
806.136	3404.2
806.466	3424.77
806.796	3401.27
807.126	3383.19
807.457	3315.17
807.787	3352.91
808.117	3356.97
808.447	3321.95
808.777	3332.12
809.107	3349.74
809.436	3302.74
809.766	3338.44
810.096	3310.87
810.426	3256.64
810.755	3296.64
811.085	3263.64
811.414	3289.41
811.744	3269.97
812.073	3269.29
812.403	3237.88
812.732	3239.69
813.061	3266.13
813.39	3211.67
813.719	3236.53
814.049	3220.48
814.378	3209.41
814.707	3215.28
815.036	3183.42
815.365	3194.27
815.693	3170.31
816.022	3154.04
816.351	3169.86
816.68	3187.26
817.008	3145.91
817.337	3130.54
817.665	3151.33
817.994	3131.67
818.322	3114.95
818.651	3090.99
818.979	3106.58
819.307	3092.35
819.636	3083.08
819.964	3052.8
820.292	3079.02
820.62	3076.3
820.948	3058.22
821.276	3095.29
821.604	3055.06
821.932	3094.83
822.259	3090.31
822.587	3064.78
822.915	3052.58
823.243	3112.01
823.57	3080.37
823.898	3073.82
824.225	3064.55
824.553	3046.47
824.88	3104.55
825.207	3044.89
825.535	3051.67
825.862	3133.93
826.189	3108.62
826.516	3129.18
826.843	3092.8
827.17	3083.08
827.497	3085.57
827.824	3052.35
828.151	3079.92
828.478	3088.96
828.805	3100.26
829.131	3070.43
829.458	3060.94
829.785	3061.61
830.111	3065.23
830.438	3111.1
830.764	3088.73
831.09	3064.55
831.417	3085.79
831.743	3081.73
832.069	3092.57
832.395	3088.73
832.722	3067.49
833.048	3062.74
833.374	3089.86
833.7	3020.94
834.026	3040.6
834.351	3056.64
834.677	3066.59
835.003	3058
835.329	3003.54
835.654	3039.47
835.98	3017.55
836.306	3044.67
836.631	3043.31
836.956	2982.97
837.282	3038.11
837.607	3029.75
837.932	2998.57
838.258	3003.31
838.583	2993.14
838.908	2999.24
839.233	2957.44
839.558	3002.86
839.883	2976.64
840.208	2987.27
840.533	2992.01
840.858	2982.75
841.182	2975.97
841.507	2972.13
841.832	2948.85
842.156	2950.43
842.481	2946.82
842.805	2941.17
843.13	2969.87
843.454	2888.74
843.778	2898
844.103	2922.41
844.427	2924.67
844.751	2921.73
845.075	2929.19
845.399	2867.5
845.723	2923.09
846.047	2887.16
846.371	2867.27
846.695	2857.33
847.019	2830.43
847.343	2854.84
847.666	2821.85
847.99	2822.52
848.313	2809.19
848.637	2757.22
848.96	2835.86
849.284	2793.6
849.607	2744.56
849.931	2759.93
850.254	2734.17
850.577	2724.9
850.9	2730.78
851.223	2735.97
851.546	2724.9
851.869	2735.3
852.192	2684
852.515	2674.28
852.838	2676.77
853.161	2669.53
853.483	2673.38
853.806	2659.37
854.129	2646.71
854.451	2615.98
854.774	2607.84
855.096	2616.88
855.419	2612.13
855.741	2599.03
856.063	2620.95
856.385	2627.73
856.708	2591.34
857.03	2575.07
857.352	2583.89
857.674	2535.07
857.996	2560.84
858.318	2564.68
858.64	2529.43
858.961	2552.48
859.283	2519.48
859.605	2518.58
859.926	2488.97
860.248	2536.66
860.57	2527.17
860.891	2530.1
861.212	2506.15
861.534	2466.6
861.855	2494.17
862.176	2523.1
862.498	2509.31
862.819	2479.03
863.14	2508.63
863.461	2502.99
863.782	2498.69
864.103	2447.39
864.424	2445.36
864.745	2483.55
865.065	2424.34
865.386	2423.44
865.707	2437
866.027	2442.42
866.348	2442.65
866.668	2447.17
866.989	2419.37
867.309	2406.49
867.63	2423.67
867.95	2425.02
868.27	2375.08
868.59	2380.28
868.91	2396.77
869.23	2414.85
869.55	2373.72
869.87	2426.6
870.19	2405.13
870.51	2384.8
870.83	2404.46
871.15	2394.06
871.469	2374.63
871.789	2409.43
872.109	2394.29
872.428	2353.38
872.748	2396.55
873.067	2358.13
873.386	2368.3
873.706	2372.82
874.025	2311.13
874.344	2324.68
874.663	2347.73
874.982	2387.28
875.301	2345.25
875.62	2336.89
875.939	2343.89
876.258	2324.23
876.577	2327.17
876.896	2328.75
877.214	2313.61
877.533	2336.21
877.852	2319.71
878.17	2316.32
878.489	2317.68
878.807	2321.07
879.125	2308.19
879.444	2302.99
879.762	2298.24
880.08	2304.35
880.398	2262.77
880.716	2294.63
881.034	2331.92
881.352	2292.82
881.67	2278.36
881.988	2263.9
882.306	2276.55
882.624	2261.86
882.941	2234.74
883.259	2249.43
883.577	2246.27
883.894	2272.48
884.212	2244.91
884.529	2256.44
884.846	2213.05
885.164	2223.9
885.481	2233.39
885.798	2223.9
886.115	2240.62
886.432	2210.11
886.75	2229.09
887.067	2225.48
887.383	2215.31
887.7	2191.81
888.017	2171.02
888.334	2182.09
888.651	2171.92
888.967	2170.34
889.284	2156.1
889.6	2191.58
889.917	2186.61
890.233	2178.25
890.55	2165.82
890.866	2159.04
891.182	2135.31
891.498	2104.8
891.815	2164.01
892.131	2126.95
892.447	2118.59
892.763	2080.62
893.079	2089.21
893.395	2108.87
893.71	2096.67
894.026	2093.05
894.342	2084.92
894.657	2093.5
894.973	2075.43
895.289	2076.33
895.604	2055.77
895.92	2063.22
896.235	2032.94
896.55	2043.79
896.865	2015.99
897.181	2029.55
897.496	2031.36
897.811	2020.06
898.126	2033.62
898.441	2032.71
898.756	2023.22
899.071	1995.43
899.386	2038.36
899.7	1980.96
900.015	2024.81
900.33	1949.78
900.644	1978.25
900.959	1984.58
901.273	1941.42
901.588	1945.49
901.902	1945.49
902.216	1919.27
902.531	1947.97
902.845	1942.32
903.159	1932.38
903.473	1928.99
903.787	1898.71
904.101	1900.97
904.415	1896.45
904.729	1895.77
905.042	1911.59
905.356	1910.23
905.67	1863.23
905.984	1929.44
906.297	1864.81
906.611	1880.18
906.924	1851.93
907.237	1833.85
907.551	1844.7
907.864	1816.22
908.177	1828.2
908.491	1818.26
908.804	1820.52
909.117	1816.68
909.43	1792.5
909.743	1805.83
910.056	1808.09
910.368	1791.82
910.681	1772.16
910.994	1792.5
911.307	1808.09
911.619	1756.34
911.932	1758.6
912.244	1741.42
912.557	1786.85
912.869	1736
913.181	1730.12
913.494	1738.71
913.806	1736
914.118	1744.59
914.43	1759.5
914.742	1719.05
915.054	1713.4
915.366	1690.8
915.678	1698.94
915.99	1687.64
916.302	1679.73
916.613	1675.44
916.925	1691.93
917.236	1710.24
917.548	1663.23
917.859	1657.36
918.171	1666.17
918.482	1625.49
918.794	1662.56
919.105	1626.62
919.416	1638.37
919.727	1625.95
920.038	1640.86
920.349	1608.55
920.66	1656.23
920.971	1595.66
921.282	1618.26
921.593	1589.11
921.903	1596.57
922.214	1586.62
922.525	1566.06
922.835	1586.62
923.146	1608.55
923.456	1575.78
923.767	1560.64
924.077	1545.72
924.387	1545.95
924.697	1530.36
925.008	1524.48
925.318	1553.86
925.628	1520.86
925.938	1540.3
926.248	1506.4
926.558	1525.61
926.867	1491.49
927.177	1489.9
927.487	1490.81
927.796	1497.59
928.106	1491.94
928.416	1500.07
928.725	1477.25
929.034	1450.13
929.344	1457.81
929.653	1449.68
929.962	1453.97
930.271	1435.44
930.581	1461.66
930.89	1448.78
931.199	1438.83
931.508	1442.9
931.817	1429.34
932.125	1411.04
932.434	1432.96
932.743	1427.99
933.051	1431.6
933.36	1434.99
933.669	1382.34
933.977	1410.58
934.286	1381.43
934.594	1408.78
934.902	1342.79
935.21	1340.53
935.519	1355.22
935.827	1338.72
936.135	1367.2
936.443	1369.68
936.751	1357.7
937.059	1347.31
937.367	1339.63
937.674	1345.05
937.982	1356.35
938.29	1360.42
938.597	1364.26
938.905	1326.52
939.213	1338.95
939.52	1313.19
939.827	1323.36
940.135	1306.18
940.442	1298.72
940.749	1317.93
941.056	1300.76
941.363	1281.77
941.67	1277.93
941.977	1279.06
942.284	1280.87
942.591	1301.43
942.898	1278.38
943.205	1241.32
943.511	1265.28
943.818	1285.16
944.125	1248.78
944.431	1227.76
944.738	1243.13
945.044	1223.24
945.35	1216.69
945.657	1212.85
945.963	1212.62
946.269	1189.35
946.575	1233.64
946.881	1239.74
947.187	1228.67
947.493	1204.71
947.799	1229.57
948.105	1179.63
948.41	1187.77
948.716	1210.59
949.022	1193.87
949.327	1206.52
949.633	1170.59
949.938	1166.52
950.244	1165.85
950.549	1171.72
950.854	1138.95
951.16	1165.85
951.465	1142.79
951.77	1147.09
952.075	1137.15
952.38	1161.33
952.685	1154.32
952.99	1132.17
953.294	1126.07
953.599	1121.55
953.904	1135.11
954.209	1110.25
954.513	1092.85
954.818	1104.6
955.122	1119.97
955.426	1101.21
955.731	1108.67
956.035	1097.82
956.339	1091.04
956.643	1096.47
956.948	1098.05
957.252	1093.76
957.556	1093.98
957.86	1096.69
958.163	1074.55
958.467	1063.7
958.771	1046.75
959.075	1083.59
959.378	1070.03
959.682	1048.33
959.985	1045.62
960.289	1070.71
960.592	1058.96
960.896	1053.76
961.199	1053.53
961.502	1041.78
961.805	1026.87
962.108	1042.68
962.411	1040.65
962.714	994.55
963.017	1004.27
963.32	998.17
963.623	1028.22
963.926	1020.76
964.228	1007.43
964.531	1015.34
964.833	1025.96
965.136	995
965.438	979.41
965.741	987.32
966.043	1008.11
966.345	981.67
966.648	995
966.95	974.44
967.252	979.41
967.554	969.69
967.856	973.76
968.158	943.93
968.46	941.9
968.761	980.54
969.063	945.51
969.365	961.78
969.666	938.96
969.968	943.48
970.269	965.85
970.571	927.89
970.872	921.11
971.174	948.22
971.475	943.25
971.776	936.02
972.077	917.94
972.378	931.5
972.679	930.82
972.98	915.91
973.281	906.42
973.582	908.9
973.883	917.72
974.183	920.43
974.484	911.61
974.785	917.94
975.085	915.23
975.386	918.62
975.686	901.22
975.986	894.21
976.287	878.39
976.587	918.85
976.887	855.8
977.187	871.84
977.487	880.43
977.787	878.39
978.087	876.14
978.387	848.11
978.687	884.72
978.987	865.74
979.286	869.13
979.586	870.03
979.885	848.34
980.185	835.23
980.484	854.44
980.784	853.99
981.083	858.51
981.382	852.86
981.682	847.44
981.981	859.19
982.28	827.77
982.579	844.72
982.878	842.69
983.177	824.61
983.475	830.03
983.774	833.42
984.073	811.5
984.372	823.71
984.67	819.87
984.969	823.03
985.267	807.44
985.566	821
985.864	812.63
986.162	782.35
986.461	831.16
986.759	794.33
987.057	809.47
987.355	799.53
987.653	804.05
987.951	797.72
988.249	799.53
988.547	771.96
988.844	780.09
989.142	776.25
989.44	795.91
989.737	809.24
990.035	770.15
990.332	781.45
990.63	760.43
990.927	765.86
991.224	767.21
991.521	747.55
991.819	766.31
992.116	776.93
992.413	766.76
992.71	766.99
993.006	758.4
993.303	741.22
993.6	748.23
993.897	745.97
994.193	733.99
994.49	736.03
994.787	756.36
995.083	739.64
995.379	742.35
995.676	729.92
995.972	724.73
996.268	732.18
996.565	711.85
996.861	706.2
997.157	703.03
997.453	696.03
997.749	713.2
998.044	714.11
998.34	708.46
998.636	720.88
998.932	706.87
999.227	729.47
999.523	687.67
999.818	691.51
1000.114	699.64
1000.409	698.29
1000.704	703.03
1001	691.28
1001.295	689.93
1001.59	676.59
1001.885	693.09
1002.18	674.33
1002.475	674.11
1002.77	677.04
1003.065	691.28
1003.359	691.73
1003.654	655.8
1003.949	673.65
1004.243	686.99
1004.538	691.96
1004.832	650.83
1005.127	650.6
1005.421	660.1
1005.715	667.1
1006.009	651.73
1006.304	655.12
1006.598	641.57
1006.892	649.47
1007.186	636.82
1007.48	634.56
1007.773	629.14
1008.067	624.16
1008.361	627.1
1008.655	630.94
1008.948	662.58
1009.242	618.29
1009.535	604.28
1009.829	630.27
1010.122	615.35
1010.415	628.46
1010.708	632.75
1011.001	625.75
1011.295	616.48
1011.588	605.63
1011.881	609.25
1012.173	600.44
1012.466	602.92
1012.759	617.16
1013.052	619.19
1013.344	606.76
1013.637	596.14
1013.93	609.7
1014.222	584.17
1014.514	590.04
1014.807	595.24
1015.099	585.07
1015.391	596.37
1015.683	564.5
1015.976	588.69
1016.268	561.34
1016.56	581.23
1016.851	593.88
1017.143	559.08
1017.435	586.43
1017.727	569.93
1018.018	566.09
1018.31	588.01
1018.602	579.42
1018.893	560.66
1019.185	554.56
1019.476	564.96
1019.767	567.22
1020.058	564.96
1020.35	562.47
1020.641	558.4
1020.932	540.1
1021.223	551.62
1021.514	550.72
1021.804	546.2
1022.095	542.13
1022.386	537.16
1022.677	545.97
1022.967	542.13
1023.258	533.77
1023.548	506.88
1023.839	513.88
1024.129	505.07
1024.419	540.1
1024.709	537.39
1025	533.55
1025.29	518.18
1025.58	519.08
1025.87	540.32
1026.16	525.18
1026.449	532.19
1026.739	514.34
1027.029	517.95
1027.319	532.64
1027.608	507.33
1027.898	505.07
1028.187	512.98
1028.477	498.29
1028.766	509.14
1029.055	503.49
1029.344	498.74
1029.634	490.38
1029.923	490.83
1030.212	479.54
1030.501	498.97
1030.79	501.68
1031.078	481.57
1031.367	477.5
1031.656	514.34
1031.945	494.45
1032.233	476.15
1032.522	478.18
1032.81	473.43
1033.099	463.72
1033.387	497.39
1033.675	463.49
1033.963	491.29
1034.251	499.42
1034.54	474.56
1034.828	470.72
1035.116	452.19
1035.403	463.94
1035.691	472.08
1035.979	461
1036.267	467.11
1036.554	458.29
1036.842	446.32
1037.129	458.52
1037.417	457.84
1037.704	475.92
1037.992	447.22
1038.279	440.21
1038.566	465.3
1038.853	465.3
1039.14	465.3
