Data from blue_surface_keyboard_FLMS001491_059.txt Node
Date: Tue Feb 07 11:13:21 GMT 2017
User: dcchb
Spectrometer: FLMS00149
Trigger mode: 0
Integration Time (sec): 2.000000E-2
Scans to average: 10
Electric dark correction enabled: true
Nonlinearity correction enabled: false
Boxcar width: 0
XAxis mode: Wavelengths
Number of Pixels in Spectrum: 2048
>>>>>Begin Spectral Data<<<<<
341.393	-9.63
341.776	-9.63
342.16	-9.63
342.543	-62.51
342.927	-37.2
343.31	-70.87
343.693	-57.31
344.077	-56.18
344.46	-44.43
344.843	-49.41
345.226	-44.89
345.61	-26.36
345.993	-11.21
346.376	-12.34
346.759	-0.14
347.142	22.68
347.525	48.9
347.908	63.81
348.291	56.13
348.674	88.9
349.057	92.74
349.44	130.25
349.823	139.29
350.206	156.24
350.588	171.61
350.971	186.97
351.354	210.25
351.737	212.06
352.119	222.9
352.502	231.72
352.884	264.03
353.267	276.24
353.65	248.89
354.032	271.94
354.414	304.26
354.797	299.06
355.179	301.77
355.562	294.54
355.944	310.13
356.326	313.3
356.709	313.07
357.091	321.43
357.473	327.99
357.855	327.53
358.238	322.79
358.62	315.56
359.002	310.13
359.384	343.13
359.766	308.33
360.148	324.14
360.53	320.08
360.912	330.92
361.294	296.8
361.676	319.4
362.057	330.25
362.439	320.98
362.821	294.09
363.203	303.13
363.584	296.8
363.966	310.13
364.348	318.72
364.729	297.03
365.111	290.47
365.493	280.98
365.874	292.05
366.256	288.21
366.637	276.91
367.019	285.27
367.4	271.26
367.781	280.98
368.163	299.96
368.544	299.06
368.925	287.31
369.306	295.9
369.688	304.71
370.069	272.62
370.45	276.69
370.831	268.55
371.212	282.34
371.593	294.54
371.974	289.79
372.355	302.45
372.736	272.17
373.117	259.51
373.498	287.99
373.879	297.03
374.26	299.06
374.641	288.21
375.021	289.57
375.402	293.64
375.783	295.67
376.163	316.23
376.544	302
376.925	292.96
377.305	318.04
377.686	314.43
378.066	299.74
378.447	316.01
378.827	302
379.208	301.77
379.588	304.71
379.968	304.71
380.349	306.29
380.729	311.94
381.109	290.7
381.489	304.03
381.87	293.64
382.25	310.81
382.63	325.05
383.01	314.2
383.39	308.33
383.77	298.61
384.15	297.03
384.53	307.2
384.91	324.14
385.29	326.18
385.67	310.36
386.049	325.5
386.429	333.86
386.809	305.16
387.189	316.91
387.568	318.27
387.948	311.26
388.328	313.52
388.707	327.08
389.087	314.43
389.466	313.07
389.846	309
390.225	315.56
390.605	313.75
390.984	311.49
391.363	321.88
391.743	324.6
392.122	325.5
392.501	335.22
392.881	341.77
393.26	325.95
393.639	329.12
394.018	346.97
394.397	335.67
394.776	318.49
395.155	330.92
395.534	325.27
395.913	325.05
396.292	342.22
396.671	344.03
397.05	334.54
397.429	334.77
397.808	337.93
398.186	346.06
398.565	333.64
398.944	339.96
399.323	328.66
399.701	334.31
400.08	343.35
400.458	335.22
400.837	345.84
401.215	342.9
401.594	349.68
401.972	343.13
402.351	354.88
402.729	347.19
403.107	344.48
403.486	337.7
403.864	328.89
404.242	366.63
404.62	329.34
404.999	346.74
405.377	373.63
405.755	360.3
406.133	349
406.511	356.23
406.889	350.36
407.267	351.26
407.645	383.35
408.023	360.75
408.401	368.44
408.779	375.67
409.156	378.83
409.534	369.11
409.912	354.65
410.29	373.63
410.667	354.43
411.045	363.47
411.422	389.45
411.8	365.5
412.178	352.17
412.555	373.63
412.933	358.49
413.31	384.71
413.687	389.23
414.065	385.16
414.442	375.44
414.819	363.47
415.197	377.7
415.574	387.19
415.951	387.65
416.328	406.18
416.705	382.22
417.082	398.94
417.46	390.81
417.837	406.4
418.214	398.27
418.591	412.28
418.967	403.69
419.344	402.79
419.721	403.46
420.098	395.1
420.475	417.47
420.852	408.44
421.228	402.33
421.605	403.92
421.982	409.57
422.358	392.16
422.735	382.9
423.111	418.83
423.488	407.31
423.864	418.38
424.241	427.19
424.617	421.09
424.994	414.76
425.37	415.67
425.746	409.34
426.123	433.07
426.499	405.5
426.875	421.77
427.251	438.27
427.627	436.46
428.003	442.11
428.379	451.82
428.756	445.27
429.132	443.69
429.507	448.21
429.883	456.8
430.259	443.01
430.635	447.98
431.011	465.16
431.387	461.09
431.763	473.74
432.138	461.09
432.514	452.5
432.89	480.52
433.265	458.15
433.641	475.55
434.016	461.32
434.392	481.88
434.767	478.26
435.143	493.63
435.518	494.99
435.894	471.48
436.269	512.84
436.644	486.17
437.02	478.26
437.395	478.26
437.77	500.18
438.145	502.22
438.52	492.73
438.895	510.81
439.271	524.36
439.646	516.46
440.021	514.65
440.395	527.75
440.77	499.73
441.145	523.23
441.52	522.1
441.895	529.11
442.27	517.59
442.645	536.12
443.019	541.31
443.394	513.52
443.769	522.78
444.143	545.83
444.518	539.73
444.892	524.82
445.267	520.52
445.641	543.35
446.016	544.03
446.39	543.12
446.764	543.12
447.139	534.76
447.513	550.35
447.887	549.22
448.262	536.57
448.636	558.71
449.01	566.17
449.384	567.53
449.758	574.98
450.132	583.35
450.506	566.4
450.88	581.54
451.254	567.08
451.628	582.44
452.002	597.13
452.376	600.07
452.75	586.96
453.123	581.31
453.497	587.87
453.871	582.89
454.244	609.79
454.618	584.25
454.992	611.14
455.365	589
455.739	616.79
456.112	605.27
456.486	616.79
456.859	626.51
457.232	626.96
457.606	604.36
457.979	640.75
458.352	658.37
458.725	645.49
459.099	621.54
459.472	641.2
459.845	661.31
460.218	638.26
460.591	647.53
460.964	666.06
461.337	658.82
461.71	676
462.083	679.16
462.456	679.16
462.829	672.84
463.201	688.43
463.574	682.33
463.947	703.57
464.32	708.09
464.692	704.7
465.065	729.56
465.438	704.92
465.81	716.45
466.183	744.92
466.555	726.85
466.928	712.16
467.3	729.56
467.672	724.36
468.045	754.19
468.417	762.32
468.789	751.93
469.161	739.05
469.534	792.38
469.906	778.6
470.278	760.06
470.65	785.83
471.022	795.32
471.394	795.09
471.766	784.02
472.138	814.75
472.51	804.13
472.882	831.7
473.253	816.33
473.625	818.37
473.997	837.35
474.369	841.42
474.74	860.18
475.112	835.77
475.484	890.68
475.855	902.66
476.227	882.1
476.598	908.99
476.97	900.17
477.341	898.59
477.713	922.55
478.084	926.39
478.455	943.34
478.827	937.01
479.198	976.56
479.569	970
479.94	977.91
480.311	974.3
480.682	986.05
481.053	1005.26
481.424	1013.39
481.795	1016.1
482.166	1046.38
482.537	1035.09
482.908	1049.1
483.279	1055.88
483.65	1066.95
484.021	1082.32
484.391	1075.31
484.762	1094.29
485.133	1102.88
485.503	1087.06
485.874	1097.68
486.244	1103.56
486.615	1146.95
486.985	1137.91
487.356	1177.23
487.726	1174.52
488.097	1177.91
488.467	1175.42
488.837	1198.25
489.207	1208.64
489.578	1205.93
489.948	1214.52
490.318	1239.15
490.688	1244.57
491.058	1236.89
491.428	1240.96
491.798	1257
492.168	1279.15
492.538	1276.66
492.908	1281.41
493.278	1300.84
493.648	1300.62
494.017	1313.5
494.387	1275.08
494.757	1330.67
495.126	1301.07
495.496	1323.67
495.866	1336.32
496.235	1321.63
496.605	1343.1
496.974	1337
497.344	1362.53
497.713	1337.45
498.082	1349.43
498.452	1355.98
498.821	1363.66
499.19	1359.15
499.559	1360.27
499.928	1393.95
500.298	1416.54
500.667	1367.51
501.036	1377
501.405	1362.08
501.774	1385.59
502.143	1391.46
502.512	1410.44
502.88	1390.78
503.249	1411.12
503.618	1395.3
503.987	1406.15
504.356	1403.89
504.724	1423.1
505.093	1448.63
505.462	1413.83
505.83	1426.94
506.199	1442.31
506.567	1450.44
506.936	1401.4
507.304	1458.58
507.672	1442.76
508.041	1447.5
508.409	1472.36
508.777	1480.95
509.145	1442.76
509.514	1457.22
509.882	1452.93
510.25	1459.71
510.618	1438.92
510.986	1449.09
511.354	1471.23
511.722	1479.82
512.09	1503.55
512.458	1475.07
512.826	1492.47
513.193	1501.74
513.561	1479.14
513.929	1510.1
514.297	1486.37
514.664	1514.4
515.032	1514.17
515.4	1540.16
515.767	1461.06
516.135	1506.71
516.502	1512.81
516.869	1520.5
517.237	1541.29
517.604	1521.4
517.972	1548.29
518.339	1529.99
518.706	1503.32
519.073	1523.66
519.44	1513.72
519.808	1554.39
520.175	1542.19
520.542	1554.39
520.909	1570.89
521.276	1542.42
521.643	1573.6
522.009	1530.21
522.376	1580.38
522.743	1574.51
523.11	1540.16
523.477	1570.89
523.843	1575.41
524.21	1594.17
524.577	1576.99
524.943	1596.43
525.31	1600.95
525.676	1621.06
526.043	1606.37
526.409	1624.67
526.776	1640.49
527.142	1601.4
527.508	1643.66
527.874	1627.39
528.241	1626.03
528.607	1618.35
528.973	1647.05
529.339	1630.78
529.705	1632.58
530.071	1656.76
530.437	1629.19
530.803	1617.44
531.169	1668.52
531.535	1640.04
531.901	1648.18
532.267	1644.34
532.632	1639.82
532.998	1670.1
533.364	1654.96
533.73	1650.21
534.095	1696.99
534.461	1666.93
534.826	1672.13
535.192	1652.24
535.557	1685.69
535.923	1667.16
536.288	1684.11
536.653	1687.95
537.019	1679.14
537.384	1696.76
537.749	1665.58
538.114	1692.24
538.479	1689.53
538.845	1681.85
539.21	1671.68
539.575	1654.05
539.94	1709.19
540.305	1714.39
540.67	1679.14
541.034	1690.89
541.399	1710.77
541.764	1680.72
542.129	1701.73
542.494	1712.58
542.858	1680.49
543.223	1695.63
543.587	1729.76
543.952	1672.58
544.316	1661.51
544.681	1691.11
545.045	1700.83
545.41	1706.48
545.774	1702.64
546.138	1703.77
546.503	1706.03
546.867	1698.35
547.231	1698.57
547.595	1709.87
547.959	1754.61
548.324	1700.83
548.688	1715.75
549.052	1736.99
549.416	1731.34
549.779	1723.88
550.143	1714.62
550.507	1717.78
550.871	1732.92
551.235	1712.13
551.599	1702.86
551.962	1724.33
552.326	1726.14
552.689	1748.74
553.053	1754.61
553.417	1749.19
553.78	1749.19
554.143	1733.82
554.507	1731.34
554.87	1696.76
555.234	1772.69
555.597	1755.07
555.96	1769.98
556.323	1735.41
556.686	1726.82
557.05	1743.09
557.413	1743.32
557.776	1727.27
558.139	1760.04
558.502	1733.6
558.865	1763.88
559.228	1779.92
559.59	1776.08
559.953	1761.62
560.316	1765.69
560.679	1753.26
561.041	1777.89
561.404	1771.11
561.767	1778.34
562.129	1792.81
562.492	1814.27
562.854	1804.56
563.217	1767.04
563.579	1801.62
563.941	1785.57
564.304	1789.87
564.666	1819.25
565.028	1801.62
565.39	1812.47
565.753	1856.08
566.115	1816.08
566.477	1812.47
566.839	1823.54
567.201	1829.42
567.563	1849.75
567.925	1837.55
568.287	1845.01
568.648	1862.18
569.01	1870.09
569.372	1853.82
569.734	1810.21
570.095	1820.83
570.457	1860.83
570.819	1870.09
571.18	1838.45
571.542	1848.85
571.903	1855.63
572.265	1883.88
572.626	1851.11
572.987	1870.32
573.349	1861.5
573.71	1876.19
574.071	1868.28
574.432	1893.14
574.794	1895.4
575.155	1891.11
575.516	1867.15
575.877	1910.32
576.238	1910.54
576.599	1913.25
576.96	1880.04
577.32	1914.16
577.681	1906.25
578.042	1905.35
578.403	1890.66
578.763	1927.27
579.124	1884.1
579.485	1883.43
579.845	1913.03
580.206	1921.39
580.566	1922.07
580.927	1887.04
581.287	1917.77
581.648	1924.1
582.008	1910.09
582.368	1948.28
582.728	1931.33
583.089	1930.43
583.449	1919.58
583.809	1913.48
584.169	1929.75
584.529	1942.41
584.889	1936.08
585.249	1932.46
585.609	1930.88
585.969	1912.12
586.329	1922.07
586.688	1953.03
587.048	1927.49
587.408	1938.79
587.768	1914.16
588.127	1920.94
588.487	1939.02
588.846	1914.16
589.206	1961.39
589.565	1909.19
589.925	1900.83
590.284	1934.05
590.643	1944.21
591.003	1920.71
591.362	1949.41
591.721	1938.11
592.08	1946.25
592.44	1934.5
592.799	1922.52
593.158	1917.55
593.517	1938.11
593.876	1999.35
594.235	1974.95
594.593	1931.56
594.952	1970.88
595.311	1958.68
595.67	1930.66
596.029	1971.56
596.387	1940.37
596.746	1957.77
597.104	1955.74
597.463	1941.05
597.822	1953.93
598.18	1973.82
598.538	1931.79
598.897	1946.02
599.255	1974.04
599.613	1998.22
599.972	1978.34
600.33	1969.07
600.688	1975.63
601.046	1978.79
601.404	1965.91
601.762	2005.68
602.12	1998
602.478	1985.57
602.836	2004.78
603.194	1965
603.552	1988.51
603.91	1981.5
604.268	1986.47
604.625	1991.22
604.983	1996.64
605.341	2020.37
605.698	1990.54
606.056	2037.77
606.413	1986.93
606.771	2015.4
607.128	2035.74
607.485	2005.68
607.843	1979.69
608.2	2007.94
608.557	2000.71
608.914	2024.66
609.272	2040.48
609.629	2039.81
609.986	2044.32
610.343	2032.12
610.7	2032.8
611.057	2037.77
611.414	2050.65
611.771	2061.05
612.127	2068.73
612.484	2045.91
612.841	2074.15
613.198	2059.01
613.554	2029.86
613.911	2069.86
614.267	2064.89
614.624	2073.93
614.98	2076.41
615.337	2111.67
615.693	2070.31
616.05	2089.07
616.406	2107.83
616.762	2077.32
617.118	2082.06
617.475	2128.84
617.831	2110.31
618.187	2074.61
618.543	2090.88
618.899	2140.59
619.255	2127.71
619.611	2141.95
619.967	2129.29
620.323	2142.85
620.678	2116.87
621.034	2092.69
621.39	2138.33
621.746	2144.21
622.101	2120.03
622.457	2139.69
622.812	2129.75
623.168	2150.54
623.523	2155.28
623.879	2129.97
624.234	2163.64
624.589	2152.34
624.945	2157.32
625.3	2158.22
625.655	2142.63
626.01	2179.91
626.365	2177.88
626.72	2170.2
627.075	2192.57
627.43	2176.98
627.785	2148.5
628.14	2190.31
628.495	2188.95
628.85	2184.21
629.205	2160.71
629.559	2197.99
629.914	2178.11
630.269	2205.45
630.623	2213.59
630.978	2202.51
631.332	2221.5
631.687	2214.72
632.041	2208.61
632.396	2231.89
632.75	2216.07
633.104	2255.17
633.459	2223.3
633.813	2214.94
634.167	2203.87
634.521	2242.06
634.875	2206.35
635.229	2248.39
635.583	2250.2
635.937	2238.9
636.291	2264.43
636.645	2281.83
636.999	2264.88
637.352	2263.3
637.706	2272.12
638.06	2290.87
638.413	2274.83
638.767	2322.96
639.121	2285.67
639.474	2284.77
639.828	2277.54
640.181	2275.05
640.534	2322.96
640.888	2297.65
641.241	2302.62
641.594	2309.63
641.947	2334.49
642.301	2345.79
642.654	2342.4
643.007	2349.4
643.36	2357.31
643.713	2350.53
644.066	2365.67
644.419	2366.8
644.771	2339.91
645.124	2348.5
645.477	2366.12
645.83	2336.29
646.182	2338.1
646.535	2356.63
646.888	2358.44
647.24	2342.85
647.593	2425.78
647.945	2372.9
648.298	2408.16
648.65	2388.72
649.002	2392.11
649.355	2413.13
649.707	2429.4
650.059	2455.61
650.411	2442.96
650.763	2484.77
651.115	2504.88
651.467	2506.46
651.819	2530.87
652.171	2525.44
652.523	2545.55
652.875	2554.82
653.227	2571.32
653.578	2579.23
653.93	2588.72
654.282	2566.57
654.633	2549.85
654.985	2569.51
655.337	2610.41
655.688	2638.89
656.039	2613.35
656.391	2625.78
656.742	2659.9
657.094	2668.26
657.445	2666.91
657.796	2704.65
658.147	2689.96
658.498	2697.41
658.849	2734.7
659.2	2706.45
659.551	2718.43
659.902	2750.29
660.253	2774.7
660.604	2753.68
660.955	2793.23
661.306	2797.3
661.656	2835.04
662.007	2837.98
662.358	2807.92
662.708	2809.95
663.059	2856.28
663.409	2830.07
663.76	2884.3
664.11	2851.31
664.461	2887.24
664.811	2917.52
665.161	2935.83
665.511	2928.14
665.862	2937.63
666.212	2984.41
666.562	2972.66
666.912	3015.15
667.262	3044.52
667.612	3040.91
667.962	3045.2
668.312	3066.44
668.662	3078.65
669.011	3054.24
669.361	3110.29
669.711	3121.13
670.06	3111.42
670.41	3143.05
670.76	3110.06
671.109	3177.63
671.459	3123.17
671.808	3145.99
672.157	3160.68
672.507	3213.11
672.856	3176.27
673.205	3223.5
673.554	3251.07
673.904	3182.37
674.253	3296.27
674.602	3270.06
674.951	3255.37
675.3	3221.47
675.649	3303.5
675.998	3302.6
676.346	3308.47
676.695	3366.55
677.044	3315.03
677.393	3397.74
677.741	3382.14
678.09	3376.27
678.438	3385.31
678.787	3392.09
679.135	3426.21
679.484	3430.5
679.832	3421.92
680.181	3456.94
680.529	3417.62
680.877	3425.31
681.225	3461.46
681.573	3470.28
681.922	3496.26
682.27	3531.52
682.618	3502.37
682.966	3519.54
683.314	3489.94
683.661	3527.68
684.009	3529.03
684.357	3536.26
684.705	3550.73
685.053	3568.35
685.4	3537.17
685.748	3562.93
686.095	3556.15
686.443	3608.8
686.79	3542.14
687.138	3607.9
687.485	3633.21
687.832	3611.52
688.18	3603.15
688.527	3604.06
688.874	3657.16
689.221	3645.64
689.568	3658.97
689.915	3667.11
690.262	3663.04
690.609	3656.49
690.956	3665.75
691.303	3661.68
691.65	3660.33
691.997	3663.72
692.344	3687.9
692.69	3662.14
693.037	3690.61
693.383	3697.84
693.73	3679.31
694.077	3638.41
694.423	3674.79
694.769	3689.93
695.116	3679.31
695.462	3697.61
695.808	3667.33
696.155	3698.97
696.501	3687.9
696.847	3686.99
697.193	3668.24
697.539	3728.12
697.885	3655.13
698.231	3695.81
698.577	3705.52
698.923	3677.05
699.269	3666.43
699.614	3690.84
699.96	3669.37
700.306	3630.05
700.651	3661.46
700.997	3646.32
701.342	3630.95
701.688	3700.78
702.033	3635.47
702.379	3606.77
702.724	3614.9
703.069	3645.64
703.415	3620.55
703.76	3609.48
704.105	3671.4
704.45	3593.21
704.795	3617.39
705.14	3660.78
705.485	3622.59
705.83	3597.96
706.175	3599.31
706.52	3571.97
706.865	3578.52
707.209	3592.31
707.554	3579.43
707.899	3611.29
708.243	3551.4
708.588	3605.64
708.932	3567.67
709.277	3538.75
709.621	3566.77
709.966	3585.53
710.31	3589.82
710.654	3549.82
710.998	3550.27
711.342	3580.78
711.687	3585.75
712.031	3526.32
712.375	3568.8
712.719	3582.36
713.063	3546.88
713.407	3543.72
713.75	3502.14
714.094	3533.78
714.438	3502.59
714.782	3540.33
715.125	3540.33
715.469	3568.35
715.812	3530.84
716.156	3527.9
716.499	3540.78
716.843	3578.52
717.186	3475.02
717.53	3524.06
717.873	3540.1
718.216	3534
718.559	3500.33
718.902	3487.68
719.246	3500.11
719.589	3533.78
719.932	3513.66
720.275	3524.51
720.617	3525.42
720.96	3522.25
721.303	3515.02
721.646	3536.94
721.989	3521.57
722.331	3529.48
722.674	3512.31
723.016	3597.28
723.359	3525.19
723.701	3550.73
724.044	3522.03
724.386	3496.49
724.729	3531.07
725.071	3488.13
725.413	3500.78
725.755	3513.21
726.097	3529.94
726.439	3536.04
726.782	3542.82
727.124	3559.54
727.465	3510.05
727.807	3518.86
728.149	3544.85
728.491	3514.34
728.833	3520.67
729.175	3485.19
729.516	3532.2
729.858	3513.44
730.199	3524.06
730.541	3507.34
730.882	3552.53
731.224	3553.66
731.565	3561.57
731.906	3551.63
732.248	3536.71
732.589	3530.61
732.93	3556.6
733.271	3545.75
733.612	3562.48
733.953	3581.69
734.294	3558.41
734.635	3548.01
734.976	3566.54
735.317	3574.91
735.658	3582.36
735.999	3586.43
736.339	3587.11
736.68	3609.71
737.021	3609.93
737.361	3567.22
737.702	3597.96
738.042	3579.43
738.383	3601.35
738.723	3615.81
739.063	3629.59
739.404	3624.62
739.744	3633.89
740.084	3639.76
740.424	3659.42
740.764	3644.51
741.104	3683.15
741.444	3699.42
741.784	3670.72
742.124	3686.09
742.464	3670.04
742.804	3661.91
743.143	3652.64
743.483	3716.37
743.823	3702.81
744.162	3745.52
744.502	3795.01
744.841	3743.04
745.181	3764.73
745.52	3748.69
745.86	3780.78
746.199	3782.58
746.538	3825.29
746.877	3808.35
747.216	3811.28
747.556	3836.82
747.895	3878.17
748.234	3848.57
748.573	3879.53
748.911	3872.98
749.25	3879.08
749.589	3898.74
749.928	3926.99
750.267	3972.86
750.605	3948.68
750.944	3980.55
751.283	3975.12
751.621	4019.41
751.96	3998.85
752.298	4054.89
752.636	4064.61
752.975	4088.11
753.313	4077.27
753.651	4121.56
753.989	4156.36
754.327	4132.63
754.666	4157.26
755.004	4184.38
755.342	4205.17
755.679	4215.57
756.017	4241.78
756.355	4285.62
756.693	4270.25
757.031	4280.2
757.368	4266.19
757.706	4320.42
758.044	4284.27
758.381	4364.72
758.719	4376.69
759.056	4387.31
759.394	4360.2
759.731	4376.92
760.068	4412.4
760.405	4403.13
760.743	4409.01
761.08	4453.08
761.417	4438.61
761.754	4471.83
762.091	4457.14
762.428	4462.11
762.765	4484.49
763.102	4487.42
763.438	4501.89
763.775	4501.44
764.112	4516.8
764.449	4520.87
764.785	4524.49
765.122	4509.12
765.458	4577.82
765.795	4516.8
766.131	4550.02
766.467	4474.77
766.804	4524.03
767.14	4516.12
767.476	4553.19
767.812	4542.11
768.148	4547.08
768.485	4554.32
768.821	4508.44
769.157	4519.51
769.492	4522.23
769.828	4540.3
770.164	4535.33
770.5	4477.03
770.836	4504.6
771.171	4520.64
771.507	4484.71
771.842	4505.05
772.178	4457.14
772.513	4472.51
772.849	4455.79
773.184	4492.4
773.519	4452.4
773.855	4456.24
774.19	4457.59
774.525	4424.15
774.86	4445.17
775.195	4399.74
775.53	4426.18
775.865	4408.56
776.2	4405.84
776.535	4366.75
776.87	4391.61
777.205	4357.48
777.539	4368.56
777.874	4351.38
778.209	4321.55
778.543	4308.67
778.878	4302.12
779.212	4322.91
779.547	4296.47
779.881	4284.49
780.215	4303.47
780.55	4277.26
780.884	4271.16
781.218	4232.97
781.552	4226.64
781.886	4220.99
782.22	4188.9
782.554	4206.3
782.888	4182.12
783.222	4134.89
783.556	4117.04
783.889	4118.39
784.223	4096.25
784.557	4131.28
784.89	4157.04
785.224	4090.15
785.557	4083.59
785.891	4074.1
786.224	4086.53
786.558	4063.93
786.891	4036.36
787.224	4049.47
787.557	4032.3
787.891	3979.64
788.224	3981.9
788.557	4009.7
788.89	3960.43
789.223	3983.48
789.556	3964.73
789.888	3922.47
790.221	3952.3
790.554	3884.73
790.887	3930.38
791.219	3866.88
791.552	3921.34
791.884	3896.03
792.217	3892.86
792.549	3884.28
792.882	3821.45
793.214	3841.34
793.546	3847.44
793.879	3792.53
794.211	3773.54
794.543	3824.39
794.875	3828.91
795.207	3792.53
795.539	3807.44
795.871	3823.94
796.203	3779.42
796.535	3758.63
796.867	3749.14
797.198	3752.53
797.53	3682.47
797.862	3680.21
798.193	3687.67
798.525	3661.68
798.856	3679.76
799.188	3644.96
799.519	3601.35
799.85	3649.48
800.182	3641.8
800.513	3625.53
800.844	3575.13
801.175	3601.57
801.506	3611.06
801.837	3602.02
802.168	3545.3
802.499	3555.92
802.83	3530.39
803.161	3531.52
803.491	3501.69
803.822	3482.25
804.153	3494.68
804.483	3453.55
804.814	3441.35
805.145	3509.6
805.475	3475.7
805.805	3464.17
806.136	3494
806.466	3411.07
806.796	3480.22
807.126	3420.79
807.457	3399.09
807.787	3442.71
808.117	3419.66
808.447	3393.22
808.777	3438.86
809.107	3371.3
809.436	3374.91
809.766	3408.58
810.096	3369.94
810.426	3365.42
810.755	3328.58
811.085	3332.88
811.414	3341.92
811.744	3312.54
812.073	3337.85
812.403	3310.96
812.732	3301.01
813.061	3316.16
813.39	3283.16
813.719	3246.33
814.049	3298.08
814.378	3301.92
814.707	3299.88
815.036	3283.39
815.365	3269.6
815.693	3258.53
816.022	3252.88
816.351	3254.46
816.68	3242.94
817.008	3238.64
817.337	3184.86
817.665	3197.06
817.994	3217.85
818.322	3209.27
818.651	3210.17
818.979	3205.42
819.307	3202.49
819.636	3136.73
819.964	3181.02
820.292	3168.14
820.62	3147.12
820.948	3162.26
821.276	3185.76
821.604	3181.47
821.932	3140.34
822.259	3150.28
822.587	3186.89
822.915	3148.93
823.243	3159.78
823.57	3143.5
823.898	3138.08
824.225	3164.75
824.553	3151.41
824.88	3160.68
825.207	3185.76
825.535	3138.31
825.862	3124.75
826.189	3141.7
826.516	3145.09
826.843	3149.83
827.17	3163.17
827.497	3171.75
827.824	3136.5
828.151	3122.26
828.478	3157.29
828.805	3167.23
829.131	3138.99
829.458	3114.58
829.785	3117.52
830.111	3128.82
830.438	3166.33
830.764	3127.46
831.09	3183.05
831.417	3160
831.743	3153.9
832.069	3169.49
832.395	3153.9
832.722	3120.68
833.048	3109.16
833.374	3126.78
833.7	3115.26
834.026	3106.9
834.351	3114.13
834.677	3133.34
835.003	3135.37
835.329	3067.57
835.654	3125.65
835.98	3115.26
836.306	3133.79
836.631	3088.82
836.956	3094.92
837.282	3116.39
837.607	3131.75
837.932	3095.37
838.258	3072.77
838.583	3046.11
838.908	3067.12
839.233	3103.96
839.558	3086.56
839.883	3028.71
840.208	3051.76
840.533	3069.61
840.858	3058.31
841.182	3076.39
841.507	3038.42
841.832	3023.96
842.156	3051.98
842.481	2981.93
842.805	3012.66
843.13	3022.83
843.454	3003.4
843.778	2983.51
844.103	2966.11
844.427	2976.73
844.751	2962.04
845.075	2920.91
845.399	2944.19
845.723	2938.76
846.047	2969.95
846.371	2951.19
846.695	2908.03
847.019	2902.38
847.343	2864.64
847.666	2834.81
847.99	2864.19
848.313	2890.4
848.637	2824.64
848.96	2840.91
849.284	2859.44
849.607	2826
849.931	2821.48
850.254	2815.83
850.577	2803.63
850.9	2781.48
851.223	2770.63
851.546	2750.52
851.869	2745.78
852.192	2807.92
852.515	2727.47
852.838	2737.19
853.161	2716.85
853.483	2720.47
853.806	2715.27
854.129	2696.51
854.451	2695.61
854.774	2668.72
855.096	2665.78
855.419	2691.31
855.741	2642.28
856.063	2641.82
856.385	2640.47
856.708	2616.74
857.03	2642.05
857.352	2602.95
857.674	2631.43
857.996	2627.36
858.318	2620.35
858.64	2600.69
858.961	2613.58
859.283	2548.27
859.605	2576.06
859.926	2586.91
860.248	2592.56
860.57	2552.79
860.891	2557.31
861.212	2545.33
861.534	2567.02
861.855	2548.49
862.176	2546.23
862.498	2558.66
862.819	2537.42
863.14	2544.88
863.461	2545.1
863.782	2499.91
864.103	2531.09
864.424	2490.64
864.745	2532.9
865.065	2517.98
865.386	2505.78
865.707	2495.16
866.027	2522.05
866.348	2505.33
866.668	2503.52
866.989	2468.04
867.309	2426.91
867.63	2505.33
867.95	2480.92
868.27	2472.79
868.59	2440.7
868.91	2458.78
869.23	2435.5
869.55	2448.38
869.87	2456.52
870.19	2453.13
870.51	2454.48
870.83	2454.94
871.15	2431.21
871.469	2446.12
871.789	2452.68
872.109	2449.51
872.428	2451.09
872.748	2404.99
873.067	2430.08
873.386	2439.12
873.706	2415.39
874.025	2413.13
874.344	2422.62
874.663	2447.7
874.982	2414.03
875.301	2412.22
875.62	2385.78
875.939	2396.63
876.258	2428.04
876.577	2386.69
876.896	2395.28
877.214	2369.51
877.533	2364.32
877.852	2358.44
878.17	2399.57
878.489	2375.62
878.807	2357.31
879.125	2328.61
879.444	2371.77
879.762	2361.15
880.08	2366.35
880.398	2338.55
880.716	2337.88
881.034	2340.81
881.352	2342.17
881.67	2328.61
881.988	2311.21
882.306	2331.55
882.624	2294.94
882.941	2324.09
883.259	2335.16
883.577	2273.7
883.894	2332.45
884.212	2288.84
884.529	2296.07
884.846	2287.03
885.164	2287.03
885.481	2299.46
885.798	2314.6
886.115	2287.26
886.432	2284.32
886.75	2264.88
887.067	2247.71
887.383	2236.86
887.7	2249.97
888.017	2269.86
888.334	2258.33
888.651	2260.36
888.967	2210.65
889.284	2194.83
889.6	2208.39
889.917	2216.98
890.233	2196.86
890.55	2186.47
890.866	2212
891.182	2200.25
891.498	2168.16
891.815	2179.46
892.131	2181.95
892.447	2188.95
892.763	2156.19
893.079	2190.31
893.395	2189.86
893.71	2165.68
894.026	2144.21
894.342	2149.41
894.657	2121.38
894.973	2150.31
895.289	2131.55
895.604	2113.7
895.92	2096.98
896.235	2112.12
896.55	2091.56
896.865	2077.09
897.181	2099.46
897.496	2096.75
897.811	2053.14
898.126	2103.53
898.441	2075.51
898.756	2047.71
899.071	2055.17
899.386	2076.19
899.7	2013.14
900.015	2017.66
900.33	2040.48
900.644	2057.21
900.959	1997.55
901.273	2006.36
901.588	2002.07
901.902	1985.12
902.216	1967.94
902.531	1962.75
902.845	1993.03
903.159	1996.64
903.473	1966.36
903.787	1958.68
904.101	1949.64
904.415	1951.22
904.729	1934.72
905.042	1954.61
905.356	1934.72
905.67	1958.23
905.984	1953.71
906.297	1930.43
906.611	1898.79
906.924	1913.03
907.237	1923.42
907.551	1888.4
907.864	1886.59
908.177	1886.59
908.491	1856.53
908.804	1851.34
909.117	1850.21
909.43	1858.79
909.743	1862.63
910.056	1848.17
910.368	1819.02
910.681	1819.02
910.994	1829.42
911.307	1819.7
911.619	1825.8
911.932	1796.42
912.244	1805.24
912.557	1799.13
912.869	1789.19
913.181	1771.34
913.494	1772.24
913.806	1757.55
914.118	1740.6
914.43	1753.94
914.742	1757.33
915.054	1724.33
915.366	1730.66
915.678	1722.75
915.99	1727.04
916.302	1739.02
916.613	1724.56
916.925	1722.98
917.236	1718.23
917.548	1689.98
917.859	1702.64
918.171	1691.79
918.482	1690.21
918.794	1654.5
919.105	1674.39
919.416	1643.21
919.727	1627.84
920.038	1651.34
920.349	1647.95
920.66	1654.05
920.971	1635.52
921.282	1633.49
921.593	1619.93
921.903	1629.19
922.214	1624
922.525	1620.38
922.835	1606.14
923.146	1591
923.456	1624.22
923.767	1593.04
924.077	1588.52
924.387	1585.58
924.697	1574.96
925.008	1575.18
925.318	1581.96
925.628	1551.23
925.938	1551.68
926.248	1532.93
926.558	1560.95
926.867	1525.69
927.177	1530.44
927.487	1529.76
927.796	1527.95
928.106	1498.12
928.416	1503.77
928.725	1499.03
929.034	1502.19
929.344	1522.53
929.653	1471.91
929.962	1489.99
930.271	1499.25
930.581	1475.98
930.89	1467.62
931.199	1468.97
931.508	1471.01
931.817	1453.61
932.125	1427.62
932.434	1436.43
932.743	1446.15
933.051	1432.82
933.36	1435.98
933.669	1430.56
933.977	1379.03
934.286	1424.91
934.594	1390.1
934.902	1420.16
935.21	1386.26
935.519	1415.41
935.827	1403.66
936.135	1379.03
936.443	1361.63
936.751	1405.02
937.059	1408.41
937.367	1365.7
937.674	1371.35
937.982	1347.62
938.29	1325.02
938.597	1360.73
938.905	1340.16
939.213	1334.29
939.52	1334.74
939.827	1352.37
940.135	1323.21
940.442	1322.08
940.749	1342.2
941.056	1335.19
941.363	1325.7
941.67	1318.24
941.977	1316.66
942.284	1296.1
942.591	1289.09
942.898	1290.67
943.205	1285.25
943.511	1299.26
943.818	1264.91
944.125	1274.85
944.431	1266.04
944.738	1276.44
945.044	1259.03
945.35	1269.66
945.657	1246.61
945.963	1242.54
946.269	1241.18
946.575	1270.79
946.881	1240.73
947.187	1245.48
947.493	1239.37
947.799	1223.1
948.105	1193.95
948.41	1198.92
948.716	1218.81
949.022	1199.6
949.327	1227.62
949.633	1186.04
949.938	1167.29
950.244	1174.29
950.549	1171.35
950.854	1179.94
951.16	1201.41
951.465	1185.59
951.77	1174.07
952.075	1176.33
952.38	1171.35
952.685	1153.95
952.99	1156.89
953.294	1169.77
953.599	1152.37
953.904	1174.74
954.209	1139.94
954.513	1156.44
954.818	1099.49
955.122	1140.85
955.426	1126.38
955.731	1143.11
956.035	1116.44
956.339	1112.37
956.643	1115.08
956.948	1126.16
957.252	1084.35
957.556	1107.63
957.86	1085.48
958.163	1079.38
958.467	1099.04
958.771	1070.79
959.075	1071.69
959.378	1085.71
959.682	1071.92
959.985	1089.77
960.289	1070.79
960.592	1078.02
960.896	1061.53
961.199	1038.48
961.502	1072.15
961.805	1072.37
962.108	1063.56
962.411	1050.45
962.714	1017.69
963.017	1030.34
963.32	1058.81
963.623	1046.84
963.926	1026.72
964.228	1021.53
964.531	1009.55
964.833	1030.79
965.136	1006.39
965.438	1014.75
965.741	999.15
966.043	999.38
966.345	1002.09
966.648	1006.39
966.95	1024.92
967.252	1021.07
967.554	994.41
967.856	989.44
968.158	981.08
968.46	995.09
968.761	990.34
969.063	972.04
969.365	991.02
969.666	973.62
969.968	970
970.269	957.8
970.571	959.38
970.872	953.73
971.174	960.51
971.475	941.3
971.776	967.74
972.077	944.69
972.378	962.55
972.679	951.47
972.98	959.83
973.281	947.18
973.582	922.55
973.883	915.99
974.183	925.26
974.484	919.38
974.785	927.97
975.085	923
975.386	920.51
975.686	932.26
975.986	911.93
976.287	872.15
976.587	912.6
976.887	906.28
977.187	899.04
977.487	892.94
977.787	904.69
978.087	896.56
978.387	895.2
978.687	879.84
978.987	886.62
979.286	892.49
979.586	854.75
979.885	872.6
980.185	868.54
980.484	850.01
980.784	878.71
981.083	873.96
981.382	866.05
981.682	866.73
981.981	856.11
982.28	860.18
982.579	846.62
982.878	835.09
983.177	860.63
983.475	861.08
983.774	857.92
984.073	846.16
984.372	828.09
984.67	835.77
984.969	825.15
985.267	808.88
985.566	829.67
985.864	818.37
986.162	815.88
986.461	802.1
986.759	792.61
987.057	836.22
987.355	813.62
987.653	801.19
987.951	796
988.249	775.66
988.547	820.4
988.844	803
989.142	807.75
989.44	801.87
989.737	795.77
990.035	779.5
990.332	779.73
990.63	785.37
990.927	791.7
991.224	777.24
991.521	790.57
991.819	745.38
992.116	776.56
992.413	760.52
992.71	753.51
993.006	752.83
993.303	754.64
993.6	758.71
993.897	765.71
994.193	743.34
994.49	758.71
994.787	766.84
995.083	735.88
995.379	751.7
995.676	720.29
995.972	737.92
996.268	749.22
996.565	752.61
996.861	736.56
997.157	734.3
997.453	707.64
997.749	711.93
998.044	699.28
998.34	725.04
998.636	748.09
998.932	716.45
999.227	730.24
999.523	713.74
999.818	702.67
1000.114	712.83
1000.409	718.71
1000.704	686.39
1001	699.5
1001.295	736.34
1001.59	700.63
1001.885	703.8
1002.18	692.27
1002.475	686.62
1002.77	711.48
1003.065	679.39
1003.359	694.08
1003.654	684.13
1003.949	684.81
1004.243	662.21
1004.538	688.88
1004.832	692.95
1005.127	666.96
1005.421	676.45
1005.715	666.28
1006.009	649.79
1006.304	667.64
1006.598	669.45
1006.892	643.01
1007.186	652.95
1007.48	653.17
1007.773	636.23
1008.067	657.24
1008.361	645.49
1008.655	635.55
1008.948	635.32
1009.242	633.06
1009.535	607.98
1009.829	634.19
1010.122	635.55
1010.415	620.41
1010.708	593.52
1011.001	636
1011.295	631.71
1011.588	631.48
1011.881	592.16
1012.173	623.12
1012.466	608.66
1012.759	605.72
1013.052	602.33
1013.344	606.4
1013.637	631.48
1013.93	593.29
1014.222	608.2
1014.514	605.27
1014.807	598.26
1015.099	603.91
1015.391	586.74
1015.683	605.27
1015.976	596
1016.268	591.71
1016.56	580.86
1016.851	568.21
1017.143	594.19
1017.435	593.29
1017.727	590.58
1018.018	554.42
1018.31	561.2
1018.602	577.92
1018.893	572.27
1019.185	574.31
1019.476	555.32
1019.767	562.56
1020.058	554.42
1020.35	562.1
1020.641	549
1020.932	560.75
1021.223	565.72
1021.514	547.87
1021.804	550.8
1022.095	560.07
1022.386	557.36
1022.677	538.6
1022.967	530.92
1023.258	550.58
1023.548	530.24
1023.839	526.17
1024.129	541.54
1024.419	562.1
1024.709	511.94
1025	530.92
1025.29	551.03
1025.58	532.73
1025.87	517.81
1026.16	530.69
1026.449	525.49
1026.739	524.14
1027.029	515.55
1027.319	518.26
1027.608	501.99
1027.898	497.7
1028.187	519.62
1028.477	501.31
1028.766	502.9
1029.055	529.56
1029.344	512.61
1029.634	485.72
1029.923	496.79
1030.212	504.93
1030.501	499.73
1030.79	472.84
1031.078	493.18
1031.367	506.29
1031.656	498.6
1031.945	493.86
1032.233	497.02
1032.522	489.34
1032.81	485.27
1033.099	495.66
1033.387	502.67
1033.675	450.02
1033.963	497.47
1034.251	476.91
1034.54	467.64
1034.828	468.77
1035.116	493.18
1035.403	468.55
1035.691	492.05
1035.979	469
1036.267	478.26
1036.554	481.2
1036.842	468.55
1037.129	454.99
1037.417	466.29
1037.704	483.69
1037.992	453.18
1038.279	471.94
1038.566	459.73
1038.853	459.73
1039.14	459.73
