Data from blue_clamp_base_FLMS001491_00084.txt Node
Date: Wed Feb 08 15:16:38 GMT 2017
User: dcchb
Spectrometer: FLMS00149
Trigger mode: 0
Integration Time (sec): 2.000000E-2
Scans to average: 10
Electric dark correction enabled: true
Nonlinearity correction enabled: false
Boxcar width: 0
XAxis mode: Wavelengths
Number of Pixels in Spectrum: 2048
>>>>>Begin Spectral Data<<<<<
341.393	-3.79
341.776	-3.79
342.16	-3.79
342.543	-41.07
342.927	-46.27
343.31	-74.52
343.693	-64.57
344.077	-80.62
344.46	-48.3
344.843	-40.85
345.226	-33.61
345.61	-7.85
345.993	-10.56
346.376	-8.76
346.759	17.68
347.142	16.33
347.525	33.05
347.908	43.9
348.291	65.82
348.674	85.25
349.057	107.62
349.44	134.52
349.823	149.66
350.206	181.75
350.588	221.07
350.971	212.93
351.354	235.53
351.737	254.06
352.119	263.33
352.502	297.22
352.884	286.38
353.267	283.89
353.65	300.39
354.032	309.65
354.414	332.48
354.797	330.22
355.179	341.29
355.562	326.83
355.944	352.59
356.326	347.39
356.709	353.49
357.091	355.3
357.473	386.71
357.855	351.01
358.238	367.05
358.62	370.89
359.002	346.26
359.384	367.28
359.766	347.84
360.148	356.88
360.53	361.63
360.912	353.04
361.294	358.92
361.676	340.39
362.057	343.78
362.439	343.55
362.821	344.45
363.203	358.69
363.584	351.01
363.966	356.21
364.348	339.93
364.729	360.72
365.111	344.23
365.493	368.18
365.874	329.31
366.256	341.29
366.637	357.34
367.019	374.96
367.4	339.03
367.781	360.27
368.163	335.19
368.544	350.33
368.925	329.99
369.306	336.77
369.688	341.29
370.069	347.39
370.45	345.81
370.831	333.38
371.212	356.88
371.593	361.85
371.974	359.37
372.355	333.83
372.736	340.39
373.117	366.15
373.498	346.71
373.879	351.69
374.26	367.5
374.641	334.51
375.021	356.43
375.402	346.49
375.783	368.18
376.163	370.67
376.544	373.15
376.925	355.53
377.305	353.72
377.686	377.45
378.066	363.66
378.447	375.64
378.827	375.41
379.208	412.25
379.588	391.23
379.968	373.83
380.349	386.94
380.729	388.97
381.109	381.52
381.489	402.08
381.87	387.84
382.25	393.94
382.63	393.94
383.01	399.37
383.39	400.05
383.77	428.97
384.15	410.89
384.53	413.15
384.91	402.98
385.29	422.87
385.67	425.81
386.049	418.58
386.429	421.51
386.809	430.33
387.189	415.86
387.568	424.45
387.948	445.69
388.328	467.84
388.707	449.99
389.087	423.77
389.466	456.32
389.846	456.54
390.225	453.38
390.605	475.07
390.984	459.48
391.363	489.99
391.743	486.37
392.122	479.14
392.501	477.78
392.881	506.48
393.26	500.38
393.639	509.87
394.018	507.39
394.397	512.13
394.776	515.07
395.155	507.39
395.534	516.43
395.913	522.98
396.292	536.77
396.671	571.11
397.05	555.97
397.429	537.44
397.808	550.55
398.186	575.86
398.565	582.64
398.944	559.14
399.323	565.01
399.701	588.74
400.08	576.54
400.458	581.74
400.837	595.07
401.215	609.76
401.594	607.72
401.972	632.13
402.351	616.76
402.729	609.53
403.107	627.84
403.486	666.48
403.864	665.8
404.242	681.62
404.62	680.04
404.999	685.46
405.377	692.69
405.755	692.47
406.133	697.89
406.511	689.98
406.889	708.96
407.267	717.1
407.645	727.04
408.023	727.27
408.401	739.02
408.779	746.48
409.156	776.76
409.534	788.74
409.912	783.31
410.29	808.4
410.667	812.24
411.045	795.74
411.422	822.63
411.8	849.98
412.178	850.66
412.555	880.26
412.933	859.92
413.31	877.32
413.687	909.86
414.065	920.71
414.442	908.06
414.819	915.96
415.197	922.52
415.574	921.61
415.951	972.01
416.328	983.53
416.705	961.84
417.082	972.46
417.46	1008.39
417.837	1032.12
418.214	986.25
418.591	1014.49
418.967	1018.11
419.344	1035.96
419.721	1053.59
420.098	1053.14
420.475	1071.67
420.852	1069.41
421.228	1092.23
421.605	1089.97
421.982	1101.04
422.358	1134.04
422.735	1150.08
423.111	1150.31
423.488	1153.25
423.864	1171.33
424.241	1182.62
424.617	1210.65
424.994	1208.39
425.37	1196.64
425.746	1208.84
426.123	1250.65
426.499	1263.75
426.875	1251.1
427.251	1266.24
427.627	1300.59
428.003	1356.41
428.379	1351.89
428.756	1357.99
429.132	1415.84
429.507	1402.05
429.883	1408.83
430.259	1437.98
430.635	1440.92
431.011	1460.58
431.387	1514.82
431.763	1541.71
432.138	1546
432.514	1558.89
432.89	1571.31
433.265	1642.27
433.641	1626.91
434.016	1603.4
434.392	1642.95
434.767	1701.71
435.143	1695.38
435.518	1687.24
435.894	1728.82
436.269	1748.49
436.644	1801.59
437.02	1814.92
437.395	1799.78
437.77	1834.81
438.145	1871.65
438.52	1888.59
438.895	1910.74
439.271	1936.73
439.646	1952.77
440.021	1978.08
440.395	1967.69
440.77	1949.84
441.145	1968.37
441.52	2020.12
441.895	2038.42
442.27	2059.89
442.645	2065.99
443.019	2108.48
443.394	2083.17
443.769	2138.08
444.143	2127.23
444.518	2150.96
444.892	2168.81
445.267	2230.51
445.641	2230.51
446.016	2225.08
446.39	2224.63
446.764	2207
447.139	2241.13
447.513	2275.48
447.887	2286.78
448.262	2312.09
448.636	2323.16
449.01	2335.81
449.384	2366.1
449.758	2349.15
450.132	2393.44
450.506	2423.5
450.88	2443.38
451.254	2439.54
451.628	2471.86
452.002	2517.96
452.376	2531.97
452.75	2595.47
453.123	2565.64
453.497	2606.09
453.871	2634.79
454.244	2708.69
454.618	2684.96
454.992	2738.74
455.365	2758.4
455.739	2821.23
456.112	2861
456.486	2857.61
456.859	2879.53
457.232	2951.84
457.606	2947.32
457.979	2988.45
458.352	3050.37
458.725	3111.61
459.099	3061.22
459.472	3135.57
459.845	3185.74
460.218	3221.89
460.591	3201.33
460.964	3267.32
461.337	3324.26
461.71	3346.64
462.083	3426.18
462.456	3435.9
462.829	3429.57
463.201	3507.53
463.574	3504.37
463.947	3540.3
464.32	3646.97
464.692	3680.86
465.065	3677.02
465.438	3738.49
465.81	3768.09
466.183	3823.01
466.555	3893.51
466.928	3898.71
467.3	3921.54
467.672	3971.93
468.045	4087.86
468.417	4084.92
468.789	4092.6
469.161	4145.94
469.534	4195.2
469.906	4313.62
470.278	4301.41
470.65	4371.69
471.022	4424.35
471.394	4495.98
471.766	4480.39
472.138	4589.09
472.51	4668.41
472.882	4698.69
473.253	4762.87
473.625	4811.68
473.997	4941.62
474.369	4936.2
474.74	4976.87
475.112	5094.84
475.484	5187.04
475.855	5271.33
476.227	5269.97
476.598	5422.74
476.97	5448.27
477.341	5609.4
477.713	5639.46
478.084	5654.37
478.455	5810.3
478.827	5807.36
479.198	6008.71
479.569	5978.2
479.94	6101.14
480.311	6175.26
480.682	6304.98
481.053	6459.32
481.424	6474.91
481.795	6541.13
482.166	6642.14
482.537	6715.36
482.908	6825.19
483.279	6841.68
483.65	6951.96
484.021	7081.9
484.391	7108.12
484.762	7263.59
485.133	7258.62
485.503	7324.84
485.874	7426.75
486.244	7557.15
486.615	7659.06
486.985	7711.94
487.356	7824.71
487.726	7855.22
488.097	7966.17
488.467	8057.25
488.837	8206.17
489.207	8278.26
489.578	8368.42
489.948	8433.73
490.318	8490.68
490.688	8482.32
491.058	8622.2
491.428	8681.86
491.798	8757.79
492.168	8855.19
492.538	8889.31
492.908	9006.37
493.278	9070.78
493.648	9099.48
494.017	9219.48
494.387	9305.12
494.757	9278
495.126	9389.87
495.496	9398
495.866	9403.88
496.235	9536.08
496.605	9630.09
496.974	9633.25
497.344	9685.23
497.713	9724.09
498.082	9734.49
498.452	9862.17
498.821	9942.17
499.19	9866.69
499.559	9999.57
499.928	10078.44
500.298	10026.46
500.667	10100.36
501.036	10127.47
501.405	10174.03
501.774	10219.67
502.143	10358.2
502.512	10332.89
502.88	10377.86
503.249	10384.64
503.618	10457.18
503.987	10438.65
504.356	10487.92
504.724	10567.01
505.093	10588.25
505.462	10623.73
505.83	10662.6
506.199	10739.44
506.567	10802.03
506.936	10792.54
507.304	10910.96
507.672	10926.1
508.041	10977.39
508.409	10985.08
508.777	11112.31
509.145	11160.89
509.514	11200.21
509.882	11258.29
510.25	11223.72
510.618	11330.83
510.986	11324.73
511.354	11417.16
511.722	11509.58
512.09	11576.25
512.458	11525.18
512.826	11604.95
513.193	11701.67
513.561	11660.31
513.929	11790.03
514.297	11862.34
514.664	11906.64
515.032	11905.28
515.4	12020.53
515.767	12055.33
516.135	12074.54
516.502	11972.85
516.869	12190.7
517.237	12166.29
517.604	12318.15
517.972	12331.71
518.339	12415.32
518.706	12403.12
519.073	12496.68
519.44	12549.11
519.808	12703
520.175	12563.79
520.542	12790.91
520.909	12825.71
521.276	12828.19
521.643	12879.94
522.009	13031.58
522.376	13009.43
522.743	13081.07
523.11	13232.48
523.477	13313.38
523.843	13398.35
524.21	13483.09
524.577	13578
524.943	13558.12
525.31	13667.27
525.676	13780.71
526.043	13841.27
526.409	13852.12
526.776	13919.46
527.142	14031.55
527.508	14035.62
527.874	14171.89
528.241	14208.5
528.607	14192
528.973	14318.32
529.339	14347.48
529.705	14514.7
530.071	14556.06
530.437	14549.05
530.803	14607.36
531.169	14775.26
531.535	14698.43
531.901	14739.33
532.267	14863.39
532.632	14974.13
532.998	15035.14
533.364	15161.24
533.73	15128.25
534.095	15171.18
534.461	15279.88
534.826	15328.24
535.192	15350.84
535.557	15439.42
535.923	15445.98
536.288	15533.21
536.653	15611.17
537.019	15589.93
537.384	15679.64
537.749	15720.1
538.114	15670.38
538.479	15871.05
538.845	15932.07
539.21	15832.18
539.575	15898.4
539.94	15957.83
540.305	16167.99
540.67	16012.97
541.034	16143.36
541.399	16288.67
541.764	16228.56
542.129	16277.82
542.494	16290.7
542.858	16342.23
543.223	16364.37
543.587	16455.89
543.952	16400.98
544.316	16529.34
544.681	16435.1
545.045	16540.64
545.41	16653.86
545.774	16700.86
546.138	16610.47
546.503	16786.51
546.867	16709.9
547.231	16878.03
547.595	16816.34
547.959	16950.8
548.324	17004.13
548.688	16962.77
549.052	17039.16
549.416	17074.18
549.779	17116.67
550.143	17225.82
550.507	17317.12
550.871	17181.53
551.235	17283.67
551.599	17302.65
551.962	17420.84
552.326	17504.91
552.689	17573.15
553.053	17580.84
553.417	17484.34
553.78	17820.83
554.143	17749.65
554.507	17760.49
554.87	17849.3
555.234	17997.55
555.597	17948.74
555.96	17897.66
556.323	18128.17
556.686	18020.15
557.05	18077.32
557.413	18158.9
557.776	18194.38
558.139	18217.66
558.502	18356.64
558.865	18391.44
559.228	18492
559.59	18518.21
559.953	18495.84
560.316	18643.63
560.679	18657.19
561.041	18805.21
561.404	18880.46
561.767	18962.04
562.129	19008.82
562.492	19177.63
562.854	19150.51
563.217	19238.87
563.579	19197.74
563.941	19298.31
564.304	19507.57
564.666	19528.36
565.028	19648.35
565.39	19512.99
565.753	19624.4
566.115	19783.04
566.477	19910.95
566.839	19857.39
567.201	19962.7
567.563	20033.88
567.925	20199.07
568.287	20219.19
568.648	20175.35
569.01	20317.71
569.372	20339.18
569.734	20350.26
570.095	20486.3
570.457	20690.59
570.819	20598.16
571.18	20674.09
571.542	20781.43
571.903	20793.41
572.265	20867.76
572.626	20762.45
572.987	20835.67
573.349	20981.88
573.71	21067.98
574.071	21089.45
574.432	21315.2
574.794	21348.2
575.155	21355.43
575.516	21229.1
575.877	21406.73
576.238	21434.52
576.599	21536.44
576.96	21587.74
577.32	21527.17
577.681	21582.09
578.042	21663.89
578.403	21737.34
578.763	21742.31
579.124	21836.32
579.485	21912.47
579.845	21979.82
580.206	21910.89
580.566	21759.71
580.927	21950.67
581.287	22048.74
581.648	21951.8
582.008	22148.17
582.368	22009.42
582.728	22081.06
583.089	21924
583.449	22046.03
583.809	22125.58
584.169	22147.95
584.529	22166.93
584.889	22288.74
585.249	22246.03
585.609	22123.09
585.969	22225.01
586.329	22313.37
586.688	22290.09
587.048	22232.69
587.408	22140.49
587.768	22339.36
588.127	22250.09
588.487	22208.51
588.846	22386.36
589.206	22284.44
589.565	22210.77
589.925	22312.01
590.284	22338.68
590.643	22387.49
591.003	22365.8
591.362	22472.91
591.721	22417.55
592.08	22461.39
592.44	22428.39
592.799	22425.91
593.158	22421.84
593.517	22429.98
593.876	22565.11
594.235	22400.6
594.593	22477.21
594.952	22536.19
595.311	22418.45
595.67	22518.56
596.029	22684.66
596.387	22645.79
596.746	22608.5
597.104	22673.58
597.463	22605.79
597.822	22606.92
598.18	22603.53
598.538	22659.12
598.897	22815.05
599.255	22515.85
599.613	22885.33
599.972	22681.04
600.33	22752.45
600.688	22678.78
601.046	22703.19
601.404	22864.54
601.762	22754.03
602.12	22872
602.478	23024.99
602.836	22851.21
603.194	22726.24
603.552	22860.92
603.91	22669.29
604.268	22863.41
604.625	22815.95
604.983	22968.49
605.341	22919.68
605.698	22954.93
606.056	22980.92
606.413	22932.56
606.771	23053.46
607.128	23040.58
607.485	22937.76
607.843	22944.54
608.2	23106.34
608.557	23170.75
608.914	23136.85
609.272	23194.25
609.629	23272.66
609.986	23358.09
610.343	23105.66
610.7	23334.81
611.057	23344.08
611.414	23310.4
611.771	23347.24
612.127	23505.43
612.484	23407.35
612.841	23493.9
613.198	23368.93
613.554	23313.79
613.911	23491.87
614.267	23487.8
614.624	23479.44
614.98	23549.95
615.337	23604.41
615.693	23512.43
616.05	23609.83
616.406	23653.67
616.762	23597.63
617.118	23658.19
617.475	23598.53
617.831	23746.78
618.187	23747
618.543	23745.87
618.899	23927.34
619.255	23809.37
619.611	23843.5
619.967	23747.91
620.323	23930.73
620.678	23865.64
621.034	23700.45
621.39	23806.66
621.746	23809.15
622.101	24116.26
622.457	23777.51
622.812	23902.7
623.168	23980.67
623.523	24015.47
623.879	24077.16
624.234	24014.11
624.589	24005.75
624.945	23994.68
625.3	24063.83
625.655	24094.56
626.01	24180.21
626.365	24076.94
626.72	24105.19
627.075	24031.74
627.43	24178.18
627.785	24052.08
628.14	24093.43
628.495	24069.71
628.85	24144.73
629.205	24053.21
629.559	24176.37
629.914	24075.13
630.269	24199.65
630.623	24089.59
630.978	24059.31
631.332	24142.25
631.687	24160.55
632.041	24198.52
632.396	24116.94
632.75	23996.71
633.104	24182.25
633.459	24066.32
633.813	23977.73
634.167	23987
634.521	24055.47
634.875	24125.07
635.229	24034.9
635.583	23927.56
635.937	24046.43
636.291	24027.22
636.645	23938.64
636.999	23939.54
637.352	23960.33
637.706	23750.62
638.06	23967.11
638.413	23892.54
638.767	23902.03
639.121	23888.02
639.474	23883.04
639.828	23794.91
640.181	23985.19
640.534	23966.88
640.888	23889.82
641.241	23846.44
641.594	23797.62
641.947	23990.16
642.301	23921.91
642.654	23985.64
643.007	23880.33
643.36	23977.05
643.713	23857.28
644.066	24042.14
644.419	23807.79
644.771	23637.85
645.124	23488.03
645.477	23485.31
645.83	23313.57
646.182	23253
646.535	23251.2
646.888	23394.02
647.24	23275.6
647.593	23366
647.945	23378.2
648.298	23200.8
648.65	23194.7
649.002	23191.09
649.355	23310.63
649.707	23271.99
650.059	23348.82
650.411	23761.01
650.763	23798.07
651.115	24005.08
651.467	23931.4
651.819	24018.63
652.171	23927.56
652.523	23899.09
652.875	23963.04
653.227	23740.45
653.578	23931.63
653.93	23875.81
654.282	23810.28
654.633	23761.01
654.985	23852.76
655.337	23880.33
655.688	23965.75
656.039	23926.66
656.391	23854.57
656.742	23942.7
657.094	23919.2
657.445	23910.61
657.796	23927.34
658.147	23861.12
658.498	23919.2
658.849	24043.94
659.2	23826.55
659.551	23855.47
659.902	23928.92
660.253	23938.41
660.604	23944.51
660.955	23871.75
661.306	23966.21
661.656	23876.26
662.007	23927.56
662.358	23987.22
662.708	24015.47
663.059	23894.34
663.409	23746.55
663.76	23980.44
664.11	23934.12
664.461	23866.32
664.811	23989.48
665.161	23784.06
665.511	23775.48
665.862	23896.38
666.212	23884.4
666.562	23919.65
666.912	23859.32
667.262	23760.56
667.612	23810.5
667.962	23860.22
668.312	23741.58
668.662	23882.82
669.011	23701.58
669.361	23718.98
669.711	23783.39
670.06	23691.64
670.41	23693.67
670.76	23591.3
671.109	23564.63
671.459	23665.42
671.808	23552.21
672.157	23498.87
672.507	23493.9
672.856	23384.53
673.205	23410.74
673.554	23532.32
673.904	23296.85
674.253	23549.04
674.602	23311.31
674.951	23116.51
675.3	22856.4
675.649	23166.68
675.998	23149.96
676.346	23201.48
676.695	23262.04
677.044	22949.74
677.393	23118.32
677.741	23097.08
678.09	23013.46
678.438	22994.03
678.787	22940.7
679.135	23053.01
679.484	22763.3
679.832	22859.57
680.181	22693.7
680.529	22693.47
680.877	22620.7
681.225	22625.22
681.573	22831.77
681.922	22627.03
682.27	22506.81
682.618	22572.8
682.966	22511.55
683.314	22506.81
683.661	22373.93
684.009	22228.62
684.357	22269.98
684.705	22257.78
685.053	22257.78
685.4	22255.06
685.748	22085.58
686.095	22143.88
686.443	21995.18
686.79	22096.2
687.138	21998.12
687.485	22078.57
687.832	21969.87
688.18	22007.16
688.527	21880.61
688.874	21902.31
689.221	21726.26
689.568	21696.89
689.915	21682.42
690.262	21626.38
690.609	21610.79
690.956	21569.43
691.303	21527.4
691.65	21455.99
691.997	21461.87
692.344	21388.65
692.69	21365.82
693.037	21343
693.383	21239.5
693.73	21116.56
694.077	21125.6
694.423	21165.15
694.769	21065.72
695.116	20962.67
695.462	21039.5
695.808	21002.67
696.155	21051.48
696.501	20889.45
696.847	20912.05
697.193	20830.7
697.539	20816.68
697.885	20650.59
698.231	20677.93
698.577	20723.35
698.923	20590.48
699.269	20586.63
699.614	20507.31
699.96	20388.9
700.306	20503.92
700.651	20291.27
700.997	20403.36
701.342	20248.11
701.688	20274.55
702.033	20090.38
702.379	20197.49
702.724	20181.67
703.069	20134.44
703.415	20037.95
703.76	20055.12
704.105	20016.03
704.45	20053.31
704.795	19885.64
705.14	19834.79
705.485	19818.29
705.83	19704.62
706.175	19702.59
706.52	19720.44
706.865	19647.68
707.209	19618.3
707.554	19704.17
707.899	19687.45
708.243	19546.44
708.588	19594.8
708.932	19425.31
709.277	19465.53
709.621	19533.1
709.966	19335.82
710.31	19456.72
710.654	19265.09
710.998	19366.1
711.342	19474.57
711.687	19314.12
712.031	19209.72
712.375	19109.38
712.719	19193.45
713.063	19191.19
713.407	19285.88
713.75	19193.68
714.094	19213.56
714.438	19075.49
714.782	19152.55
715.125	19012.66
715.469	19071.87
715.812	18922.27
716.156	18846.34
716.499	18969.73
716.843	18965.21
717.186	18842.95
717.53	18859
717.873	18919.33
718.216	18927.24
718.559	18836.4
718.902	18791.88
719.246	18816.74
719.589	18688.6
719.932	18588.27
720.275	18712.11
720.617	18633.46
720.96	18691.99
721.303	18550.08
721.646	18694.25
721.989	18581.71
722.331	18562.96
722.674	18623.75
723.016	18506.46
723.359	18584.43
723.701	18581.04
724.044	18513.69
724.386	18370.42
724.729	18571.77
725.071	18448.16
725.413	18458.33
725.755	18458.33
726.097	18372.23
726.439	18289.97
726.782	18293.81
727.124	18315.28
727.465	18360.7
727.807	18303.76
728.149	18253.81
728.491	18318.22
728.833	18196.19
729.175	18250.88
729.516	18262.85
729.858	18223.76
730.199	18261.5
730.541	18225.11
730.882	18269.86
731.224	18244.55
731.565	18259.69
731.906	18294.72
732.248	18218.79
732.589	18194.15
732.93	18111.22
733.271	18166.13
733.612	18283.19
733.953	18159.58
734.294	18152.12
734.635	18045.91
734.976	18242.29
735.317	18078.45
735.658	18075.74
735.999	18178.34
736.339	18134.49
736.68	18201.16
737.021	18114.38
737.361	18078.45
737.702	18196.64
738.042	18130.65
738.383	18076.19
738.723	18183.08
739.063	18172.23
739.404	18233.48
739.744	18193.7
740.084	18170.65
740.424	18149.86
740.764	18125.68
741.104	18253.36
741.444	18129.98
741.784	18141.27
742.124	18228.5
742.464	18168.84
742.804	18242.51
743.143	18302.63
743.483	18301.04
743.823	18333.36
744.162	18300.14
744.502	18260.82
744.841	18308.05
745.181	18426.46
745.52	18365.9
745.86	18397.54
746.199	18426.01
746.538	18430.98
746.877	18527.25
747.216	18557.76
747.556	18456.52
747.895	18540.36
748.234	18521.15
748.573	18484.32
748.911	18508.27
749.25	18585.78
749.589	18494.26
749.928	18618.1
750.267	18720.69
750.605	18674.14
750.944	18657.65
751.283	18625.78
751.621	18707.81
751.96	18682.73
752.298	18676.4
752.636	18664.88
752.975	18659
753.313	18671.88
753.651	18842.27
753.989	18692.22
754.327	18746.46
754.666	18728.6
755.004	18843.4
755.342	18805.21
755.679	18896.51
756.017	18767.47
756.355	18806.12
756.693	18772.67
757.031	18874.81
757.368	18741.03
757.706	18861.93
758.044	18809.73
758.381	18809.05
758.719	18860.8
759.056	18902.61
759.394	18824.87
759.731	18772.67
760.068	18828.71
760.405	18819.9
760.743	18807.47
761.08	18887.24
761.417	18755.72
761.754	18786.23
762.091	18853.35
762.428	18736.29
762.765	18783.97
763.102	18930.63
763.438	18844.53
763.775	18770.41
764.112	18797.08
764.449	18767.92
764.785	18774.48
765.122	18691.09
765.458	18711.65
765.795	18691.09
766.131	18740.81
766.467	18731.77
766.804	18750.07
767.14	18500.14
767.476	18705.55
767.812	18637.08
768.148	18731.09
768.485	18597.53
768.821	18486.58
769.157	18510.98
769.492	18575.16
769.828	18588.27
770.164	18397.09
770.5	18553.01
770.836	18477.76
771.171	18363.64
771.507	18417.2
771.842	18312.8
772.178	18390.31
772.513	18350.76
772.849	18364.32
773.184	18228.73
773.519	18358.67
773.855	18382.4
774.19	18310.99
774.525	18261.72
774.86	18196.41
775.195	18214.94
775.53	18206.36
775.865	18058.56
776.2	18144.44
776.535	17889.53
776.87	18015.85
777.205	18039.13
777.539	17896.76
777.874	17993.48
778.209	17873.94
778.543	17894.5
778.878	17732.02
779.212	17763.43
779.547	17714.62
779.881	17837.1
780.215	17719.59
780.55	17789.42
780.884	17617.67
781.218	17726.82
781.552	17660.38
781.886	17614.96
782.22	17567.05
782.554	17443.21
782.888	17408.86
783.222	17418.13
783.556	17332.26
783.889	17354.4
784.223	17156.67
784.557	17210.23
784.89	17286.61
785.224	17159.83
785.557	17212.26
785.891	17202.09
786.224	17253.39
786.558	17107.4
786.891	17035.77
787.224	16971.81
787.557	17001.42
787.891	16939.72
788.224	16952.38
788.557	16935.88
788.89	16865.6
789.223	16838.71
789.556	16808.2
789.888	16785.6
790.221	16718.03
790.554	16632.84
790.887	16625.61
791.219	16747.19
791.552	16645.04
791.884	16557.59
792.217	16530.02
792.549	16537.25
792.882	16397.82
793.214	16340.19
793.546	16475.33
793.879	16265.17
794.211	16230.36
794.543	16294.09
794.875	16250.02
795.207	16290.25
795.539	16229.91
795.871	16187.88
796.203	16081.67
796.535	16117.6
796.867	16078.73
797.198	16049.13
797.53	16042.8
797.862	15949.69
798.193	15994.44
798.525	15942.24
798.856	15945.63
799.188	15722.58
799.519	15728.91
799.85	15693.66
800.182	15658.4
800.513	15751.28
800.844	15635.58
801.175	15762.81
801.506	15681.68
801.837	15564.62
802.168	15526.88
802.499	15511.06
802.83	15479.2
803.161	15434.68
803.491	15446.43
803.822	15390.84
804.153	15309.94
804.483	15239.66
804.814	15154.91
805.145	15096.61
805.475	15243.27
805.805	15162.14
806.136	15107.68
806.466	15077.17
806.796	15090.06
807.126	15092.99
807.457	14989.27
807.787	15125.99
808.117	15036.5
808.447	14970.28
808.777	14973
809.107	14915.14
809.436	14897.07
809.766	14899.1
810.096	14776.84
810.426	14718.09
810.755	14842.38
811.085	14806.45
811.414	14663.4
811.744	14620.69
812.073	14574.81
812.403	14581.14
812.732	14550.41
813.061	14528.71
813.39	14412.33
813.719	14492.33
814.049	14495.04
814.378	14451.65
814.707	14311.09
815.036	14356.74
815.365	14293.24
815.693	14208.72
816.022	14234.71
816.351	14198.55
816.68	14097.54
817.008	14180.47
817.337	14070.42
817.665	14074.49
817.994	14007.82
818.322	14086.92
818.651	14033.81
818.979	13917.88
819.307	13986.58
819.636	13906.36
819.964	13898.9
820.292	13988.62
820.62	13969.41
820.948	13956.75
821.276	13975.73
821.604	13811.9
821.932	13840.37
822.259	13877.88
822.587	13880.37
822.915	13881.73
823.243	13931.22
823.57	13959.01
823.898	13870.65
824.225	13876.98
824.553	13886.7
824.88	13914.04
825.207	13945.68
825.535	13879.92
825.862	13909.07
826.189	13890.99
826.516	13920.82
826.843	13931.67
827.17	13983.19
827.497	13911.56
827.824	13920.14
828.151	13999.91
828.478	14016.86
828.805	13935.51
829.131	13933.25
829.458	13892.57
829.785	13772.8
830.111	13912.91
830.438	14044.66
830.764	13930.76
831.09	14004.66
831.417	13899.13
831.743	13977.77
832.069	13936.64
832.395	13883.31
832.722	13920.82
833.048	13872.46
833.374	13864.78
833.7	13882.18
834.026	13813.25
834.351	13758.11
834.677	13841.5
835.003	13863.19
835.329	13857.55
835.654	13826.36
835.98	13816.87
836.306	13857.77
836.631	13795.17
836.956	13789.75
837.282	13769.86
837.607	13707.72
837.932	13656.65
838.258	13671.79
838.583	13730.99
838.908	13617.55
839.233	13606.48
839.558	13679.02
839.883	13544.79
840.208	13526.71
840.533	13608.96
840.858	13602.86
841.182	13566.48
841.507	13577.33
841.832	13423.66
842.156	13495.29
842.481	13422.3
842.805	13449.65
843.13	13371.46
843.454	13394.96
843.778	13302.08
844.103	13267.28
844.427	13208.3
844.751	13247.62
845.075	13211.01
845.399	13219.82
845.723	13189.31
846.047	13098.47
846.371	12990.45
846.695	12950.9
847.019	12921.52
847.343	12861.64
847.666	12826.61
847.99	12770.34
848.313	12731.25
848.637	12673.85
848.96	12686.73
849.284	12652.38
849.607	12496.68
849.931	12526.73
850.254	12364.7
850.577	12420.97
850.9	12328.32
851.223	12344.14
851.546	12228.21
851.869	12260.98
852.192	12280.86
852.515	12044.03
852.838	12000.42
853.161	12074.99
853.483	11970.82
853.806	11996.13
854.129	12006.52
854.451	11853.08
854.774	11849.46
855.096	11768.33
855.419	11756.58
855.741	11733.31
856.063	11685.85
856.385	11710.03
856.708	11670.48
857.03	11550.26
857.352	11538.74
857.674	11559.53
857.996	11476.59
858.318	11408.57
858.64	11365.18
858.961	11364.96
859.283	11325.18
859.605	11301.45
859.926	11312.3
860.248	11258.07
860.57	11287.22
860.891	11265.3
861.212	11229.59
861.534	11170.84
861.855	11162.25
862.176	11147.56
862.498	11119.31
862.819	11048.13
863.14	11115.7
863.461	11094.68
863.782	11008.81
864.103	11057.62
864.424	10974.46
864.745	11028.02
865.065	10928.36
865.386	10936.49
865.707	10949.6
866.027	10970.39
866.348	10887.91
866.668	10887.23
866.989	10886.1
867.309	10747.34
867.63	10849.04
867.95	10797.74
868.27	10729.94
868.59	10786.21
868.91	10686.56
869.23	10755.48
869.55	10600.23
869.87	10762.26
870.19	10687.23
870.51	10652.88
870.83	10611.08
871.15	10583.28
871.469	10607.46
871.789	10603.62
872.109	10604.75
872.428	10538.31
872.748	10608.14
873.067	10523.4
873.386	10585.09
873.706	10494.02
874.025	10470.74
874.344	10413.12
874.663	10468.03
874.982	10379.9
875.301	10364.98
875.62	10358.43
875.939	10343.51
876.258	10316.17
876.577	10264.19
876.896	10328.37
877.214	10275.27
877.533	10337.86
877.852	10336.96
878.17	10289.73
878.489	10276.4
878.807	10233.46
879.125	10196.85
879.444	10233.23
879.762	10222.84
880.08	10235.04
880.398	10146.23
880.716	10150.75
881.034	10055.39
881.352	10187.36
881.67	10012.9
881.988	10021.26
882.306	10016.06
882.624	10014.26
882.941	9948.72
883.259	9943.07
883.577	9856.97
883.894	9941.49
884.212	9888.61
884.529	9906.46
884.846	9867.59
885.164	9816.07
885.481	9785.34
885.798	9798.44
886.115	9736.3
886.432	9738.56
886.75	9700.59
887.067	9648.62
887.383	9625.11
887.7	9661.72
888.017	9596.19
888.334	9634.38
888.651	9572.01
888.967	9549.18
889.284	9468.51
889.6	9541.27
889.917	9421.28
890.233	9457.43
890.55	9381.73
890.866	9353.26
891.182	9318.68
891.498	9305.12
891.815	9313.71
892.131	9294.73
892.447	9268.29
892.763	9191
893.079	9179.93
893.395	9113.94
893.71	9164.56
894.026	9054.06
894.342	9135.41
894.657	9006.6
894.973	9013.38
895.289	9028.52
895.604	9015.41
895.92	8936.09
896.235	8896.32
896.55	8880.05
896.865	8824.46
897.181	8832.37
897.496	8767.96
897.811	8704.46
898.126	8740.84
898.441	8677.34
898.756	8709.43
899.071	8669.43
899.386	8673.27
899.7	8550.79
900.015	8611.58
900.33	8511.47
900.644	8462.66
900.959	8460.4
901.273	8403.45
901.588	8378.59
901.902	8422.66
902.216	8313.96
902.531	8300.86
902.845	8301.99
903.159	8208.65
903.473	8185.15
903.787	8190.35
904.101	8117.36
904.415	8130.69
904.729	8122.33
905.042	8092.5
905.356	8042.33
905.67	8045.72
905.984	8039.85
906.297	7950.36
906.611	7918.72
906.924	7978.38
907.237	7815.67
907.551	7781.32
907.864	7838.04
908.177	7791.72
908.491	7787.65
908.804	7716.46
909.117	7649.35
909.43	7610.48
909.743	7589.69
910.056	7570.7
910.368	7521.89
910.681	7479.41
910.994	7497.03
911.307	7448
911.619	7399.64
911.932	7400.77
912.244	7367.55
912.557	7363.93
912.869	7325.97
913.181	7284.38
913.494	7224.05
913.806	7209.13
914.118	7176.59
914.43	7181.11
914.742	7187.66
915.054	7121
915.366	7115.12
915.678	7031.96
915.99	7055.01
916.302	7023.37
916.613	6977.95
916.925	6924.85
917.236	6951.06
917.548	6890.95
917.859	6914.9
918.171	6824.28
918.482	6791.74
918.794	6754.91
919.105	6749.94
919.416	6678.07
919.727	6658.41
920.038	6668.13
920.349	6620
920.66	6577.51
920.971	6647.11
921.282	6573.22
921.593	6507
921.903	6526.66
922.214	6433.56
922.525	6412.09
922.835	6395.14
923.146	6376.16
923.456	6356.5
923.767	6316.5
924.077	6265.88
924.387	6248.93
924.697	6200.8
925.008	6186.56
925.318	6189.27
925.628	6204.87
925.938	6170.29
926.248	6075.83
926.558	6054.59
926.867	6086.45
927.177	6010.29
927.487	5989.28
927.796	5943.86
928.106	5973.23
928.416	5932.33
928.725	5968.71
929.034	5894.82
929.344	5908.38
929.653	5867.7
929.962	5787.7
930.271	5736.18
930.581	5756.97
930.89	5750.19
931.199	5727.14
931.508	5682.39
931.817	5697.08
932.125	5661.6
932.434	5632.68
932.743	5604.2
933.051	5580.7
933.36	5550.65
933.669	5438.56
933.977	5509.29
934.286	5481.49
934.594	5410.54
934.902	5415.73
935.21	5379.58
935.519	5365.57
935.827	5361.27
936.135	5300.48
936.443	5282.18
936.751	5288.73
937.059	5276.53
937.367	5244.44
937.674	5253.93
937.982	5174.84
938.29	5146.36
938.597	5143.88
938.905	5140.49
939.213	5112.01
939.52	5102.3
939.827	5074.05
940.135	5055.29
940.442	5014.61
940.749	5008.06
941.056	5034.27
941.363	4939.36
941.67	4981.85
941.977	4884.9
942.284	4863.66
942.591	4834.73
942.898	4876.09
943.205	4858.23
943.511	4851.91
943.818	4829.53
944.125	4820.72
944.431	4790.66
944.738	4768.07
945.044	4718.35
945.35	4705.92
945.657	4626.6
945.963	4644.68
946.269	4676.32
946.575	4633.38
946.881	4569.43
947.187	4643.32
947.493	4527.62
947.799	4514.29
948.105	4538.24
948.41	4453.95
948.716	4488.98
949.022	4475.87
949.327	4441.07
949.633	4351.58
949.938	4381.18
950.244	4371.69
950.549	4331.92
950.854	4366.72
951.16	4351.58
951.465	4294.86
951.77	4277.01
952.075	4265.26
952.38	4249.21
952.685	4223.9
952.99	4183
953.294	4177.35
953.599	4173.51
953.904	4112.72
954.209	4154.75
954.513	4142.09
954.818	4132.38
955.122	4077.46
955.426	4024.58
955.731	4070.23
956.035	4025.26
956.339	4032.72
956.643	4002.21
956.948	3980.06
957.252	3938.03
957.556	3954.53
957.86	3933.06
958.163	3911.14
958.467	3900.97
958.771	3910.69
959.075	3824.36
959.378	3863.01
959.682	3841.54
959.985	3782.33
960.289	3781.2
960.592	3766.74
960.896	3733.97
961.199	3737.36
961.502	3730.58
961.805	3722.67
962.108	3719.96
962.411	3660.53
962.714	3654.2
963.017	3636.8
963.32	3643.8
963.623	3642.67
963.926	3624.37
964.228	3577.36
964.531	3611.03
964.833	3551.6
965.136	3533.07
965.438	3534.43
965.741	3489
966.043	3521.09
966.345	3482.22
966.648	3436.12
966.95	3456.46
967.252	3435.9
967.554	3417.59
967.856	3424.83
968.158	3366.97
968.46	3372.4
968.761	3369.01
969.063	3340.76
969.365	3305.28
969.666	3322.23
969.968	3302.34
970.269	3307.09
970.571	3263.7
970.872	3260.76
971.174	3234.55
971.475	3211.95
971.776	3206.53
972.077	3192.74
972.378	3162.46
972.679	3185.51
972.98	3167.43
973.281	3116.13
973.582	3134.21
973.883	3108.68
974.183	3106.64
974.484	3090.82
974.785	3073.87
975.085	3097.15
975.386	3058.51
975.686	3005.4
975.986	3020.99
976.287	3004.27
976.587	2978.28
976.887	3007.66
977.187	2980.77
977.487	2965.18
977.787	2950.04
978.087	2911.62
978.387	2927.21
978.687	2888.12
978.987	2865.52
979.286	2851.05
979.586	2882.01
979.885	2859.19
980.185	2848.8
980.484	2774.9
980.784	2830.04
981.083	2812.86
981.382	2790.72
981.682	2776.25
981.981	2770.61
982.28	2771.96
982.579	2745.75
982.878	2741
983.177	2742.81
983.475	2692.87
983.774	2714.34
984.073	2646.99
984.372	2689.7
984.67	2675.47
984.969	2664.17
985.267	2648.35
985.566	2648.8
985.864	2606.54
986.162	2576.26
986.461	2617.16
986.759	2571.06
987.057	2551.63
987.355	2566.77
987.653	2544.62
987.951	2499.65
988.249	2520.89
988.547	2498.52
988.844	2517.05
989.142	2482.25
989.44	2474.57
989.737	2452.87
990.035	2474.79
990.332	2416.49
990.63	2448.13
990.927	2435.47
991.224	2411.97
991.521	2426.89
991.819	2441.57
992.116	2384.4
992.413	2373.78
992.71	2390.05
993.006	2365.87
993.303	2344.85
993.6	2332.65
993.897	2323.16
994.193	2305.98
994.49	2270.51
994.787	2291.52
995.083	2265.08
995.379	2258.08
995.676	2247.68
995.972	2243.39
996.268	2232.99
996.565	2233.22
996.861	2169.49
997.157	2216.04
997.453	2181.47
997.749	2175.14
998.044	2160.23
998.34	2136.05
998.636	2123.62
998.932	2108.48
999.227	2112.77
999.523	2120.9
999.818	2086.1
1000.114	2091.53
1000.409	2089.04
1000.704	2045.43
1001	2075.48
1001.295	2055.82
1001.59	2028.93
1001.885	2017.18
1002.18	2024.64
1002.475	1991.19
1002.77	1981.93
1003.065	1964.98
1003.359	1989.16
1003.654	1953.9
1003.949	1936.73
1004.243	1948.93
1004.538	1899.67
1004.832	1915.49
1005.127	1900.35
1005.421	1910.06
1005.715	1867.58
1006.009	1847.92
1006.304	1833.68
1006.598	1833.45
1006.892	1836.84
1007.186	1839.78
1007.48	1822.38
1007.773	1824.19
1008.067	1795.26
1008.361	1757.52
1008.655	1773.8
1008.948	1776.28
1009.242	1773.8
1009.535	1767.92
1009.829	1752.78
1010.122	1728.6
1010.415	1751.42
1010.708	1717.3
1011.001	1707.81
1011.295	1721.37
1011.588	1693.57
1011.881	1656.28
1012.173	1679.33
1012.466	1667.58
1012.759	1639.11
1013.052	1666
1013.344	1629.39
1013.637	1601.37
1013.93	1613.57
1014.222	1632.33
1014.514	1584.2
1014.807	1567.02
1015.099	1562.05
1015.391	1555.95
1015.683	1572.67
1015.976	1572.67
1016.268	1528.38
1016.56	1507.14
1016.851	1493.35
1017.143	1512.79
1017.435	1483.18
1017.727	1463.07
1018.018	1492.45
1018.31	1493.58
1018.602	1472.33
1018.893	1451.77
1019.185	1447.02
1019.476	1441.83
1019.767	1437.31
1020.058	1413.35
1020.35	1394.14
1020.641	1406.12
1020.932	1387.36
1021.223	1394.6
1021.514	1363.64
1021.804	1369.96
1022.095	1336.97
1022.386	1340.59
1022.677	1349.85
1022.967	1341.26
1023.258	1323.86
1023.548	1333.35
1023.839	1288.38
1024.129	1319.12
1024.419	1276.63
1024.709	1261.72
1025	1266.92
1025.29	1264.43
1025.58	1256.75
1025.87	1237.99
1026.16	1239.12
1026.449	1253.36
1026.739	1220.36
1027.029	1217.43
1027.319	1193.25
1027.608	1214.26
1027.898	1193.47
1028.187	1166.13
1028.477	1180.59
1028.766	1180.36
1029.055	1175.17
1029.344	1143.98
1029.634	1174.94
1029.923	1139.91
1030.212	1122.51
1030.501	1115.96
1030.79	1129.52
1031.078	1099.91
1031.367	1080.25
1031.656	1095.39
1031.945	1084.55
1032.233	1078.67
1032.522	1066.47
1032.81	1047.26
1033.099	1068.73
1033.387	1038.45
1033.675	1050.65
1033.963	1041.84
1034.251	1045.23
1034.54	1014.95
1034.828	1030.54
1035.116	1013.14
1035.403	995.96
1035.691	969.75
1035.979	1010.43
1036.267	986.02
1036.554	991.67
1036.842	955.96
1037.129	976.08
1037.417	974.27
1037.704	938.11
1037.992	946.92
1038.279	972.91
1038.566	948.28
1038.853	948.28
1039.14	948.28
