Data from blue_clamp_base_FLMS001491_00080.txt Node
Date: Wed Feb 08 15:16:30 GMT 2017
User: dcchb
Spectrometer: FLMS00149
Trigger mode: 0
Integration Time (sec): 2.000000E-2
Scans to average: 10
Electric dark correction enabled: true
Nonlinearity correction enabled: false
Boxcar width: 0
XAxis mode: Wavelengths
Number of Pixels in Spectrum: 2048
>>>>>Begin Spectral Data<<<<<
341.393	0.24
341.776	0.24
342.16	0.24
342.543	-58.74
342.927	-48.8
343.31	-63.71
343.693	-76.82
344.077	-54.22
344.46	-77.95
344.843	-40.44
345.226	-39.08
345.61	-51.51
345.993	-0.44
346.376	-4.73
346.759	14.48
347.142	30.97
347.525	20.13
347.908	56.28
348.291	68.94
348.674	93.8
349.057	124.3
349.44	135.15
349.823	152.1
350.206	160.46
350.588	197.52
350.971	220.35
351.354	233.68
351.737	255.6
352.119	257.18
352.502	279.33
352.884	283.62
353.267	298.54
353.65	299.44
354.032	299.44
354.414	328.37
354.797	338.99
355.179	318.2
355.562	339.67
355.944	323.17
356.326	340.12
356.709	346.67
357.091	358.42
357.473	358.2
357.855	346.9
358.238	346.67
358.62	354.81
359.002	324.53
359.384	352.1
359.766	352.1
360.148	366.78
360.53	350.06
360.912	353.9
361.294	345.32
361.676	350.51
362.057	353.68
362.439	342.15
362.821	335.37
363.203	342.38
363.584	312.55
363.966	335.37
364.348	330.85
364.729	325.2
365.111	338.31
365.493	325.88
365.874	356.61
366.256	338.31
366.637	342.15
367.019	323.85
367.4	330.17
367.781	342.6
368.163	344.86
368.544	325.2
368.925	334.24
369.306	338.99
369.688	329.72
370.069	342.15
370.45	317.07
370.831	332.21
371.212	330.17
371.593	321.36
371.974	317.52
372.355	345.77
372.736	334.24
373.117	334.02
373.498	324.3
373.879	325.88
374.26	337.41
374.641	322.72
375.021	354.81
375.402	317.97
375.783	348.48
376.163	352.1
376.544	341.47
376.925	339.44
377.305	366.78
377.686	361.59
378.066	330.4
378.447	359.55
378.827	341.47
379.208	355.94
379.588	365.88
379.968	367.69
380.349	353.23
380.729	369.04
381.109	359.1
381.489	364.98
381.87	385.31
382.25	375.37
382.63	368.14
383.01	372.21
383.39	383.28
383.77	373.34
384.15	364.75
384.53	389.61
384.91	385.99
385.29	363.39
385.67	388.48
386.049	391.19
386.429	392.77
386.809	421.25
387.189	430.06
387.568	378.54
387.948	385.54
388.328	408.14
388.707	390.06
389.087	415.82
389.466	397.74
389.846	421.25
390.225	437.97
390.605	406.78
390.984	428.03
391.363	419.44
391.743	436.84
392.122	439.55
392.501	453.56
392.881	445.65
393.26	449.27
393.639	438.87
394.018	432.77
394.397	462.6
394.776	451.53
395.155	468.02
395.534	456.05
395.913	460.79
396.292	478.65
396.671	488.81
397.05	491.53
397.429	475.93
397.808	463.73
398.186	484.97
398.565	494.46
398.944	504.86
399.323	489.94
399.701	513.45
400.08	506.44
400.458	520.45
400.837	503.28
401.215	537.18
401.594	536.27
401.972	520.9
402.351	551.64
402.729	532.66
403.107	530.62
403.486	550.96
403.864	584.63
404.242	570.62
404.62	581.02
404.999	586.89
405.377	604.74
405.755	592.09
406.133	608.13
406.511	613.11
406.889	622.82
407.267	637.74
407.645	656.72
408.023	636.38
408.401	660.56
408.779	682.71
409.156	661.01
409.534	666.21
409.912	682.03
410.29	696.94
410.667	710.05
411.045	701.92
411.422	712.54
411.8	717.96
412.178	725.42
412.555	744.18
412.933	760.9
413.31	740.33
413.687	788.02
414.065	755.47
414.442	765.64
414.819	783.95
415.197	789.6
415.574	807.9
415.951	792.08
416.328	820.78
416.705	849.03
417.082	835.47
417.46	844.51
417.837	863.04
418.214	833.21
418.591	869.82
418.967	868.24
419.344	851.97
419.721	915.92
420.098	874.34
420.475	896.26
420.852	885.41
421.228	928.35
421.605	935.58
421.982	935.58
422.358	934.68
422.735	945.98
423.111	950.95
423.488	984.62
423.864	978.75
424.241	990.27
424.617	1004.28
424.994	1012.42
425.37	1019.65
425.746	963.38
426.123	1028.69
426.499	1018.29
426.875	1045.86
427.251	1068.23
427.627	1076.37
428.003	1106.43
428.379	1112.08
428.756	1105.52
429.132	1135.58
429.507	1153.2
429.883	1180.1
430.259	1165.18
430.635	1214.45
431.011	1218.97
431.387	1205.41
431.763	1253.54
432.138	1264.39
432.514	1292.64
432.89	1268
433.265	1295.12
433.641	1332.86
434.016	1338.51
434.392	1358.62
434.767	1383.48
435.143	1372.86
435.518	1401.79
435.894	1406.76
436.269	1439.07
436.644	1451.73
437.02	1454.67
437.395	1457.83
437.77	1491.5
438.145	1467.09
438.52	1508.45
438.895	1538.73
439.271	1550.71
439.646	1576.02
440.021	1616.02
440.395	1608.33
440.77	1608.56
441.145	1627.99
441.52	1675
441.895	1662.34
442.27	1656.02
442.645	1680.65
443.019	1697.6
443.394	1697.14
443.769	1688.78
444.143	1728.1
444.518	1762.91
444.892	1746.63
445.267	1785.28
445.641	1788.67
446.016	1797.93
446.39	1845.62
446.764	1803.36
447.139	1819.85
447.513	1819.18
447.887	1836.58
448.262	1873.86
448.636	1879.51
449.01	1907.76
449.384	1929.68
449.758	1923.81
450.132	1940.3
450.506	1971.04
450.88	1991.6
451.254	1982.33
451.628	2003.13
452.002	2055.1
452.376	2033.18
452.75	2072.5
453.123	2146.4
453.497	2113.63
453.871	2144.59
454.244	2175.55
454.618	2177.36
454.992	2223.01
455.365	2227.53
455.739	2258.26
456.112	2296.22
456.486	2318.37
456.859	2303.91
457.232	2342.33
457.606	2380.74
457.979	2414.87
458.352	2417.13
458.725	2440.4
459.099	2499.38
459.472	2526.95
459.845	2530.57
460.218	2560.17
460.591	2571.02
460.964	2588.65
461.337	2635.43
461.71	2637.23
462.083	2684.01
462.456	2714.75
462.829	2704.58
463.201	2743.67
463.574	2784.12
463.947	2788.19
464.32	2854.18
464.692	2897.11
465.065	2913.84
465.438	2937.79
465.81	2972.14
466.183	3009.88
466.555	3064.57
466.928	3076.54
467.3	3045.36
467.672	3112.25
468.045	3190.66
468.417	3204.68
468.789	3211
469.161	3248.06
469.534	3345.69
469.906	3364.22
470.278	3359.47
470.65	3380.04
471.022	3423.65
471.394	3557.43
471.766	3532.35
472.138	3582.74
472.51	3663.42
472.882	3710.2
473.253	3708.39
473.625	3763.08
473.997	3821.38
474.369	3868.61
474.74	3860.48
475.112	3937.54
475.484	4010.53
475.855	4048.04
476.227	4069.29
476.598	4163.75
476.97	4185.89
477.341	4249.39
477.713	4361.03
478.084	4351.09
478.455	4415.49
478.827	4496.62
479.198	4585.88
479.569	4569.84
479.94	4646.67
480.311	4714.01
480.682	4847.57
481.053	4874.24
481.424	4958.98
481.795	4984.06
482.166	5037.62
482.537	5108.81
482.908	5224.51
483.279	5191.29
483.65	5284.39
484.021	5387.44
484.391	5418.85
484.762	5438.06
485.133	5422.7
485.503	5547.66
485.874	5574.33
486.244	5613.2
486.615	5709.02
486.985	5740.43
487.356	5850.03
487.726	5918.73
488.097	5996.69
488.467	5966.18
488.837	6104.49
489.207	6146.52
489.578	6219.96
489.948	6233.07
490.318	6293.41
490.688	6295.22
491.058	6382.22
491.428	6451.82
491.798	6469.22
492.168	6508.54
492.538	6556
492.908	6645.72
493.278	6679.61
493.648	6691.82
494.017	6727.29
494.387	6724.13
494.757	6787.63
495.126	6823.56
495.496	6873.51
495.866	6897.01
496.235	6947.63
496.605	7033.05
496.974	6903.79
497.344	7024.69
497.713	7050.9
498.082	7078.92
498.452	7103.56
498.821	7107.85
499.19	7132.03
499.559	7187.85
499.928	7241.86
500.298	7177.9
500.667	7325.7
501.036	7334.28
501.405	7346.49
501.774	7313.49
502.143	7371.35
502.512	7385.81
502.88	7412.7
503.249	7377
503.618	7433.72
503.987	7463.77
504.356	7434.62
504.724	7493.6
505.093	7551.91
505.462	7537.22
505.83	7540.38
506.199	7628.97
506.567	7687.27
506.936	7647.72
507.304	7698.12
507.672	7745.57
508.041	7788.06
508.409	7772.24
508.777	7830.32
509.145	7920.94
509.514	7926.59
509.882	7960.48
510.25	7981.27
510.618	7991.67
510.986	7916.42
511.354	8055.62
511.722	8040.93
512.09	8048.62
512.458	8079.12
512.826	8200.25
513.193	8193.7
513.561	8185.56
513.929	8217.88
514.297	8279.34
514.664	8322.06
515.032	8297.42
515.4	8360.92
515.767	8344.2
516.135	8358.89
516.502	8239.35
516.869	8432.11
517.237	8444.54
517.604	8433.46
517.972	8521.82
518.339	8520.24
518.706	8520.47
519.073	8562.73
519.44	8566.34
519.808	8636.62
520.175	8670.75
520.542	8718.88
520.909	8743.51
521.276	8734.7
521.643	8780.12
522.009	8844.98
522.376	8900.8
522.743	8824.64
523.11	8946.22
523.477	9039.1
523.843	9065.54
524.21	9013.11
524.577	9159.1
524.943	9178.3
525.31	9200.9
525.676	9277.28
526.043	9295.36
526.409	9319.77
526.776	9432.31
527.142	9492.42
527.508	9461.01
527.874	9523.38
528.241	9529.71
528.607	9589.59
528.973	9638.4
529.339	9679.53
529.705	9661
530.071	9801.11
530.437	9807.44
530.803	9891.96
531.169	9891.28
531.535	9917.49
531.901	9877.27
532.267	10006.98
532.632	10020.77
532.998	10034.78
533.364	10124.27
533.73	10090.37
534.095	10152.52
534.461	10147.09
534.826	10191.38
535.192	10248.33
535.557	10298.27
535.923	10300.08
536.288	10312.74
536.653	10449.23
537.019	10359.74
537.384	10373.3
537.749	10437.25
538.114	10538.04
538.479	10500.08
538.845	10507.31
539.21	10533.3
539.575	10514.77
539.94	10566.29
540.305	10618.04
540.67	10598.38
541.034	10672.95
541.399	10772.39
541.764	10763.57
542.129	10827.07
542.494	10748.43
542.858	10777.81
543.223	10793.4
543.587	10860.07
543.952	10900.74
544.316	10904.81
544.681	10962.44
545.045	11024.81
545.41	10961.53
545.774	11010.57
546.138	11084.69
546.503	11049.44
546.867	11096.67
547.231	11180.96
547.595	11185.48
547.959	11255.99
548.324	11209.89
548.688	11310.9
549.052	11217.8
549.416	11277.68
549.779	11317
550.143	11379.6
550.507	11362.88
550.871	11449.43
551.235	11392.48
551.599	11535.08
551.962	11526.94
552.326	11486.94
552.689	11590.44
553.053	11516.32
553.417	11574.17
553.78	11707.05
554.143	11651.01
554.507	11699.82
554.87	11780.72
555.234	11889.87
555.597	11793.15
555.96	11792.92
556.323	11873.6
556.686	11886.03
557.05	11947.04
557.413	11988.4
557.776	11989.98
558.139	12046.7
558.502	12081.28
558.865	12034.95
559.228	12108.85
559.59	12112.24
559.953	12165.34
560.316	12291.67
560.679	12287.37
561.041	12444.66
561.404	12393.81
561.767	12474.26
562.129	12459.8
562.492	12587.25
562.854	12530.76
563.217	12534.6
563.579	12638.1
563.941	12677.19
564.304	12741.37
564.666	12821.6
565.028	12836.29
565.39	12851.65
565.753	12914.48
566.115	12958.09
566.477	12999.67
566.839	12941.82
567.201	13147.47
567.563	13104.53
567.925	13195.83
568.287	13359.44
568.648	13335.03
569.01	13315.82
569.372	13442.82
569.734	13335.03
570.095	13492.77
570.457	13526.89
570.819	13546.32
571.18	13531.18
571.542	13705.19
571.903	13575.7
572.265	13753.1
572.626	13683.72
572.987	13719.43
573.349	13789.48
573.71	13909.48
574.071	13934.79
574.432	14042.81
574.794	14091.62
575.155	14084.16
575.516	14048.01
575.877	14081
576.238	14140.21
576.599	14260.88
576.96	14231.73
577.32	14218.17
577.681	14282.12
578.042	14369.13
578.403	14362.57
578.763	14391.73
579.124	14394.21
579.485	14470.37
579.845	14566.41
580.206	14473.76
580.566	14390.37
580.927	14577.71
581.287	14598.73
581.648	14505.62
582.008	14654.77
582.368	14546.75
582.728	14599.4
583.089	14646.18
583.449	14564.83
583.809	14674.66
584.169	14666.75
584.529	14694.32
584.889	14717.14
585.249	14680.08
585.609	14592.17
585.969	14720.08
586.329	14704.94
586.688	14700.42
587.048	14752.85
587.408	14767.31
587.768	14834.65
588.127	14739.51
588.487	14686.63
588.846	14813.64
589.206	14823.81
589.565	14767.99
589.925	14857.7
590.284	14898.61
590.643	14867.65
591.003	14951.03
591.362	14917.14
591.721	14897.02
592.08	14951.26
592.44	14939.51
592.799	15002.11
593.158	15011.37
593.517	15016.12
593.876	14983.8
594.235	14976.8
594.593	14957.59
594.952	14985.16
595.311	15018.38
595.67	14999.39
596.029	15110.8
596.387	15114.87
596.746	15167.75
597.104	15092.27
597.463	15083.01
597.822	15138.83
598.18	15144.7
598.538	15029.9
598.897	15135.21
599.255	15104.25
599.613	15210.46
599.972	15182.67
600.33	15213.85
600.688	15187.64
601.046	15222.66
601.404	15238.26
601.762	15250.91
602.12	15359.84
602.478	15369.33
602.836	15290.46
603.194	15225.83
603.552	15316
603.91	15293.17
604.268	15352.15
604.625	15246.39
604.983	15308.54
605.341	15236
605.698	15401.64
606.056	15403.9
606.413	15375.2
606.771	15475.77
607.128	15437.57
607.485	15377.91
607.843	15381.3
608.2	15491.81
608.557	15495.88
608.914	15425.37
609.272	15481.64
609.629	15483.45
609.986	15604.35
610.343	15556.67
610.7	15627.85
611.057	15670.34
611.414	15602.77
611.771	15691.35
612.127	15786.94
612.484	15752.82
612.841	15845.93
613.198	15770.9
613.554	15786.49
613.911	15830.56
614.267	15806.6
614.624	15784.46
614.98	15770.67
615.337	15840.95
615.693	15825.59
616.05	15851.35
616.406	15943.1
616.762	15912.59
617.118	15849.77
617.475	15874.62
617.831	15917.79
618.187	15991.91
618.543	16077.11
618.899	16090.44
619.255	16039.37
619.611	16032.36
619.967	16198.01
620.323	16154.62
620.678	16095.41
621.034	16103.32
621.39	16133.15
621.746	16060.61
622.101	16245.91
622.457	16186.48
622.812	16218.57
623.168	16299.25
623.523	16334.5
623.879	16319.81
624.234	16152.81
624.589	16304.44
624.945	16267.38
625.3	16371.79
625.655	16349.19
626.01	16366.82
626.365	16324.56
626.72	16334.05
627.075	16284.33
627.43	16344.9
627.785	16376.98
628.14	16310.55
628.495	16395.74
628.85	16390.32
629.205	16330.21
629.559	16400.03
629.914	16431.9
630.269	16389.19
630.623	16367.27
630.978	16425.8
631.332	16461.28
631.687	16577.66
632.041	16388.28
632.396	16509.64
632.75	16405.01
633.104	16478.9
633.459	16486.81
633.813	16528.39
634.167	16503.76
634.521	16520.94
634.875	16567.94
635.229	16557.77
635.583	16491.33
635.937	16482.29
636.291	16496.98
636.645	16543.08
636.999	16467.15
637.352	16678.22
637.706	16513.93
638.06	16528.17
638.413	16608.62
638.767	16591.44
639.121	16629.86
639.474	16509.64
639.828	16548.28
640.181	16691.55
640.534	16551.44
640.888	16600.93
641.241	16492.01
641.594	16569.97
641.947	16704.66
642.301	16625.79
642.654	16609.52
643.007	16720.25
643.36	16641.61
643.713	16659.24
644.066	16805.22
644.419	16675.51
644.771	16526.36
645.124	16293.82
645.477	16358.68
645.83	16303.31
646.182	16243.2
646.535	16326.14
646.888	16460.15
647.24	16393.71
647.593	16506.92
647.945	16482.52
648.298	16341.05
648.65	16351.45
649.002	16298.12
649.355	16465.12
649.707	16403.42
650.059	16437.55
650.411	16594.61
650.763	16627.15
651.115	16867.37
651.467	16900.81
651.819	16833.47
652.171	16909.85
652.523	16840.7
652.875	16918.67
653.227	16824.88
653.578	17001.83
653.93	16932.9
654.282	16917.08
654.633	16870.08
654.985	17012.45
655.337	16935.16
655.688	17031.2
656.039	17141.94
656.391	16944.2
656.742	16993.92
657.094	16965.67
657.445	17041.37
657.796	17120.24
658.147	16982.39
658.498	17049.51
658.849	17114.14
659.2	17059.68
659.551	17016.29
659.902	17187.36
660.253	17099.23
660.604	17113.01
660.955	17037.31
661.306	17170.86
661.656	17113.46
662.007	17140.81
662.358	17098.55
662.708	17166.57
663.059	17069.4
663.409	16978.32
663.76	17172.67
664.11	17077.98
664.461	17156.85
664.811	17151.2
665.161	17096.51
665.511	17118.89
665.862	17124.99
666.212	17096.97
666.562	17099.9
666.912	17117.76
667.262	17022.62
667.612	17109.62
667.962	17119.79
668.312	16995.27
668.662	17099.68
669.011	17048.83
669.361	17013.8
669.711	17012
670.06	16912.11
670.41	16900.13
670.76	16876.41
671.109	16976.29
671.459	16938.1
671.808	16944.2
672.157	16987.14
672.507	16803.41
672.856	16839.35
673.205	16812.68
673.554	16837.54
673.904	16739.46
674.253	16774.71
674.602	16768.84
674.951	16509.18
675.3	16431.9
675.649	16722.96
675.998	16559.8
676.346	16626.47
676.695	16676.64
677.044	16468.73
677.393	16523.42
677.741	16533.14
678.09	16470.32
678.438	16400.49
678.787	16434.84
679.135	16395.97
679.484	16303.31
679.832	16382.41
680.181	16281.17
680.529	16263.09
680.877	16318.68
681.225	16186.93
681.573	16304.22
681.922	16119.36
682.27	16168.63
682.618	16176.99
682.966	16008.41
683.314	16104.22
683.661	16085.47
684.009	16004.34
684.357	15962.31
684.705	15934.28
685.053	15924.57
685.4	15940.16
685.748	15850.67
686.095	15852.25
686.443	15780.16
686.79	15745.81
687.138	15753.27
687.485	15779.03
687.832	15678.7
688.18	15615.42
688.527	15610.45
688.874	15540.17
689.221	15604.58
689.568	15487.52
689.915	15481.87
690.262	15506.73
690.609	15407.74
690.956	15374.75
691.303	15522.09
691.65	15389.89
691.997	15467.63
692.344	15266.73
692.69	15324.58
693.037	15252.49
693.383	15225.83
693.73	15318.03
694.077	15146.28
694.423	15167.52
694.769	15139.5
695.116	15113.52
695.462	15153.29
695.808	15040.07
696.155	15205.94
696.501	15029.45
696.847	15074.42
697.193	14945.61
697.539	14927.98
697.885	14837.82
698.231	14862.67
698.577	14847.99
698.923	14883.24
699.269	14785.39
699.614	14746.07
699.96	14759.85
700.306	14685.5
700.651	14692.96
700.997	14690.93
701.342	14686.41
701.688	14695.22
702.033	14620.19
702.379	14594.43
702.724	14672.4
703.069	14657.93
703.415	14535.68
703.76	14535
704.105	14551.95
704.45	14568.67
704.795	14452.97
705.14	14450.48
705.485	14438.28
705.83	14376.36
706.175	14383.36
706.52	14408.45
706.865	14294.33
707.209	14382.23
707.554	14292.52
707.899	14351.73
708.243	14335.23
708.588	14210.04
708.932	14120.77
709.277	14164.16
709.621	14247.1
709.966	14163.03
710.31	14275.12
710.654	14097.95
710.998	14143.37
711.342	14089.59
711.687	14130.49
712.031	14044.39
712.375	14056.37
712.719	14068.57
713.063	14076.71
713.407	14202.8
713.75	14100.66
714.094	14071.96
714.438	13951.96
714.782	14075.8
715.125	13972.3
715.469	14073.77
715.812	13942.7
716.156	13959.65
716.499	13965.75
716.843	13973.21
717.186	13881.23
717.53	13986.31
717.873	13964.62
718.216	13922.36
718.559	13928.46
718.902	13854.79
719.246	13834.68
719.589	13828.35
719.932	13819.99
720.275	13802.59
720.617	13768.92
720.96	13730.73
721.303	13826.54
721.646	13774.79
721.989	13737.05
722.331	13803.49
722.674	13780.22
723.016	13729.14
723.359	13671.29
723.701	13805.75
724.044	13710.39
724.386	13617.06
724.729	13767.11
725.071	13644.63
725.413	13689.6
725.755	13677.39
726.097	13626.77
726.439	13568.92
726.782	13664.74
727.124	13711.07
727.465	13624.97
727.807	13635.36
728.149	13624.74
728.491	13695.7
728.833	13614.57
729.175	13597.85
729.516	13682.37
729.858	13588.81
730.199	13604.18
730.541	13598.07
730.882	13670.84
731.224	13611.18
731.565	13573.22
731.906	13558.08
732.248	13692.54
732.589	13607.57
732.93	13523.05
733.271	13615.7
733.612	13607.11
733.953	13686.89
734.294	13600.11
734.635	13584.52
734.976	13712.65
735.317	13595.14
735.658	13605.53
735.999	13662.71
736.339	13654.8
736.68	13662.71
737.021	13722.82
737.361	13652.99
737.702	13803.49
738.042	13716.49
738.383	13755.36
738.723	13842.59
739.063	13744.29
739.404	13807.33
739.744	13786.77
740.084	13737.51
740.424	13882.81
740.764	13866.77
741.104	13922.81
741.444	13815.02
741.784	13812.31
742.124	13952.64
742.464	13883.49
742.804	13966.2
743.143	13839.88
743.483	13992.64
743.823	13948.57
744.162	13964.62
744.502	14032.64
744.841	14012.75
745.181	14029.25
745.52	14075.12
745.86	14164.84
746.199	14134.56
746.538	14152.18
746.877	14194.9
747.216	14103.82
747.556	14293.88
747.895	14297.49
748.234	14259.98
748.573	14281.22
748.911	14291.16
749.25	14433.31
749.589	14296.59
749.928	14487.09
750.267	14495.23
750.605	14407.54
750.944	14448.67
751.283	14461.55
751.621	14568.67
751.96	14406.19
752.298	14457.94
752.636	14487.77
752.975	14532.51
753.313	14465.4
753.651	14513.98
753.989	14578.39
754.327	14615.45
754.666	14608.44
755.004	14690.48
755.342	14704.26
755.679	14637.14
756.017	14716.92
756.355	14769.34
756.693	14701.32
757.031	14773.41
757.368	14734.77
757.706	14765.28
758.044	14881.66
758.381	14818.61
758.719	14854.09
759.056	14716.24
759.394	14814.09
759.731	14792.85
760.068	14840.3
760.405	14818.83
760.743	14849.12
761.08	14957.81
761.417	14883.46
761.754	14886.4
762.091	14937.93
762.428	14920.75
762.765	14900.19
763.102	15001.88
763.438	14926.85
763.775	14850.7
764.112	14928.44
764.449	15001.65
764.785	14938.6
765.122	14905.16
765.458	14893.41
765.795	14991.03
766.131	15036.68
766.467	14987.19
766.804	14912.62
767.14	14860.87
767.476	14944.48
767.812	14869.45
768.148	14942.67
768.485	14853.86
768.821	14880.53
769.157	14909.68
769.492	14900.87
769.828	14893.41
770.164	14826.97
770.5	14881.2
770.836	14892.05
771.171	14839.17
771.507	14892.05
771.842	14822
772.178	14863.58
772.513	14797.59
772.849	14836.01
773.184	14730.02
773.519	14859.74
773.855	14792.17
774.19	14744.71
774.525	14783.81
774.86	14786.74
775.195	14775.44
775.53	14763.02
775.865	14660.19
776.2	14661.1
776.535	14624.71
776.87	14635.11
777.205	14640.31
777.539	14538.84
777.874	14717.59
778.209	14531.16
778.543	14638.27
778.878	14544.26
779.212	14498.62
779.547	14493.19
779.881	14606.64
780.215	14501.33
780.55	14598.73
780.884	14429.24
781.218	14435.79
781.552	14390.82
781.886	14488.67
782.22	14373.42
782.554	14368.9
782.888	14296.14
783.222	14339.07
783.556	14294.33
783.889	14277.6
784.223	14251.62
784.557	14267.21
784.89	14318.28
785.224	14142.69
785.557	14229.92
785.891	14194.44
786.224	14128.68
786.558	14202.58
786.891	14054.33
787.224	14068.8
787.557	14022.7
787.891	14023.83
788.224	14073.09
788.557	14107.21
788.89	13966.65
789.223	14033.32
789.556	13921.91
789.888	13872.42
790.221	13920.1
790.554	13821.57
790.887	13855.02
791.219	13813.44
791.552	13761.23
791.884	13667
792.217	13754.68
792.549	13753.32
792.882	13677.62
793.214	13727.56
793.546	13734.79
793.879	13639.66
794.211	13563.95
794.543	13680.33
794.875	13583.84
795.207	13669.49
795.539	13525.76
795.871	13581.58
796.203	13496.83
796.535	13507.46
796.867	13463.16
797.198	13469.26
797.53	13392.88
797.862	13325.77
798.193	13459.77
798.525	13314.92
798.856	13323.28
799.188	13230.4
799.519	13215.94
799.85	13152.89
800.182	13247.35
800.513	13187.01
800.844	13201.02
801.175	13164.41
801.506	13225.43
801.837	13171.42
802.168	13111.76
802.499	13071.99
802.83	12992.67
803.161	13062.27
803.491	13009.39
803.822	13010.52
804.153	13003.51
804.483	12955.15
804.814	12808.04
805.145	12941.59
805.475	12896.4
805.805	12864.99
806.136	12815.27
806.466	12787.7
806.796	12835.38
807.126	12695.73
807.457	12731.66
807.787	12760.36
808.117	12763.75
808.447	12620.47
808.777	12621.15
809.107	12573.92
809.436	12646.24
809.766	12614.15
810.096	12590.19
810.426	12570.76
810.755	12555.84
811.085	12597.42
811.414	12513.13
811.744	12509.97
812.073	12500.02
812.403	12412.34
812.732	12354.04
813.061	12367.15
813.39	12274.72
813.719	12302.29
814.049	12441.95
814.378	12277.88
814.707	12327.83
815.036	12228.85
815.365	12286.47
815.693	12108.17
816.022	12115.4
816.351	12178.68
816.68	12073.37
817.008	12073.59
817.337	12013.71
817.665	12051.67
817.994	12048.06
818.322	12064.78
818.651	11956.99
818.979	11918.12
819.307	12065.46
819.636	11995.18
819.964	11868.63
820.292	11972.58
820.62	11919.02
820.948	11966.93
821.276	11967.38
821.604	11880.38
821.932	11956.08
822.259	11966.93
822.587	11941.85
822.915	11908.4
823.243	11916.99
823.57	11893.26
823.898	11941.85
824.225	11867.05
824.553	11930.1
824.88	11953.15
825.207	11954.28
825.535	11950.89
825.862	11938.91
826.189	11939.81
826.516	11985.01
826.843	11956.99
827.17	11984.11
827.497	12004.9
827.824	11983.65
828.151	12008.06
828.478	11976.87
828.805	12045.12
829.131	11988.85
829.458	12024.56
829.785	11922.86
830.111	11990.89
830.438	11988.63
830.764	11995.4
831.09	12056.65
831.417	11890.1
831.743	11979.13
832.069	12023.65
832.395	11949.53
832.722	11991.11
833.048	11919.02
833.374	11953.6
833.7	11882.41
834.026	11866.37
834.351	12040.38
834.677	11913.37
835.003	12016.87
835.329	12013.26
835.654	11948.17
835.98	11896.65
836.306	11974.61
836.631	11842.19
836.956	12001.28
837.282	11999.92
837.607	11892.36
837.932	11901.85
838.258	11858.01
838.583	11786.82
838.908	11766.48
839.233	11801.29
839.558	11761.29
839.883	11759.48
840.208	11698.46
840.533	11718.58
840.858	11693.49
841.182	11719.71
841.507	11690.1
841.832	11714.28
842.156	11660.27
842.481	11654.85
842.805	11583.44
843.13	11558.58
843.454	11554.74
843.778	11507.73
844.103	11559.26
844.427	11430.67
844.751	11510.22
845.075	11498.47
845.399	11380.05
845.723	11357.68
846.047	11379.38
846.371	11242.88
846.695	11281.3
847.019	11263.22
847.343	11215.31
847.666	11067.97
847.99	11043.79
848.313	11066.39
848.637	11018.93
848.96	11027.07
849.284	10904.81
849.607	10889.22
849.931	10858.71
850.254	10821.88
850.577	10775.55
850.9	10699.17
851.223	10709.11
851.546	10597.02
851.869	10602.45
852.192	10614.65
852.515	10563.35
852.838	10491.26
853.161	10498.04
853.483	10441.55
853.806	10390.25
854.129	10395.67
854.451	10343.24
854.774	10257.37
855.096	10288.78
855.419	10292.85
855.741	10212.85
856.063	10198.62
856.385	10137.37
856.708	10115.91
857.03	10060.09
857.352	10140.54
857.674	10123.36
857.996	10050.37
858.318	9919.53
858.64	9949.13
858.961	9870.94
859.283	9883.6
859.605	9846.31
859.926	9833.43
860.248	9795.91
860.57	9741
860.891	9829.59
861.212	9738.74
861.534	9790.72
861.855	9743.94
862.176	9787.55
862.498	9725.63
862.819	9740.1
863.14	9766.76
863.461	9625.98
863.782	9672.3
864.103	9606.32
864.424	9616.03
864.745	9649.25
865.065	9556.15
865.386	9529.71
865.707	9557.5
866.027	9588.91
866.348	9561.12
866.668	9534.9
866.989	9490.39
867.309	9431.18
867.63	9437.51
867.95	9442.25
868.27	9464.4
868.59	9418.07
868.91	9340.56
869.23	9396.83
869.55	9321.8
869.87	9362.71
870.19	9352.08
870.51	9355.93
870.83	9388.69
871.15	9282.93
871.469	9345.76
871.789	9305.08
872.109	9250.84
872.428	9140.11
872.748	9214.24
873.067	9206.78
873.386	9296.72
873.706	9175.37
874.025	9236.38
874.344	9104.18
874.663	9226.21
874.982	9167.46
875.301	9164.74
875.62	9072.77
875.939	9059.66
876.258	9118.64
876.577	9024.86
876.896	9004.52
877.214	9015.82
877.533	9009.27
877.852	9042.26
878.17	9021.25
878.489	9033.22
878.807	9017.63
879.125	8955.26
879.444	8929.5
879.762	8905.99
880.08	8941.93
880.398	8871.87
880.716	8929.95
881.034	8861.02
881.352	8874.36
881.67	8776.51
881.988	8790.07
882.306	8769.95
882.624	8745.32
882.941	8699.22
883.259	8787.13
883.577	8702.16
883.894	8689.05
884.212	8651.31
884.529	8670.29
884.846	8616.06
885.164	8575.16
885.481	8603.63
885.798	8607.02
886.115	8551.2
886.432	8542.84
886.75	8571.54
887.067	8543.74
887.383	8421.71
887.7	8515.95
888.017	8435.95
888.334	8411.77
888.651	8438.89
888.967	8421.94
889.284	8367.7
889.6	8355.05
889.917	8350.53
890.233	8335.16
890.55	8286.58
890.866	8342.62
891.182	8317.76
891.498	8248.16
891.815	8245
892.131	8200.7
892.447	8191.21
892.763	8142.62
893.079	8106.02
893.395	8072.8
893.71	8106.24
894.026	8045.23
894.342	7996.64
894.657	8027.83
894.973	7967.49
895.289	7998.9
895.604	7923.65
895.92	7813.14
896.235	7818.34
896.55	7845.46
896.865	7798.68
897.181	7769.3
897.496	7751.45
897.811	7727.04
898.126	7700.83
898.441	7664.9
898.756	7677.1
899.071	7565.01
899.386	7587.61
899.7	7499.7
900.015	7546.71
900.33	7502.64
900.644	7455.86
900.959	7492.92
901.273	7417.9
901.588	7424.23
901.902	7398.69
902.216	7386.49
902.531	7275.53
902.845	7327.51
903.159	7246.15
903.473	7254.51
903.787	7175.87
904.101	7152.59
904.415	7169.54
904.729	7134.97
905.042	7110.11
905.356	7066.72
905.67	7099.71
905.984	7070.79
906.297	6997.34
906.611	6974.97
906.924	6933.39
907.237	6949.89
907.551	6947.18
907.864	6958.48
908.177	6867.86
908.491	6898.36
908.804	6836.22
909.117	6793.73
909.43	6772.27
909.743	6720.06
910.056	6721.87
910.368	6663.12
910.681	6636
910.994	6613.63
911.307	6543.12
911.619	6536.11
911.932	6598.26
912.244	6528.43
912.557	6478.49
912.869	6450.01
913.181	6464.7
913.494	6465.38
913.806	6387.19
914.118	6344.71
914.43	6332.28
914.742	6306.06
915.054	6303.35
915.366	6275.1
915.678	6199.85
915.99	6219.51
916.302	6165.28
916.613	6173.86
916.925	6136.35
917.236	6097.25
917.548	6061.78
917.859	6092.74
918.171	6067.88
918.482	5978.61
918.794	5995.34
919.105	5966.64
919.416	5928.22
919.727	5918.5
920.038	5945.17
920.349	5900.42
920.66	5811.39
920.971	5809.35
921.282	5821.1
921.593	5799.41
921.903	5756.92
922.214	5713.08
922.525	5690.71
922.835	5674.22
923.146	5655.46
923.456	5637.15
923.767	5598.96
924.077	5619.08
924.387	5569.59
924.697	5538.17
925.008	5507.67
925.318	5481
925.628	5418.85
925.938	5448.01
926.248	5406.65
926.558	5405.97
926.867	5376.82
927.177	5314.45
927.487	5314.22
927.796	5344.28
928.106	5288.69
928.416	5238.97
928.725	5261.34
929.034	5172.76
929.344	5182.93
929.653	5185.41
929.962	5188.8
930.271	5116.49
930.581	5096.15
930.89	5092.08
931.199	5028.81
931.508	5049.6
931.817	5033.33
932.125	5051.63
932.434	5027.68
932.743	4985.19
933.051	4868.81
933.36	4888.7
933.669	4876.04
933.977	4835.59
934.286	4878.08
934.594	4837.85
934.902	4820.68
935.21	4756.73
935.519	4733.67
935.827	4713.34
936.135	4765.09
936.443	4706.78
936.751	4711.98
937.059	4688.7
937.367	4648.25
937.674	4628.14
937.982	4634.92
938.29	4572.55
938.597	4578.88
938.905	4506.34
939.213	4518.09
939.52	4506.79
939.827	4506.79
940.135	4468.37
940.442	4467.02
940.749	4442.61
941.056	4458.43
941.363	4408.26
941.67	4407.13
941.977	4347.24
942.284	4369.84
942.591	4378.43
942.898	4338.66
943.205	4330.07
943.511	4264.76
943.818	4295.49
944.125	4279.45
944.431	4200.81
944.738	4235.38
945.044	4194.93
945.35	4197.42
945.657	4196.29
945.963	4199
946.269	4123.97
946.575	4110.19
946.881	4087.59
947.187	4093.47
947.493	4055.95
947.799	4066.35
948.105	4026.57
948.41	3979.8
948.716	4022.06
949.022	3955.16
949.327	3974.37
949.633	3896.86
949.938	3901.38
950.244	3897.54
950.549	3866.35
950.854	3855.73
951.16	3864.09
951.465	3836.75
951.77	3825.45
952.075	3821.16
952.38	3788.62
952.685	3770.31
952.99	3770.99
953.294	3746.58
953.599	3726.7
953.904	3724.44
954.209	3698.9
954.513	3715.17
954.818	3669.97
955.122	3662.06
955.426	3678.56
955.731	3606.25
956.035	3609.86
956.339	3612.57
956.643	3568.73
956.948	3575.06
957.252	3554.95
957.556	3576.42
957.86	3489.19
958.163	3540.03
958.467	3495.52
958.771	3460.26
959.075	3435.63
959.378	3486.93
959.682	3431.79
959.985	3376.65
960.289	3380.94
960.592	3358.12
960.896	3330.77
961.199	3358.34
961.502	3323.09
961.805	3326.71
962.108	3326.03
962.411	3325.58
962.714	3273.37
963.017	3271.34
963.32	3281.28
963.623	3231.57
963.926	3237.67
964.228	3206.26
964.531	3194.51
964.833	3213.04
965.136	3134.85
965.438	3155.64
965.741	3136.65
966.043	3108.63
966.345	3152.02
966.648	3128.75
966.95	3088.97
967.252	3085.13
967.554	3068.18
967.856	3053.95
968.158	3030.67
968.46	3016.43
968.761	3021.63
969.063	2984.57
969.365	2982.08
969.666	2972.59
969.968	2966.26
970.269	2957.45
970.571	2938.02
970.872	2913.84
971.174	2944.12
971.475	2904.57
971.776	2907.51
972.077	2892.59
972.378	2849.2
972.679	2855.98
972.98	2805.82
973.281	2810.56
973.582	2807.85
973.883	2799.04
974.183	2790
974.484	2771.24
974.785	2774.86
975.085	2756.78
975.386	2745.93
975.686	2746.16
975.986	2724.46
976.287	2722.43
976.587	2709.77
976.887	2684.92
977.187	2670.45
977.487	2662.09
977.787	2651.47
978.087	2655.76
978.387	2630.91
978.687	2656.22
978.987	2561.08
979.286	2568.08
979.586	2580.74
979.885	2578.25
980.185	2558.36
980.484	2547.74
980.784	2530.8
981.083	2550.46
981.382	2542.55
981.682	2512.72
981.981	2484.02
982.28	2458.93
982.579	2456.67
982.878	2430.23
983.177	2479.72
983.475	2430.46
983.774	2441.53
984.073	2410.12
984.372	2403.57
984.67	2389.33
984.969	2391.36
985.267	2403.34
985.566	2389.33
985.864	2364.7
986.162	2338.03
986.461	2320.86
986.759	2341.42
987.057	2296.45
987.355	2322.21
987.653	2283.12
987.951	2278.6
988.249	2258.49
988.547	2245.83
988.844	2237.24
989.142	2248.09
989.44	2234.08
989.737	2246.73
990.035	2228.66
990.332	2192.95
990.63	2192.5
990.927	2179.62
991.224	2176.45
991.521	2176.45
991.819	2160.64
992.116	2164.48
992.413	2150.01
992.71	2119.51
993.006	2140.3
993.303	2129
993.6	2093.52
993.897	2122.9
994.193	2058.72
994.49	2079.28
994.787	2065.04
995.083	2063.01
995.379	2028.66
995.676	2056.91
995.972	2037.02
996.268	2005.84
996.565	1974.2
996.861	1979.62
997.157	1990.47
997.453	1972.62
997.749	1976.23
998.044	1930.58
998.34	1925.39
998.636	1929.68
998.932	1917.93
999.227	1888.78
999.523	1879.51
999.818	1914.31
1000.114	1892.62
1000.409	1867.76
1000.704	1853.3
1001	1835.67
1001.295	1835.45
1001.59	1836.12
1001.885	1835.9
1002.18	1812.85
1002.475	1809.91
1002.77	1805.39
1003.065	1796.13
1003.359	1804.26
1003.654	1779.85
1003.949	1777.37
1004.243	1751.15
1004.538	1718.61
1004.832	1737.14
1005.127	1749.12
1005.421	1718.84
1005.715	1701.21
1006.009	1724.71
1006.304	1695.34
1006.598	1675.68
1006.892	1695.79
1007.186	1679.07
1007.48	1675.9
1007.773	1644.94
1008.067	1652.4
1008.361	1621.44
1008.655	1616.24
1008.948	1626.19
1009.242	1648.56
1009.535	1603.14
1009.829	1592.06
1010.122	1578.96
1010.415	1553.19
1010.708	1548.22
1011.001	1528.79
1011.295	1543.48
1011.588	1532.4
1011.881	1473.65
1012.173	1528.34
1012.466	1515.91
1012.759	1507.77
1013.052	1499.41
1013.344	1494.66
1013.637	1479.75
1013.93	1445.17
1014.222	1457.38
1014.514	1438.62
1014.807	1433.87
1015.099	1437.94
1015.391	1441.33
1015.683	1414.21
1015.976	1414.21
1016.268	1386.87
1016.56	1358.17
1016.851	1371.5
1017.143	1383.03
1017.435	1388.45
1017.727	1362.92
1018.018	1345.06
1018.31	1355.91
1018.602	1367.44
1018.893	1318.17
1019.185	1327.66
1019.476	1303.03
1019.767	1290.83
1020.058	1287.66
1020.35	1302.13
1020.641	1273.88
1020.932	1263.71
1021.223	1230.26
1021.514	1267.78
1021.804	1228.46
1022.095	1252.18
1022.386	1228.23
1022.677	1226.42
1022.967	1199.53
1023.258	1216.93
1023.548	1170.38
1023.839	1190.04
1024.129	1156.14
1024.419	1140.32
1024.709	1167.89
1025	1174.22
1025.29	1176.71
1025.58	1131.06
1025.87	1132.41
1026.16	1140.55
1026.449	1131.96
1026.739	1104.62
1027.029	1106.65
1027.319	1111.4
1027.608	1087.9
1027.898	1093.09
1028.187	1112.3
1028.477	1063.26
1028.766	1068.23
1029.055	1063.71
1029.344	1066.43
1029.634	1052.19
1029.923	1047.22
1030.212	1034.56
1030.501	1025.3
1030.79	1029.37
1031.078	1025.52
1031.367	1022.81
1031.656	1016.71
1031.945	981.46
1032.233	983.72
1032.522	981.68
1032.81	983.04
1033.099	969.71
1033.387	975.81
1033.675	981.01
1033.963	956.37
1034.251	974.45
1034.54	944.62
1034.828	944.4
1035.116	923.38
1035.403	910.5
1035.691	909.82
1035.979	911.4
1036.267	909.59
1036.554	882.93
1036.842	911.85
1037.129	910.5
1037.417	904.85
1037.704	908.69
1037.992	866.43
1038.279	894.23
1038.566	880.22
1038.853	880.22
1039.14	880.22
