Data from blue_surface_keyboard_FLMS001491_040.txt Node
Date: Tue Feb 07 11:13:01 GMT 2017
User: dcchb
Spectrometer: FLMS00149
Trigger mode: 0
Integration Time (sec): 2.000000E-2
Scans to average: 10
Electric dark correction enabled: true
Nonlinearity correction enabled: false
Boxcar width: 0
XAxis mode: Wavelengths
Number of Pixels in Spectrum: 2048
>>>>>Begin Spectral Data<<<<<
341.393	-4.51
341.776	-4.51
342.16	-4.51
342.543	-58.29
342.927	-58.06
343.31	-46.54
343.693	-68.91
344.077	-62.13
344.46	-55.8
344.843	-51.96
345.226	-28.01
345.61	-30.72
345.993	-23.49
346.376	-22.36
346.759	-7.67
347.142	24.87
347.525	26.45
347.908	51.31
348.291	85.44
348.674	97.64
349.057	111.88
349.44	132.89
349.823	154.59
350.206	166.11
350.588	191.42
350.971	214.7
351.354	216.73
351.737	218.09
352.119	239.78
352.502	233.68
352.884	246.11
353.267	250.18
353.65	280.01
354.032	278.2
354.414	284.3
354.797	285.43
355.179	305.09
355.562	289.72
355.944	309.16
356.326	326.11
356.709	326.79
357.091	316.16
357.473	332.21
357.855	326.33
358.238	336.28
358.62	330.85
359.002	353.68
359.384	329.05
359.766	333.11
360.148	324.07
360.53	308.93
360.912	314.36
361.294	299.22
361.676	315.49
362.057	310.29
362.439	306.45
362.821	324.75
363.203	301.48
363.584	318.88
363.966	307.8
364.348	304.41
364.729	301.7
365.111	298.76
365.493	296.28
365.874	292.21
366.256	301.02
366.637	307.58
367.019	284.75
367.4	306.67
367.781	305.54
368.163	301.93
368.544	292.66
368.925	298.99
369.306	289.05
369.688	304.19
370.069	284.53
370.45	291.08
370.831	288.82
371.212	309.84
371.593	299.89
371.974	285.88
372.355	307.12
372.736	287.24
373.117	286.56
373.498	279.33
373.879	286.56
374.26	287.46
374.641	288.82
375.021	291.53
375.402	305.77
375.783	307.12
376.163	287.24
376.544	291.98
376.925	293.34
377.305	308.93
377.686	298.09
378.066	287.24
378.447	277.52
378.827	307.58
379.208	304.19
379.588	301.93
379.968	292.21
380.349	314.36
380.729	318.2
381.109	298.31
381.489	296.28
381.87	312.1
382.25	328.82
382.63	309.61
383.01	305.99
383.39	315.03
383.77	313.9
384.15	291.76
384.53	285.88
384.91	310.74
385.29	305.77
385.67	315.94
386.049	322.94
386.429	324.3
386.809	326.11
387.189	316.39
387.568	302.15
387.948	335.82
388.328	319.55
388.707	296.73
389.087	310.97
389.466	304.41
389.846	295.6
390.225	314.81
390.605	299.44
390.984	322.49
391.363	322.04
391.743	308.48
392.122	331.53
392.501	339.21
392.881	357.74
393.26	329.5
393.639	324.98
394.018	326.56
394.397	331.76
394.776	311.42
395.155	334.69
395.534	329.27
395.913	324.07
396.292	327.01
396.671	341.25
397.05	338.54
397.429	346.22
397.808	329.27
398.186	352.32
398.565	348.71
398.944	353
399.323	336.95
399.701	338.54
400.08	329.5
400.458	343.06
400.837	347.58
401.215	332.21
401.594	340.12
401.972	337.41
402.351	341.7
402.729	371.08
403.107	353.45
403.486	372.43
403.864	347.8
404.242	361.13
404.62	352.1
404.999	362.26
405.377	358.87
405.755	359.55
406.133	350.51
406.511	361.81
406.889	354.13
407.267	365.43
407.645	354.36
408.023	374.02
408.401	376.5
408.779	370.85
409.156	355.26
409.534	351.64
409.912	357.29
410.29	391.64
410.667	371.08
411.045	368.14
411.422	388.93
411.8	376.05
412.178	380.8
412.555	388.25
412.933	388.7
413.31	382.38
413.687	382.83
414.065	388.93
414.442	381.92
414.819	380.8
415.197	402.72
415.574	392.77
415.951	381.25
416.328	390.96
416.705	398.42
417.082	407.91
417.46	381.7
417.837	366.56
418.214	402.72
418.591	403.39
418.967	388.7
419.344	397.29
419.721	405.88
420.098	394.13
420.475	414.01
420.852	397.52
421.228	410.4
421.605	398.87
421.982	389.61
422.358	401.13
422.735	427.57
423.111	430.06
423.488	430.06
423.864	406.33
424.241	404.52
424.617	422.6
424.994	431.42
425.37	421.25
425.746	425.09
426.123	426.44
426.499	423.28
426.875	415.82
427.251	428.03
427.627	421.7
428.003	447.23
428.379	438.87
428.756	440.23
429.132	441.36
429.507	462.37
429.883	444.07
430.259	450.85
430.635	437.74
431.011	453.56
431.387	464.41
431.763	452.43
432.138	445.65
432.514	452.66
432.89	474.8
433.265	477.06
433.641	450.17
434.016	470.28
434.392	458.31
434.767	471.19
435.143	467.57
435.518	483.39
435.894	479.32
436.269	476.61
436.644	472.32
437.02	489.94
437.395	470.96
437.77	501.7
438.145	499.66
438.52	507.12
438.895	501.02
439.271	498.98
439.646	512.09
440.021	495.14
440.395	510.96
440.77	520.23
441.145	508.25
441.52	534.46
441.895	510.96
442.27	542.82
442.645	503.73
443.019	521.36
443.394	519.77
443.769	528.59
444.143	524.29
444.518	529.72
444.892	531.75
445.267	524.52
445.641	545.76
446.016	541.47
446.39	534.01
446.764	547.8
447.139	561.58
447.513	552.99
447.887	527.01
448.262	548.7
448.636	542.15
449.01	573.11
449.384	553.22
449.758	547.8
450.132	552.54
450.506	578.3
450.88	566.33
451.254	578.98
451.628	595.25
452.002	560.45
452.376	584.63
452.75	569.49
453.123	589.38
453.497	585.08
453.871	597.74
454.244	585.99
454.618	593.9
454.992	611.3
455.365	590.06
455.739	609.26
456.112	605.65
456.486	602.71
456.859	611.52
457.232	599.32
457.606	636.38
457.979	623.5
458.352	632.99
458.725	627.12
459.099	633.67
459.472	626.66
459.845	630.28
460.218	630.96
460.591	668.7
460.964	646.32
461.337	645.87
461.71	645.87
462.083	657.85
462.456	658.3
462.829	685.42
463.201	678.87
463.574	672.99
463.947	687
464.32	686.78
464.692	683.39
465.065	687
465.438	682.93
465.81	715.7
466.183	707.57
466.555	700.79
466.928	731.52
467.3	704.4
467.672	703.72
468.045	734.91
468.417	732.2
468.789	725.87
469.161	765.42
469.534	767.45
469.906	761.35
470.278	750.95
470.65	753.67
471.022	778.98
471.394	794.34
471.766	777.62
472.138	797.06
472.51	807.9
472.882	788.24
473.253	798.19
473.625	820.11
473.997	829.14
474.369	837.28
474.74	825.08
475.112	868.24
475.484	864.17
475.855	865.3
476.227	850.39
476.598	886.54
476.97	895.36
477.341	900.56
477.713	926.09
478.084	910.5
478.455	927.45
478.827	932.19
479.198	977.62
479.569	935.13
479.94	950.05
480.311	954.11
480.682	980.78
481.053	971.06
481.424	986.43
481.795	1011.51
482.166	1010.38
482.537	1017.16
482.908	1021
483.279	1047.44
483.65	1070.49
484.021	1030.5
484.391	1062.81
484.762	1053.77
485.133	1048.35
485.503	1078.86
485.874	1094.9
486.244	1089.48
486.615	1092.64
486.985	1123.83
487.356	1166.76
487.726	1154.79
488.097	1132.87
488.467	1151.17
488.837	1149.36
489.207	1168.12
489.578	1163.6
489.948	1194.56
490.318	1200.89
490.688	1193.2
491.058	1213.09
491.428	1217.16
491.798	1225.74
492.168	1228.46
492.538	1256.48
492.908	1235.24
493.278	1238.63
493.648	1260.32
494.017	1267.33
494.387	1268.68
494.757	1273.43
495.126	1292.18
495.496	1288.12
495.866	1281.56
496.235	1290.38
496.605	1292.86
496.974	1296.7
497.344	1308.91
497.713	1323.6
498.082	1318.85
498.452	1288.79
498.821	1313.65
499.19	1325.18
499.559	1344.61
499.928	1331.5
500.298	1331.05
500.667	1337.38
501.036	1342.35
501.405	1365.18
501.774	1346.19
502.143	1363.14
502.512	1347.55
502.88	1322.47
503.249	1352.29
503.618	1333.76
503.987	1353.65
504.356	1359.07
504.724	1369.24
505.093	1396.36
505.462	1383.03
505.83	1366.31
506.199	1384.38
506.567	1381.9
506.936	1373.99
507.304	1400.2
507.672	1391.84
508.041	1404.95
508.409	1411.95
508.777	1404.27
509.145	1416.93
509.514	1432.97
509.882	1429.81
510.25	1440.43
510.618	1427.32
510.986	1425.29
511.354	1431.39
511.722	1436.59
512.09	1408.79
512.458	1459.41
512.826	1452.41
513.193	1453.31
513.561	1481.11
513.929	1463.25
514.297	1479.07
514.664	1481.78
515.032	1451.73
515.4	1477.94
515.767	1501.44
516.135	1472.29
516.502	1482.01
516.869	1479.52
517.237	1462.8
517.604	1477.26
517.972	1463.25
518.339	1486.98
518.706	1468.22
519.073	1510.93
519.44	1493.76
519.808	1485.4
520.175	1489.01
520.542	1503.7
520.909	1524.49
521.276	1507.09
521.643	1533.53
522.009	1529.47
522.376	1527.66
522.743	1506.19
523.11	1526.98
523.477	1539.18
523.843	1518.39
524.21	1531.05
524.577	1532.18
524.943	1551.84
525.31	1566.53
525.676	1580.31
526.043	1557.94
526.409	1553.19
526.776	1596.36
527.142	1570.82
527.508	1609.92
527.874	1570.14
528.241	1586.19
528.607	1601.33
528.973	1576.24
529.339	1556.13
529.705	1599.07
530.071	1608.11
530.437	1590.25
530.803	1637.71
531.169	1602.01
531.535	1608.33
531.901	1613.53
532.267	1604.49
532.632	1611.05
532.998	1622.12
533.364	1613.76
533.73	1624.15
534.095	1654.43
534.461	1635.45
534.826	1632.29
535.192	1604.27
535.557	1635.9
535.923	1652.85
536.288	1672.29
536.653	1661.89
537.019	1637.71
537.384	1638.16
537.749	1656.92
538.114	1639.07
538.479	1656.24
538.845	1658.5
539.21	1608.33
539.575	1625.28
539.94	1641.78
540.305	1663.47
540.67	1648.33
541.034	1669.12
541.399	1630.03
541.764	1679.07
542.129	1654.89
542.494	1689.01
542.858	1653.3
543.223	1660.99
543.587	1667.77
543.952	1678.39
544.316	1629.12
544.681	1649.46
545.045	1668.44
545.41	1696.01
545.774	1705.73
546.138	1665.96
546.503	1668.67
546.867	1647.2
547.231	1700.31
547.595	1665.73
547.959	1677.26
548.324	1668.22
548.688	1669.12
549.052	1693.3
549.416	1692.62
549.779	1698.05
550.143	1676.13
550.507	1693.3
550.871	1681.33
551.235	1656.69
551.599	1670.48
551.962	1709.12
552.326	1691.95
552.689	1683.81
553.053	1693.53
553.417	1728.33
553.78	1699.63
554.143	1680.2
554.507	1688.33
554.87	1715
555.234	1686.3
555.597	1713.19
555.96	1726.75
556.323	1722
556.686	1730.82
557.05	1713.64
557.413	1726.97
557.776	1737.37
558.139	1753.64
558.502	1736.24
558.865	1737.37
559.228	1706.64
559.59	1750.25
559.953	1740.76
560.316	1780.31
560.679	1711.83
561.041	1740.31
561.404	1748.89
561.767	1769.46
562.129	1732.62
562.492	1783.24
562.854	1762.68
563.217	1747.54
563.579	1740.08
563.941	1762.68
564.304	1759.06
564.666	1766.75
565.028	1803.36
565.39	1765.39
565.753	1790.02
566.115	1778.27
566.477	1782.34
566.839	1778.05
567.201	1797.03
567.563	1822.34
567.925	1793.19
568.287	1790.7
568.648	1833.64
569.01	1818.72
569.372	1785.96
569.734	1832.06
570.095	1793.87
570.457	1806.07
570.819	1841.77
571.18	1823.69
571.542	1833.41
571.903	1829.12
572.265	1840.19
572.626	1816.46
572.987	1859.4
573.349	1833.64
573.71	1850.13
574.071	1835.22
574.432	1857.37
574.794	1832.96
575.155	1878.61
575.516	1837.48
575.877	1841.55
576.238	1887.87
576.599	1870.7
576.96	1851.94
577.32	1851.94
577.681	1872.28
578.042	1857.59
578.403	1850.13
578.763	1884.48
579.124	1866.63
579.485	1893.52
579.845	1859.85
580.206	1891.72
580.566	1897.14
580.927	1895.56
581.287	1851.49
581.648	1912.51
582.008	1867.76
582.368	1875.9
582.728	1914.99
583.089	1871.15
583.449	1884.26
583.809	1894.65
584.169	1883.58
584.529	1902.11
584.889	1901.89
585.249	1901.66
585.609	1884.48
585.969	1937.36
586.329	1894.2
586.688	1884.26
587.048	1879.74
587.408	1876.57
587.768	1893.52
588.127	1919.74
588.487	1899.63
588.846	1948.44
589.206	1908.66
589.565	1899.63
589.925	1959.51
590.284	1880.19
590.643	1907.53
591.003	1924.71
591.362	1903.92
591.721	1931.71
592.08	1951.83
592.44	1934.2
592.799	1947.08
593.158	1925.39
593.517	1905.05
593.876	1939.62
594.235	1950.92
594.593	1924.26
594.952	1938.27
595.311	1914.54
595.67	1936.01
596.029	1917.93
596.387	1918.16
596.746	1929.23
597.104	1942.34
597.463	1955.67
597.822	1943.69
598.18	1952.51
598.538	1941.88
598.897	1957.48
599.255	1965.84
599.613	1964.93
599.972	1939.4
600.33	1999.51
600.688	1937.59
601.046	1943.69
601.404	1978.49
601.762	1983.46
602.12	1966.74
602.478	1973.07
602.836	1958.83
603.194	1981.2
603.552	2013.07
603.91	1996.35
604.268	2014.42
604.625	1964.26
604.983	1977.82
605.341	1971.04
605.698	1971.94
606.056	1958.15
606.413	2008.77
606.771	1979.4
607.128	1999.28
607.485	1995.44
607.843	2021.2
608.2	1996.57
608.557	2002
608.914	2008.32
609.272	1994.76
609.629	1997.02
609.986	2022.56
610.343	1959.28
610.7	2030.92
611.057	2017.59
611.414	2052.16
611.771	2045.16
612.127	2034.54
612.484	2027.98
612.841	2023.92
613.198	2029.79
613.554	2048.77
613.911	2043.12
614.267	2064.82
614.624	2042.67
614.98	2033.86
615.337	2082.9
615.693	2085.61
616.05	2081.77
616.406	2085.16
616.762	2060.75
617.118	2067.76
617.475	2065.95
617.831	2072.5
618.187	2067.53
618.543	2102.11
618.899	2062.33
619.255	2076.57
619.611	2069.34
619.967	2079.73
620.323	2093.29
620.678	2076.8
621.034	2099.17
621.39	2063.24
621.746	2047.64
622.101	2121.31
622.457	2076.57
622.812	2090.13
623.168	2072.28
623.523	2072.73
623.879	2126.06
624.234	2088.55
624.589	2075.89
624.945	2096.68
625.3	2115.89
625.655	2150.92
626.01	2118.15
626.365	2141.43
626.72	2127.64
627.075	2129.22
627.43	2124.93
627.785	2152.05
628.14	2138.26
628.495	2121.77
628.85	2137.81
629.205	2114.08
629.559	2147.08
629.914	2135.55
630.269	2169.67
630.623	2158.6
630.978	2143.46
631.332	2195.44
631.687	2163.35
632.041	2174.87
632.396	2158.6
632.75	2159.05
633.104	2209
633.459	2169.9
633.813	2193.63
634.167	2174.65
634.521	2171.48
634.875	2171.48
635.229	2199.05
635.583	2171.26
635.937	2183.01
636.291	2186.17
636.645	2192.27
636.999	2208.09
637.352	2206.96
637.706	2169.9
638.06	2201.99
638.413	2209
638.767	2223.46
639.121	2211.03
639.474	2203.57
639.828	2209.9
640.181	2247.41
640.534	2250.12
640.888	2213.06
641.241	2200.63
641.594	2229.33
641.947	2251.71
642.301	2276.79
642.654	2272.5
643.007	2268.43
643.36	2279.5
643.713	2271.37
644.066	2281.76
644.419	2315.21
644.771	2272.27
645.124	2275.21
645.477	2274.53
645.83	2278.15
646.182	2249.67
646.535	2267.75
646.888	2288.77
647.24	2277.02
647.593	2280.63
647.945	2307.98
648.298	2310.91
648.65	2311.37
649.002	2288.54
649.355	2319.05
649.707	2321.08
650.059	2332.38
650.411	2376.22
650.763	2380.06
651.115	2427.07
651.467	2434.53
651.819	2394.75
652.171	2419.39
652.523	2414.41
652.875	2429.1
653.227	2447.41
653.578	2413.96
653.93	2482.89
654.282	2456.9
654.633	2452.15
654.985	2478.37
655.337	2491.47
655.688	2504.13
656.039	2492.6
656.391	2503.45
656.742	2513.39
657.094	2528.31
657.445	2563.79
657.796	2580.74
658.147	2534.41
658.498	2561.98
658.849	2561.98
659.2	2601.98
659.551	2603.11
659.902	2603.34
660.253	2628.87
660.604	2652.15
660.955	2634.52
661.306	2659.38
661.656	2657.12
662.007	2655.76
662.358	2719.26
662.708	2704.12
663.059	2697.57
663.409	2695.99
663.76	2728.3
664.11	2730.56
664.461	2735.54
664.811	2747.51
665.161	2803.33
665.511	2775.53
665.862	2794.29
666.212	2804.01
666.562	2832.26
666.912	2864.8
667.262	2823.89
667.612	2822.31
667.962	2877
668.312	2901.86
668.662	2925.59
669.011	2907.73
669.361	2922.88
669.711	2899.82
670.06	2905.93
670.41	2926.94
670.76	2928.07
671.109	3017.11
671.459	2964.23
671.808	2954.51
672.157	3014.4
672.507	3017.56
672.856	2987.96
673.205	3024.79
673.554	3042.42
673.904	3057.79
674.253	3055.53
674.602	3056.2
674.951	3046.26
675.3	3051.69
675.649	3116.32
675.998	3057.79
676.346	3146.82
676.695	3164.22
677.044	3116.09
677.393	3149.76
677.741	3184.11
678.09	3166.03
678.438	3162.19
678.787	3192.25
679.135	3162.64
679.484	3185.69
679.832	3209.42
680.181	3223.43
680.529	3206.26
680.877	3245.13
681.225	3266.82
681.573	3259.82
681.922	3271.79
682.27	3247.61
682.618	3220.49
682.966	3287.84
683.314	3288.06
683.661	3297.33
684.009	3293.71
684.357	3313.37
684.705	3303.88
685.053	3300.49
685.4	3333.71
685.748	3313.6
686.095	3337.1
686.443	3309.76
686.79	3312.7
687.138	3340.04
687.485	3370.32
687.832	3371
688.18	3377.78
688.527	3356.31
688.874	3370.77
689.221	3346.59
689.568	3345.91
689.915	3359.25
690.262	3344.56
690.609	3354.73
690.956	3382.75
691.303	3335.07
691.65	3365.8
691.997	3381.17
692.344	3361.51
692.69	3327.84
693.037	3386.14
693.383	3379.13
693.73	3366.71
694.077	3354.05
694.423	3338.23
694.769	3380.04
695.116	3359.02
695.462	3370.77
695.808	3339.81
696.155	3383.43
696.501	3362.86
696.847	3364.9
697.193	3364.9
697.539	3389.98
697.885	3369.64
698.231	3323.99
698.577	3332.81
698.923	3358.57
699.269	3331.23
699.614	3338.46
699.96	3334.84
700.306	3359.02
700.651	3346.37
700.997	3317.44
701.342	3307.5
701.688	3308.85
702.033	3285.58
702.379	3305.01
702.724	3312.47
703.069	3331
703.415	3290.32
703.76	3296.2
704.105	3285.58
704.45	3272.92
704.795	3287.61
705.14	3260.04
705.485	3269.76
705.83	3265.24
706.175	3269.76
706.52	3275.18
706.865	3272.7
707.209	3299.59
707.554	3245.35
707.899	3263.88
708.243	3253.04
708.588	3224.11
708.932	3251.45
709.277	3248.29
709.621	3244
709.966	3244.9
710.31	3241.96
710.654	3230.44
710.998	3235.41
711.342	3197.67
711.687	3201.06
712.031	3214.62
712.375	3227.05
712.719	3221.85
713.063	3198.57
713.407	3231.79
713.75	3201.51
714.094	3237.44
714.438	3188.86
714.782	3188.18
715.125	3187.27
715.469	3211.46
715.812	3202.64
716.156	3208.52
716.499	3217.78
716.843	3202.87
717.186	3201.74
717.53	3234.96
717.873	3209.42
718.216	3175.98
718.559	3159.71
718.902	3163.32
719.246	3204.9
719.589	3172.81
719.932	3174.62
720.275	3166.48
720.617	3174.85
720.96	3170.78
721.303	3175.52
721.646	3180.04
721.989	3172.36
722.331	3211.91
722.674	3166.03
723.016	3166.48
723.359	3189.08
723.701	3192.7
724.044	3178.69
724.386	3178.91
724.729	3219.82
725.071	3210.33
725.413	3205.58
725.755	3188.18
726.097	3219.59
726.439	3206.71
726.782	3171
727.124	3209.42
727.465	3157.9
727.807	3173.26
728.149	3166.26
728.491	3170.33
728.833	3203.09
729.175	3168.97
729.516	3173.04
729.858	3235.41
730.199	3171
730.541	3198.12
730.882	3232.7
731.224	3197.67
731.565	3160.16
731.906	3196.99
732.248	3210.78
732.589	3181.85
732.93	3236.54
733.271	3222.98
733.612	3224.56
733.953	3198.8
734.294	3230.66
734.635	3235.86
734.976	3268.18
735.317	3227.95
735.658	3223.21
735.999	3214.17
736.339	3241.06
736.68	3241.51
737.021	3261.4
737.361	3246.26
737.702	3327.16
738.042	3258.91
738.383	3265.46
738.723	3293.03
739.063	3308.85
739.404	3323.32
739.744	3262.3
740.084	3270.44
740.424	3314.05
740.764	3282.19
741.104	3322.64
741.444	3327.16
741.784	3296.65
742.124	3315.63
742.464	3356.99
742.804	3360.38
743.143	3342.75
743.483	3391.79
743.823	3371.22
744.162	3394.5
744.502	3420.26
744.841	3425.23
745.181	3421.62
745.52	3397.66
745.86	3451
746.199	3418.46
746.538	3475.85
746.877	3493.26
747.216	3532.12
747.556	3536.64
747.895	3553.14
748.234	3543.42
748.573	3547.27
748.911	3543.42
749.25	3568.73
749.589	3599.24
749.928	3615.74
750.267	3631.56
750.605	3661.39
750.944	3656.42
751.283	3686.7
751.621	3695.51
751.96	3718.79
752.298	3765.11
752.636	3780.71
752.975	3775.73
753.313	3783.87
753.651	3826.35
753.989	3796.52
754.327	3832.91
754.666	3856.86
755.004	3870.42
755.342	3888.05
755.679	3936.63
756.017	3942.28
756.355	3954.94
756.693	3935.73
757.031	3999.46
757.368	3998.55
757.706	4027.93
758.044	4038.55
758.381	4026.12
758.719	4067.7
759.056	4113.13
759.394	4031.55
759.731	4090.08
760.068	4122.62
760.405	4115.61
760.743	4132.11
761.08	4190.64
761.417	4205.1
761.754	4181.37
762.091	4199.9
762.428	4224.31
762.765	4224.99
763.102	4282.61
763.438	4222.28
763.775	4202.39
764.112	4257.08
764.449	4250.52
764.785	4260.47
765.122	4229.96
765.458	4232.45
765.795	4220.92
766.131	4285.55
766.467	4255.72
766.804	4279.22
767.14	4244.65
767.476	4279.22
767.812	4265.21
768.148	4273.8
768.485	4246.46
768.821	4253.01
769.157	4242.61
769.492	4289.39
769.828	4269.96
770.164	4252.78
770.5	4263.86
770.836	4242.84
771.171	4272.44
771.507	4253.24
771.842	4243.29
772.178	4248.26
772.513	4262.5
772.849	4202.84
773.184	4215.27
773.519	4189.73
773.855	4230.19
774.19	4210.52
774.525	4202.62
774.86	4222.28
775.195	4188.38
775.53	4203.07
775.865	4148.83
776.2	4140.92
776.535	4146.35
776.87	4126.91
777.205	4131.2
777.539	4142.05
777.874	4132.11
778.209	4118.78
778.543	4073.35
778.878	4056.63
779.212	4088.49
779.547	4048.5
779.881	4114.03
780.215	4020.93
780.55	4106.12
780.884	4051.43
781.218	4017.76
781.552	4018.21
781.886	3996.52
782.22	3917.88
782.554	4006.69
782.888	3956.52
783.222	3944.09
783.556	3915.84
783.889	3897.54
784.223	3935.5
784.557	3916.97
784.89	3902.06
785.224	3883.98
785.557	3875.84
785.891	3878.78
786.224	3853.02
786.558	3896.41
786.891	3865.22
787.224	3823.19
787.557	3817.09
787.891	3851.89
788.224	3850.08
788.557	3817.77
788.89	3780.93
789.223	3769.63
789.556	3768.05
789.888	3722.63
790.221	3713.59
790.554	3729.18
790.887	3685.79
791.219	3694.15
791.552	3719.24
791.884	3702.74
792.217	3678.56
792.549	3698.45
792.882	3652.8
793.214	3661.61
793.546	3635.85
793.879	3616.87
794.211	3599.47
794.543	3629.3
794.875	3571.22
795.207	3615.06
795.539	3610.54
795.871	3575.74
796.203	3577.77
796.535	3593.59
796.867	3558.79
797.198	3538.9
797.53	3515.85
797.862	3506.36
798.193	3492.13
798.525	3502.29
798.856	3520.37
799.188	3479.47
799.519	3455.52
799.85	3461.62
800.182	3424.33
800.513	3441.51
800.844	3453.71
801.175	3419.36
801.506	3436.08
801.837	3378.68
802.168	3405.12
802.499	3428.4
802.83	3384.11
803.161	3405.57
803.491	3360.6
803.822	3371.45
804.153	3389.98
804.483	3320.15
804.814	3303.88
805.145	3312.02
805.475	3300.04
805.805	3304.79
806.136	3333.71
806.466	3304.33
806.796	3337.1
807.126	3255.52
807.457	3253.26
807.787	3284.45
808.117	3318.12
808.447	3277.22
808.777	3255.97
809.107	3258.69
809.436	3275.63
809.766	3240.61
810.096	3197.22
810.426	3207.61
810.755	3211.68
811.085	3185.02
811.414	3213.71
811.744	3197.44
812.073	3166.26
812.403	3157.22
812.732	3151.8
813.061	3165.13
813.39	3137.56
813.719	3136.43
814.049	3138.24
814.378	3153.83
814.707	3097.79
815.036	3096.66
815.365	3123.77
815.693	3045.36
816.022	3080.61
816.351	3065.02
816.68	3052.36
817.008	3076.54
817.337	3039.48
817.665	3018.47
817.994	3013.27
818.322	3030.44
818.651	3020.73
818.979	3022.08
819.307	3061.85
819.636	2999.26
819.964	3011.01
820.292	3025.25
820.62	2990.9
820.948	3001.97
821.276	2997.68
821.604	2989.77
821.932	3039.71
822.259	3006.94
822.587	3004.91
822.915	3014.17
823.243	3017.56
823.57	2987.05
823.898	2973.72
824.225	2989.31
824.553	2989.54
824.88	3047.62
825.207	3026.38
825.535	2976.66
825.862	2993.38
826.189	3007.17
826.516	2980.5
826.843	3019.37
827.17	3000.39
827.497	3025.92
827.824	3000.39
828.151	3024.57
828.478	3020.95
828.805	2996.77
829.131	2989.99
829.458	3028.41
829.785	2976.43
830.111	2971.91
830.438	3007.62
830.764	2975.98
831.09	3007.17
831.417	3024.34
831.743	2991.35
832.069	2965.13
832.395	2993.83
832.722	2993.61
833.048	2999.71
833.374	2940.28
833.7	2953.38
834.026	3000.39
834.351	2981.63
834.677	2963.78
835.003	2980.73
835.329	2950.22
835.654	2963.1
835.98	2950.9
836.306	2972.37
836.631	2935.3
836.956	2973.04
837.282	2939.15
837.607	2945.02
837.932	2947.73
838.258	2956.77
838.583	2940.05
838.908	2905.25
839.233	2912.03
839.558	2895.08
839.883	2907.51
840.208	2980.5
840.533	2930.78
840.858	2872.71
841.182	2896.89
841.507	2919.03
841.832	2897.11
842.156	2857.57
842.481	2869.32
842.805	2897.79
843.13	2892.14
843.454	2856.44
843.778	2883.78
844.103	2870.45
844.427	2872.03
844.751	2867.06
845.075	2837.45
845.399	2812.6
845.723	2805.36
846.047	2824.8
846.371	2780.05
846.695	2799.26
847.019	2804.01
847.343	2793.39
847.666	2749.77
847.99	2737.12
848.313	2781.86
848.637	2742.54
848.96	2743.9
849.284	2728.98
849.607	2689.21
849.931	2687.63
850.254	2679.49
850.577	2675.88
850.9	2663.9
851.223	2653.05
851.546	2628.42
851.869	2639.94
852.192	2635.43
852.515	2628.42
852.838	2626.16
853.161	2618.25
853.483	2585.71
853.806	2590.45
854.129	2577.12
854.451	2586.39
854.774	2556.56
855.096	2543.22
855.419	2548.87
855.741	2557.69
856.063	2526.5
856.385	2562.66
856.708	2541.87
857.03	2497.35
857.352	2511.36
857.674	2514.52
857.996	2516.78
858.318	2489.67
858.64	2478.59
858.961	2494.41
859.283	2485.82
859.605	2454.64
859.926	2447.63
860.248	2452.83
860.57	2462.1
860.891	2475.43
861.212	2455.54
861.534	2453.96
861.855	2439.27
862.176	2453.73
862.498	2455.99
862.819	2451.7
863.14	2436.56
863.461	2430.46
863.782	2407.18
864.103	2460.29
864.424	2458.48
864.745	2401.53
865.065	2418.93
865.386	2387.3
865.707	2388.88
866.027	2370.8
866.348	2362.21
866.668	2383.68
866.989	2357.69
867.309	2341.65
867.63	2358.6
867.95	2401.08
868.27	2347.07
868.59	2378.26
868.91	2392.72
869.23	2359.27
869.55	2339.61
869.87	2343.68
870.19	2333.96
870.51	2354.98
870.83	2322.89
871.15	2308.88
871.469	2354.3
871.789	2347.3
872.109	2327.41
872.428	2317.02
872.748	2293.29
873.067	2354.08
873.386	2290.8
873.706	2298.03
874.025	2316.34
874.344	2287.64
874.663	2318.37
874.982	2307.3
875.301	2290.58
875.62	2299.39
875.939	2285.83
876.258	2275.66
876.577	2295.77
876.896	2244.25
877.214	2300.97
877.533	2261.2
877.852	2268.88
878.17	2293.97
878.489	2251.48
878.807	2282.89
879.125	2282.44
879.444	2266.4
879.762	2254.64
880.08	2241.76
880.398	2234.98
880.716	2251.03
881.034	2255.1
881.352	2218.71
881.67	2251.25
881.988	2224.59
882.306	2209.45
882.624	2225.49
882.941	2219.84
883.259	2203.35
883.577	2190.69
883.894	2192.5
884.212	2211.93
884.529	2170.13
884.846	2167.41
885.164	2171.93
885.481	2163.8
885.798	2195.66
886.115	2161.09
886.432	2142.78
886.75	2143.01
887.067	2140.07
887.383	2144.82
887.7	2138.71
888.017	2109.11
888.334	2170.35
888.651	2159.73
888.967	2112.73
889.284	2101.88
889.6	2142.33
889.917	2113.18
890.233	2092.39
890.55	2125.61
890.866	2108.21
891.182	2116.57
891.498	2072.5
891.815	2084.71
892.131	2066.63
892.447	2096.23
892.763	2094.65
893.079	2056.91
893.395	2069.34
893.71	2053.52
894.026	2061.65
894.342	2065.27
894.657	2023.69
894.973	2011.03
895.289	2026.85
895.604	2039.51
895.92	2038.38
896.235	2022.79
896.55	1974.43
896.865	1985.05
897.181	2002.22
897.496	1955.67
897.811	1969.68
898.126	1985.72
898.441	1989.79
898.756	1967.87
899.071	1950.02
899.386	1983.01
899.7	1933.97
900.015	1951.38
900.33	1984.82
900.644	1914.09
900.959	1907.99
901.273	1947.53
901.588	1917.25
901.902	1923.13
902.216	1877.48
902.531	1904.6
902.845	1910.7
903.159	1882.45
903.473	1892.39
903.787	1871.15
904.101	1881.32
904.415	1835.67
904.729	1844.94
905.042	1840.19
905.356	1881.32
905.67	1830.47
905.984	1828.67
906.297	1822.34
906.611	1821.89
906.924	1830.47
907.237	1853.52
907.551	1820.53
907.864	1823.69
908.177	1808.55
908.491	1815.11
908.804	1787.76
909.117	1816.01
909.43	1798.38
909.743	1779.63
910.056	1773.53
910.368	1801.1
910.681	1729.46
910.994	1735.34
911.307	1756.58
911.619	1734.66
911.932	1722.91
912.244	1684.94
912.557	1717.94
912.869	1728.1
913.181	1700.08
913.494	1736.47
913.806	1698.05
914.118	1692.17
914.43	1697.14
914.742	1682.68
915.054	1678.39
915.366	1702.12
915.678	1686.07
915.99	1654.89
916.302	1652.85
916.613	1642.46
916.925	1634.32
917.236	1640.2
917.548	1646.98
917.859	1620.99
918.171	1619.18
918.482	1601.1
918.794	1611.05
919.105	1627.77
919.416	1596.36
919.727	1589.35
920.038	1576.7
920.349	1591.84
920.66	1582.57
920.971	1566.3
921.282	1569.24
921.593	1591.38
921.903	1534.66
922.214	1562.91
922.525	1518.39
922.835	1543.48
923.146	1580.54
923.456	1549.58
923.767	1529.24
924.077	1532.63
924.387	1527.21
924.697	1520.65
925.008	1502.57
925.318	1480.88
925.628	1523.14
925.938	1487.88
926.248	1486.75
926.558	1493.31
926.867	1481.11
927.177	1467.09
927.487	1475.23
927.796	1456.25
928.106	1434.1
928.416	1450.6
928.725	1451.28
929.034	1421.45
929.344	1446.08
929.653	1455.57
929.962	1434.55
930.271	1425.06
930.581	1385.06
930.89	1410.15
931.199	1411.73
931.508	1406.98
931.817	1415.34
932.125	1388.23
932.434	1403.59
932.743	1397.27
933.051	1382.58
933.36	1376.7
933.669	1374.44
933.977	1358.85
934.286	1361.33
934.594	1358.17
934.902	1371.73
935.21	1333.99
935.519	1367.66
935.827	1339.19
936.135	1352.29
936.443	1329.02
936.751	1344.16
937.059	1332.63
937.367	1320.21
937.674	1318.85
937.982	1273.43
938.29	1312.3
938.597	1316.82
938.905	1311.62
939.213	1301.9
939.52	1274.1
939.827	1278.4
940.135	1280.21
940.442	1279.3
940.749	1268
941.056	1261.9
941.363	1251.51
941.67	1259.42
941.977	1255.8
942.284	1246.54
942.591	1252.86
942.898	1241.79
943.205	1220.55
943.511	1237.04
943.818	1235.91
944.125	1227.33
944.431	1256.48
944.738	1215.35
945.044	1206.54
945.35	1226.87
945.657	1197.95
945.963	1188.23
946.269	1224.61
946.575	1225.52
946.881	1200.43
947.187	1198.85
947.493	1205.86
947.799	1163.15
948.105	1199.76
948.41	1157.05
948.716	1192.53
949.022	1128.57
949.327	1173.99
949.633	1141.23
949.938	1167.22
950.244	1154.79
950.549	1136.26
950.854	1146.65
951.16	1152.07
951.465	1169.47
951.77	1157.5
952.075	1116.59
952.38	1150.04
952.685	1110.72
952.99	1119.53
953.294	1145.29
953.599	1112.75
953.904	1118.63
954.209	1108.01
954.513	1135.13
954.818	1081.57
955.122	1091.06
955.426	1076.6
955.731	1097.16
956.035	1090.38
956.339	1071.85
956.643	1053.77
956.948	1070.04
957.252	1069.82
957.556	1075.47
957.86	1083.83
958.163	1068.23
958.467	1074.34
958.771	1061.91
959.075	1059.42
959.378	1050.61
959.682	1050.16
959.985	1047.9
960.289	1043.38
960.592	1012.42
960.896	1039.76
961.199	1027.56
961.502	1021.46
961.805	1022.13
962.108	1018.07
962.411	1034.79
962.714	1034.79
963.017	1010.38
963.32	1020.1
963.623	986.2
963.926	1002.25
964.228	989.82
964.531	986.88
964.833	996.37
965.136	940.33
965.438	1004.96
965.741	978.75
966.043	967.45
966.345	990.72
966.648	999.08
966.95	991.63
967.252	964.73
967.554	951.85
967.856	951.85
968.158	988.01
968.46	965.41
968.761	954.57
969.063	928.58
969.365	945.53
969.666	968.58
969.968	934.9
970.269	934
970.571	939.2
970.872	945.98
971.174	965.64
971.475	924.74
971.776	919.09
972.077	919.76
972.378	927
972.679	930.61
972.98	909.14
973.281	925.64
973.582	920.89
973.883	907.79
974.183	905.53
974.484	887.22
974.785	900.1
975.085	890.84
975.386	873.21
975.686	903.27
975.986	867.79
976.287	901.69
976.587	875.02
976.887	892.42
977.187	893.1
977.487	860.78
977.787	875.47
978.087	870.05
978.387	876.6
978.687	865.75
978.987	846.09
979.286	856.71
979.586	855.81
979.885	854.68
980.185	848.13
980.484	822.59
980.784	840.44
981.083	831.4
981.382	839.31
981.682	837.73
981.981	832.08
982.28	824.85
982.579	830.73
982.878	818.98
983.177	812.42
983.475	801.57
983.774	823.95
984.073	798.41
984.372	810.16
984.67	842.48
984.969	807.22
985.267	831.86
985.566	782.82
985.864	794.12
986.162	805.42
986.461	818.07
986.759	798.19
987.057	805.19
987.355	788.47
987.653	784.63
987.951	773.78
988.249	770.62
988.547	775.81
988.844	783.72
989.142	816.94
989.44	777.39
989.737	754.57
990.035	763.16
990.332	765.19
990.63	771.52
990.927	764.74
991.224	767
991.521	772.65
991.819	757.06
992.116	762.93
992.413	751.18
992.71	777.62
993.006	747.57
993.303	717.28
993.6	737.85
993.897	741.46
994.193	739.43
994.49	727.45
994.787	746.89
995.083	728.36
995.379	714.57
995.676	727.45
995.972	697.17
996.268	688.58
996.565	701.01
996.861	727.68
997.157	729.26
997.453	714.8
997.749	709.15
998.044	706.21
998.34	707.34
998.636	715.48
998.932	703.05
999.227	697.62
999.523	709.6
999.818	722.26
1000.114	675.7
1000.409	704.85
1000.704	705.08
1001	678.87
1001.295	690.62
1001.59	685.42
1001.885	684.97
1002.18	650.39
1002.475	650.39
1002.77	661.01
1003.065	670.96
1003.359	641.58
1003.654	666.66
1003.949	668.7
1004.243	665.31
1004.538	668.92
1004.832	651.52
1005.127	658.08
1005.421	653.56
1005.715	685.42
1006.009	647.68
1006.304	640.22
1006.598	654.23
1006.892	652.43
1007.186	646.32
1007.48	635.48
1007.773	625.31
1008.067	630.73
1008.361	631.18
1008.655	621.92
1008.948	643.84
1009.242	621.92
1009.535	653.78
1009.829	651.52
1010.122	595.48
1010.415	613.78
1010.708	595.03
1011.001	614.24
1011.295	583.5
1011.588	625.53
1011.881	580.79
1012.173	607
1012.466	602.94
1012.759	596.38
1013.052	601.58
1013.344	611.75
1013.637	600
1013.93	565.2
1014.222	588.47
1014.514	582.82
1014.807	586.89
1015.099	594.12
1015.391	558.64
1015.683	577.85
1015.976	562.49
1016.268	581.69
1016.56	558.42
1016.851	574.24
1017.143	576.72
1017.435	555.25
1017.727	576.27
1018.018	557.97
1018.31	568.59
1018.602	558.19
1018.893	588.47
1019.185	555.25
1019.476	544.63
1019.767	571.52
1020.058	556.38
1020.35	562.49
1020.641	542.15
1020.932	554.12
1021.223	536.05
1021.514	550.28
1021.804	533.56
1022.095	540.56
1022.386	550.06
1022.677	528.81
1022.967	520.68
1023.258	526.55
1023.548	536.5
1023.839	535.14
1024.129	511.87
1024.419	516.84
1024.709	535.37
1025	526.1
1025.29	516.84
1025.58	534.01
1025.87	501.7
1026.16	520.45
1026.449	529.04
1026.739	535.37
1027.029	513.45
1027.319	505.31
1027.608	516.38
1027.898	511.64
1028.187	505.99
1028.477	484.97
1028.766	505.09
1029.055	485.65
1029.344	511.19
1029.634	497.63
1029.923	494.01
1030.212	481.81
1030.501	479.78
1030.79	484.75
1031.078	488.36
1031.367	510.06
1031.656	491.3
1031.945	492.66
1032.233	496.72
1032.522	487.23
1032.81	488.59
1033.099	473.45
1033.387	488.81
1033.675	481.58
1033.963	484.52
1034.251	470.06
1034.54	471.64
1034.828	478.87
1035.116	457.18
1035.403	450.17
1035.691	478.65
1035.979	468.02
1036.267	464.41
1036.554	457.86
1036.842	457.18
1037.129	458.08
1037.417	463.5
1037.704	451.98
1037.992	470.74
1038.279	464.86
1038.566	447.69
1038.853	447.69
1039.14	447.69
