Data from blue_chair_FLMS001491_00077.txt Node
Date: Wed Feb 08 10:31:45 GMT 2017
User: dcchb
Spectrometer: FLMS00149
Trigger mode: 0
Integration Time (sec): 2.000000E-2
Scans to average: 10
Electric dark correction enabled: true
Nonlinearity correction enabled: false
Boxcar width: 0
XAxis mode: Wavelengths
Number of Pixels in Spectrum: 2048
>>>>>Begin Spectral Data<<<<<
341.393	-10
341.776	-10
342.16	-10
342.543	-43.22
342.927	-80.28
343.31	-67.4
343.693	-70.34
344.077	-51.81
344.46	-54.29
344.843	-37.57
345.226	-37.12
345.61	-31.24
345.993	-27.17
346.376	-18.14
346.759	9.89
347.142	35.65
347.525	41.75
347.908	30
348.291	80.17
348.674	84.46
349.057	113.16
349.44	141.18
349.823	143.22
350.206	138.7
350.588	169.43
350.971	186.61
351.354	206.94
351.737	213.95
352.119	217.11
352.502	224.34
352.884	246.94
353.267	246.72
353.65	259.37
354.032	274.06
354.414	275.87
354.797	298.47
355.179	283.1
355.562	293.04
355.944	290.11
356.326	312.7
356.709	319.03
357.091	297.79
357.473	317.45
357.855	308.41
358.238	308.86
358.62	309.54
359.002	328.97
359.384	305.7
359.766	345.02
360.148	319.03
360.53	296.43
360.912	305.92
361.294	305.7
361.676	321.29
362.057	310.44
362.439	288.98
362.821	306.83
363.203	311.35
363.584	299.37
363.966	271.8
364.348	301.4
364.729	295.53
365.111	290.56
365.493	279.48
365.874	288.3
366.256	318.13
366.637	294.63
367.019	264.8
367.4	295.98
367.781	286.26
368.163	289.65
368.544	273.16
368.925	281.97
369.306	294.63
369.688	272.48
370.069	274.06
370.45	288.52
370.831	271.35
371.212	291.69
371.593	269.54
371.974	283.55
372.355	267.06
372.736	292.14
373.117	292.82
373.498	299.6
373.879	299.14
374.26	284
374.641	293.04
375.021	291.46
375.402	305.25
375.783	275.42
376.163	283.78
376.544	267.28
376.925	303.21
377.305	290.56
377.686	296.66
378.066	288.75
378.447	297.79
378.827	279.26
379.208	297.79
379.588	291.69
379.968	291.69
380.349	305.7
380.729	292.82
381.109	299.82
381.489	297.34
381.87	304.34
382.25	291.91
382.63	295.98
383.01	294.63
383.39	296.66
383.77	283.1
384.15	303.89
384.53	294.85
384.91	286.72
385.29	306.38
385.67	301.18
386.049	301.18
386.429	303.89
386.809	296.21
387.189	313.61
387.568	316.09
387.948	301.86
388.328	284.23
388.707	310.44
389.087	309.99
389.466	315.64
389.846	293.72
390.225	318.58
390.605	315.87
390.984	307.05
391.363	302.31
391.743	301.4
392.122	323.1
392.501	314.51
392.881	320.16
393.26	297.56
393.639	314.51
394.018	331.01
394.397	321.97
394.776	327.17
395.155	313.38
395.534	334.4
395.913	321.97
396.292	317.22
396.671	325.58
397.05	331.69
397.429	326.94
397.808	318.58
398.186	299.37
398.565	323.32
398.944	331.69
399.323	324.91
399.701	336.88
400.08	343.21
400.458	348.86
400.837	328.75
401.215	325.81
401.594	335.3
401.972	344.12
402.351	358.13
402.729	347.73
403.107	334.17
403.486	338.69
403.864	341.18
404.242	323.1
404.62	338.92
404.999	357.45
405.377	347.05
405.755	337.56
406.133	383.21
406.511	363.32
406.889	340.5
407.267	366.71
407.645	374.62
408.023	347.73
408.401	352.02
408.779	375.75
409.156	345.92
409.534	350.22
409.912	365.36
410.29	371.69
410.667	344.34
411.045	348.41
411.422	378.46
411.8	392.48
412.178	362.87
412.555	362.42
412.933	410.33
413.31	390.22
413.687	373.04
414.065	386.15
414.442	382.53
414.819	377.56
415.197	370.1
415.574	376.43
415.951	390.67
416.328	397.45
416.705	395.41
417.082	413.49
417.46	382.08
417.837	382.98
418.214	375.75
418.591	410.55
418.967	391.57
419.344	399.03
419.721	424.57
420.098	420.27
420.475	407.39
420.852	409.42
421.228	404.9
421.605	411.68
421.982	419.82
422.358	403.55
422.735	413.72
423.111	416.88
423.488	452.36
423.864	402.64
424.241	413.72
424.617	425.24
424.994	405.58
425.37	442.42
425.746	446.26
426.123	435.64
426.499	440.61
426.875	454.85
427.251	424.57
427.627	441.06
428.003	467.05
428.379	459.14
428.756	449.65
429.132	446.49
429.507	439.03
429.883	471.8
430.259	476.99
430.635	462.53
431.011	471.34
431.387	450.55
431.763	474.28
432.138	474.96
432.514	475.19
432.89	486.03
433.265	511.57
433.641	479.93
434.016	461.4
434.392	506.14
434.767	503.21
435.143	500.95
435.518	512.92
435.894	510.44
436.269	532.58
436.644	539.59
437.02	538.46
437.395	530.55
437.77	517.44
438.145	537.1
438.52	534.17
438.895	568.29
439.271	557.44
439.646	557.22
440.021	587.72
440.395	581.85
440.77	553.6
441.145	591.79
441.52	573.71
441.895	571.23
442.27	586.59
442.645	586.82
443.019	588.4
443.394	609.64
443.769	602.19
444.143	575.07
444.518	618.91
444.892	627.05
445.267	598.57
445.641	606.93
446.016	611.68
446.39	643.77
446.764	634.28
447.139	630.89
447.513	653.26
447.887	638.34
448.262	643.32
448.636	633.83
449.01	640.15
449.384	628.85
449.758	664.11
450.132	647.84
450.506	646.25
450.88	678.57
451.254	675.41
451.628	646.93
452.002	660.49
452.376	677.44
452.75	691.9
453.123	685.35
453.497	696.2
453.871	718.57
454.244	698.91
454.618	695.29
454.992	693.71
455.365	725.8
455.739	708.4
456.112	722.86
456.486	723.09
456.859	738.23
457.232	742.3
457.606	728.29
457.979	729.64
458.352	740.94
458.725	780.49
459.099	752.24
459.472	785.69
459.845	758.79
460.218	762.18
460.591	787.27
460.964	803.54
461.337	773.93
461.71	793.59
462.083	813.71
462.456	806.02
462.829	793.82
463.201	814.61
463.574	808.06
463.947	798.79
464.32	831.56
464.692	816.87
465.065	824.1
465.438	825.91
465.81	860.49
466.183	835.4
466.555	867.04
466.928	873.59
467.3	871.11
467.672	892.8
468.045	861.62
468.417	891.9
468.789	879.02
469.161	905.91
469.534	901.39
469.906	891.9
470.278	929.64
470.65	936.19
471.022	922.41
471.394	924.89
471.766	955.4
472.138	944.78
472.51	945.91
472.882	971.22
473.253	954.72
473.625	989.75
473.997	958.11
474.369	1003.98
474.74	979.58
475.112	1006.7
475.484	1031.1
475.855	1015.28
476.227	1030.88
476.598	1053.7
476.97	1029.97
477.341	1056.41
477.713	1060.03
478.084	1054.83
478.455	1097.32
478.827	1082.17
479.198	1102.74
479.569	1117.2
479.94	1130.76
480.311	1152.46
480.682	1142.51
481.053	1141.83
481.424	1167.6
481.795	1162.62
482.166	1165.34
482.537	1186.13
482.908	1208.5
483.279	1208.05
483.65	1211.44
484.021	1229.06
484.391	1246.92
484.762	1215.5
485.133	1227.93
485.503	1219.35
485.874	1250.31
486.244	1260.25
486.615	1232.91
486.985	1299.12
487.356	1314.94
487.726	1273.36
488.097	1285.79
488.467	1274.71
488.837	1306.35
489.207	1311.1
489.578	1316.07
489.948	1322.85
490.318	1334.82
490.688	1325.78
491.058	1333.24
491.428	1334.15
491.798	1365.56
492.168	1340.02
492.538	1327.59
492.908	1375.5
493.278	1345.44
493.648	1375.95
494.017	1373.69
494.387	1367.14
494.757	1382.28
495.126	1363.3
495.496	1390.42
495.866	1370.3
496.235	1361.72
496.605	1365.11
496.974	1341.6
497.344	1374.14
497.713	1363.52
498.082	1368.95
498.452	1377.53
498.821	1382.96
499.19	1379.57
499.559	1379.34
499.928	1386.35
500.298	1400.36
500.667	1353.58
501.036	1375.95
501.405	1380.92
501.774	1387.25
502.143	1391.77
502.512	1368.27
502.88	1354.71
503.249	1364.2
503.618	1368.04
503.987	1338.21
504.356	1369.4
504.724	1374.6
505.093	1390.64
505.462	1360.81
505.83	1358.1
506.199	1332.79
506.567	1354.48
506.936	1375.05
507.304	1358.55
507.672	1373.69
508.041	1359.91
508.409	1343.86
508.777	1341.15
509.145	1368.72
509.514	1372.79
509.882	1318.78
510.25	1337.54
510.618	1328.95
510.986	1325.78
511.354	1353.81
511.722	1337.76
512.09	1378.89
512.458	1342.73
512.826	1338.21
513.193	1315.39
513.561	1298.67
513.929	1307.48
514.297	1322.62
514.664	1324.88
515.032	1318.33
515.4	1320.36
515.767	1326.46
516.135	1325.56
516.502	1274.49
516.869	1322.17
517.237	1309.74
517.604	1293.69
517.972	1295.73
518.339	1292.79
518.706	1279.23
519.073	1304.77
519.44	1310.87
519.808	1272.23
520.175	1288.5
520.542	1267.71
520.909	1282.4
521.276	1268.16
521.643	1262.74
522.009	1289.18
522.376	1303.19
522.743	1278.78
523.11	1267.03
523.477	1276.07
523.843	1246.01
524.21	1263.87
524.577	1271.32
524.943	1264.54
525.31	1245.79
525.676	1265.45
526.043	1254.15
526.409	1280.81
526.776	1266.58
527.142	1254.37
527.508	1268.84
527.874	1266.35
528.241	1253.92
528.607	1293.92
528.973	1251.44
529.339	1257.09
529.705	1275.16
530.071	1274.26
530.437	1244.2
530.803	1258.22
531.169	1257.99
531.535	1266.12
531.901	1259.12
532.267	1273.36
532.632	1254.15
532.998	1251.66
533.364	1257.09
533.73	1249.4
534.095	1263.87
534.461	1263.64
534.826	1238.78
535.192	1255.5
535.557	1252.79
535.923	1251.44
536.288	1262.96
536.653	1229.74
537.019	1255.28
537.384	1269.74
537.749	1238.33
538.114	1237.43
538.479	1251.44
538.845	1241.04
539.21	1235.39
539.575	1255.96
539.94	1225.45
540.305	1237.2
540.67	1247.82
541.034	1262.28
541.399	1227.26
541.764	1224.32
542.129	1226.8
542.494	1211.66
542.858	1226.13
543.223	1222.51
543.587	1239.01
543.952	1202.85
544.316	1244.66
544.681	1227.26
545.045	1222.51
545.41	1201.95
545.774	1211.44
546.138	1217.09
546.503	1209.4
546.867	1186.58
547.231	1204.43
547.595	1199.23
547.959	1203.53
548.324	1197.43
548.688	1229.97
549.052	1227.03
549.416	1219.57
549.779	1224.09
550.143	1168.27
550.507	1193.13
550.871	1197.43
551.235	1185
551.599	1199.01
551.962	1199.01
552.326	1190.19
552.689	1172.57
553.053	1182.74
553.417	1177.31
553.78	1193.36
554.143	1168.95
554.507	1168.27
554.87	1196.52
555.234	1187.48
555.597	1184.09
555.96	1156.52
556.323	1185.9
556.686	1196.97
557.05	1187.48
557.413	1184.32
557.776	1213.24
558.139	1190.65
558.502	1191.78
558.865	1185.68
559.228	1184.77
559.59	1189.74
559.953	1166.01
560.316	1174.15
560.679	1167.82
561.041	1167.14
561.404	1179.57
561.767	1208.27
562.129	1190.87
562.492	1185.68
562.854	1178.9
563.217	1218.22
563.579	1175.73
563.941	1190.87
564.304	1195.84
564.666	1192.68
565.028	1210.31
565.39	1213.02
565.753	1179.8
566.115	1206.01
566.477	1183.64
566.839	1199.23
567.201	1210.08
567.563	1206.24
567.925	1209.4
568.287	1200.36
568.648	1207.6
569.01	1211.66
569.372	1222.74
569.734	1213.92
570.095	1203.53
570.457	1217.09
570.819	1220.93
571.18	1222.06
571.542	1226.8
571.903	1220.25
572.265	1201.72
572.626	1234.26
572.987	1250.31
573.349	1232.23
573.71	1279.01
574.071	1259.12
574.432	1279.23
574.794	1266.12
575.155	1250.76
575.516	1231.78
575.877	1239.23
576.238	1289.4
576.599	1267.03
576.96	1280.59
577.32	1274.49
577.681	1272.45
578.042	1288.72
578.403	1296.63
578.763	1264.99
579.124	1296.86
579.485	1256.86
579.845	1282.17
580.206	1316.29
580.566	1295.28
580.927	1330.98
581.287	1296.18
581.648	1300.93
582.008	1296.63
582.368	1332.56
582.728	1341.38
583.089	1275.39
583.449	1310.42
583.809	1304.32
584.169	1325.11
584.529	1299.12
584.889	1346.35
585.249	1316.75
585.609	1302.28
585.969	1311.32
586.329	1283.75
586.688	1318.33
587.048	1319.46
587.408	1327.14
587.768	1330.76
588.127	1323.52
588.487	1327.59
588.846	1353.35
589.206	1307.93
589.565	1307.48
589.925	1325.78
590.284	1330.98
590.643	1322.85
591.003	1327.14
591.362	1328.5
591.721	1327.14
592.08	1331.66
592.44	1327.14
592.799	1312.23
593.158	1336.41
593.517	1354.26
593.876	1324.2
594.235	1333.92
594.593	1323.3
594.952	1292.34
595.311	1324.88
595.67	1330.53
596.029	1321.26
596.387	1328.04
596.746	1329.85
597.104	1314.26
597.463	1336.41
597.822	1327.59
598.18	1324.43
598.538	1319
598.897	1331.66
599.255	1298.44
599.613	1307.03
599.972	1323.07
600.33	1309.97
600.688	1313.13
601.046	1327.82
601.404	1326.24
601.762	1325.11
602.12	1314.71
602.478	1307.03
602.836	1324.2
603.194	1316.29
603.552	1322.17
603.91	1306.8
604.268	1321.72
604.625	1305.22
604.983	1308.84
605.341	1334.6
605.698	1314.03
606.056	1316.97
606.413	1302.06
606.771	1312.23
607.128	1330.08
607.485	1332.79
607.843	1309.97
608.2	1339.12
608.557	1309.29
608.914	1329.63
609.272	1347.93
609.629	1350.42
609.986	1348.38
610.343	1321.04
610.7	1324.88
611.057	1332.34
611.414	1329.63
611.771	1331.89
612.127	1314.03
612.484	1304.77
612.841	1355.84
613.198	1347.25
613.554	1336.41
613.911	1331.21
614.267	1332.11
614.624	1318.55
614.98	1329.85
615.337	1356.52
615.693	1356.97
616.05	1319
616.406	1334.37
616.762	1344.54
617.118	1322.39
617.475	1324.88
617.831	1335.95
618.187	1321.94
618.543	1358.1
618.899	1366.24
619.255	1341.15
619.611	1349.51
619.967	1344.09
620.323	1339.34
620.678	1355.16
621.034	1364.88
621.39	1354.71
621.746	1333.69
622.101	1360.81
622.457	1342.28
622.812	1335.73
623.168	1354.26
623.523	1347.93
623.879	1362.39
624.234	1329.85
624.589	1352.22
624.945	1353.58
625.3	1343.41
625.655	1359.23
626.01	1371.88
626.365	1370.3
626.72	1318.1
627.075	1373.92
627.43	1358.33
627.785	1369.63
628.14	1370.53
628.495	1360.36
628.85	1353.35
629.205	1359.23
629.559	1371.21
629.914	1347.93
630.269	1382.05
630.623	1357.65
630.978	1367.59
631.332	1342.28
631.687	1358.78
632.041	1358.78
632.396	1355.84
632.75	1369.85
633.104	1349.29
633.459	1339.12
633.813	1336.86
634.167	1370.75
634.521	1356.52
634.875	1374.82
635.229	1355.84
635.583	1354.26
635.937	1378.89
636.291	1343.64
636.645	1350.64
636.999	1352
637.352	1367.82
637.706	1348.83
638.06	1337.31
638.413	1355.16
638.767	1348.16
639.121	1364.65
639.474	1337.76
639.828	1370.75
640.181	1362.39
640.534	1362.62
640.888	1364.2
641.241	1338.89
641.594	1388.61
641.947	1354.48
642.301	1335.5
642.654	1363.3
643.007	1364.65
643.36	1365.11
643.713	1363.3
644.066	1377.31
644.419	1349.74
644.771	1357.2
645.124	1341.38
645.477	1342.51
645.83	1327.82
646.182	1343.41
646.535	1350.42
646.888	1331.89
647.24	1329.63
647.593	1315.39
647.945	1310.87
648.298	1356.52
648.65	1351.32
649.002	1339.34
649.355	1358.1
649.707	1326.91
650.059	1347.7
650.411	1379.12
650.763	1356.29
651.115	1378.89
651.467	1372.34
651.819	1387.25
652.171	1414.82
652.523	1380.25
652.875	1363.52
653.227	1368.27
653.578	1415.27
653.93	1389.74
654.282	1410.08
654.633	1387.7
654.985	1391.09
655.337	1372.11
655.688	1396.97
656.039	1405.1
656.391	1406.91
656.742	1376.86
657.094	1368.95
657.445	1379.12
657.796	1389.74
658.147	1415.5
658.498	1405.78
658.849	1403.07
659.2	1413.47
659.551	1411.88
659.902	1395.16
660.253	1398.78
660.604	1415.5
660.955	1405.33
661.306	1407.36
661.656	1391.32
662.007	1399.23
662.358	1417.99
662.708	1422.5
663.059	1425.67
663.409	1442.17
663.76	1432.45
664.11	1394.94
664.461	1408.27
664.811	1404.88
665.161	1433.13
665.511	1415.95
665.862	1409.85
666.212	1441.49
666.562	1392.45
666.912	1445.78
667.262	1432.22
667.612	1411.43
667.962	1413.24
668.312	1415.27
668.662	1410.98
669.011	1407.14
669.361	1418.21
669.711	1410.53
670.06	1415.95
670.41	1389.51
670.76	1405.56
671.109	1396.52
671.459	1410.3
671.808	1418.89
672.157	1420.7
672.507	1399.91
672.856	1422.28
673.205	1393.13
673.554	1397.65
673.904	1386.57
674.253	1390.87
674.602	1404.65
674.951	1392.45
675.3	1401.26
675.649	1401.26
675.998	1387.93
676.346	1405.33
676.695	1375.27
677.044	1387.03
677.393	1385.44
677.741	1406.01
678.09	1353.58
678.438	1379.57
678.787	1370.53
679.135	1362.85
679.484	1349.96
679.832	1376.18
680.181	1345.22
680.529	1349.96
680.877	1350.19
681.225	1349.74
681.573	1361.94
681.922	1341.6
682.27	1400.13
682.618	1364.2
682.966	1325.78
683.314	1344.99
683.661	1323.52
684.009	1312.23
684.357	1332.79
684.705	1342.96
685.053	1345.67
685.4	1319.46
685.748	1335.28
686.095	1300.02
686.443	1330.53
686.79	1322.85
687.138	1307.03
687.485	1295.73
687.832	1289.18
688.18	1314.49
688.527	1305.67
688.874	1312.68
689.221	1310.64
689.568	1295.05
689.915	1277.65
690.262	1274.71
690.609	1288.72
690.956	1268.84
691.303	1273.81
691.65	1251.21
691.997	1300.47
692.344	1262.51
692.69	1257.09
693.037	1287.14
693.383	1258.44
693.73	1260.7
694.077	1227.03
694.423	1252.34
694.769	1261.83
695.116	1262.06
695.462	1268.16
695.808	1245.56
696.155	1259.8
696.501	1232.23
696.847	1236.52
697.193	1232
697.539	1246.92
697.885	1219.8
698.231	1212.79
698.577	1225.67
698.923	1225
699.269	1212.34
699.614	1209.18
699.96	1185.68
700.306	1214.15
700.651	1203.98
700.997	1219.57
701.342	1187.48
701.688	1213.24
702.033	1217.54
702.379	1213.92
702.724	1180.48
703.069	1212.34
703.415	1182.06
703.76	1192.45
704.105	1185.45
704.45	1189.29
704.795	1207.6
705.14	1172.79
705.485	1209.63
705.83	1164.66
706.175	1187.93
706.52	1184.55
706.865	1180.7
707.209	1203.08
707.554	1176.18
707.899	1174.38
708.243	1200.36
708.588	1201.95
708.932	1172.12
709.277	1183.19
709.621	1162.85
709.966	1199.46
710.31	1185
710.654	1180.93
710.998	1200.82
711.342	1203.53
711.687	1189.97
712.031	1191.1
712.375	1189.97
712.719	1182.06
713.063	1192.45
713.407	1196.97
713.75	1193.58
714.094	1222.06
714.438	1209.4
714.782	1187.71
715.125	1204.88
715.469	1205.11
715.812	1189.29
716.156	1193.81
716.499	1191.55
716.843	1198.78
717.186	1193.13
717.53	1235.62
717.873	1197.88
718.216	1221.83
718.559	1199.69
718.902	1200.14
719.246	1194.71
719.589	1208.95
719.932	1232.68
720.275	1217.99
720.617	1235.84
720.96	1232
721.303	1232.91
721.646	1250.08
721.989	1251.89
722.331	1228.16
722.674	1258.44
723.016	1251.44
723.359	1266.8
723.701	1266.8
724.044	1259.8
724.386	1264.77
724.729	1269.51
725.071	1267.71
725.413	1252.57
725.755	1265.45
726.097	1277.2
726.439	1299.12
726.782	1308.61
727.124	1300.25
727.465	1295.95
727.807	1294.82
728.149	1282.62
728.491	1316.97
728.833	1314.94
729.175	1330.08
729.516	1311.32
729.858	1316.07
730.199	1330.08
730.541	1328.95
730.882	1346.8
731.224	1366.24
731.565	1350.42
731.906	1367.59
732.248	1368.72
732.589	1408.72
732.93	1365.11
733.271	1379.12
733.612	1393.58
733.953	1399
734.294	1382.96
734.635	1417.53
734.976	1426.12
735.317	1426.8
735.658	1416.18
735.999	1428.15
736.339	1422.73
736.68	1468.15
737.021	1467.02
737.361	1473.8
737.702	1483.97
738.042	1495.27
738.383	1512.45
738.723	1538.66
739.063	1534.37
739.404	1557.64
739.744	1561.94
740.084	1568.94
740.424	1606.68
740.764	1549.06
741.104	1599.45
741.444	1596.96
741.784	1591.31
742.124	1609.17
742.464	1658.88
742.804	1652.1
743.143	1667.92
743.483	1699.79
743.823	1699.56
744.162	1720.8
744.502	1752.44
744.841	1756.51
745.181	1788.6
745.52	1773
745.86	1828.6
746.199	1793.12
746.538	1840.8
746.877	1916.96
747.216	1880.12
747.556	1939.33
747.895	1958.31
748.234	1975.48
748.573	2007.12
748.911	2007.57
749.25	2042.83
749.589	2058.65
749.928	2096.39
750.267	2135.48
750.605	2205.76
750.944	2194.69
751.283	2247.34
751.621	2278.98
751.96	2303.61
752.298	2314.68
752.636	2386.55
752.975	2394
753.313	2394.46
753.651	2468.81
753.989	2528.46
754.327	2559.42
754.666	2577.05
755.004	2626.09
755.342	2678.74
755.679	2696.6
756.017	2758.06
756.355	2782.47
756.693	2866.99
757.031	2888.68
757.368	2886.65
757.706	2956.93
758.044	3018.62
758.381	3052.97
758.719	3110.37
759.056	3120.54
759.394	3184.72
759.731	3202.35
760.068	3271.95
760.405	3302.68
760.743	3333.19
761.08	3405.28
761.417	3463.81
761.754	3488.89
762.091	3582.67
762.428	3572.05
762.765	3584.26
763.102	3616.57
763.438	3669.23
763.775	3745.38
764.112	3764.59
764.449	3820.18
764.785	3864.25
765.122	3871.25
765.458	3938.37
765.795	3978.82
766.131	3974.08
766.467	4004.36
766.804	4049.55
767.14	4100.63
767.476	4137.91
767.812	4138.37
768.148	4156.22
768.485	4189.44
768.821	4164.81
769.157	4304.46
769.492	4295.88
769.828	4334.74
770.164	4323.67
770.5	4341.3
770.836	4392.37
771.171	4389.88
771.507	4464.46
771.842	4466.04
772.178	4451.13
772.513	4486.38
772.849	4532.71
773.184	4562.54
773.519	4572.93
773.855	4584.46
774.19	4582.42
774.525	4600.27
774.86	4645.25
775.195	4644.79
775.53	4649.54
775.865	4662.65
776.2	4625.81
776.535	4653.61
776.87	4682.76
777.205	4652.7
777.539	4664.23
777.874	4727.05
778.209	4725.69
778.543	4689.09
778.878	4732.47
779.212	4766.15
779.547	4719.82
779.881	4746.94
780.215	4711.68
780.55	4749.2
780.884	4733.38
781.218	4749.65
781.552	4743.55
781.886	4744.23
782.22	4753.72
782.554	4751.23
782.888	4733.6
783.222	4719.82
783.556	4713.72
783.889	4715.07
784.223	4726.6
784.557	4704.9
784.89	4778.57
785.224	4758.01
785.557	4746.03
785.891	4723.21
786.224	4752.13
786.558	4736.09
786.891	4743.1
787.224	4696.54
787.557	4712.59
787.891	4733.15
788.224	4736.77
788.557	4773.83
788.89	4708.97
789.223	4733.6
789.556	4738.58
789.888	4716.88
790.221	4678.24
790.554	4701.97
790.887	4711.91
791.219	4674.4
791.552	4695.64
791.884	4655.19
792.217	4688.18
792.549	4685.02
792.882	4643.66
793.214	4662.42
793.546	4668.52
793.879	4630.56
794.211	4649.09
794.543	4653.61
794.875	4609.77
795.207	4664
795.539	4664.91
795.871	4605.92
796.203	4639.82
796.535	4582.65
796.867	4579.03
797.198	4611.35
797.53	4572.03
797.862	4571.8
798.193	4549.2
798.525	4520.05
798.856	4568.64
799.188	4552.59
799.519	4571.12
799.85	4531.8
800.182	4539.49
800.513	4525.25
800.844	4486.15
801.175	4499.03
801.506	4542.65
801.837	4478.7
802.168	4462.43
802.499	4470.56
802.83	4463.33
803.161	4460.84
803.491	4431.01
803.822	4461.07
804.153	4415.19
804.483	4400.51
804.814	4397.57
805.145	4432.6
805.475	4418.36
805.805	4382.88
806.136	4369.77
806.466	4389.88
806.796	4338.59
807.126	4330.23
807.457	4324.12
807.787	4341.07
808.117	4340.85
808.447	4344.24
808.777	4331.58
809.107	4370.45
809.436	4344.01
809.766	4309.43
810.096	4288.42
810.426	4291.81
810.755	4297.68
811.085	4299.27
811.414	4261.75
811.744	4253.84
812.073	4236.67
812.403	4264.69
812.732	4217.69
813.061	4237.57
813.39	4242.32
813.719	4207.97
814.049	4267.18
814.378	4191.47
814.707	4211.81
815.036	4208.65
815.365	4189.66
815.693	4148.08
816.022	4167.29
816.351	4128.65
816.68	4155.31
817.008	4155.99
817.337	4150.34
817.665	4145.82
817.994	4143.34
818.322	4142.89
818.651	4089.33
818.979	4094.07
819.307	4142.21
819.636	4117.8
819.964	4083.23
820.292	4130.23
820.62	4082.55
820.948	4110.12
821.276	4098.37
821.604	4093.85
821.932	4074.86
822.259	4110.57
822.587	4089.1
822.915	4065.15
823.243	4130
823.57	4086.84
823.898	4075.54
824.225	4035.77
824.553	4111.7
824.88	4125.26
825.207	4137.46
825.535	4074.86
825.862	4113.96
826.189	4112.15
826.516	4110.12
826.843	4143.34
827.17	4101.76
827.497	4106.5
827.824	4109.89
828.151	4106.95
828.478	4147.18
828.805	4122.55
829.131	4073.28
829.458	4134.3
829.785	4107.86
830.111	4103.79
830.438	4132.94
830.764	4094.98
831.09	4149.66
831.417	4080.74
831.743	4127.97
832.069	4117.58
832.395	4140.17
832.722	4089.33
833.048	4122.55
833.374	4082.32
833.7	4093.17
834.026	4083.23
834.351	4104.47
834.677	4136.56
835.003	4085.94
835.329	4126.39
835.654	4114.86
835.98	4084.58
836.306	4085.71
836.631	4070.8
836.956	4078.93
837.282	4107.86
837.607	4063.79
837.932	4056.33
838.258	4055.88
838.583	4031.93
838.908	4045.71
839.233	4049.78
839.558	4014.75
839.883	3998.93
840.208	3979.73
840.533	3996.9
840.858	4012.04
841.182	3958.03
841.507	3924.13
841.832	3985.6
842.156	3949.9
842.481	3985.38
842.805	3944.02
843.13	3914.19
843.454	3973.85
843.778	3936.11
844.103	3920.29
844.427	3936.34
844.751	3941.53
845.075	3894.3
845.399	3929.56
845.723	3876
846.047	3856.57
846.371	3847.53
846.695	3865.38
847.019	3822.67
847.343	3803.91
847.666	3772.95
847.99	3760.97
848.313	3802.56
848.637	3733.4
848.96	3724.14
849.284	3737.47
849.607	3661.32
849.931	3723.01
850.254	3695.44
850.577	3729.56
850.9	3662.67
851.223	3627.87
851.546	3618.61
851.869	3629.45
852.192	3654.54
852.515	3586.52
852.838	3595.1
853.161	3587.65
853.483	3575.89
853.806	3569.57
854.129	3594.65
854.451	3522.56
854.774	3503.58
855.096	3496.8
855.419	3493.41
855.741	3500.87
856.063	3481.89
856.385	3462.23
856.708	3469.68
857.03	3470.59
857.352	3428.33
857.674	3424.71
857.996	3405.05
858.318	3407.31
858.64	3390.59
858.961	3384.26
859.283	3400.76
859.605	3347.88
859.926	3370.93
860.248	3391.27
860.57	3396.46
860.891	3349.46
861.212	3330.93
861.534	3374.09
861.855	3320.31
862.176	3320.53
862.498	3304.72
862.819	3326.64
863.14	3328.44
863.461	3306.75
863.782	3265.62
864.103	3309.46
864.424	3288.22
864.745	3298.39
865.065	3270.14
865.386	3257.71
865.707	3265.85
866.027	3286.41
866.348	3276.24
866.668	3242.8
866.989	3246.86
867.309	3216.81
867.63	3242.8
867.95	3199.86
868.27	3204.83
868.59	3219.75
868.91	3215.23
869.23	3190.59
869.55	3203.02
869.87	3172.06
870.19	3209.8
870.51	3181.78
870.83	3184.72
871.15	3149.92
871.469	3168.9
871.789	3159.63
872.109	3190.14
872.428	3138.39
872.748	3155.79
873.067	3143.14
873.386	3128.22
873.706	3129.13
874.025	3111.27
874.344	3089.58
874.663	3126.41
874.982	3148.11
875.301	3135.23
875.62	3110.14
875.939	3106.53
876.258	3111.73
876.577	3094.33
876.896	3109.47
877.214	3099.52
877.533	3083.93
877.852	3073.54
878.17	3055.23
878.489	3059.75
878.807	3073.31
879.125	3054.55
879.444	3035.8
879.762	3042.58
880.08	3044.16
880.398	3003.25
880.716	3018.85
881.034	2999.19
881.352	3036.25
881.67	3016.59
881.988	3008.23
882.306	3011.16
882.624	2992.63
882.941	2960.54
883.259	2975.91
883.577	2956.48
883.894	2973.42
884.212	2955.12
884.529	2943.82
884.846	2930.49
885.164	2941.11
885.481	2968.45
885.798	2917.83
886.115	2907.44
886.432	2898.62
886.75	2914.9
887.067	2908.12
887.383	2908.12
887.7	2878.51
888.017	2872.18
888.334	2865.18
888.651	2876.03
888.967	2869.7
889.284	2831.51
889.6	2840.77
889.917	2803.49
890.233	2816.82
890.55	2821.79
890.866	2811.62
891.182	2807.78
891.498	2822.69
891.815	2804.16
892.131	2793.32
892.447	2749.25
892.763	2800.55
893.079	2731.62
893.395	2746.99
893.71	2732.53
894.026	2733.88
894.342	2698.86
894.657	2695.92
894.973	2689.14
895.289	2702.92
895.604	2674.68
895.92	2692.75
896.235	2667.44
896.55	2682.58
896.865	2649.82
897.181	2614.56
897.496	2663.6
897.811	2653.21
898.126	2617.95
898.441	2644.62
898.756	2615.92
899.071	2595.81
899.386	2619.08
899.7	2580.89
900.015	2557.62
900.33	2556.03
900.644	2533.21
900.959	2525.75
901.273	2543.61
901.588	2532.98
901.902	2478.75
902.216	2504.96
902.531	2465.19
902.845	2501.8
903.159	2461.8
903.473	2441.91
903.787	2434.91
904.101	2466.55
904.415	2399.2
904.729	2419.77
905.042	2454.12
905.356	2434
905.67	2393.55
905.984	2398.3
906.297	2400.78
906.611	2406.21
906.924	2365.98
907.237	2354.68
907.551	2365.98
907.864	2303.61
908.177	2325.76
908.491	2349.71
908.804	2327.79
909.117	2321.69
909.43	2323.72
909.743	2290.28
910.056	2276.49
910.368	2290.5
910.681	2271.75
910.994	2236.72
911.307	2252.99
911.619	2259.32
911.932	2227.68
912.244	2216.61
912.557	2219.77
912.869	2229.94
913.181	2193.78
913.494	2215.25
913.806	2149.04
914.118	2165.54
914.43	2180
914.742	2159.66
915.054	2158.3
915.366	2151.98
915.678	2123.73
915.99	2138.87
916.302	2116.5
916.613	2096.39
916.925	2126.22
917.236	2074.47
917.548	2093.67
917.859	2063.39
918.171	2074.24
918.482	2069.04
918.794	2071.53
919.105	2075.37
919.416	2056.39
919.727	2024.07
920.038	2018.42
920.349	1997.86
920.66	2036.27
920.971	2030.17
921.282	1998.31
921.593	2011.19
921.903	1979.33
922.214	1970.29
922.525	1974.13
922.835	1957.18
923.146	1954.69
923.456	1958.76
923.767	1985.65
924.077	1936.39
924.387	1951.3
924.697	1929.61
925.008	1921.7
925.318	1895.03
925.628	1871.31
925.938	1897.75
926.248	1922.83
926.558	1869.95
926.867	1869.95
927.177	1878.31
927.487	1888.03
927.796	1859.1
928.106	1846.9
928.416	1868.82
928.725	1860.23
929.034	1827.01
929.344	1828.37
929.653	1820.69
929.962	1785.21
930.271	1793.12
930.581	1807.58
930.89	1784.3
931.199	1773
931.508	1789.05
931.817	1769.39
932.125	1778.43
932.434	1774.13
932.743	1756.96
933.051	1749.95
933.36	1717.64
933.669	1763.51
933.977	1729.16
934.286	1686.9
934.594	1704.98
934.902	1715.6
935.21	1732.33
935.519	1693.91
935.827	1708.6
936.135	1695.27
936.443	1674.02
936.751	1671.76
937.059	1656.62
937.367	1660.24
937.674	1652.1
937.982	1641.93
938.29	1643.97
938.597	1664.31
938.905	1626.79
939.213	1630.86
939.52	1625.21
939.827	1661.14
940.135	1605.55
940.442	1589.96
940.749	1607.81
941.056	1594.25
941.363	1564.65
941.67	1597.42
941.977	1556.06
942.284	1572.33
942.591	1541.6
942.898	1572.56
943.205	1554.03
943.511	1528.94
943.818	1545.67
944.125	1521.71
944.431	1545.67
944.738	1526.68
945.044	1516.97
945.35	1514.71
945.657	1526.68
945.963	1513.8
946.269	1477.42
946.575	1502.5
946.881	1502.05
947.187	1471.77
947.493	1468.15
947.799	1455.5
948.105	1439.23
948.41	1440.58
948.716	1471.54
949.022	1456.85
949.327	1465.22
949.633	1433.58
949.938	1439
950.244	1426.12
950.549	1445.33
950.854	1433.13
951.16	1410.3
951.465	1419.34
951.77	1413.69
952.075	1396.06
952.38	1379.57
952.685	1396.74
952.99	1391.09
953.294	1379.79
953.599	1380.47
953.904	1384.31
954.209	1347.03
954.513	1363.3
954.818	1344.77
955.122	1367.37
955.426	1332.34
955.731	1312.68
956.035	1342.73
956.339	1323.52
956.643	1338.21
956.948	1305.67
957.252	1341.6
957.556	1333.92
957.86	1299.12
958.163	1307.48
958.467	1296.41
958.771	1294.37
959.075	1304.09
959.378	1266.35
959.682	1249.85
959.985	1258.67
960.289	1263.87
960.592	1250.76
960.896	1253.7
961.199	1259.8
961.502	1258.22
961.805	1238.56
962.108	1248.27
962.411	1245.33
962.714	1258.22
963.017	1246.01
963.32	1213.92
963.623	1230.87
963.926	1202.85
964.228	1182.29
964.531	1229.74
964.833	1226.13
965.136	1181.61
965.438	1189.06
965.741	1194.04
966.043	1180.03
966.345	1189.06
966.648	1167.37
966.95	1174.6
967.252	1176.18
967.554	1158.11
967.856	1159.91
968.158	1191.32
968.46	1170.53
968.761	1132.12
969.063	1147.94
969.365	1144.77
969.666	1134.15
969.968	1151.55
970.269	1119.46
970.571	1132.57
970.872	1131.89
971.174	1109.97
971.475	1094.15
971.776	1100.93
972.077	1149.52
972.378	1087.15
972.679	1085.11
972.98	1099.8
973.281	1097.54
973.582	1083.08
973.883	1090.99
974.183	1081.5
974.484	1098.22
974.785	1115.39
975.085	1052.57
975.386	1062.51
975.686	1057.77
975.986	1087.6
976.287	1057.54
976.587	1064.55
976.887	1066.36
977.187	1032.68
977.487	1031.33
977.787	1040.59
978.087	1030.2
978.387	1015.06
978.687	1004.66
978.987	1022.74
979.286	1007.15
979.586	1019.8
979.885	1027.49
980.185	1020.03
980.484	986.13
980.784	1020.93
981.083	1020.93
981.382	982.29
981.682	953.82
981.981	979.13
982.28	990.65
982.579	978.9
982.878	989.97
983.177	1007.6
983.475	975.06
983.774	961.5
984.073	959.47
984.372	974.16
984.67	949.52
984.969	958.79
985.267	954.95
985.566	963.99
985.864	917.43
986.162	954.04
986.461	902.97
986.759	968.51
987.057	912.46
987.355	921.05
987.653	923.08
987.951	903.87
988.249	916.08
988.547	914.27
988.844	914.27
989.142	898.45
989.44	898.22
989.737	907.04
990.035	902.52
990.332	893.71
990.63	899.81
990.927	894.61
991.224	851.9
991.521	860.49
991.819	882.18
992.116	886.93
992.413	867.27
992.71	869.3
993.006	851.22
993.303	871.11
993.6	855.74
993.897	841.28
994.193	853.71
994.49	857.1
994.787	858
995.083	826.14
995.379	847.6
995.676	831.33
995.972	812.13
996.268	839.92
996.565	848.51
996.861	819.13
997.157	829.53
997.453	841.96
997.749	827.04
998.044	845.35
998.34	831.56
998.636	823.88
998.932	802.86
999.227	827.49
999.523	771.22
999.818	798.11
1000.114	787.95
1000.409	794.27
1000.704	793.14
1001	779.36
1001.295	768.96
1001.59	787.49
1001.885	788.4
1002.18	788.4
1002.475	779.36
1002.77	794.72
1003.065	771.67
1003.359	750.21
1003.654	773.48
1003.949	771.45
1004.243	744.78
1004.538	751.34
1004.832	745.91
1005.127	749.08
1005.421	743.2
1005.715	752.69
1006.009	748.85
1006.304	739.36
1006.598	728.51
1006.892	709.76
1007.186	728.74
1007.48	732.35
1007.773	721.96
1008.067	725.8
1008.361	702.07
1008.655	680.83
1008.948	710.66
1009.242	707.95
1009.535	696.65
1009.829	714.95
1010.122	712.92
1010.415	696.42
1010.708	696.2
1011.001	684.45
1011.295	668.4
1011.588	688.29
1011.881	697.1
1012.173	676.31
1012.466	665.24
1012.759	681.96
1013.052	684.22
1013.344	667.04
1013.637	656.2
1013.93	665.69
1014.222	634.28
1014.514	629.98
1014.807	682.19
1015.099	648.74
1015.391	647.16
1015.683	651
1015.976	639.25
1016.268	638.12
1016.56	641.51
1016.851	637.67
1017.143	651.23
1017.435	643.32
1017.727	628.85
1018.018	618.68
1018.31	607.16
1018.602	627.27
1018.893	612.58
1019.185	615.52
1019.476	620.04
1019.767	602.64
1020.058	590.89
1020.35	608.97
1020.641	609.19
1020.932	604.9
1021.223	595.18
1021.514	599.48
1021.804	583.21
1022.095	594.5
1022.386	591.79
1022.677	597.67
1022.967	585.01
1023.258	584.79
1023.548	562.87
1023.839	584.11
1024.129	571.23
1024.419	580.04
1024.709	567.84
1025	611
1025.29	588.85
1025.58	562.64
1025.87	558.8
1026.16	556.99
1026.449	565.35
1026.739	557.67
1027.029	564.45
1027.319	575.07
1027.608	554.05
1027.898	556.31
1028.187	544.79
1028.477	531.45
1028.766	548.86
1029.055	536.2
1029.344	535.75
1029.634	543.66
1029.923	527.16
1030.212	549.76
1030.501	534.84
1030.79	549.31
1031.078	551.57
1031.367	519.48
1031.656	529.65
1031.945	508.4
1032.233	489.87
1032.522	515.18
1032.81	520.38
1033.099	507.05
1033.387	533.71
1033.675	508.86
1033.963	493.26
1034.251	519.48
1034.54	487.39
1034.828	491.91
1035.116	499.82
1035.403	485.13
1035.691	494.39
1035.979	489.42
1036.267	472.93
1036.554	496.43
1036.842	480.38
1037.129	515.41
1037.417	477.45
1037.704	485.58
1037.992	490.78
1038.279	480.83
1038.566	487.61
1038.853	487.61
1039.14	487.61
