Data from blue_shiny_book_FLMS001491_00099.txt Node
Date: Wed Feb 08 15:27:49 GMT 2017
User: dcchb
Spectrometer: FLMS00149
Trigger mode: 0
Integration Time (sec): 2.000000E-2
Scans to average: 10
Electric dark correction enabled: true
Nonlinearity correction enabled: false
Boxcar width: 0
XAxis mode: Wavelengths
Number of Pixels in Spectrum: 2048
>>>>>Begin Spectral Data<<<<<
341.393	-10.31
341.776	-10.31
342.16	-10.31
342.543	-64.32
342.927	-65
343.31	-89.4
343.693	-77.65
344.077	-73.13
344.46	-50.31
344.843	-43.53
345.226	-59.12
345.61	-20.48
345.993	-3.53
346.376	-1.27
346.759	10.93
347.142	36.02
347.525	22.68
347.908	66.52
348.291	78.27
348.674	84.38
349.057	119.63
349.44	128.44
349.823	142.68
350.206	141.78
350.588	187.2
350.971	210.93
351.354	217.48
351.737	224.94
352.119	243.92
352.502	264.03
352.884	281.43
353.267	267.42
353.65	286.18
354.032	269.46
354.414	302.68
354.797	311.49
355.179	322.56
355.562	311.26
355.944	320.08
356.326	335.44
356.709	352.84
357.091	342.45
357.473	326.63
357.855	344.48
358.238	349.45
358.62	345.84
359.002	334.99
359.384	370.24
359.766	342.45
360.148	349.23
360.53	346.29
360.912	325.95
361.294	323.24
361.676	330.02
362.057	334.09
362.439	336.57
362.821	336.35
363.203	328.66
363.584	318.49
363.966	307.42
364.348	326.4
364.729	359.17
365.111	309.23
365.493	320.75
365.874	316.23
366.256	332.05
366.637	333.41
367.019	318.95
367.4	348.55
367.781	303.81
368.163	303.58
368.544	332.05
368.925	322.34
369.306	326.63
369.688	321.66
370.069	320.98
370.45	325.95
370.831	327.08
371.212	328.66
371.593	339.96
371.974	320.53
372.355	319.17
372.736	315.56
373.117	331.83
373.498	324.14
373.879	309
374.26	305.61
374.641	320.3
375.021	340.41
375.402	327.76
375.783	338.83
376.163	351.04
376.544	342.22
376.925	357.82
377.305	346.29
377.686	331.38
378.066	340.87
378.447	341.32
378.827	353.75
379.208	352.62
379.588	383.35
379.968	332.73
380.349	343.8
380.729	352.17
381.109	346.74
381.489	351.26
381.87	368.89
382.25	379.06
382.63	360.3
383.01	358.27
383.39	370.47
383.77	361.66
384.15	343.13
384.53	373.18
384.91	375.67
385.29	388.78
385.67	393.52
386.049	378.83
386.429	387.19
386.809	396.91
387.189	411.15
387.568	390.58
387.948	403.69
388.328	396.23
388.707	402.56
389.087	407.76
389.466	393.75
389.846	393.97
390.225	389.68
390.605	400.75
390.984	412.28
391.363	421.54
391.743	436.23
392.122	440.3
392.501	418.83
392.881	457.02
393.26	421.32
393.639	444.37
394.018	412.73
394.397	456.57
394.776	450.02
395.155	459.96
395.534	476.23
395.913	477.13
396.292	463.8
396.671	460.19
397.05	479.85
397.429	484.59
397.808	487.98
398.186	460.19
398.565	486.85
398.944	498.83
399.323	506.96
399.701	483.91
400.08	520.98
400.458	520.75
400.837	518.04
401.215	528.88
401.594	529.34
401.972	517.36
402.351	524.36
402.729	534.76
403.107	528.21
403.486	547.64
403.864	540.41
404.242	548.77
404.62	538.15
404.999	589.67
405.377	574.98
405.755	591.26
406.133	601.88
406.511	561.2
406.889	588.54
407.267	603.01
407.645	627.64
408.023	628.09
408.401	636
408.779	617.7
409.156	647.53
409.534	643.01
409.912	648.2
410.29	658.82
410.667	666.73
411.045	662.21
411.422	694.76
411.8	691.37
412.178	708.99
412.555	723.46
412.933	742.21
413.31	723.23
413.687	755.77
414.065	777.24
414.442	746.73
414.819	767.75
415.197	756.22
415.574	763.68
415.951	775.66
416.328	803
416.705	771.14
417.082	803.23
417.46	809.55
417.837	831.48
418.214	834.64
418.591	829.44
418.967	861.31
419.344	844.36
419.721	876.67
420.098	887.97
420.475	876.67
420.852	881.64
421.228	909.67
421.605	928.65
421.982	928.2
422.358	954.86
422.735	955.99
423.111	973.84
423.488	986.05
423.864	961.19
424.241	972.04
424.617	993.28
424.994	982.88
425.37	1003.45
425.746	1032.15
426.123	1034.86
426.499	1035.31
426.875	1054.52
427.251	1083.45
427.627	1092.26
428.003	1090.9
428.379	1088.87
428.756	1152.82
429.132	1150.34
429.507	1152.6
429.883	1176.55
430.259	1186.95
430.635	1204.12
431.011	1211.13
431.387	1258.36
431.763	1262.88
432.138	1286.15
432.514	1285.02
432.89	1280.5
433.265	1327.06
433.641	1332.25
434.016	1345.13
434.392	1359.6
434.767	1404.57
435.143	1393.27
435.518	1434.85
435.894	1462.19
436.269	1440.72
436.644	1483.89
437.02	1498.8
437.395	1504.9
437.77	1542.19
438.145	1525.24
438.52	1553.04
438.895	1572.02
439.271	1582.19
439.646	1608.18
440.021	1630.78
440.395	1652.02
440.77	1638.01
441.145	1683.66
441.52	1724.11
441.895	1736.76
442.27	1732.02
442.645	1727.95
443.019	1756.42
443.394	1730.43
443.769	1761.62
444.143	1787.38
444.518	1793.48
444.892	1784.67
445.267	1798.91
445.641	1825.12
446.016	1869.87
446.39	1852.92
446.764	1876.42
447.139	1883.88
447.513	1875.74
447.887	1941.28
448.262	1947.6
448.636	1938.34
449.01	1955.74
449.384	1970.65
449.758	1998
450.132	2014.27
450.506	2009.52
450.88	2066.25
451.254	2056.75
451.628	2089.75
452.002	2101.5
452.376	2129.52
452.75	2120.03
453.123	2176.3
453.497	2198.22
453.871	2214.72
454.244	2280.48
454.618	2280.48
454.992	2332.9
455.365	2325
455.739	2391.66
456.112	2409.29
456.486	2440.25
456.859	2489.74
457.232	2483.18
457.606	2521.15
457.979	2571.77
458.352	2597.76
458.725	2633.24
459.099	2684.31
459.472	2691.09
459.845	2759.11
460.218	2766.11
460.591	2758.43
460.964	2810.41
461.337	2862.16
461.71	2881.82
462.083	2942.15
462.456	2981.93
462.829	3005.66
463.201	3018.08
463.574	3036.16
463.947	3074.35
464.32	3165.65
464.692	3170.17
465.065	3237.51
465.438	3277.06
465.81	3302.14
466.183	3339.88
466.555	3409.03
466.928	3437.28
467.3	3441.8
467.672	3547.34
468.045	3622.36
468.417	3591.4
468.789	3656.03
469.161	3682.93
469.534	3732.64
469.906	3843.15
470.278	3837.5
470.65	3876.59
471.022	3943.03
471.394	4018.06
471.766	4088.56
472.138	4126.08
472.51	4187.32
472.882	4255.57
473.253	4397.26
473.625	4375.34
473.997	4502.11
474.369	4499.18
474.74	4560.87
475.112	4588.89
475.484	4759.51
475.855	4822.1
476.227	4846.29
476.598	4938.71
476.97	4970.12
477.341	5143.9
477.713	5209.67
478.084	5284.47
478.455	5410.11
478.827	5457.34
479.198	5653.27
479.569	5630.45
479.94	5820.5
480.311	5804.68
480.682	5984.79
481.053	6072.02
481.424	6166.25
481.795	6203.76
482.166	6270.43
482.537	6427.26
482.908	6555.17
483.279	6592.45
483.65	6753.81
484.021	6972.1
484.391	6963.74
484.762	7051.88
485.133	7129.16
485.503	7301.81
485.874	7432.88
486.244	7466.33
486.615	7638.3
486.985	7683.5
487.356	7752.65
487.726	7905.64
488.097	7999.2
488.467	8094.79
488.837	8191.51
489.207	8378.85
489.578	8471.73
489.948	8657.26
490.318	8793.07
490.688	8810.47
491.058	8955.1
491.428	9122.78
491.798	9170.24
492.168	9388.54
492.538	9473.96
492.908	9478.93
493.278	9654.75
493.648	9626.05
494.017	9753.5
494.387	9795.08
494.757	9891.58
495.126	10041.18
495.496	10172.7
495.866	10227.39
496.235	10300.15
496.605	10487.49
496.974	10572.24
497.344	10671.89
497.713	10768.16
498.082	10845.68
498.452	10994.37
498.821	11032.79
499.19	11053.35
499.559	11168.83
499.928	11146.46
500.298	11230.98
500.667	11409.5
501.036	11389.62
501.405	11462.83
501.774	11557.07
502.143	11689.95
502.512	11706.67
502.88	11911.86
503.249	11892.88
503.618	12034.8
503.987	12144.4
504.356	12211.29
504.724	12304.62
505.093	12355.47
505.462	12402.24
505.83	12504.16
506.199	12625.74
506.567	12760.65
506.936	12700.99
507.304	12818.5
507.672	12853.53
508.041	13012.4
508.409	13080.42
508.777	13128.55
509.145	13374.2
509.514	13421.65
509.882	13527.19
510.25	13584.59
510.618	13638.82
510.986	13789.55
511.354	13898.48
511.722	14003.33
512.09	14156.77
512.458	14123.33
512.826	14292.59
513.193	14276.32
513.561	14267.96
513.929	14352.02
514.297	14542.08
514.664	14624.33
515.032	14588.4
515.4	14794.5
515.767	14938.68
516.135	15138.67
516.502	15064.32
516.869	15334.6
517.237	15395.61
517.604	15405.33
517.972	15657.07
518.339	15708.82
518.706	15775.72
519.073	15818.65
519.44	15970.96
519.808	16044.18
520.175	15953.79
520.542	16201.01
520.909	16243.73
521.276	16234.46
521.643	16424.96
522.009	16553.1
522.376	16701.57
522.743	16843.71
523.11	17024.72
523.477	17155.57
523.843	17329.57
524.21	17549.68
524.577	17754.65
524.943	17885.72
525.31	17990.8
525.676	18181.08
526.043	18257.01
526.409	18341.3
526.776	18358.25
527.142	18464.46
527.508	18496.32
527.874	18648.63
528.241	18732.25
528.607	18727.28
528.973	18878.01
529.339	18885.01
529.705	19052.01
530.071	19336.3
530.437	19466.01
530.803	19633.69
531.169	19870.07
531.535	19867.36
531.901	20065.55
532.267	20184.19
532.632	20202.72
532.998	20322.49
533.364	20516.61
533.73	20513.22
534.095	20754.12
534.461	20725.64
534.826	20767
535.192	20800.44
535.557	20827.11
535.923	20880.21
536.288	20886.54
536.653	21079.3
537.019	21040.21
537.384	21124.05
537.749	21262.58
538.114	21473.87
538.479	21460.09
538.845	21651.94
539.21	21747.76
539.575	22009
539.94	22093.29
540.305	22032.95
540.67	22065.49
541.034	22157.02
541.399	22158.37
541.764	22269.78
542.129	22278.82
542.494	22343.23
542.858	22313.85
543.223	22378.48
543.587	22364.47
543.952	22356.33
544.316	22343.23
544.681	22343
545.045	22620.96
545.41	22708.41
545.774	22726.49
546.138	22848.07
546.503	22907.73
546.867	22975.53
547.231	23290.77
547.595	23403.54
547.959	23383.65
548.324	23560.14
548.688	23610.31
549.052	23704.32
549.416	23544.1
549.779	23669.52
550.143	23542.74
550.507	23693.47
550.871	23631.78
551.235	23653.93
551.599	23731.89
551.962	23737.77
552.326	23738.22
552.689	23874.94
553.053	23785.45
553.417	23846.69
553.78	24230.63
554.143	24209.39
554.507	24393.12
554.87	24465.88
555.234	24849.83
555.597	24668.81
555.96	24902.03
556.323	24900.22
556.686	25004.85
557.05	25159.88
557.413	25143.15
557.776	25194
558.139	25342.92
558.502	25219.08
558.865	25210.95
559.228	25272.19
559.59	25343.15
559.953	25168.46
560.316	25596.02
560.679	25472.64
561.041	25751.5
561.404	25790.59
561.767	26037.82
562.129	26010.25
562.492	26304.48
562.854	26393.29
563.217	26403.01
563.579	26611.36
563.941	26810.68
564.304	26904.46
564.666	27147.17
565.028	27233.94
565.39	27266.49
565.753	27319.82
566.115	27516.65
566.477	27456.09
566.839	27459.93
567.201	27615.86
567.563	27601.39
567.925	27660.83
568.287	27619.02
568.648	27562.52
569.01	27640.94
569.372	27844.1
569.734	27702.63
570.095	28099.01
570.457	28084.77
570.819	28190.76
571.18	28288.61
571.542	28420.58
571.903	28634.13
572.265	28814.02
572.626	28855.6
572.987	28978.08
573.349	29113.44
573.71	29276.15
574.071	29413.32
574.432	29383.04
574.794	29638.63
575.155	29429.14
575.516	29199.54
575.877	29353.66
576.238	29282.93
576.599	29394.57
576.96	29460.55
577.32	29474.11
577.681	29536.48
578.042	29571.96
578.403	29548.91
578.763	29621.45
579.124	29678.17
579.485	29943.7
579.845	30025.51
580.206	29899.19
580.566	30090.82
580.927	30125.39
581.287	30394.99
581.648	30448.32
582.008	30550.69
582.368	30450.13
582.728	30736.9
583.089	30637.47
583.449	30689
583.809	30632.73
584.169	30545.5
584.529	30619.17
584.889	30676.57
585.249	30449
585.609	30508.66
585.969	30483.58
586.329	30416.23
586.688	30385.73
587.048	30428.21
587.408	30439.28
587.768	30414.65
588.127	30566.96
588.487	30363.81
588.846	30750.91
589.206	30567.87
589.565	30671.82
589.925	30780.74
590.284	30782.55
590.643	30851.02
591.003	31072.71
591.362	31128.53
591.721	31090.57
592.08	31086.95
592.44	31171.47
592.799	31207.4
593.158	31217.12
593.517	31156.1
593.876	31119.72
594.235	31181.41
594.593	31143.22
594.952	31284.46
595.311	30948.88
595.67	31018.03
596.029	31187.51
596.387	31161.75
596.746	31165.37
597.104	30969.21
597.463	30958.59
597.822	31136.44
598.18	31050.57
598.538	31092.37
598.897	31186.61
599.255	30956.78
599.613	31558.58
599.972	31415.53
600.33	31381.86
600.688	31505.02
601.046	31648.07
601.404	31676.54
601.762	31702.75
602.12	31869.53
602.478	31841.73
602.836	31876.08
603.194	31760.38
603.552	31748.4
603.91	31728.29
604.268	31860.04
604.625	31491.69
604.983	31736.2
605.341	31487.84
605.698	31542.76
606.056	31657.11
606.413	31668.86
606.771	31765.58
607.128	31689.87
607.485	31589.54
607.843	31869.3
608.2	32057.77
608.557	32036.08
608.914	31973.71
609.272	32172.8
609.629	32286.92
609.986	32321.49
610.343	32148.17
610.7	32450.08
611.057	32417.99
611.414	32485.33
611.771	32630.64
612.127	32696.85
612.484	32700.69
612.841	32794.48
613.198	32649.85
613.554	32759
613.911	32831.31
614.267	32854.14
614.624	32666.8
614.98	32842.39
615.337	32805.78
615.693	32813.01
616.05	32636.97
616.406	32795.61
616.762	32730.07
617.118	32707.25
617.475	32796.96
617.831	32813.91
618.187	32779.56
618.543	32923.51
618.899	33067.92
619.255	32951.99
619.611	33064.75
619.967	33066.79
620.323	33224.3
620.678	33034.47
621.034	33179.33
621.39	33286.44
621.746	33162.83
622.101	33596.04
622.457	33440.11
622.812	33385.2
623.168	33592.87
623.523	33697.05
623.879	33773.43
624.234	33487.79
624.589	33557.39
624.945	33673.55
625.3	33713.55
625.655	33555.13
626.01	33566.21
626.365	33429.71
626.72	33530.5
627.075	33401.47
627.43	33333.67
627.785	33287.12
628.14	33486.44
628.495	33184.75
628.85	33305.42
629.205	32999.67
629.559	33274.69
629.914	33029.72
630.269	33203.28
630.623	33236.27
630.978	33122.83
631.332	33389.72
631.687	33432.88
632.041	33251.41
632.396	33351.52
632.75	33363.73
633.104	33351.75
633.459	33171.64
633.813	33273.11
634.167	33156.73
634.521	33056.16
634.875	33129.84
635.229	33177.29
635.583	33095.49
635.937	33032.89
636.291	33033.57
636.645	33103.62
636.999	32816.4
637.352	32964.64
637.706	32716.51
638.06	32850.52
638.413	32688.49
638.767	32555.61
639.121	32433.81
639.474	32221.61
639.828	32319.46
640.181	32428.84
640.534	32327.37
640.888	32083.31
641.241	32113.59
641.594	32281.5
641.947	32356.97
642.301	32192.91
642.654	32232.01
643.007	32354.26
643.36	32310.2
643.713	32299.12
644.066	32439.91
644.419	32227.03
644.771	32304.32
645.124	32268.84
645.477	32160.82
645.83	32112.01
646.182	31848.74
646.535	31515.19
646.888	31502.08
647.24	31260.28
647.593	31271.35
647.945	31060.06
648.298	30995.88
648.65	31000.63
649.002	30835.21
649.355	31019.61
649.707	30957.24
650.059	31213.95
650.411	31657.78
650.763	31548.18
651.115	31824.11
651.467	31619.82
651.819	31592.25
652.171	31593.38
652.523	31450.78
652.875	31403.33
653.227	31295.31
653.578	31678.57
653.93	31545.24
654.282	31481.52
654.633	31415.08
654.985	31449.2
655.337	31452.14
655.688	31519.71
656.039	31583.89
656.391	31449.65
656.742	31616.2
657.094	31675.41
657.445	31837.89
657.796	31730.32
658.147	31726.71
658.498	31627.5
658.849	31692.81
659.2	31719.93
659.551	31649.2
659.902	31757.67
660.253	31576.2
660.604	31511.57
660.955	31451.69
661.306	31506.6
661.656	31392.25
662.007	31326.27
662.358	31170.79
662.708	31232.48
663.059	31255.76
663.409	31001.98
663.76	31245.82
664.11	30959.95
664.461	30923.79
664.811	31037.69
665.161	30968.76
665.511	30923.79
665.862	31067.52
666.212	31085.14
666.562	31218.7
666.912	31008.08
667.262	31170.34
667.612	31461.18
667.962	31348.86
668.312	31397.9
668.662	31494.85
669.011	31540.5
669.361	31513.83
669.711	31515.41
670.06	31446.49
670.41	31342.76
670.76	31454.17
671.109	31377.56
671.459	31310.67
671.808	31249.21
672.157	31300.5
672.507	31081.98
672.856	31027.74
673.205	31014.86
673.554	30943.9
673.904	30879.05
674.253	30962.66
674.602	30752.04
674.951	30394.99
675.3	30249.91
675.649	30609.9
675.998	30498.49
676.346	30442.9
676.695	30386.18
677.044	30291.49
677.393	30383.24
677.741	30297.59
678.09	30254.43
678.438	30126.98
678.787	30173.08
679.135	30216.69
679.484	30124.26
679.832	30242.68
680.181	30134.43
680.529	30305.28
680.877	30378.04
681.225	30303.24
681.573	30605.38
681.922	30469.57
682.27	30361.09
682.618	30355.9
682.966	30274.99
683.314	30370.59
683.661	30171.04
684.009	30049.01
684.357	30083.81
684.705	29880.43
685.053	29968.11
685.4	29874.55
685.748	29693.32
686.095	29621.45
686.443	29497.84
686.79	29435.02
687.138	29322.25
687.485	29286.09
687.832	29175.36
688.18	29193.22
688.527	28920.68
688.874	28837.52
689.221	28641.59
689.568	28632.33
689.915	28565.66
690.262	28522.27
690.609	28498.54
690.956	28364.08
691.303	28326.12
691.65	28223.98
691.997	28152.79
692.344	27982.17
692.69	28067.6
693.037	28107.37
693.383	27840.71
693.73	27946.92
694.077	27736.98
694.423	27813.82
694.769	27782.41
695.116	27739.24
695.462	27807.94
695.808	27653.37
696.155	27770.88
696.501	27535.41
696.847	27451.79
697.193	27305.58
697.539	27315.75
697.885	27206.6
698.231	27097.68
698.577	26997.79
698.923	26994.18
699.269	26868.76
699.614	26670.8
699.96	26608.2
700.306	26658.37
700.651	26446.62
700.997	26279.17
701.342	26139.06
701.688	26038.5
702.033	25877.14
702.379	25685.29
702.724	25715.11
703.069	25764.83
703.415	25466.31
703.76	25437.16
704.105	25438.51
704.45	25348.12
704.795	25273.32
705.14	25254.11
705.485	25163.49
705.83	25106.77
706.175	25106.54
706.52	25066.54
706.865	25104.74
707.209	25234
707.554	25104.06
707.899	25164.85
708.243	25049.82
708.588	25001.91
708.932	24985.19
709.277	24916.04
709.621	24951.52
709.966	24828.36
710.31	24841.24
710.654	24602.6
710.998	24651.87
711.342	24759.21
711.687	24542.72
712.031	24311.99
712.375	24411.87
712.719	24341.14
713.063	24305.66
713.407	24221.14
713.75	24037.64
714.094	24003.3
714.438	23762.85
714.782	23754.04
715.125	23692.12
715.469	23684.89
715.812	23448.73
716.156	23382.52
716.499	23343.88
716.843	23351.79
717.186	23174.39
717.53	23444.44
717.873	23335.74
718.216	23225.24
718.559	23136.88
718.902	23040.61
719.246	23174.84
719.589	23167.39
719.932	23093.04
720.275	23175.97
720.617	23033.15
720.96	23119.02
721.303	23115.64
721.646	23223.88
721.989	23175.52
722.331	23253.94
722.674	23198.34
723.016	23297.33
723.359	23186.14
723.701	23125.8
724.044	23090.33
724.386	22970.1
724.729	23073.6
725.071	23041.06
725.413	23082.19
725.755	23170.32
726.097	22959.26
726.439	22847.39
726.782	22831.8
727.124	22854.4
727.465	22719.94
727.807	22711.13
728.149	22627.29
728.491	22573.28
728.833	22652.82
729.175	22500.28
729.516	22498.93
729.858	22477.23
730.199	22622.09
730.541	22539.83
730.882	22408.99
731.224	22428.2
731.565	22229.1
731.906	22277.47
732.248	22333.73
732.589	22161.31
732.93	22155.43
733.271	22173.51
733.612	22424.81
733.953	22251.93
734.294	22202.89
734.635	22246.73
734.976	22349.33
735.317	22111.59
735.658	22309.33
735.999	22384.81
736.339	22377.8
736.68	22535.99
737.021	22364.92
737.361	22309.78
737.702	22545.25
738.042	22474.75
738.383	22363.79
738.723	22527.85
739.063	22565.14
739.404	22567.63
739.744	22554.07
740.084	22493.96
740.424	22628.19
740.764	22638.81
741.104	22685.59
741.444	22498.7
741.784	22421.19
742.124	22428.42
742.464	22510
742.804	22518.36
743.143	22451.7
743.483	22515.42
743.823	22305.49
744.162	22364.92
744.502	22328.09
744.841	22256
745.181	22260.52
745.52	22195.21
745.86	22330.12
746.199	22247.86
746.538	22301.87
746.877	22326.73
747.216	22287.41
747.556	22406.95
747.895	22339.84
748.234	22299.84
748.573	22456.44
748.911	22385.26
749.25	22425.48
749.589	22427.52
749.928	22429.78
750.267	22663.9
750.605	22462.54
750.944	22624.57
751.283	22508.42
751.621	22728.53
751.96	22567.85
752.298	22721.52
752.636	22654.86
752.975	22768.3
753.313	22743.44
753.651	22874.96
753.989	22908.86
754.327	22955.19
754.666	22827.28
755.004	23182.07
755.342	23114.96
755.679	23063.21
756.017	23051.46
756.355	23126.48
756.693	23154.73
757.031	23192.24
757.368	23017.11
757.706	23109.31
758.044	23111.12
758.381	23158.35
758.719	23056.65
759.056	23243.54
759.394	23087.61
759.731	22912.7
760.068	23031.8
760.405	22870.22
760.743	22954.28
761.08	23014.17
761.417	22896.66
761.754	22895.98
762.091	22939.37
762.428	22798.81
762.765	22721.52
763.102	22738.02
763.438	22710.9
763.775	22662.31
764.112	22612.15
764.449	22823.67
764.785	22709.54
765.122	22588.19
765.458	22729.2
765.795	22670
766.131	22699.37
766.467	22607.4
766.804	22531.24
767.14	22597.23
767.476	22776.21
767.812	22501.64
768.148	22599.26
768.485	22484.01
768.821	22362.66
769.157	22366.5
769.492	22364.47
769.828	22465.26
770.164	22395.88
770.5	22265.94
770.836	22398.37
771.171	22239.95
771.507	22309.33
771.842	22138.94
772.178	22199.5
772.513	22175.32
772.849	22054.19
773.184	21898.94
773.519	21845.84
773.855	21857.82
774.19	21775.78
774.525	21695.33
774.86	21714.09
775.195	21615.11
775.53	21475.9
775.865	21523.81
776.2	21300.09
776.535	21147.55
776.87	21239.07
777.205	21133.99
777.539	20914.79
777.874	21069.36
778.209	20829.82
778.543	20828.01
778.878	20738.52
779.212	20579.88
779.547	20577.85
779.881	20618.07
780.215	20402.94
780.55	20503.5
780.884	20362.94
781.218	20297.18
781.552	20274.13
781.886	20149.16
782.22	20093.12
782.554	19968.15
782.888	19892.22
783.222	19763.18
783.556	19728.83
783.889	19805.89
784.223	19552.11
784.557	19573.13
784.89	19549.4
785.224	19522.06
785.557	19443.64
785.891	19425.11
786.224	19322.97
786.558	19327.94
786.891	19225.12
787.224	19098.57
787.557	19220.6
787.891	19112.12
788.224	19164.1
788.557	19134.04
788.89	19027.16
789.223	19028.74
789.556	18956.65
789.888	18985.35
790.221	18866.26
790.554	18687.05
790.887	18685.92
791.219	18541.07
791.552	18477.79
791.884	18473.95
792.217	18408.41
792.549	18344.24
792.882	18166.16
793.214	18197.12
793.546	18180.17
793.879	18091.36
794.211	18134.07
794.543	18048.65
794.875	17903.57
795.207	17967.52
795.539	17797.13
795.871	17805.04
796.203	17518.72
796.535	17419.51
796.867	17388.78
797.198	17394.66
797.53	17297.94
797.862	17191.27
798.193	17259.52
798.525	17188.56
798.856	17080.31
799.188	17109.69
799.519	16943.14
799.85	16893.43
800.182	16836.25
800.513	16872.64
800.844	16746.31
801.175	16819.76
801.506	16804.39
801.837	16646.43
802.168	16679.19
802.499	16547.67
802.83	16561.23
803.161	16538.41
803.491	16562.36
803.822	16481.69
804.153	16411.86
804.483	16404.4
804.814	16340.45
805.145	16361.69
805.475	16292.54
805.805	16230.62
806.136	16269.71
806.466	16278.3
806.796	16241.01
807.126	16065.43
807.457	16076.05
807.787	16104.07
808.117	16019.32
808.447	16070.4
808.777	16033.11
809.107	16024.07
809.436	15913.34
809.766	15880.35
810.096	15880.12
810.426	15848.93
810.755	15880.57
811.085	15775.04
811.414	15840.12
811.744	15587.7
812.073	15602.16
812.403	15537.3
812.732	15384.76
813.061	15411.66
813.39	15344.54
813.719	15211.21
814.049	15299.12
814.378	15254.82
814.707	15188.16
815.036	15159.01
815.365	15102.96
815.693	14956.3
816.022	14933.93
816.351	15012.35
816.68	14871.33
817.008	14859.81
817.337	14761.5
817.665	14644.9
817.994	14691.9
818.322	14702.3
818.651	14527.84
818.979	14575.52
819.307	14627.27
819.636	14523.54
819.964	14500.04
820.292	14557.22
820.62	14422.53
820.948	14489.2
821.276	14602.19
821.604	14460.95
821.932	14471.57
822.259	14585.92
822.587	14519.48
822.915	14550.21
823.243	14535.75
823.57	14533.71
823.898	14580.04
824.225	14594.5
824.553	14582.75
824.88	14527.16
825.207	14542.75
825.535	14594.05
825.862	14654.61
826.189	14643.54
826.516	14724.22
826.843	14715.86
827.17	14744.56
827.497	14614.39
827.824	14690.55
828.151	14682.64
828.478	14729.87
828.805	14755.85
829.131	14612.13
829.458	14539.36
829.785	14588.85
830.111	14579.59
830.438	14561.06
830.764	14567.16
831.09	14609.87
831.417	14549.31
831.743	14596.54
832.069	14571
832.395	14331.69
832.722	14578.68
833.048	14433.15
833.374	14449.42
833.7	14292.14
834.026	14314.96
834.351	14340.27
834.677	14251.91
835.003	14340.05
835.329	14284.91
835.654	14243.1
835.98	14108.41
836.306	14093.27
836.631	14089.43
836.956	14080.84
837.282	14131.24
837.607	13914.3
837.932	13906.61
838.258	13933.73
838.583	13997.46
838.908	13900.74
839.233	13909.32
839.558	13924.46
839.883	13872.04
840.208	13877.69
840.533	13784.81
840.858	13862.32
841.182	13886.05
841.507	13861.19
841.832	13794.98
842.156	13841.75
842.481	13775.77
842.805	13813.73
843.13	13783
843.454	13766.05
843.778	13672.49
844.103	13664.36
844.427	13658.93
844.751	13581.42
845.075	13580.97
845.399	13633.17
845.723	13567.19
846.047	13490.35
846.371	13437.92
846.695	13469.79
847.019	13390.24
847.343	13279.28
847.666	13239.51
847.99	13213.52
848.313	13175.56
848.637	13160.87
848.96	13037.48
849.284	13035.22
849.607	12986.86
849.931	12872.29
850.254	12812.4
850.577	12682.01
850.9	12625.52
851.223	12615.57
851.546	12497.38
851.869	12430.72
852.192	12476.82
852.515	12329.25
852.838	12279.31
853.161	12242.7
853.483	12248.35
853.806	12103.95
854.129	12065.98
854.451	12074.8
854.774	11990.05
855.096	11951.41
855.419	11884.74
855.741	11802.71
856.063	11759.1
856.385	11699.89
856.708	11689.27
857.03	11646.56
857.352	11657.18
857.674	11639.33
857.996	11565.88
858.318	11553.91
858.64	11494.7
858.961	11471.87
859.283	11464.64
859.605	11429.39
859.926	11518.88
860.248	11436.17
860.57	11343.06
860.891	11311.43
861.212	11296.51
861.534	11301.48
861.855	11254.93
862.176	11275.95
862.498	11338.32
862.819	11301.71
863.14	11247.92
863.461	11183.97
863.782	11247.25
864.103	11226.91
864.424	11166.57
864.745	11178.32
865.065	11215.38
865.386	11153.92
865.707	11137.87
866.027	11215.16
866.348	11187.81
866.668	11144.88
866.989	11082.73
867.309	10966.12
867.63	11066.46
867.95	11098.55
868.27	11068.72
868.59	11075.05
868.91	11065.1
869.23	11053.58
869.55	11006.12
869.87	11023.3
870.19	10982.39
870.51	10931.55
870.83	11036.4
871.15	10886.35
871.469	10804.55
871.789	10887.26
872.109	10764.32
872.428	10707.6
872.748	10741.72
873.067	10758.9
873.386	10773.13
873.706	10701.05
874.025	10599.58
874.344	10568.62
874.663	10550.99
874.982	10559.36
875.301	10539.92
875.62	10454.95
875.939	10426.03
876.258	10425.8
876.577	10354.84
876.896	10371.11
877.214	10375.63
877.533	10385.8
877.852	10336.54
878.17	10343.54
878.489	10341.06
878.807	10251.11
879.125	10298.12
879.444	10247.27
879.762	10279.14
880.08	10240.27
880.398	10116.43
880.716	10067.62
881.034	10063.77
881.352	10055.19
881.67	10053.61
881.988	10113.27
882.306	10024
882.624	10071.46
882.941	9998.92
883.259	9985.13
883.577	10009.09
883.894	9980.16
884.212	9957.34
884.529	9978.81
884.846	9915.08
885.164	9960.05
885.481	9945.13
885.798	9988.97
886.115	9949.88
886.432	9862.2
886.75	9878.24
887.067	9919.82
887.383	9878.92
887.7	9936.09
888.017	9838.7
888.334	9805.7
888.651	9861.52
888.967	9813.84
889.284	9748.08
889.6	9758.25
889.917	9706.95
890.233	9634.63
890.55	9679.83
890.866	9672.37
891.182	9588.31
891.498	9614.75
891.815	9575.43
892.131	9440.29
892.447	9483.9
892.763	9466.28
893.079	9429.22
893.395	9351.93
893.71	9308.77
894.026	9320.29
894.342	9235.55
894.657	9235.1
894.973	9179.73
895.289	9229.22
895.604	9155.1
895.92	9005.95
896.235	8968.21
896.55	9001.2
896.865	8934.77
897.181	8922.34
897.496	8887.76
897.811	8842.56
898.126	8827.2
898.441	8799.4
898.756	8735.45
899.071	8639.63
899.386	8702
899.7	8570.48
900.015	8607.99
900.33	8491.61
900.644	8439.41
900.959	8505.62
901.273	8448.45
901.588	8375.91
901.902	8346.53
902.216	8378.62
902.531	8368.68
902.845	8257.27
903.159	8331.39
903.473	8246.87
903.787	8225.18
904.101	8189.93
904.415	8237.16
904.729	8122.81
905.042	8062.47
905.356	8102.24
905.67	8100.21
905.984	8122.81
906.297	8069.7
906.611	8061.79
906.924	7975.92
907.237	7982.47
907.551	7887.79
907.864	7882.59
908.177	7957.62
908.491	7938.18
908.804	7883.72
909.117	7829.26
909.43	7820.9
909.743	7786.77
910.056	7795.36
910.368	7794
910.681	7711.97
910.994	7730.95
911.307	7688.7
911.619	7647.57
911.932	7667.23
912.244	7601.47
912.557	7577.74
912.869	7531.41
913.181	7509.94
913.494	7490.51
913.806	7403.28
914.118	7403.73
914.43	7408.25
914.742	7339.78
915.054	7350.4
915.366	7281.02
915.678	7238.99
915.99	7222.49
916.302	7145.43
916.613	7185.21
916.925	7098.2
917.236	7073.57
917.548	7034.7
917.859	7034.7
918.171	6927.81
918.482	6923.52
918.794	6935.95
919.105	6906.12
919.416	6830.41
919.727	6792.9
920.038	6787.48
920.349	6708.61
920.66	6611.66
920.971	6622.28
921.282	6689.17
921.593	6589.06
921.903	6551.78
922.214	6516.75
922.525	6508.84
922.835	6493.02
923.146	6484.89
923.456	6423.42
923.767	6366.02
924.077	6443.31
924.387	6363.31
924.697	6292.57
925.008	6347.26
925.318	6267.04
925.628	6226.59
925.938	6240.37
926.248	6168.96
926.558	6101.39
926.867	6114.05
927.177	6094.16
927.487	6089.42
927.796	5974.39
928.106	6025.69
928.416	6071.79
928.725	6013.49
929.034	5964.45
929.344	5954.96
929.653	5957.44
929.962	5865.02
930.271	5871.57
930.581	5896.43
930.89	5895.07
931.199	5858.01
931.508	5879.03
931.817	5797.67
932.125	5788.86
932.434	5839.93
932.743	5725.36
933.051	5731.46
933.36	5719.26
933.669	5685.58
933.977	5667.96
934.286	5698.69
934.594	5659.6
934.902	5599.26
935.21	5581.41
935.519	5548.19
935.827	5534.18
936.135	5575.76
936.443	5516.78
936.751	5485.59
937.059	5488.53
937.367	5453.5
937.674	5446.95
937.982	5404.69
938.29	5353.39
938.597	5338.48
938.905	5287.63
939.213	5298.7
939.52	5180.97
939.827	5218.93
940.135	5205.82
940.442	5157.46
940.749	5212.38
941.056	5156.79
941.363	5125.6
941.67	5072.49
941.977	5058.71
942.284	4955.21
942.591	4949.56
942.898	4928.54
943.205	4948.43
943.511	4929.45
943.818	4857.36
944.125	4817.59
944.431	4813.74
944.738	4796.12
945.044	4777.13
945.35	4729
945.657	4719.51
945.963	4709.57
946.269	4659.62
946.575	4687.87
946.881	4637.93
947.187	4623.24
947.493	4588.21
947.799	4590.02
948.105	4596.35
948.41	4572.39
948.716	4591.15
949.022	4507.54
949.327	4497.14
949.633	4444.71
949.938	4451.95
950.244	4428.22
950.549	4406.52
950.854	4391.61
951.16	4382.34
951.465	4351.38
951.77	4371.72
952.075	4330.59
952.38	4322.91
952.685	4316.13
952.99	4298.05
953.294	4281.55
953.599	4297.15
953.904	4262.35
954.209	4235.23
954.513	4256.24
954.818	4194.55
955.122	4235.45
955.426	4219.86
955.731	4209.01
956.035	4215.79
956.339	4183.03
956.643	4160.43
956.948	4119.52
957.252	4104.16
957.556	4108.23
957.86	4057.61
958.163	4051.05
958.467	4092.63
958.771	4038.62
959.075	4066.42
959.378	3977.83
959.682	4024.39
959.985	4035.91
960.289	4012.18
960.592	3991.84
960.896	3964.05
961.199	3927.89
961.502	3917.27
961.805	3913.88
962.108	3861.45
962.411	3876.14
962.714	3840.66
963.017	3844.73
963.32	3829.81
963.623	3797.95
963.926	3785.52
964.228	3731.29
964.531	3774.45
964.833	3747.1
965.136	3719.99
965.438	3657.84
965.741	3630.27
966.043	3639.76
966.345	3595.7
966.648	3593.44
966.95	3562.48
967.252	3561.12
967.554	3543.49
967.856	3511.63
968.158	3505.53
968.46	3491.52
968.761	3505.08
969.063	3488.35
969.365	3421.46
969.666	3440.45
969.968	3376.95
970.269	3403.61
970.571	3372.65
970.872	3361.35
971.174	3335.59
971.475	3309.38
971.776	3311.18
972.077	3279.09
972.378	3304.63
972.679	3253.11
972.98	3273.9
973.281	3217.4
973.582	3247.91
973.883	3184.41
974.183	3159.55
974.484	3179.89
974.785	3144.41
975.085	3138.08
975.386	3127.01
975.686	3089.27
975.986	3105.99
976.287	3099.66
976.587	3065.09
976.887	3037.07
977.187	3060.8
977.487	3014.02
977.787	3024.41
978.087	3035.49
978.387	3012.43
978.687	3025.09
978.987	2968.82
979.286	2972.44
979.586	2965.66
979.885	2942.83
980.185	2930.86
980.484	2968.59
980.784	2934.7
981.083	2919.1
981.382	2912.78
981.682	2898.31
981.981	2919.33
982.28	2885.43
982.579	2870.07
982.878	2879.33
983.177	2851.76
983.475	2863.96
983.774	2826.68
984.073	2859.22
984.372	2824.87
984.67	2808.6
984.969	2855.83
985.267	2770.86
985.566	2780.35
985.864	2788.49
986.162	2777.64
986.461	2779.9
986.759	2729.96
987.057	2729.28
987.355	2710.52
987.653	2702.39
987.951	2710.75
988.249	2677.3
988.547	2666
988.844	2652.9
989.142	2644.76
989.44	2604.08
989.737	2596.85
990.035	2620.81
990.332	2568.83
990.63	2562.5
990.927	2551.66
991.224	2523.86
991.521	2525.44
991.819	2507.36
992.116	2486.12
992.413	2516.63
992.71	2494.03
993.006	2459.68
993.303	2440.92
993.6	2400.47
993.897	2442.28
994.193	2421.26
994.49	2395.95
994.787	2371.32
995.083	2386.69
995.379	2312.79
995.676	2352.11
995.972	2340.36
996.268	2292
996.565	2302.4
996.861	2287.48
997.157	2296.07
997.453	2268.95
997.749	2235.28
998.044	2248.61
998.34	2224.66
998.636	2207.26
998.932	2198.67
999.227	2204.09
999.523	2206.35
999.818	2175.62
1000.114	2127.94
1000.409	2130.88
1000.704	2120.03
1001	2107.15
1001.295	2119.8
1001.59	2096.53
1001.885	2103.98
1002.18	2065.79
1002.475	2068.96
1002.77	2038.9
1003.065	2040.71
1003.359	2056.53
1003.654	2067.83
1003.949	2025.79
1004.243	1996.64
1004.538	1982.41
1004.832	2004.1
1005.127	1979.24
1005.421	1968.17
1005.715	1972.69
1006.009	1983.31
1006.304	1955.74
1006.598	1928.4
1006.892	1936.76
1007.186	1921.39
1007.48	1941.73
1007.773	1899.02
1008.067	1912.35
1008.361	1885.68
1008.655	1890.88
1008.948	1851.79
1009.242	1851.34
1009.535	1853.82
1009.829	1860.6
1010.122	1826.93
1010.415	1801.62
1010.708	1837.1
1011.001	1800.72
1011.295	1794.39
1011.588	1778.8
1011.881	1797.78
1012.173	1774.28
1012.466	1759.59
1012.759	1718.68
1013.052	1739.25
1013.344	1719.36
1013.637	1700.38
1013.93	1706.93
1014.222	1718.23
1014.514	1702.19
1014.807	1686.82
1015.099	1734.73
1015.391	1677.78
1015.683	1680.49
1015.976	1629.87
1016.268	1647.27
1016.56	1613.6
1016.851	1612.92
1017.143	1619.93
1017.435	1597.33
1017.727	1602.75
1018.018	1583.32
1018.31	1543.77
1018.602	1593.49
1018.893	1545.13
1019.185	1523.21
1019.476	1534.73
1019.767	1530.89
1020.058	1508.52
1020.35	1514.85
1020.641	1484.57
1020.932	1472.14
1021.223	1464.23
1021.514	1463.32
1021.804	1432.36
1022.095	1439.59
1022.386	1402.99
1022.677	1414.51
1022.967	1416.54
1023.258	1398.69
1023.548	1397.34
1023.839	1394.4
1024.129	1359.82
1024.419	1334.74
1024.709	1331.8
1025	1339.48
1025.29	1343.1
1025.58	1321.86
1025.87	1314.85
1026.16	1281.63
1026.449	1313.27
1026.739	1303.1
1027.029	1263.55
1027.319	1258.58
1027.608	1259.71
1027.898	1261.52
1028.187	1264.68
1028.477	1249.54
1028.766	1230.11
1029.055	1218.36
1029.344	1189.66
1029.634	1205.25
1029.923	1199.15
1030.212	1209.09
1030.501	1174.29
1030.79	1163.67
1031.078	1181.3
1031.367	1168.87
1031.656	1156.44
1031.945	1175.2
1032.233	1163.22
1032.522	1110.11
1032.81	1129.55
1033.099	1120.06
1033.387	1116.44
1033.675	1085.71
1033.963	1113.73
1034.251	1102.65
1034.54	1082.77
1034.828	1082.32
1035.116	1071.02
1035.403	1071.47
1035.691	1078.25
1035.979	1066.27
1036.267	1065.59
1036.554	1053.62
1036.842	1047.06
1037.129	1044.35
1037.417	1026.27
1037.704	1018.36
1037.992	1019.27
1038.279	1028.98
1038.566	1010.45
1038.853	1010.45
1039.14	1010.45
