Data from blue_clamp_base_FLMS001491_00081.txt Node
Date: Wed Feb 08 15:16:37 GMT 2017
User: dcchb
Spectrometer: FLMS00149
Trigger mode: 0
Integration Time (sec): 2.000000E-2
Scans to average: 10
Electric dark correction enabled: true
Nonlinearity correction enabled: false
Boxcar width: 0
XAxis mode: Wavelengths
Number of Pixels in Spectrum: 2048
>>>>>Begin Spectral Data<<<<<
341.393	1.38
341.776	1.38
342.16	1.38
342.543	-52.17
342.927	-53.08
343.31	-77.03
343.693	-62.34
344.077	-56.69
344.46	-70.03
344.843	-55.34
345.226	-53.08
345.61	-18.05
345.993	-7.43
346.376	0.71
346.759	9.29
347.142	16.3
347.525	44.09
347.908	52.46
348.291	93.36
348.674	90.2
349.057	93.59
349.44	125.45
349.823	161.15
350.206	164.09
350.588	214.94
350.971	209.29
351.354	231.66
351.737	255.39
352.119	268.95
352.502	264.2
352.884	277.08
353.267	289.74
353.65	305.33
354.032	317.99
354.414	328.38
354.797	319.34
355.179	353.47
355.562	327.25
355.944	342.84
356.326	334.93
356.709	352.56
357.091	350.08
357.473	354.6
357.855	369.96
358.238	365.89
358.62	349.62
359.002	350.98
359.384	345.78
359.766	355.27
360.148	346.23
360.53	368.61
360.912	336.97
361.294	344.2
361.676	351.88
362.057	368.15
362.439	361.15
362.821	320.02
363.203	350.53
363.584	336.74
363.966	333.58
364.348	328.83
364.729	317.53
365.111	343.75
365.493	346.91
365.874	348.04
366.256	331.77
366.637	332.9
367.019	348.72
367.4	364.99
367.781	329.96
368.163	349.85
368.544	341.71
368.925	342.17
369.306	358.89
369.688	347.14
370.069	342.39
370.45	351.88
370.831	341.26
371.212	317.31
371.593	350.08
371.974	356.86
372.355	356.4
372.736	349.62
373.117	358.44
373.498	364.31
373.879	354.14
374.26	341.71
374.641	330.42
375.021	349.62
375.402	345.33
375.783	353.01
376.163	377.42
376.544	358.44
376.925	374.26
377.305	374.93
377.686	344.2
378.066	360.02
378.447	374.71
378.827	387.36
379.208	375.39
379.588	371.54
379.968	374.48
380.349	374.71
380.729	372
381.109	396.18
381.489	395.5
381.87	395.5
382.25	395.27
382.63	410.64
383.01	384.42
383.39	388.94
383.77	406.12
384.15	418.77
384.53	428.94
384.91	416.97
385.29	411.54
385.67	412.67
386.049	419.9
386.429	414.93
386.809	451.54
387.189	428.04
387.568	446.34
387.948	454.48
388.328	429.4
388.707	439.79
389.087	436.85
389.466	432.79
389.846	457.64
390.225	442.28
390.605	476.63
390.984	451.54
391.363	457.87
391.743	463.07
392.122	480.24
392.501	473.91
392.881	496.74
393.26	490.18
393.639	515.95
394.018	506.46
394.397	502.16
394.776	478.21
395.155	509.62
395.534	533.57
395.913	494.48
396.292	543.29
396.671	541.71
397.05	564.99
397.429	556.17
397.808	535.61
398.186	542.84
398.565	547.13
398.944	565.21
399.323	574.48
399.701	597.98
400.08	604.53
400.458	583.06
400.837	592.56
401.215	606.11
401.594	616.74
401.972	603.18
402.351	604.76
402.729	617.41
403.107	651.31
403.486	646.56
403.864	606.11
404.242	660.58
404.62	656.28
404.999	688.6
405.377	677.3
405.755	675.26
406.133	678.43
406.511	690.41
406.889	723.4
407.267	717.3
407.645	727.01
408.023	738.99
408.401	746.45
408.779	769.05
409.156	759.1
409.534	775.15
409.912	786.45
410.29	806.33
410.667	809.27
411.045	809.05
411.422	826.22
411.8	824.87
412.178	834.13
412.555	849.72
412.933	867.35
413.31	879.1
413.687	899.67
414.065	896.05
414.442	891.3
414.819	949.38
415.197	923.85
415.574	940.79
415.951	952.09
416.328	969.49
416.705	955.48
417.082	961.13
417.46	986.22
417.837	982.6
418.214	1008.82
418.591	1027.35
418.967	1033.22
419.344	1009.95
419.721	1062.37
420.098	1030.06
420.475	1071.19
420.852	1083.62
421.228	1111.64
421.605	1092.88
421.982	1098.3
422.358	1139.43
422.735	1127.91
423.111	1146.89
423.488	1157.51
423.864	1149.83
424.241	1184.86
424.617	1199.77
424.994	1186.44
425.37	1193.44
425.746	1190.73
426.123	1236.83
426.499	1251.07
426.875	1278.86
427.251	1275.7
427.627	1308.92
428.003	1298.53
428.379	1337.62
428.756	1357.28
429.132	1397.73
429.507	1395.25
429.883	1387.34
430.259	1421.01
430.635	1444.51
431.011	1451.74
431.387	1507.79
431.763	1537.39
432.138	1527.22
432.514	1571.29
432.89	1564.73
433.265	1592.08
433.641	1622.81
434.016	1615.13
434.392	1633.43
434.767	1675.92
435.143	1710.04
435.518	1713.2
435.894	1724.5
436.269	1773.09
436.644	1758.4
437.02	1805.4
437.395	1784.39
437.77	1830.04
438.145	1872.97
438.52	1883.82
438.895	1894.44
439.271	1919.98
439.646	1931.05
440.021	1973.76
440.395	1952.29
440.77	1969.24
441.145	1980.54
441.52	2053.76
441.895	2023.7
442.27	2062.8
442.645	2052.86
443.019	2089.01
443.394	2079.3
443.769	2103.48
444.143	2108
444.518	2165.4
444.892	2146.19
445.267	2162.01
445.641	2199.97
446.016	2197.94
446.39	2225.51
446.764	2224.83
447.139	2234.55
447.513	2281.78
447.887	2265.73
448.262	2288.33
448.636	2280.65
449.01	2369.23
449.384	2353.64
449.758	2369.23
450.132	2387.76
450.506	2423.69
450.88	2453.07
451.254	2451.49
451.628	2500.3
452.002	2490.58
452.376	2514.54
452.75	2545.5
453.123	2585.72
453.497	2624.59
453.871	2626.85
454.244	2664.82
454.618	2688.32
454.992	2758.15
455.365	2759.05
455.739	2813.97
456.112	2840.18
456.486	2837.24
456.859	2874.98
457.232	2933.06
457.606	2962.66
457.979	2989.55
458.352	3016.22
458.725	3078.59
459.099	3058.03
459.472	3174.41
459.845	3126.27
460.218	3204.69
460.591	3185.48
460.964	3272.48
461.337	3325.59
461.71	3329.66
462.083	3399.49
462.456	3385.93
462.829	3391.8
463.201	3508.18
463.574	3486.49
463.947	3538.69
464.32	3602.19
464.692	3637.67
465.065	3678.35
465.438	3702.98
465.81	3764.45
466.183	3788.4
466.555	3898.46
466.928	3912.24
467.3	3870.21
467.672	3936.87
468.045	4036.98
468.417	4027.49
468.789	4092.12
469.161	4139.13
469.534	4179.35
469.906	4253.25
470.278	4293.02
470.65	4300.48
471.022	4380.93
471.394	4453.24
471.766	4450.53
472.138	4569.17
472.51	4628.38
472.882	4709.96
473.253	4702.05
473.625	4837.19
473.997	4890.75
474.369	4969.39
474.74	4978.88
475.112	5087.58
475.484	5130.97
475.855	5224.52
476.227	5233.11
476.598	5412.09
476.97	5384.29
477.341	5536.83
477.713	5614.57
478.084	5654.57
478.455	5765.75
478.827	5763.72
479.198	5943.83
479.569	5946.09
479.94	6161.9
480.311	6125.97
480.682	6256.13
481.053	6375.68
481.424	6443.02
481.795	6465.17
482.166	6590.82
482.537	6679.17
482.908	6828.32
483.279	6799.4
483.65	6897.47
484.021	7087.75
484.391	7107.86
484.762	7172.95
485.133	7204.81
485.503	7329.33
485.874	7448.65
486.244	7496.1
486.615	7591.69
486.985	7660.62
487.356	7793.04
487.726	7844.57
488.097	7996.88
488.467	7984.68
488.837	8183.54
489.207	8241.85
489.578	8312.13
489.948	8349.64
490.318	8433.03
490.688	8440.48
491.058	8579.69
491.428	8727.93
491.798	8708.73
492.168	8825.78
492.538	8876.18
492.908	8957.53
493.278	9054.48
493.648	9088.38
494.017	9190.07
494.387	9197.07
494.757	9254.93
495.126	9358.2
495.496	9307.58
495.866	9411.31
496.235	9542.6
496.605	9536.27
496.974	9529.95
497.344	9649.72
497.713	9690.17
498.082	9720
498.452	9843.61
498.821	9801.58
499.19	9896.04
499.559	9942.37
499.928	9976.26
500.298	9945.08
500.667	10108.46
501.036	10068.46
501.405	10093.55
501.774	10128.58
502.143	10232.53
502.512	10254.22
502.88	10342.81
503.249	10281.11
503.618	10296.25
503.987	10344.84
504.356	10390.94
504.724	10468.23
505.093	10491.05
505.462	10564.5
505.83	10561.11
506.199	10647.43
506.567	10791.38
506.936	10750.93
507.304	10783.02
507.672	10899.63
508.041	10850.82
508.409	11014.88
508.777	10971.04
509.145	10980.3
509.514	11088.1
509.882	11118.83
510.25	11218.49
510.618	11299.62
510.986	11258.26
511.354	11379.62
511.722	11404.7
512.09	11487.18
512.458	11479.73
512.826	11493.96
513.193	11573.51
513.561	11594.98
513.929	11633.62
514.297	11813.28
514.664	11813.28
515.032	11854.41
515.4	11944.35
515.767	11990.67
516.135	12044.68
516.502	11958.36
516.869	12164.45
517.237	12128.97
517.604	12098.47
517.972	12274.73
518.339	12256.66
518.706	12307.28
519.073	12311.57
519.44	12457.1
519.808	12580.49
520.175	12575.97
520.542	12661.39
520.909	12695.29
521.276	12718.56
521.643	12870.88
522.009	12899.35
522.376	12952
522.743	13042.62
523.11	13058.22
523.477	13180.92
523.843	13318.1
524.21	13334.14
524.577	13470.18
524.943	13449.17
525.31	13635.38
525.676	13573.23
526.043	13685.77
526.409	13747.46
526.776	13808.7
527.142	13900.68
527.508	13975.71
527.874	14081.47
528.241	14079.43
528.607	14149.03
528.973	14288.24
529.339	14310.16
529.705	14338.63
530.071	14509.93
530.437	14614.79
530.803	14643.03
531.169	14634.22
531.535	14667.67
531.901	14739.53
532.267	14740.43
532.632	14782.69
532.998	14893.42
533.364	15026.07
533.73	15042.12
534.095	15137.26
534.461	15111.72
534.826	15252.28
535.192	15257.48
535.557	15445.27
535.923	15301.77
536.288	15344.26
536.653	15569.34
537.019	15488.89
537.384	15593.74
537.749	15616.79
538.114	15630.8
538.479	15716.45
538.845	15841.42
539.21	15723.23
539.575	15796.9
539.94	15826.5
540.305	16046.39
540.67	15905.6
541.034	15985.6
541.399	16122.77
541.764	15988.99
542.129	16082.77
542.494	16154.18
542.858	16236.66
543.223	16250.67
543.587	16300.84
543.952	16273.5
544.316	16434.62
544.681	16276.21
545.045	16417
545.41	16506.03
545.774	16570.67
546.138	16572.47
546.503	16574.51
546.867	16623.55
547.231	16714.62
547.595	16765.01
547.959	16937.66
548.324	16786.71
548.688	16941.5
549.052	16988.28
549.416	16966.14
549.779	16982.63
550.143	17041.61
550.507	17176.98
550.871	17247.71
551.235	17157.09
551.599	17321.61
551.962	17367.71
552.326	17337.2
552.689	17492.9
553.053	17388.05
553.417	17505.78
553.78	17627.14
554.143	17694.7
554.507	17697.64
554.87	17648.6
555.234	17908.26
555.597	17731.09
555.96	17791.88
556.323	17937.64
556.686	17979.67
557.05	18001.59
557.413	18053.11
557.776	18044.53
558.139	18193.22
558.502	18200.23
558.865	18307.8
559.228	18313.67
559.59	18470.73
559.953	18392.76
560.316	18632.76
560.679	18725.64
561.041	18704.4
561.404	18802.02
561.767	18920.89
562.129	18873.66
562.492	18971.73
562.854	18977.16
563.217	19039.08
563.579	19086.76
563.941	19255.79
564.304	19265.28
564.666	19365.62
565.028	19343.02
565.39	19493.75
565.753	19581.89
566.115	19648.55
566.477	19664.14
566.839	19797.02
567.201	19857.59
567.563	19873.4
567.925	19976.68
568.287	19997.02
568.648	20001.08
569.01	20244.02
569.372	20307.29
569.734	20223.9
570.095	20413.05
570.457	20544.57
570.819	20560.84
571.18	20434.52
571.542	20620.05
571.903	20673.83
572.265	20701.86
572.626	20816.43
572.987	20798.8
573.349	20898.91
573.71	20992.47
574.071	21058.68
574.432	21049.19
574.794	21253.48
575.155	21222.52
575.516	21030.21
575.877	21207.61
576.238	21262.29
576.599	21398.34
576.96	21348.62
577.32	21372.12
577.681	21530.54
578.042	21557.65
578.403	21512
578.763	21620.25
579.124	21662.28
579.485	21757.42
579.845	21807.14
580.206	21770.76
580.566	21753.58
580.927	21795.61
581.287	21812.56
581.648	21854.37
582.008	21903.86
582.368	21958.77
582.728	21953.8
583.089	21951.99
583.449	21988.38
583.809	22002.16
584.169	22008.26
584.529	22094.36
584.889	22210.29
585.249	21985.21
585.609	22013.91
585.969	22078.54
586.329	22077.64
586.688	22100.24
587.048	22144.98
587.408	22081.93
587.768	22019.79
588.127	22065.21
588.487	22003.52
588.846	22242.16
589.206	22201.03
589.565	22113.57
589.925	22209.61
590.284	22094.36
590.643	22243.29
591.003	22324.41
591.362	22275.6
591.721	22278.99
592.08	22194.25
592.44	22231.31
592.799	22300.46
593.158	22351.3
593.517	22334.13
593.876	22342.04
594.235	22304.53
594.593	22241.03
594.952	22308.37
595.311	22302.27
595.67	22375.71
596.029	22473.56
596.387	22582.03
596.746	22620.22
597.104	22395.82
597.463	22410.29
597.822	22487.35
598.18	22413.22
598.538	22474.24
598.897	22561.02
599.255	22426.78
599.613	22816.83
599.972	22471.98
600.33	22622.94
600.688	22513.79
601.046	22628.13
601.404	22664.74
601.762	22654.12
602.12	22815.25
602.478	22758.98
602.836	22786.77
603.194	22595.37
603.552	22760.33
603.91	22667
604.268	22700.67
604.625	22670.84
604.983	22738.64
605.341	22699.32
605.698	22832.2
606.056	22884.4
606.413	22805.76
606.771	22944.74
607.128	23017.95
607.485	22845.3
607.843	22795.59
608.2	22940.67
608.557	23085.07
608.914	22941.8
609.272	23064.73
609.629	23085.52
609.986	23185.63
610.343	23050.27
610.7	23237.38
611.057	23156.93
611.414	23163.94
611.771	23223.6
612.127	23371.84
612.484	23244.84
612.841	23365.29
613.198	23287.78
613.554	23338.4
613.911	23327.32
614.267	23411.84
614.624	23235.35
614.98	23360.32
615.337	23515.34
615.693	23393.54
616.05	23488.9
616.406	23581.33
616.762	23520.31
617.118	23496.36
617.475	23383.59
617.831	23633.31
618.187	23560.76
618.543	23673.3
618.899	23786.07
619.255	23646.86
619.611	23741.78
619.967	23842.57
620.323	23661.55
620.678	23711.95
621.034	23802.11
621.39	23697.26
621.746	23616.81
622.101	23834.88
622.457	23740.19
622.812	23769.57
623.168	23890.7
623.523	23886.63
623.879	23942.45
624.234	23811.61
624.589	23951.94
624.945	23958.27
625.3	23954.2
625.655	23860.42
626.01	23975.9
626.365	23987.87
626.72	23939.96
627.075	23999.85
627.43	23881.43
627.785	23945.39
628.14	23907.65
628.495	23989.23
628.85	24025.16
629.205	23982.45
629.559	24047.76
629.914	23895.9
630.269	24026.74
630.623	23949.46
630.978	23978.15
631.332	24006.4
631.687	24112.84
632.041	24041.2
632.396	23998.04
632.75	23798.5
633.104	24049.11
633.459	23966.86
633.813	23942.68
634.167	23782.45
634.521	23949.46
634.875	23878.95
635.229	23977.25
635.583	23779.52
635.937	23858.61
636.291	23851.6
636.645	23769.8
636.999	23840.76
637.352	23793.3
637.706	23875.33
638.06	23919.63
638.413	23866.52
638.767	23875.33
639.121	23897.03
639.474	23718.73
639.828	23753.98
640.181	23771.15
640.534	23816.35
640.888	23750.36
641.241	23692.74
641.594	23701.78
641.947	23848.67
642.301	23751.72
642.654	23828.33
643.007	23911.49
643.36	23792.17
643.713	23687.32
644.066	23898.38
644.419	23598.96
644.771	23525.29
645.124	23302.69
645.477	23293.43
645.83	23165.07
646.182	23205.52
646.535	23097.95
646.888	23196.03
647.24	23156.26
647.593	23322.8
647.945	23237.84
648.298	23089.82
648.65	23090.27
649.002	23119.42
649.355	23221.56
649.707	23206.65
650.059	23296.14
650.411	23508.79
650.763	23651.16
651.115	23828.1
651.467	23863.13
651.819	23727.99
652.171	23848.44
652.523	23800.08
652.875	23792.62
653.227	23694.55
653.578	23935.9
653.93	23756.47
654.282	23649.58
654.633	23748.1
654.985	23756.47
655.337	23784.71
655.688	23726.41
656.039	23975.67
656.391	23787.88
656.742	23758.27
657.094	23808.67
657.445	23982.22
657.796	23798.5
658.147	23729.12
658.498	23839.85
658.849	23890.25
659.2	23743.36
659.551	23784.04
659.902	23887.54
660.253	23875.56
660.604	23859.51
660.955	23721.89
661.306	23829.91
661.656	23812.51
662.007	23905.39
662.358	23866.97
662.708	23932.28
663.059	23716.69
663.409	23735.22
663.76	23824.26
664.11	23823.81
664.461	23863.81
664.811	23778.39
665.161	23766.86
665.511	23753.3
665.862	23793.98
666.212	23896.58
666.562	23795.79
666.912	23701.1
667.262	23636.47
667.612	23663.36
667.962	23655.9
668.312	23595.57
668.662	23656.81
669.011	23724.83
669.361	23578.84
669.711	23637.6
670.06	23561.22
670.41	23514.21
670.76	23496.81
671.109	23555.57
671.459	23531.39
671.808	23360.54
672.157	23509.47
672.507	23386.98
672.856	23373.2
673.205	23282.58
673.554	23396.93
673.904	23195.12
674.253	23332.07
674.602	23239.19
674.951	22952.65
675.3	22778.86
675.649	23048.69
675.998	23049.37
676.346	23026.32
676.695	23101.34
677.044	22937.05
677.393	23035.81
677.741	23106.99
678.09	22763.95
678.438	22798.52
678.787	22800.33
679.135	22829.94
679.484	22791.75
679.832	22786.55
680.181	22586.1
680.529	22685.76
680.877	22562.82
681.225	22581.81
681.573	22708.36
681.922	22452.32
682.27	22444.41
682.618	22517.85
682.966	22376.16
683.314	22380
683.661	22351.3
684.009	22288.71
684.357	22166.68
684.705	22088.94
685.053	22157.86
685.4	22118.77
685.748	22132.1
686.095	22047.13
686.443	21881.94
686.79	21977.08
687.138	21992.9
687.485	21914.03
687.832	21902.73
688.18	21907.25
688.527	21700.93
688.874	21723.3
689.221	21635.84
689.568	21616.18
689.915	21701.38
690.262	21577.77
690.609	21494.15
690.956	21435.85
691.303	21449.86
691.65	21405.12
691.997	21352.91
692.344	21235.63
692.69	21157.89
693.037	21303.2
693.383	21137.1
693.73	21251.67
694.077	21058.68
694.423	21036.54
694.769	20941.62
695.116	20984.11
695.462	20930.1
695.808	20883.55
696.155	21052.58
696.501	20781.63
696.847	20904.34
697.193	20652.59
697.539	20807.62
697.885	20667.51
698.231	20576.44
698.577	20645.36
698.923	20573.27
699.269	20479.26
699.614	20389.1
699.96	20448.98
700.306	20395.2
700.651	20296.67
700.997	20227.52
701.342	20230.91
701.688	20168.31
702.033	20100.74
702.379	20092.38
702.724	20144.81
703.069	20084.92
703.415	19916.79
703.76	20020.29
704.105	19974.19
704.45	19936
704.795	19724.48
705.14	19684.48
705.485	19752.5
705.83	19705.72
706.175	19733.97
706.52	19735.55
706.865	19611.94
707.209	19689.23
707.554	19490.36
707.899	19608.78
708.243	19529.91
708.588	19418.05
708.932	19354.55
709.277	19444.26
709.621	19445.84
709.966	19138.06
710.31	19307.77
710.654	19163.14
710.998	19248.34
711.342	19317.94
711.687	19287.88
712.031	19161.56
712.375	19115.91
712.719	19080.43
713.063	19116.14
713.407	19186.42
713.75	19086.53
714.094	19003.37
714.438	18950.49
714.782	19002.24
715.125	18986.65
715.469	19005.4
715.812	18932.41
716.156	18734.68
716.499	18804.96
716.843	18807.67
717.186	18828.01
717.53	18865.75
717.873	18846.31
718.216	18818.97
718.559	18667.33
718.902	18571.74
719.246	18721.12
719.589	18670.5
719.932	18542.14
720.275	18579.65
720.617	18666.66
720.96	18472.54
721.303	18456.94
721.646	18615.13
721.989	18413.33
722.331	18478.19
722.674	18517.73
723.016	18486.77
723.359	18414.91
723.701	18439.77
724.044	18437.96
724.386	18372.65
724.729	18547.79
725.071	18470.5
725.413	18428.02
725.755	18344.18
726.097	18207.69
726.439	18258.08
726.782	18329.49
727.124	18308.47
727.465	18239.1
727.807	18192.77
728.149	18184.86
728.491	18162.49
728.833	18203.39
729.175	18226.22
729.516	18149.38
729.858	18142.15
730.199	18267.12
730.541	18122.49
730.882	18071.64
731.224	18246.78
731.565	18150.29
731.906	18127.01
732.248	18135.82
732.589	18138.99
732.93	18029.38
733.271	18087.24
733.612	18077.75
733.953	18142.6
734.294	18026.22
734.635	18140.79
734.976	18091.08
735.317	18045.66
735.658	17963.85
735.999	18063.73
736.339	18011.76
736.68	18102.15
737.021	18081.59
737.361	18064.64
737.702	18145.54
738.042	18026.67
738.383	18116.84
738.723	18187.8
739.063	18172.66
739.404	18152.32
739.744	18122.49
740.084	18123.17
740.424	18214.92
740.764	18055.6
741.104	18191.64
741.444	18145.09
741.784	18147.57
742.124	18230.51
742.464	18170.62
742.804	18292.2
743.143	18223.73
743.483	18245.88
743.823	18163.84
744.162	18324.74
744.502	18301.47
744.841	18212.66
745.181	18371.3
745.52	18272.54
745.86	18302.82
746.199	18311.86
746.538	18310.28
746.877	18370.62
747.216	18435.25
747.556	18514.8
747.895	18520.22
748.234	18493.78
748.573	18489.94
748.911	18456.49
749.25	18621.46
749.589	18476.6
749.928	18583.49
750.267	18570.61
750.605	18589.14
750.944	18656.71
751.283	18515.93
751.621	18575.81
751.96	18591.4
752.298	18600.44
752.636	18707.56
752.975	18556.6
753.313	18658.97
753.651	18667.11
753.989	18683.38
754.327	18722.93
754.666	18623.95
755.004	18670.72
755.342	18668.24
755.679	18757.5
756.017	18654.68
756.355	18801.57
756.693	18710.04
757.031	18825.75
757.368	18722.02
757.706	18751.63
758.044	18694.9
758.381	18876.59
758.719	18795.24
759.056	18812.64
759.394	18710.04
759.731	18694.45
760.068	18734.45
760.405	18799.76
760.743	18676.6
761.08	18867.33
761.417	18713.21
761.754	18768.35
762.091	18811.29
762.428	18804.28
762.765	18695.36
763.102	18820.78
763.438	18677.5
763.775	18632.53
764.112	18717.5
764.449	18831.62
764.785	18716.15
765.122	18647
765.458	18654.9
765.795	18689.93
766.131	18677.05
766.467	18541.46
766.804	18637.73
767.14	18435.93
767.476	18571.52
767.812	18629.14
768.148	18622.36
768.485	18576.94
768.821	18415.82
769.157	18515.47
769.492	18476.6
769.828	18525.64
770.164	18464.18
770.5	18376.72
770.836	18445.19
771.171	18311.19
771.507	18344.86
771.842	18273.22
772.178	18396.61
772.513	18318.42
772.849	18248.36
773.184	18297.17
773.519	18315.93
773.855	18141.7
774.19	18127.01
774.525	18153.22
774.86	18225.54
775.195	18257.4
775.53	18182.15
775.865	18097.41
776.2	17948.26
776.535	17919.56
776.87	17927.47
777.205	17847.47
777.539	17811.99
777.874	17925.21
778.209	17829.84
778.543	17750.52
778.878	17713.46
779.212	17774.48
779.547	17737.64
779.881	17749.62
780.215	17618.77
780.55	17747.13
780.884	17566.57
781.218	17611.09
781.552	17588.72
781.886	17500.81
782.22	17459.91
782.554	17407.03
782.888	17354.83
783.222	17294.49
783.556	17353.02
783.889	17336.3
784.223	17148.73
784.557	17211.1
784.89	17207.49
785.224	17248.16
785.557	17175.4
785.891	17147.37
786.224	16941.5
786.558	17096.98
786.891	16974.95
787.224	16973.82
787.557	16933.37
787.891	16859.92
788.224	16968.85
788.557	16894.27
788.89	16813.6
789.223	16892.24
789.556	16754.39
789.888	16796.2
790.221	16753.26
790.554	16587.84
790.887	16641.85
791.219	16608.18
791.552	16646.82
791.884	16533.6
792.217	16561.17
792.549	16454.51
792.882	16402.99
793.214	16385.36
793.546	16377.45
793.879	16271.69
794.211	16198.92
794.543	16255.42
794.875	16324.8
795.207	16313.27
795.539	16193.27
795.871	16180.39
796.203	16126.16
796.535	16055.65
796.867	15993.73
797.198	15941.3
797.53	16114.41
797.862	15915.09
798.193	15942.21
798.525	15866.5
798.856	15892.04
799.188	15757.35
799.519	15722.33
799.85	15653.85
800.182	15682.1
800.513	15655.89
800.844	15558.94
801.175	15600.97
801.506	15608.21
801.837	15453.41
802.168	15578.38
802.499	15485.95
802.83	15373.18
803.161	15337.93
803.491	15384.71
803.822	15373.18
804.153	15283.92
804.483	15178.61
804.814	15261.32
805.145	15092.74
805.475	15255.45
805.805	15102.46
806.136	14999.18
806.466	15027.66
806.796	15095
807.126	15076.92
807.457	14996.7
807.787	14977.94
808.117	14900.2
808.447	14892.74
808.777	14897.26
809.107	14884.16
809.436	14774.1
809.766	14801.9
810.096	14778.4
810.426	14784.05
810.755	14685.52
811.085	14724.84
811.414	14731.39
811.744	14572.53
812.073	14567.33
812.403	14619.53
812.732	14470.38
813.061	14619.3
813.39	14498.4
813.719	14364.62
814.049	14521.68
814.378	14462.7
814.707	14351.74
815.036	14396.71
815.365	14280.1
815.693	14166.66
816.022	14241.91
816.351	14136.61
816.68	14008.7
817.008	14205.08
817.337	13983.62
817.665	14014.8
817.994	14075.59
818.322	14071.07
818.651	13953.56
818.979	13871.53
819.307	14033.11
819.636	13869.04
819.964	13848.93
820.292	13906.33
820.62	13947.91
820.948	13817.29
821.276	13881.47
821.604	13831.75
821.932	13839.21
822.259	13985.65
822.587	13846.67
822.915	13824.3
823.243	13865.88
823.57	13839.66
823.898	13848.25
824.225	13809.38
824.553	13769.16
824.88	13836.5
825.207	13882.15
825.535	13814.35
825.862	13920.11
826.189	13915.59
826.516	13925.76
826.843	13909.04
827.17	13927.57
827.497	13918.31
827.824	13979.32
828.151	13987.68
828.478	13833.56
828.805	13933.45
829.131	13950.4
829.458	13893.9
829.785	13887.35
830.111	13857.52
830.438	14008.47
830.764	13883.96
831.09	13912.66
831.417	13790.63
831.743	14021.58
832.069	13857.52
832.395	13846.22
832.722	13889.15
833.048	13853
833.374	13780.68
833.7	13875.82
834.026	13893
834.351	13844.18
834.677	13837.86
835.003	13859.1
835.329	13883.73
835.654	13881.7
835.98	13769.61
836.306	13727.58
836.631	13752.44
836.956	13778.87
837.282	13684.64
837.607	13760.12
837.932	13707.24
838.258	13690.74
838.583	13696.17
838.908	13608.71
839.233	13658.65
839.558	13574.13
839.883	13521.25
840.208	13461.6
840.533	13512.67
840.858	13596.51
841.182	13563.06
841.507	13558.54
841.832	13453.91
842.156	13516.73
842.481	13432.44
842.805	13411.88
843.13	13392.9
843.454	13320.36
843.778	13284.88
844.103	13241.71
844.427	13238.32
844.751	13229.74
845.075	13296.4
845.399	13061.83
845.723	13107.03
846.047	13131.66
846.371	12982.06
846.695	13085.56
847.019	12876.98
847.343	12882.18
847.666	12840.14
847.99	12829.97
848.313	12759.92
848.637	12637.89
848.96	12627.94
849.284	12636.08
849.607	12516.99
849.931	12519.25
850.254	12432.92
850.577	12315.86
850.9	12257.11
851.223	12349.08
851.546	12164.23
851.869	12095.3
852.192	12253.04
852.515	12093.72
852.838	12005.14
853.161	12036.77
853.483	11961.75
853.806	11937.34
854.129	11884.01
854.451	11830.9
854.774	11828.19
855.096	11789.77
855.419	11728.99
855.741	11732.15
856.063	11637.01
856.385	11639.72
856.708	11601.53
857.03	11529.67
857.352	11531.02
857.674	11497.81
857.996	11442.21
858.318	11385.94
858.64	11408.99
858.961	11304.36
859.283	11326.74
859.605	11247.87
859.926	11222.33
860.248	11284.7
860.57	11194.08
860.891	11227.98
861.212	11212.16
861.534	11143.69
861.855	11093.52
862.176	11136.91
862.498	11093.52
862.819	11094.43
863.14	11034.09
863.461	11004.48
863.782	10997.93
864.103	10979.63
864.424	10957.93
864.745	10936.24
865.065	10943.92
865.386	10870.02
865.707	10875.67
866.027	10898.5
866.348	10900.31
866.668	10880.19
866.989	10797.94
867.309	10730.37
867.63	10790.93
867.95	10848.56
868.27	10678.62
868.59	10741.89
868.91	10709.8
869.23	10734.66
869.55	10653.08
869.87	10691.5
870.19	10642.01
870.51	10651.27
870.83	10606.76
871.15	10595.91
871.469	10498.06
871.789	10510.94
872.109	10511.16
872.428	10458.51
872.748	10479.07
873.067	10510.49
873.386	10474.1
873.706	10470.94
874.025	10460.32
874.344	10402.24
874.663	10415.57
874.982	10373.31
875.301	10335.58
875.62	10284.05
875.939	10306.42
876.258	10405.4
876.577	10324.28
876.896	10324.73
877.214	10239.08
877.533	10257.61
877.852	10272.3
878.17	10317.27
878.489	10198.86
878.807	10248.57
879.125	10195.92
879.444	10127.22
879.762	10197.73
880.08	10087.45
880.398	10137.61
880.716	10193.88
881.034	10114.34
881.352	10015.81
881.67	10064.4
881.988	10059.42
882.306	9954.12
882.624	9983.27
882.941	9926.77
883.259	9924.29
883.577	9937.62
883.894	9911.63
884.212	9894.23
884.529	9879.54
884.846	9858.07
885.164	9816.49
885.481	9790.28
885.798	9800.45
886.115	9758.42
886.432	9745.31
886.75	9710.96
887.067	9684.52
887.383	9641.58
887.7	9640.45
888.017	9559.55
888.334	9637.29
888.651	9506.22
888.967	9563.62
889.284	9543.73
889.6	9483.17
889.917	9424.87
890.233	9441.36
890.55	9349.16
890.866	9379.22
891.182	9403.17
891.498	9329.95
891.815	9320.91
892.131	9248.82
892.447	9277.52
892.763	9174.93
893.079	9182.16
893.395	9162.73
893.71	9063.97
894.026	9118.88
894.342	9115.72
894.657	9007.93
894.973	8986.46
895.289	8962.05
895.604	8997.08
895.92	8868.72
896.235	8861.49
896.55	8939.23
896.865	8879.12
897.181	8819.23
897.496	8841.83
897.811	8780.14
898.126	8723.41
898.441	8687.26
898.756	8701.49
899.071	8623.98
899.386	8604.32
899.7	8591.67
900.015	8562.97
900.33	8518.45
900.644	8463.99
900.959	8470.99
901.273	8441.61
901.588	8388.28
901.902	8371.11
902.216	8334.05
902.531	8285.69
902.845	8272.81
903.159	8223.99
903.473	8198
903.787	8161.85
904.101	8115.07
904.415	8143.09
904.729	8063.32
905.042	8061.96
905.356	8068.29
905.67	8002.3
905.984	8015.41
906.297	7927.05
906.611	7925.47
906.924	7889.76
907.237	7856.77
907.551	7846.15
907.864	7824
908.177	7769.09
908.491	7792.82
908.804	7690.45
909.117	7671.01
909.43	7650.67
909.743	7614.29
910.056	7595.31
910.368	7514.63
910.681	7526.16
910.994	7490.68
911.307	7383.79
911.619	7398.93
911.932	7357.12
912.244	7354.86
912.557	7400.29
912.869	7274.64
913.181	7291.59
913.494	7189.67
913.806	7248.43
914.118	7170.01
914.43	7155.09
914.742	7146.06
915.054	7116
915.366	7103.34
915.678	7003.23
915.99	7032.84
916.302	6947.64
916.613	6950.81
916.925	6950.35
917.236	6950.58
917.548	6871.49
917.859	6840.98
918.171	6840.98
918.482	6793.07
918.794	6729.34
919.105	6808.66
919.416	6708.33
919.727	6701.77
920.038	6645.96
920.349	6573.19
920.66	6596.24
920.971	6573.19
921.282	6525.05
921.593	6483.02
921.903	6457.71
922.214	6489.35
922.525	6400.99
922.835	6323.25
923.146	6382.69
923.456	6348.56
923.767	6294.1
924.077	6276.93
924.387	6261.11
924.697	6241.9
925.008	6240.32
925.318	6210.49
925.628	6159.19
925.938	6177.94
926.248	6147.21
926.558	6097.27
926.867	6023.15
927.177	6048.46
927.487	5996.71
927.796	5944.96
928.106	5935.24
928.416	5969.59
928.725	5888.69
929.034	5886.65
929.344	5860.21
929.653	5867.44
929.962	5831.97
930.271	5799.88
930.581	5715.13
930.89	5736.15
931.199	5737.28
931.508	5652.76
931.817	5666.55
932.125	5625.42
932.434	5623.61
932.743	5594.23
933.051	5553.55
933.36	5496.61
933.669	5513.56
933.977	5486.44
934.286	5478.75
934.594	5448.7
934.902	5383.84
935.21	5377.74
935.519	5384.75
935.827	5340
936.135	5265.65
936.443	5303.62
936.751	5285.54
937.059	5243.28
937.367	5266.56
937.674	5197.41
937.982	5236.95
938.29	5199.67
938.597	5190.17
938.905	5114.02
939.213	5108.14
939.52	5103.4
939.827	5068.14
940.135	5039.22
940.442	5002.38
940.749	5051.65
941.056	4996.06
941.363	4955.83
941.67	4928.03
941.977	4871.31
942.284	4889.84
942.591	4893.68
942.898	4828.6
943.205	4861.37
943.511	4817.98
943.818	4804.87
944.125	4737.3
944.431	4731.88
944.738	4767.59
945.044	4720.58
945.35	4727.81
945.657	4669.51
945.963	4661.6
946.269	4628.83
946.575	4618.21
946.881	4634.03
947.187	4593.35
947.493	4524.2
947.799	4564.88
948.105	4495.5
948.41	4476.29
948.716	4448.5
949.022	4485.11
949.327	4434.49
949.633	4357.43
949.938	4408.27
950.244	4353.81
950.549	4324.43
950.854	4329.41
951.16	4327.15
951.465	4293.7
951.77	4291.67
952.075	4258.67
952.38	4240.14
952.685	4275.62
952.99	4207.6
953.294	4185.68
953.599	4131.67
953.904	4112.01
954.209	4116.3
954.513	4113.59
954.818	4102.52
955.122	4114.04
955.426	4071.33
955.731	4076.08
956.035	4043.31
956.339	3969.64
956.643	4027.27
956.948	3944.78
957.252	3961.73
957.556	3923.99
957.86	3929.64
958.163	3925.57
958.467	3882.86
958.771	3873.82
959.075	3894.16
959.378	3833.6
959.682	3813.04
959.985	3792.02
960.289	3792.02
960.592	3733.26
960.896	3751.34
961.199	3729.42
961.502	3733.94
961.805	3700.95
962.108	3655.98
962.411	3676.77
962.714	3636.09
963.017	3634.51
963.32	3630.89
963.623	3654.85
963.926	3607.62
964.228	3590.89
964.531	3570.1
964.833	3570.78
965.136	3545.92
965.438	3523.1
965.741	3505.47
966.043	3511.12
966.345	3495.08
966.648	3450.56
966.95	3474.06
967.252	3459.82
967.554	3409.43
967.856	3405.59
968.158	3365.82
968.46	3360.84
968.761	3358.13
969.063	3327.85
969.365	3316.55
969.666	3298.47
969.968	3281.3
970.269	3287.63
970.571	3278.59
970.872	3248.76
971.174	3221.19
971.475	3246.95
971.776	3203.56
972.077	3216.44
972.378	3164.24
972.679	3165.82
972.98	3175.31
973.281	3149.78
973.582	3172.6
973.883	3122.88
974.183	3125.6
974.484	3073.39
974.785	3054.64
975.085	3027.75
975.386	3053.28
975.686	3036.11
975.986	3017.12
976.287	2986.39
976.587	2964.24
976.887	2955.2
977.187	2953.85
977.487	2936.67
977.787	2945.71
978.087	2925.83
978.387	2870.24
978.687	2896.68
978.987	2897.35
979.286	2851.48
979.586	2834.08
979.885	2843.57
980.185	2842.67
980.484	2764.48
980.784	2853.74
981.083	2752.5
981.382	2788.88
981.682	2776.9
981.981	2773.74
982.28	2754.53
982.579	2701.43
982.878	2759.96
983.177	2742.33
983.475	2728.32
983.774	2670.47
984.073	2663.24
984.372	2672.73
984.67	2643.8
984.969	2652.84
985.267	2638.6
985.566	2623.91
985.864	2616
986.162	2604.25
986.461	2579.17
986.759	2593.41
987.057	2559.28
987.355	2536.91
987.653	2556.8
987.951	2548.44
988.249	2500.53
988.547	2516.35
988.844	2487.87
989.142	2505.95
989.44	2480.87
989.737	2507.76
990.035	2421.66
990.332	2460.3
990.63	2441.32
990.927	2403.81
991.224	2404.26
991.521	2380.76
991.819	2371.94
992.116	2354.54
992.413	2359.29
992.71	2344.6
993.006	2350.93
993.303	2321.55
993.6	2322.23
993.897	2296.47
994.193	2312.51
994.49	2297.59
994.787	2248.1
995.083	2253.08
995.379	2264.6
995.676	2240.65
995.972	2245.84
996.268	2204.49
996.565	2234.55
996.861	2188.45
997.157	2188.67
997.453	2182.12
997.749	2159.29
998.044	2151.61
998.34	2153.19
998.636	2169.69
998.932	2122.46
999.227	2108.45
999.523	2112.74
999.818	2089.01
1000.114	2088.11
1000.409	2046.98
1000.704	2038.62
1001	2037.94
1001.295	2035
1001.59	2051.5
1001.885	2035
1002.18	1985.51
1002.475	2005.63
1002.77	1926.98
1003.065	1962.46
1003.359	1973.54
1003.654	1950.94
1003.949	1939.64
1004.243	1942.58
1004.538	1951.39
1004.832	1904.84
1005.127	1878.62
1005.421	1872.97
1005.715	1880.88
1006.009	1879.07
1006.304	1864.61
1006.598	1827.1
1006.892	1842.24
1007.186	1845.86
1007.48	1812.18
1007.773	1829.13
1008.067	1779.42
1008.361	1761.34
1008.655	1752.3
1008.948	1757.72
1009.242	1752.07
1009.535	1742.13
1009.829	1726.76
1010.122	1743.03
1010.415	1724.73
1010.708	1718.4
1011.001	1680.21
1011.295	1677.05
1011.588	1699.87
1011.881	1649.25
1012.173	1658.52
1012.466	1663.94
1012.759	1661.91
1013.052	1649.02
1013.344	1628.01
1013.637	1611.74
1013.93	1598.86
1014.222	1605.18
1014.514	1578.97
1014.807	1578.29
1015.099	1571.29
1015.391	1564.05
1015.683	1565.18
1015.976	1547.11
1016.268	1520.89
1016.56	1524.28
1016.851	1527.22
1017.143	1520.89
1017.435	1467.79
1017.727	1478.86
1018.018	1465.53
1018.31	1472.98
1018.602	1463.27
1018.893	1443.15
1019.185	1425.3
1019.476	1432.53
1019.767	1430.05
1020.058	1393.66
1020.35	1412.19
1020.641	1375.36
1020.932	1416.49
1021.223	1369.03
1021.514	1362.03
1021.804	1350.28
1022.095	1344.85
1022.386	1342.82
1022.677	1322.93
1022.967	1353.66
1023.258	1321.35
1023.548	1316.38
1023.839	1293.78
1024.129	1306.43
1024.419	1262.37
1024.709	1284.51
1025	1268.7
1025.29	1242.03
1025.58	1238.87
1025.87	1219.66
1026.16	1240.45
1026.449	1230.96
1026.739	1232.76
1027.029	1219.66
1027.319	1203.61
1027.608	1199.09
1027.898	1194.12
1028.187	1171.97
1028.477	1180.11
1028.766	1185.08
1029.055	1162.94
1029.344	1144.4
1029.634	1127.68
1029.923	1133.11
1030.212	1132.65
1030.501	1120.22
1030.79	1127.68
1031.078	1103.73
1031.367	1099.21
1031.656	1089.49
1031.945	1082.26
1032.233	1071.19
1032.522	1103.28
1032.81	1071.64
1033.099	1061.47
1033.387	1057.4
1033.675	1046.78
1033.963	1035.93
1034.251	1019.21
1034.54	1022.15
1034.828	1036.61
1035.116	1026.67
1035.403	1024.86
1035.691	1005.43
1035.979	981.02
1036.267	987.8
1036.554	981.92
1036.842	955.94
1037.129	962.94
1037.417	966.56
1037.704	950.51
1037.992	944.18
1038.279	933.34
1038.566	926.78
1038.853	926.78
1039.14	926.78
