Data from blue_shiny_book_FLMS001491_00084.txt Node
Date: Wed Feb 08 15:27:40 GMT 2017
User: dcchb
Spectrometer: FLMS00149
Trigger mode: 0
Integration Time (sec): 2.000000E-2
Scans to average: 10
Electric dark correction enabled: true
Nonlinearity correction enabled: false
Boxcar width: 0
XAxis mode: Wavelengths
Number of Pixels in Spectrum: 2048
>>>>>Begin Spectral Data<<<<<
341.393	1.81
341.776	1.81
342.16	1.81
342.543	-48.13
342.927	-62.6
343.31	-64.63
343.693	-67.57
344.077	-70.51
344.46	-56.27
344.843	-49.72
345.226	-44.29
345.61	-18.98
345.993	-33.45
346.376	-17.63
346.759	2.26
347.142	16.5
347.525	41.13
347.908	63.28
348.291	68.7
348.674	122.93
349.057	108.25
349.44	113.67
349.823	144.18
350.206	164.06
350.588	196.6
350.971	228.47
351.354	216.04
351.737	250.39
352.119	257.62
352.502	265.53
352.884	280.44
353.267	297.17
353.65	306.43
354.032	323.83
354.414	310.05
354.797	310.05
355.179	311.4
355.562	346.43
355.944	320.44
356.326	350.73
356.709	321.57
357.091	344.85
357.473	359.54
357.855	334.68
358.238	349.37
358.62	350.95
359.002	348.69
359.384	374.45
359.766	346.21
360.148	369.26
360.53	359.09
360.912	352.31
361.294	345.98
361.676	336.04
362.057	327.45
362.439	362.93
362.821	334.68
363.203	349.82
363.584	337.39
363.966	350.05
364.348	340.78
364.729	342.14
365.111	333.1
365.493	336.26
365.874	336.94
366.256	335.81
366.637	332.65
367.019	342.59
367.4	334.45
367.781	340.56
368.163	334.23
368.544	321.12
368.925	319.54
369.306	348.69
369.688	339.65
370.069	338.97
370.45	327.67
370.831	338.3
371.212	351.63
371.593	355.92
371.974	352.31
372.355	348.47
372.736	339.43
373.117	362.25
373.498	325.19
373.879	344.4
374.26	362.7
374.641	346.66
375.021	352.08
375.402	351.86
375.783	338.97
376.163	355.47
376.544	347.79
376.925	388.46
377.305	364.96
377.686	350.27
378.066	376.94
378.447	365.64
378.827	372.65
379.208	377.39
379.588	375.58
379.968	391.63
380.349	404.51
380.729	371.06
381.109	373.1
381.489	389.14
381.87	390.27
382.25	399.54
382.63	401.35
383.01	402.02
383.39	407.67
383.77	404.51
384.15	399.54
384.53	436.37
384.91	411.74
385.29	435.02
385.67	418.97
386.049	439.08
386.429	439.54
386.809	450.38
387.189	456.26
387.568	441.57
387.948	423.94
388.328	444.73
388.707	444.28
389.087	463.72
389.466	445.64
389.846	469.14
390.225	479.76
390.605	472.08
390.984	477.73
391.363	508.91
391.743	495.81
392.122	503.94
392.501	487.9
392.881	522.7
393.26	508.91
393.639	515.92
394.018	521.79
394.397	518.63
394.776	507.56
395.155	531.74
395.534	522.02
395.913	536.71
396.292	552.08
396.671	553.43
397.05	558.18
397.429	565.41
397.808	572.64
398.186	555.01
398.565	548.46
398.944	558.86
399.323	578.52
399.701	580.1
400.08	572.87
400.458	595.69
400.837	617.61
401.215	621.68
401.594	619.19
401.972	628.68
402.351	626.42
402.729	631.17
403.107	637.95
403.486	662.13
403.864	654.67
404.242	648.34
404.62	697.38
404.999	691.73
405.377	693.54
405.755	695.35
406.133	706.2
406.511	716.37
406.889	727.89
407.267	731.05
407.645	755.23
408.023	771.51
408.401	771.96
408.779	787.32
409.156	792.75
409.534	822.13
409.912	805.4
410.29	824.61
410.667	835.91
411.045	844.05
411.422	858.96
411.8	846.53
412.178	892.63
412.555	883.59
412.933	885.4
413.31	909.81
413.687	926.53
414.065	947.55
414.442	952.74
414.819	981.44
415.197	983.93
415.574	982.12
415.951	989.8
416.328	987.77
416.705	1003.14
417.082	1040.42
417.46	1030.93
417.837	1069.35
418.214	1044.49
418.591	1076.36
418.967	1093.53
419.344	1106.19
419.721	1104.6
420.098	1117.48
420.475	1151.83
420.852	1158.61
421.228	1162.91
421.605	1183.7
421.982	1194.09
422.358	1196.13
422.735	1213.53
423.111	1249.46
423.488	1263.47
423.864	1247.88
424.241	1258.95
424.617	1296.92
424.994	1293.3
425.37	1310.7
425.746	1337.59
426.123	1380.53
426.499	1378.04
426.875	1392.28
427.251	1406.74
427.627	1437.48
428.003	1451.49
428.379	1458.04
428.756	1486.97
429.132	1522.9
429.507	1531.94
429.883	1552.73
430.259	1565.83
430.635	1578.04
431.011	1589.56
431.387	1664.36
431.763	1683.57
432.138	1683.57
432.514	1729.67
432.89	1745.04
433.265	1771.93
433.641	1784.13
434.016	1797.47
434.392	1849.44
434.767	1848.99
435.143	1877.01
435.518	1905.03
435.894	1972.6
436.269	1987.74
436.644	1991.13
437.02	1999.72
437.395	2036.1
437.77	2064.8
438.145	2077.46
438.52	2085.82
438.895	2122.88
439.271	2147.97
439.646	2193.39
440.021	2183.67
440.395	2202.43
440.77	2213.05
441.145	2279.26
441.52	2291.69
441.895	2310.67
442.27	2347.96
442.645	2379.82
443.019	2392.48
443.394	2369.2
443.769	2417.56
444.143	2411.01
444.518	2435.19
444.892	2429.54
445.267	2486.26
445.641	2492.14
446.016	2535.98
446.39	2559.93
446.764	2593.38
447.139	2572.36
447.513	2603.32
447.887	2607.84
448.262	2641.96
448.636	2672.7
449.01	2684
449.384	2720.15
449.758	2731
450.132	2754.28
450.506	2810.32
450.88	2841.51
451.254	2806.71
451.628	2886.7
452.002	2900.04
452.376	2942.3
452.75	2983.88
453.123	3038.34
453.497	3043.76
453.871	3067.49
454.244	3135.06
454.618	3181.84
454.992	3208.5
455.365	3199.24
455.739	3297.99
456.112	3330.08
456.486	3355.39
456.859	3415.73
457.232	3478.55
457.606	3489.63
457.979	3578.66
458.352	3646.68
458.725	3718.55
459.099	3694.59
459.472	3792.44
459.845	3801.93
460.218	3862.27
460.591	3869.28
460.964	3928.03
461.337	4027.01
461.71	4041.25
462.083	4118.76
462.456	4121.93
462.829	4142.94
463.201	4263.84
463.574	4268.81
463.947	4355.14
464.32	4457.28
464.692	4475.59
465.065	4497.28
465.438	4572.76
465.81	4605.98
466.183	4732.3
466.555	4790.83
466.928	4838.52
467.3	4887.33
467.672	4974.11
468.045	5060.43
468.417	5083.71
468.789	5163.71
469.161	5198.51
469.534	5317.6
469.906	5421.55
470.278	5461.55
470.65	5499.06
471.022	5624.71
471.394	5746.29
471.766	5721.43
472.138	5802.56
472.51	5927.08
472.882	6041.65
473.253	6135.21
473.625	6261.76
473.997	6380.62
474.369	6416.55
474.74	6513.05
475.112	6632.82
475.484	6718.47
475.855	6903.55
476.227	6920.5
476.598	7150.32
476.97	7172.47
477.341	7364.1
477.713	7461.72
478.084	7571.55
478.455	7730.42
478.827	7811.09
479.198	8017.64
479.569	8102.39
479.94	8307.13
480.311	8403.62
480.682	8569.72
481.053	8751.18
481.424	8902.36
481.795	9023.72
482.166	9183.94
482.537	9253.32
482.908	9433.42
483.279	9552.29
483.65	9747.54
484.021	9922.45
484.391	10066.4
484.762	10122.9
485.133	10279.05
485.503	10437.01
485.874	10739.6
486.244	10829.09
486.615	10992.03
486.985	11160.38
487.356	11305.92
487.726	11424.78
488.097	11563.76
488.467	11751.56
488.837	11965.79
489.207	12192
489.578	12287.81
489.948	12392.22
490.318	12647.13
490.688	12721.25
491.058	12903.39
491.428	13276.49
491.798	13276.26
492.168	13581.56
492.538	13601.22
492.908	13761.67
493.278	13897.04
493.648	14017.26
494.017	14126.41
494.387	14310.13
494.757	14435.78
495.126	14625.6
495.496	14666.73
495.866	14838.71
496.235	15070.56
496.605	15141.75
496.974	15255.19
497.344	15392.14
497.713	15562.75
498.082	15744.9
498.452	15906.93
498.821	15966.59
499.19	16004.55
499.559	16173.81
499.928	16245
500.298	16372.68
500.667	16480.7
501.036	16494.03
501.405	16770.63
501.774	16726.11
502.143	16891.76
502.512	17184.63
502.88	17268.7
503.249	17322.26
503.618	17441.8
503.987	17538.3
504.356	17677.05
504.724	17935.8
505.093	17917.04
505.462	17974.89
505.83	18181.44
506.199	18308.9
506.567	18535.56
506.936	18447.2
507.304	18734.2
507.672	18801.54
508.041	18872.72
508.409	19046.96
508.777	19226.16
509.145	19346.38
509.514	19474.52
509.882	19596.77
510.25	19677.67
510.618	19973.26
510.986	19965.35
511.354	20167.38
511.722	20275.17
512.09	20465.22
512.458	20448.73
512.826	20705.9
513.193	20831.54
513.561	20847.81
513.929	20954.25
514.297	21078.32
514.664	21261.59
515.032	21331.42
515.4	21627.45
515.767	21592.88
516.135	21891.63
516.502	21869.71
516.869	22156.03
517.237	22374.55
517.604	22344.27
517.972	22622.68
518.339	22771.38
518.706	22922.11
519.073	23018.83
519.44	23189.67
519.808	23442.55
520.175	23369.78
520.542	23606.38
520.909	23808.19
521.276	23840.5
521.643	23999.82
522.009	24198.91
522.376	24308.51
522.743	24445.23
523.11	24723.64
523.477	25058.32
523.843	25163.63
524.21	25469.84
524.577	25895.82
524.943	25849.72
525.31	26145.98
525.676	26360.44
526.043	26592.07
526.409	26647.43
526.776	26764.27
527.142	26915.22
527.508	27089.68
527.874	27281.32
528.241	27229.34
528.607	27298.72
528.973	27626.39
529.339	27660.52
529.705	27940.73
530.071	28181.63
530.437	28281.52
530.803	28544.11
531.169	28864.33
531.535	28833.59
531.901	29066.58
532.267	29206.01
532.632	29507.92
532.998	29425.21
533.364	29852.32
533.73	29869.05
534.095	30012.54
534.461	30122.37
534.826	30167.57
535.192	30174.12
535.557	30468.58
535.923	30302.03
536.288	30535.24
536.653	30679.19
537.019	30520.1
537.384	30822.24
537.749	30950.82
538.114	31036.25
538.479	31105.17
538.845	31393.07
539.21	31287.54
539.575	31720.97
539.94	31782.67
540.305	32028.08
540.67	32011.81
541.034	32068.08
541.399	32164.13
541.764	32253.16
542.129	32319.83
542.494	32304.01
542.858	32535.42
543.223	32408.41
543.587	32685.69
543.952	32524.57
544.316	32663.1
544.681	32626.94
545.045	32873.49
545.41	32997.55
545.774	33016.98
546.138	33086.59
546.503	33291.33
546.867	33335.85
547.231	33811.99
547.595	33765.67
547.959	34006.79
548.324	34035.94
548.688	34172.43
549.052	34298.53
549.416	34389.6
549.779	34465.99
550.143	34231.42
550.507	34538.98
550.871	34379.44
551.235	34378.31
551.599	34601.8
551.962	34531.52
552.326	34612.2
552.689	34798.18
553.053	34612.88
553.417	34810.38
553.78	35327.43
554.143	35176.25
554.507	35382.57
554.87	35469.12
555.234	35896.01
555.597	35884.48
555.96	35974.42
556.323	36245.6
556.686	36402.66
557.05	36515.88
557.413	36733.72
557.776	36771.69
558.139	37003.55
558.502	36841.74
558.865	36915.41
559.228	37029.08
559.59	36935.53
559.953	36916.32
560.316	37197.89
560.679	37256.2
561.041	37473.36
561.404	37535.06
561.767	37835.39
562.129	37780.93
562.492	38173.91
562.854	38229.73
563.217	38262.72
563.579	38463.85
563.941	38757.4
564.304	39038.75
564.666	39282.36
565.028	39257.72
565.39	39559.64
565.753	39740.2
566.115	39795.56
566.477	39951.94
566.839	39977.71
567.201	40132.05
567.563	39963.92
567.925	40231.26
568.287	40361.2
568.648	40259.05
569.01	40483.23
569.372	40591.02
569.734	40360.75
570.095	40764.35
570.457	40652.72
570.819	40894.07
571.18	41005.02
571.542	41209.09
571.903	41413.37
572.265	41766.59
572.626	41796.87
572.987	41842.52
573.349	42156.41
573.71	42391.2
574.071	42487.92
574.432	42535.38
574.794	42852.88
575.155	42721.36
575.516	42597.52
575.877	42737.41
576.238	42797.97
576.599	42856.27
576.96	42626.45
577.32	42736.28
577.681	42809.27
578.042	42870.29
578.403	42751.19
578.763	42840.91
579.124	42923.39
579.485	43131.07
579.845	43432.98
580.206	43345.75
580.566	43421.91
580.927	43514.56
581.287	43813.31
581.648	43670.72
582.008	43992.97
582.368	43925.4
582.728	44049.69
583.089	44080.42
583.449	44248.55
583.809	44260.76
584.169	44183.02
584.529	44130.14
584.889	44472.73
585.249	43981.44
585.609	43870.48
585.969	44086.75
586.329	43869.58
586.688	43988.9
587.048	43818.28
587.408	43892.41
587.768	43821.67
588.127	43714.78
588.487	43721.11
588.846	43991.84
589.206	43818.73
589.565	43896.02
589.925	44175.79
590.284	43926.08
590.643	44178.5
591.003	44373.75
591.362	44660.97
591.721	44406.06
592.08	44482.9
592.44	44620.75
592.799	44918.14
593.158	44712.5
593.517	44679.73
593.876	44656.45
594.235	44525.16
594.593	44642.89
594.952	44614.42
595.311	44515.67
595.67	44561.54
596.029	44700.75
596.387	44517.25
596.746	44375.56
597.104	44191.83
597.463	44329.68
597.822	44498.72
598.18	44422.11
598.538	44378.04
598.897	44640.18
599.255	44273.19
599.613	44908.88
599.972	44683.8
600.33	44943.45
600.688	44933.06
601.046	45130.56
601.404	45205.37
601.762	45206.04
602.12	45412.37
602.478	45428.64
602.836	45386.38
603.194	45180.28
603.552	45379.6
603.91	45007.18
604.268	45247.85
604.625	45025.93
604.983	45076.78
605.341	44914.53
605.698	45071.58
606.056	45195.87
606.413	45088.08
606.771	45222.77
607.128	45223.44
607.485	45030.45
607.843	45190
608.2	45249.88
608.557	45368.52
608.914	45277.68
609.272	45519.03
609.629	45691
609.986	45782.07
610.343	45557.67
610.7	45838.79
611.057	45886.03
611.414	46011.22
611.771	46026.81
612.127	46240.82
612.484	46352.45
612.841	46219.35
613.198	46215.51
613.554	46273.13
613.911	46251.21
614.267	46321.04
614.624	46368.72
614.98	46407.37
615.337	46628.15
615.693	46323.53
616.05	46275.62
616.406	46416.86
616.762	46343.64
617.118	46279.24
617.475	46325.34
617.831	46470.64
618.187	46479.91
618.543	46454.37
618.899	46608.04
619.255	46582.05
619.611	46505.44
619.967	46701.6
620.323	46852.1
620.678	46621.6
621.034	46720.58
621.39	46833.8
621.746	46835.6
622.101	47069.27
622.457	46880.8
622.812	46954.02
623.168	47239.21
623.523	47168.93
623.879	47268.14
624.234	47081.93
624.589	47254.58
624.945	47363.27
625.3	47191.75
625.655	47182.04
626.01	47087.58
626.365	47075.15
626.72	47071.76
627.075	47031.53
627.43	46928.48
627.785	46791.54
628.14	46809.39
628.495	46886.45
628.85	46771.65
629.205	46571.66
629.559	46782.72
629.914	46432.45
630.269	46548.83
630.623	46415.05
630.978	46472.9
631.332	46685.55
631.687	46713.8
632.041	46613.46
632.396	46671.54
632.75	46520.58
633.104	46547.93
633.459	46489.4
633.813	46502.28
634.167	46509.51
634.521	46411.44
634.875	46558.32
635.229	46428.84
635.583	46305.22
635.937	46366.92
636.291	46297.99
636.645	46271.33
636.999	46068.39
637.352	46145.91
637.706	45914.5
638.06	46027.94
638.413	45942.07
638.767	45709.31
639.121	45757.21
639.474	45348.41
639.828	45482.65
640.181	45407.17
640.534	45333.27
640.888	45310
641.241	44989.55
641.594	45220.73
641.947	45299.15
642.301	45218.47
642.654	45293.72
643.007	45297.11
643.36	45315.87
643.713	45148.42
644.066	45316.55
644.419	45300.05
644.771	45232.03
645.124	45217.57
645.477	45284.46
645.83	44999.27
646.182	44645.61
646.535	44298.95
646.888	44119.52
647.24	43832.29
647.593	43890.15
647.945	43630.72
648.298	43437.28
648.65	43421.68
649.002	43462.36
649.355	43526.54
649.707	43671.17
650.059	43795.23
650.411	44321.77
650.763	44312.73
651.115	44635.44
651.467	44356.57
651.819	44286.29
652.171	44113.64
652.523	43957.71
652.875	44036.36
653.227	43962.46
653.578	44298.95
653.93	44307.31
654.282	44085.85
654.633	43982.35
654.985	44021.67
655.337	44111.16
655.688	44069.12
656.039	44334.2
656.391	44149.57
656.742	44101.67
657.094	44317.25
657.445	44508.21
657.796	44396.8
658.147	44463.24
658.498	44437.93
658.849	44470.7
659.2	44308.89
659.551	44102.12
659.902	44439.28
660.253	44243.58
660.604	44292.62
660.955	43948.9
661.306	44025.06
661.656	43866.19
662.007	43947.32
662.358	43797.94
662.708	43756.59
663.059	43581.68
663.409	43347.11
663.76	43655.12
664.11	43439.31
664.461	43367
664.811	43386.2
665.161	43348.24
665.511	43373.77
665.862	43354.34
666.212	43619.42
666.562	43568.8
666.912	43512.75
667.262	43675.69
667.612	43810.15
667.962	43749.58
668.312	43687.21
668.662	43849.69
669.011	43980.09
669.361	43873.87
669.711	43906.87
670.06	43970.6
670.41	43904.61
670.76	43840.66
671.109	43859.41
671.459	43754.56
671.808	43661.22
672.157	43710.49
672.507	43507.56
672.856	43447.67
673.205	43451.06
673.554	43438.63
673.904	43175.81
674.253	43270.5
674.602	43165.64
674.951	42508.49
675.3	42181.49
675.649	42860.34
675.998	42749.84
676.346	42684.75
676.695	42778.99
677.044	42473.46
677.393	42508.49
677.741	42448.15
678.09	42268.27
678.438	42297.42
678.787	42445.44
679.135	42479.34
679.484	42251.09
679.832	42442.5
680.181	42339.9
680.529	42560.01
680.877	42394.37
681.225	42475.49
681.573	42644.08
681.922	42508.94
682.27	42413.8
682.618	42491.76
682.966	42452.9
683.314	42437.98
683.661	42285.44
684.009	42081.38
684.357	42079.35
684.705	41980.59
685.053	41962.74
685.4	41843.42
685.748	41729.52
686.095	41533.82
686.443	41372.02
686.79	41231.46
687.138	41271.91
687.485	41258.35
687.832	40949.21
688.18	40910.34
688.527	40532.49
688.874	40539.5
689.221	40225.83
689.568	40156.46
689.915	39973.41
690.262	40081.66
690.609	39923.47
690.956	39735.23
691.303	39799.41
691.65	39711.5
691.997	39670.14
692.344	39295.92
692.69	39441.45
693.037	39453.43
693.383	39155.81
693.73	39374.33
694.077	39240.55
694.423	39258.63
694.769	39152.64
695.116	38995.81
695.462	38906.77
695.808	38975.25
696.155	39118.07
696.501	38802.37
696.847	38793.33
697.193	38468.14
697.539	38613.45
697.885	38624.97
698.231	38357.18
698.577	38256.17
698.923	38252.33
699.269	38016.63
699.614	37794.26
699.96	37613.93
700.306	37514.72
700.651	37263.88
700.997	37128.06
701.342	36911.35
701.688	36938.24
702.033	36706.61
702.379	36707.06
702.724	36420.96
703.069	36546.61
703.415	36099.16
703.76	36177.81
704.105	36012.16
704.45	35901.2
704.795	35994.53
705.14	35663.7
705.485	35711.38
705.83	35446.07
706.175	35586.18
706.52	35515.22
706.865	35342.12
707.209	35312.97
707.554	35291.05
707.899	35372.86
708.243	35206.98
708.588	35227.1
708.932	35096.93
709.277	35252.18
709.621	35301.44
709.966	34889.48
710.31	35001.34
710.654	34650.84
710.998	35036.82
711.342	34893.09
711.687	34856.26
712.031	34644.06
712.375	34402.94
712.719	34482.71
713.063	34238.65
713.407	34374.46
713.75	34137.18
714.094	34094.02
714.438	33884.76
714.782	33868.71
715.125	33680.02
715.469	33785.78
715.812	33432.57
716.156	33148.28
716.499	33279.35
716.843	33181.95
717.186	32875.75
717.53	33062.18
717.873	32823.09
718.216	32763.66
718.559	32847.05
718.902	32547.62
719.246	32763.66
719.589	32564.57
719.932	32684.56
720.275	32607.73
720.617	32494.96
720.96	32576.77
721.303	32567.05
721.646	32718.24
721.989	32592.82
722.331	32683.89
722.674	32705.13
723.016	32757.1
723.359	32743.55
723.701	32788.97
724.044	32497.9
724.386	32399.83
724.729	32609.31
725.071	32631.68
725.413	32595.75
725.755	32603.44
726.097	32472.37
726.439	32308.08
726.782	32230.56
727.124	32391.92
727.465	32177.68
727.807	32062.43
728.149	32028.99
728.491	31845.26
728.833	31867.64
729.175	31694.53
729.516	31733.18
729.858	31604.37
730.199	31695.44
730.541	31623.35
730.882	31549.45
731.224	31559.17
731.565	31297.48
731.906	31406.41
732.248	31282.57
732.589	31250.7
732.93	31250.03
733.271	31154.44
733.612	31090.48
733.953	31221.55
734.294	31107.88
734.635	31126.41
734.976	31323.24
735.317	30994.44
735.658	31125.06
735.999	31060.2
736.339	31081.67
736.68	31327.99
737.021	31236.69
737.361	31129.35
737.702	31417.48
738.042	31258.84
738.383	31311.49
738.723	31396.91
739.063	31314.43
739.404	31479.17
739.744	31525.05
740.084	31280.76
740.424	31386.75
740.764	31240.08
741.104	31373.86
741.444	31194.66
741.784	31273.3
742.124	31318.72
742.464	31268.78
742.804	31251.61
743.143	31181.55
743.483	31174.32
743.823	30960.54
744.162	31082.12
744.502	31118.5
744.841	31101.33
745.181	31116.92
745.52	30939.75
745.86	30933.42
746.199	30850.49
746.538	30849.36
746.877	30798.74
747.216	30821.56
747.556	30776.82
747.895	30802.58
748.234	30697.72
748.573	30638.29
748.911	30698.85
749.25	30740.21
749.589	30786.54
749.928	30855.69
750.267	30855.23
750.605	30791.28
750.944	30916.7
751.283	30924.84
751.621	31110.59
751.96	30871.73
752.298	30803.03
752.636	31120.99
752.975	31060.65
753.313	31117.6
753.651	31283.47
753.989	31114.66
754.327	31222.68
754.666	31065.4
755.004	31240.08
755.342	31273.98
755.679	31338.39
756.017	31185.39
756.355	31397.37
756.693	31315.33
757.031	31308.56
757.368	31166.64
757.706	31244.6
758.044	31207.54
758.381	31099.75
758.719	30956.47
759.056	31004.61
759.394	30992.41
759.731	30778.63
760.068	30960.99
760.405	30659.08
760.743	30865.63
761.08	30852.75
761.417	30586.54
761.754	30663.83
762.091	30581.57
762.428	30401.23
762.765	30231.3
763.102	30328.24
763.438	30175.93
763.775	30052.54
764.112	30170.05
764.449	30312.65
764.785	30048.7
765.122	29948.82
765.458	29984.52
765.795	29868.59
766.131	29871.08
766.467	29838.31
766.804	29716.51
767.14	29801.93
767.476	29848.03
767.812	29734.59
768.148	29700.69
768.485	29697.07
768.821	29536.62
769.157	29648.26
769.492	29459.56
769.828	29564.87
770.164	29337.99
770.5	29429.96
770.836	29298.89
771.171	29196.75
771.507	29150.87
771.842	29044.43
772.178	28950.88
772.513	29010.99
772.849	28984.55
773.184	28764.22
773.519	28824.1
773.855	28746.14
774.19	28570.32
774.525	28406.48
774.86	28347.96
775.195	28497.33
775.53	28283.55
775.865	28232.93
776.2	28070.67
776.535	27993.84
776.87	27918.14
777.205	27665.49
777.539	27530.8
777.874	27573.74
778.209	27152.05
778.543	27225.72
778.878	27130.36
779.212	27056.46
779.547	26946.18
779.881	26866.41
780.215	26710.48
780.55	26588.23
780.884	26634.1
781.218	26622.35
781.552	26426.88
781.886	26326.09
782.22	26143.95
782.554	26090.39
782.888	25882.71
783.222	25852.65
783.556	25774.69
783.889	25818.98
784.223	25577.41
784.557	25508.71
784.89	25760
785.224	25473.68
785.557	25320.92
785.891	25338.09
786.224	25310.07
786.558	25270.07
786.891	25010.64
787.224	25082.28
787.557	25010.64
787.891	24905.11
788.224	24888.84
788.557	24927.25
788.89	24831.89
789.223	24750.76
789.556	24682.97
789.888	24593.48
790.221	24617.66
790.554	24383.31
790.887	24440.26
791.219	24256.09
791.552	24246.14
791.884	24164.56
792.217	23983.32
792.549	23890.22
792.882	23731.13
793.214	23629.89
793.546	23664.01
793.879	23599.15
794.211	23536.33
794.543	23596.67
794.875	23240.52
795.207	23244.36
795.539	23109
795.871	23139.5
796.203	22866.74
796.535	22784.71
796.867	22751.27
797.198	22657.71
797.53	22645.51
797.862	22440.09
798.193	22482.12
798.525	22344.72
798.856	22384.72
799.188	22149.47
799.519	22119.42
799.85	21921.91
800.182	21932.53
800.513	21883.72
800.844	21627.23
801.175	21660
801.506	21727.34
801.837	21655.48
802.168	21607.79
802.499	21590.84
802.83	21585.42
803.161	21559.43
803.491	21618.64
803.822	21376.84
804.153	21384.75
804.483	21210.97
804.814	21155.6
805.145	21220.01
805.475	21253
805.805	21006.23
806.136	21072.21
806.466	21087.81
806.796	21020.69
807.126	20823.41
807.457	20848.27
807.787	20933.91
808.117	20730.3
808.447	20698.66
808.777	20719.46
809.107	20710.19
809.436	20658.67
809.766	20611.44
810.096	20478.56
810.426	20473.13
810.755	20448.05
811.085	20348.17
811.414	20324.21
811.744	20180.71
812.073	20187.72
812.403	20032.24
812.732	19878.35
813.061	19853.26
813.39	19701.63
813.719	19675.64
814.049	19806.48
814.378	19557.23
814.707	19574.17
815.036	19557
815.365	19439.94
815.693	19261.87
816.022	19291.47
816.351	19252.15
816.68	19064.13
817.008	19042.21
817.337	18902.78
817.665	18942.1
817.994	18895.55
818.322	18828.66
818.651	18771.26
818.979	18704.37
819.307	18826.62
819.636	18694.65
819.964	18611.49
820.292	18702.33
820.62	18797.02
820.948	18692.16
821.276	18761.31
821.604	18635.22
821.932	18636.12
822.259	18777.36
822.587	18747.3
822.915	18739.85
823.243	18814.19
823.57	18788.43
823.898	18834.53
824.225	18692.62
824.553	18665.27
824.88	18862.78
825.207	18900.97
825.535	18889.45
825.862	18879.96
826.189	18813.97
826.516	18963.34
826.843	18946.62
827.17	19060.06
827.497	18916.56
827.824	18893.74
828.151	18861.2
828.478	18864.36
828.805	18962.67
829.131	18869.11
829.458	18787.98
829.785	18756.57
830.111	18785.27
830.438	18893.74
830.764	18805.83
831.09	18800.18
831.417	18663.92
831.743	18711.6
832.069	18733.74
832.395	18642.67
832.722	18696.46
833.048	18476.35
833.374	18532.17
833.7	18442.68
834.026	18463.92
834.351	18431.83
834.677	18357.26
835.003	18306.86
835.329	18395
835.654	18238.84
835.98	18248.33
836.306	18175.12
836.631	18226.87
836.956	18300.08
837.282	18153.42
837.607	18053.31
837.932	18071.39
838.258	18089.92
838.583	18095.57
838.908	17879.53
839.233	17942.58
839.558	17929.02
839.883	17841.11
840.208	17793.2
840.533	17688.8
840.858	17911.17
841.182	17908.46
841.507	17817.38
841.832	17682.25
842.156	17647.22
842.481	17665.3
842.805	17699.87
843.13	17659.87
843.454	17673.89
843.778	17543.72
844.103	17604.28
844.427	17562.02
844.751	17513.21
845.075	17492.42
845.399	17420.78
845.723	17315.02
846.047	17371.97
846.371	17230.73
846.695	17204.29
847.019	17127.23
847.343	17046.11
847.666	17001.81
847.99	16924.3
848.313	16946.45
848.637	16903.28
848.96	16737.41
849.284	16681.14
849.607	16580.13
849.931	16563.63
850.254	16450.64
850.577	16298.78
850.9	16273.7
851.223	16179.46
851.546	16073.93
851.869	16055.85
852.192	16025.12
852.515	15990.77
852.838	15680.72
853.161	15805.46
853.483	15787.38
853.806	15591.45
854.129	15588.97
854.451	15491.34
854.774	15445.47
855.096	15309.88
855.419	15287.51
855.741	15171.13
856.063	15158.25
856.385	15123.22
856.708	15006.61
857.03	14921.87
857.352	14822.21
857.674	14964.8
857.996	14834.19
858.318	14786.05
858.64	14778.14
858.961	14772.49
859.283	14650.24
859.605	14719.16
859.926	14741.76
860.248	14597.13
860.57	14543.35
860.891	14616.34
861.212	14575.44
861.534	14514.42
861.855	14475.1
862.176	14491.6
862.498	14400.53
862.819	14485.04
863.14	14430.58
863.461	14521.88
863.782	14442.11
864.103	14378.83
864.424	14376.12
864.745	14429.23
865.065	14370.7
865.386	14306.97
865.707	14319.17
866.027	14452.73
866.348	14293.18
866.668	14344.71
866.989	14323.69
867.309	14186.52
867.63	14220.64
867.95	14205.05
868.27	14172.73
868.59	14133.41
868.91	14122.79
869.23	14076.24
869.55	14075.11
869.87	14155.56
870.19	14048.9
870.51	14078.5
870.83	13958.5
871.15	13977.26
871.469	13858.39
871.789	13902.69
872.109	13813.42
872.428	13728
872.748	13706.53
873.067	13708.34
873.386	13711.05
873.706	13721
874.025	13516.25
874.344	13588.34
874.663	13599.87
874.982	13466.99
875.301	13543.82
875.62	13428.35
875.939	13403.04
876.258	13377.05
876.577	13423.38
876.896	13323.27
877.214	13250.05
877.533	13203.95
877.852	13149.03
878.17	13207.11
878.489	13195.13
878.807	13140.67
879.125	13133.44
879.444	13192.65
879.762	13103.38
880.08	13069.26
880.398	13003.27
880.716	13006.66
881.034	13028.36
881.352	12885.76
881.67	12890.06
881.988	12972.31
882.306	13021.8
882.624	12889.83
882.941	12860.9
883.259	12838.08
883.577	12893.67
883.894	12819.78
884.212	12845.76
884.529	12787.23
884.846	12772.77
885.164	12740.91
885.481	12709.95
885.798	12839.66
886.115	12662.72
886.432	12649.84
886.75	12677.41
887.067	12715.6
887.383	12652.32
887.7	12644.19
888.017	12641.7
888.334	12672.21
888.651	12646.9
888.967	12631.98
889.284	12457.07
889.6	12577.97
889.917	12417.53
890.233	12475.83
890.55	12398.09
890.866	12416.85
891.182	12364.87
891.498	12257.08
891.815	12236.97
892.131	12210.3
892.447	12171.88
892.763	12091.89
893.079	12064.77
893.395	11902.06
893.71	11880.82
894.026	11849.63
894.342	11919.46
894.657	11801.5
894.973	11777.54
895.289	11714.04
895.604	11652.57
895.92	11600.37
896.235	11549.53
896.55	11540.71
896.865	11569.64
897.181	11440.38
897.496	11413.03
897.811	11273.6
898.126	11274.51
898.441	11199.25
898.756	11142.31
899.071	11141.4
899.386	11115.41
899.7	10999.03
900.015	10954.74
900.33	10832.71
900.644	10850.34
900.959	10906.38
901.273	10808.08
901.588	10818.02
901.902	10673.84
902.216	10747.06
902.531	10724.01
902.845	10637.01
903.159	10545.26
903.473	10566.73
903.787	10546.62
904.101	10535.09
904.415	10488.09
904.729	10473.85
905.042	10386.17
905.356	10385.72
905.67	10370.12
905.984	10362.44
906.297	10354.3
906.611	10261.88
906.924	10280.41
907.237	10205.16
907.551	10164.25
907.864	10182.33
908.177	10117.93
908.491	10147.3
908.804	10112.05
909.117	10069.34
909.43	9937.82
909.743	9877.03
910.056	9923.58
910.368	9794.09
910.681	9895.78
910.994	9861.21
911.307	9824.37
911.619	9747.54
911.932	9771.72
912.244	9662.8
912.557	9683.14
912.869	9632.97
913.181	9608.11
913.494	9636.13
913.806	9499.19
914.118	9418.06
914.43	9441.11
914.742	9460.09
915.054	9394.56
915.366	9246.99
915.678	9248.34
915.99	9281.34
916.302	9134.9
916.613	9103.49
916.925	9171.51
917.236	9082.25
917.548	8977.62
917.859	8929.48
918.171	8901.91
918.482	8861.24
918.794	8798.86
919.105	8799.09
919.416	8671.18
919.727	8683.61
920.038	8662.37
920.349	8583.28
920.66	8506.44
920.971	8495.37
921.282	8453.79
921.593	8448.82
921.903	8351.87
922.214	8319.1
922.525	8296.96
922.835	8309.16
923.146	8234.81
923.456	8169.5
923.767	8174.7
924.077	8151.42
924.387	8177.64
924.697	8160.92
925.008	8017.42
925.318	7995.04
925.628	7991.65
925.938	7912.33
926.248	7857.19
926.558	7778.33
926.867	7816.97
927.177	7780.81
927.487	7750.76
927.796	7749.63
928.106	7597.77
928.416	7648.39
928.725	7646.58
929.034	7572.68
929.344	7616.52
929.653	7595.51
929.962	7557.09
930.271	7534.72
930.581	7488.84
930.89	7434.15
931.199	7421.27
931.508	7404.78
931.817	7434.15
932.125	7348.51
932.434	7369.52
932.743	7280.94
933.051	7306.47
933.36	7249.53
933.669	7184.9
933.977	7189.87
934.286	7202.97
934.594	7155.07
934.902	7104.45
935.21	7092.02
935.519	7127.95
935.827	7108.29
936.135	7043.66
936.443	6994.62
936.751	6950.55
937.059	6968.86
937.367	6966.14
937.674	6890.67
937.982	6877.11
938.29	6818.35
938.597	6812.48
938.905	6713.95
939.213	6683.21
939.52	6653.84
939.827	6713.95
940.135	6602.09
940.442	6593.05
940.749	6515.99
941.056	6495.2
941.363	6364.13
941.67	6416.1
941.977	6408.65
942.284	6331.13
942.591	6330.91
942.898	6273.28
943.205	6260.63
943.511	6229.89
943.818	6226.5
944.125	6112.38
944.431	6126.62
944.738	6131.82
945.044	6073.06
945.35	6016.11
945.657	5993.51
945.963	6011.59
946.269	5986.28
946.575	5974.08
946.881	5907.42
947.187	5918.71
947.493	5858.38
947.799	5826.97
948.105	5825.61
948.41	5793.75
948.716	5793.07
949.022	5752.62
949.327	5733.86
949.633	5637.59
949.938	5692.51
950.244	5668.33
950.549	5595.11
950.854	5554.2
951.16	5560.31
951.465	5518.27
951.77	5506.3
952.075	5484.38
952.38	5437.6
952.685	5501.32
952.99	5473.75
953.294	5391.04
953.599	5440.99
953.904	5379.07
954.209	5346.75
954.513	5318.73
954.818	5323.7
955.122	5314.21
955.426	5310.14
955.731	5270.14
956.035	5229.02
956.339	5268.56
956.643	5258.62
956.948	5222.01
957.252	5241.44
957.556	5167.77
957.86	5162.8
958.163	5124.39
958.467	5076.02
958.771	5097.27
959.075	5123.71
959.378	5066.99
959.682	5098.4
959.985	5000.55
960.289	5002.58
960.592	5002.58
960.896	4996.03
961.199	4947.44
961.502	4949.25
961.805	4912.41
962.108	4841
962.411	4854.79
962.714	4776.6
963.017	4814.34
963.32	4782.02
963.623	4739.99
963.926	4783.15
964.228	4678.3
964.531	4688.69
964.833	4651.18
965.136	4662.48
965.438	4609.14
965.741	4620.22
966.043	4587.9
966.345	4550.16
966.648	4548.81
966.95	4511.75
967.252	4464.06
967.554	4461.8
967.856	4428.36
968.158	4373.22
968.46	4386.33
968.761	4360.79
969.063	4367.79
969.365	4323.73
969.666	4322.6
969.968	4261.58
970.269	4274.24
970.571	4230.4
970.872	4240.57
971.174	4181.81
971.475	4201.92
971.776	4178.87
972.077	4117.41
972.378	4138.42
972.679	4083.06
972.98	4062.94
973.281	4063.17
973.582	4004.64
973.883	3986.56
974.183	4001.93
974.484	4009.16
974.785	3949.73
975.085	3962.38
975.386	3950.4
975.686	3921.25
975.986	3903.85
976.287	3871.31
976.587	3856.17
976.887	3827.02
977.187	3836.28
977.487	3774.59
977.787	3779.56
978.087	3782.05
978.387	3786.79
978.687	3783.63
978.987	3795.38
979.286	3727.36
979.586	3766.91
979.885	3726.68
980.185	3646.23
980.484	3682.16
980.784	3667.02
981.083	3687.13
981.382	3626.35
981.682	3641.26
981.981	3638.77
982.28	3631.99
982.579	3590.19
982.878	3552
983.177	3549.74
983.475	3517.65
983.774	3515.61
984.073	3514.26
984.372	3481.04
984.67	3490.08
984.969	3471.55
985.267	3445.33
985.566	3444.66
985.864	3432
986.162	3438.55
986.461	3377.99
986.759	3426.12
987.057	3359.69
987.355	3360.36
987.653	3370.98
987.951	3335.73
988.249	3318.33
988.547	3313.36
988.844	3312.68
989.142	3294.83
989.44	3249.63
989.737	3221.61
990.035	3186.13
990.332	3235.4
990.63	3185.68
990.927	3193.14
991.224	3154.95
991.521	3134.61
991.819	3106.81
992.116	3083.08
992.413	3066.81
992.71	3077.43
993.006	3061.84
993.303	3054.83
993.6	3011.22
993.897	2998.34
994.193	3002.86
994.49	2968.96
994.787	2952.24
995.083	2922.64
995.379	2928.74
995.676	2869.98
995.972	2882.64
996.268	2910.88
996.565	2816.88
996.861	2825.01
997.157	2810.1
997.453	2793.37
997.749	2779.59
998.044	2756.09
998.34	2755.63
998.636	2726.26
998.932	2699.59
999.227	2704.56
999.523	2695.07
999.818	2698.91
1000.114	2675.86
1000.409	2646.03
1000.704	2625.92
1001	2632.47
1001.295	2615.98
1001.59	2611.23
1001.885	2573.94
1002.18	2558.58
1002.475	2571.01
1002.77	2553.83
1003.065	2518.13
1003.359	2545.24
1003.654	2545.47
1003.949	2489.43
1004.243	2479.71
1004.538	2465.7
1004.832	2456.21
1005.127	2451.01
1005.421	2411.69
1005.715	2418.92
1006.009	2402.65
1006.304	2387.06
1006.598	2349.54
1006.892	2370.79
1007.186	2311.13
1007.48	2311.8
1007.773	2285.82
1008.067	2331.46
1008.361	2274.06
1008.655	2277.91
1008.948	2283.33
1009.242	2265.03
1009.535	2232.03
1009.829	2230.9
1010.122	2233.84
1010.415	2204.91
1010.708	2213.73
1011.001	2229.32
1011.295	2194.07
1011.588	2181.41
1011.881	2153.84
1012.173	2154.75
1012.466	2153.16
1012.759	2161.98
1013.052	2128.08
1013.344	2110.45
1013.637	2151.81
1013.93	2080.62
1014.222	2110.68
1014.514	2043.79
1014.807	2075.65
1015.099	2039.95
1015.391	2036.33
1015.683	2023
1015.976	1986.16
1016.268	1969.21
1016.56	1990.46
1016.851	1928.99
1017.143	1980.06
1017.435	1960.63
1017.727	1940.74
1018.018	1936.45
1018.31	1910.91
1018.602	1905.49
1018.893	1909.33
1019.185	1863.45
1019.476	1858.03
1019.767	1848.31
1020.058	1822.55
1020.35	1836.79
1020.641	1857.8
1020.932	1783
1021.223	1794.3
1021.514	1776
1021.804	1733.51
1022.095	1721.31
1022.386	1725.6
1022.677	1720.86
1022.967	1735.1
1023.258	1713.18
1023.548	1678.6
1023.839	1670.92
1024.129	1659.17
1024.419	1646.74
1024.709	1613.52
1025	1595.89
1025.29	1605.38
1025.58	1595.89
1025.87	1596.34
1026.16	1564.25
1026.449	1549.56
1026.739	1542.11
1027.029	1530.81
1027.319	1516.12
1027.608	1529.9
1027.898	1492.39
1028.187	1516.57
1028.477	1489.45
1028.766	1484.03
1029.055	1458.49
1029.344	1446.06
1029.634	1432.5
1029.923	1436.12
1030.212	1411.94
1030.501	1409.91
1030.79	1403.58
1031.078	1384.37
1031.367	1416.91
1031.656	1391.83
1031.945	1383.47
1032.233	1379.85
1032.522	1343.24
1032.81	1340.3
1033.099	1316.58
1033.387	1338.27
1033.675	1330.13
1033.963	1327.87
1034.251	1302.56
1034.54	1322.45
1034.828	1274.32
1035.116	1291.49
1035.403	1277.48
1035.691	1243.36
1035.979	1235.67
1036.267	1244.04
1036.554	1235.45
1036.842	1238.84
1037.129	1222.11
1037.417	1231.61
1037.704	1205.17
1037.992	1213.53
1038.279	1209.91
1038.566	1196.35
1038.853	1196.35
1039.14	1196.35
