Data from blue_surface_keyboard_FLMS001491_072.txt Node
Date: Tue Feb 07 11:13:37 GMT 2017
User: dcchb
Spectrometer: FLMS00149
Trigger mode: 0
Integration Time (sec): 2.000000E-2
Scans to average: 10
Electric dark correction enabled: true
Nonlinearity correction enabled: false
Boxcar width: 0
XAxis mode: Wavelengths
Number of Pixels in Spectrum: 2048
>>>>>Begin Spectral Data<<<<<
341.393	-14.9
341.776	-14.9
342.16	-14.9
342.543	-54
342.927	-74.79
343.31	-62.36
343.693	-75.92
344.077	-79.08
344.46	-55.13
344.843	-42.92
345.226	-31.4
345.61	-27.78
345.993	-28.01
346.376	-14.22
346.759	19.22
347.142	26.91
347.525	32.56
347.908	59.45
348.291	68.03
348.674	102.84
349.057	107.81
349.44	134.93
349.823	142.61
350.206	155.72
350.588	155.26
350.971	166.56
351.354	178.31
351.737	217.86
352.119	242.49
352.502	246.56
352.884	259.89
353.267	253.11
353.65	271.87
354.032	277.75
354.414	275.71
354.797	292.44
355.179	289.72
355.562	296.28
355.944	311.19
356.326	292.89
356.709	326.33
357.091	299.89
357.473	324.98
357.855	310.97
358.238	314.13
358.62	338.54
359.002	316.39
359.384	301.02
359.766	320.91
360.148	309.38
360.53	301.93
360.912	300.12
361.294	309.16
361.676	284.07
362.057	286.11
362.439	289.5
362.821	272.1
363.203	304.86
363.584	293.11
363.966	305.77
364.348	288.59
364.729	294.24
365.111	295.83
365.493	287.46
365.874	287.92
366.256	283.4
366.637	296.73
367.019	276.17
367.4	301.93
367.781	293.34
368.163	261.7
368.544	292.21
368.925	270.74
369.306	308.25
369.688	286.33
370.069	309.84
370.45	287.46
370.831	288.59
371.212	281.81
371.593	280.91
371.974	273.91
372.355	288.14
372.736	305.54
373.117	275.94
373.498	284.75
373.879	288.14
374.26	257.18
374.641	276.84
375.021	297.63
375.402	291.08
375.783	304.19
376.163	297.63
376.544	267.13
376.925	304.41
377.305	310.51
377.686	281.59
378.066	295.15
378.447	311.64
378.827	324.98
379.208	312.77
379.588	303.73
379.968	290.85
380.349	303.96
380.729	313.23
381.109	274.13
381.489	296.28
381.87	298.09
382.25	284.98
382.63	304.86
383.01	303.06
383.39	316.84
383.77	292.89
384.15	284.53
384.53	284.3
384.91	347.12
385.29	318.42
385.67	309.84
386.049	317.29
386.429	316.16
386.809	315.26
387.189	298.31
387.568	322.72
387.948	338.31
388.328	317.97
388.707	304.41
389.087	308.25
389.466	302.83
389.846	324.07
390.225	327.01
390.605	315.03
390.984	324.53
391.363	307.8
391.743	308.48
392.122	327.01
392.501	326.33
392.881	330.4
393.26	287.92
393.639	316.39
394.018	309.84
394.397	319.1
394.776	325.88
395.155	335.82
395.534	307.35
395.913	321.14
396.292	323.62
396.671	322.49
397.05	321.59
397.429	308.48
397.808	344.64
398.186	332.43
398.565	341.47
398.944	342.15
399.323	334.02
399.701	328.37
400.08	320.23
400.458	331.98
400.837	333.56
401.215	352.32
401.594	341.47
401.972	345.32
402.351	354.58
402.729	338.99
403.107	334.02
403.486	315.26
403.864	347.58
404.242	328.37
404.62	345.77
404.999	360.91
405.377	344.41
405.755	350.97
406.133	341.25
406.511	362.04
406.889	369.27
407.267	340.12
407.645	336.5
408.023	347.58
408.401	376.28
408.779	338.31
409.156	349.16
409.534	367.01
409.912	347.58
410.29	376.95
410.667	374.24
411.045	350.06
411.422	376.05
411.8	367.46
412.178	372.89
412.555	385.31
412.933	358.65
413.31	344.19
413.687	367.69
414.065	378.99
414.442	376.28
414.819	364.75
415.197	392.55
415.574	356.39
415.951	387.57
416.328	392.77
416.705	379.21
417.082	401.81
417.46	363.62
417.837	398.87
418.214	378.08
418.591	378.08
418.967	387.35
419.344	379.89
419.721	394.13
420.098	393.68
420.475	393.45
420.852	406.56
421.228	399.78
421.605	399.78
421.982	400.46
422.358	400.91
422.735	402.26
423.111	412.43
423.488	418.99
423.864	413.56
424.241	402.04
424.617	401.13
424.994	403.39
425.37	414.69
425.746	398.87
426.123	416.95
426.499	407.46
426.875	436.16
427.251	421.92
427.627	423.05
428.003	425.09
428.379	414.92
428.756	409.95
429.132	430.06
429.507	431.87
429.883	439.32
430.259	423.28
430.635	459.89
431.011	429.61
431.387	441.36
431.763	438.87
432.138	451.98
432.514	464.18
432.89	466.22
433.265	469.38
433.641	457.4
434.016	472.32
434.392	462.37
434.767	464.18
435.143	460.79
435.518	448.36
435.894	457.18
436.269	473
436.644	487.46
437.02	463.28
437.395	484.52
437.77	479.32
438.145	483.62
438.52	461.92
438.895	453.79
439.271	456.73
439.646	493.56
440.021	491.53
440.395	482.04
440.77	496.05
441.145	506.89
441.52	513.22
441.895	501.7
442.27	494.24
442.645	488.36
443.019	515.25
443.394	502.83
443.769	515.71
444.143	507.35
444.518	523.84
444.892	505.99
445.267	511.41
445.641	512.77
446.016	530.17
446.39	505.31
446.764	511.19
447.139	541.24
447.513	531.3
447.887	534.69
448.262	543.05
448.636	539.66
449.01	530.85
449.384	536.5
449.758	550.06
450.132	515.03
450.506	555.93
450.88	543.73
451.254	535.59
451.628	564.97
452.002	555.25
452.376	542.6
452.75	529.49
453.123	523.16
453.497	565.87
453.871	563.84
454.244	555.71
454.618	575.59
454.992	579.66
455.365	566.55
455.739	562.03
456.112	594.35
456.486	585.31
456.859	608.59
457.232	596.83
457.606	605.87
457.979	595.7
458.352	592.54
458.725	620.11
459.099	605.65
459.472	605.87
459.845	598.87
460.218	632.09
460.591	627.57
460.964	617.63
461.337	628.25
461.71	635.25
462.083	648.13
462.456	658.98
462.829	620.34
463.201	643.61
463.574	663.5
463.947	658.08
464.32	651.52
464.692	650.17
465.065	647.23
465.438	664.63
465.81	665.08
466.183	690.39
466.555	691.75
466.928	690.84
467.3	694.69
467.672	691.3
468.045	729.49
468.417	713.89
468.789	704.18
469.161	706.66
469.534	719.32
469.906	732.65
470.278	724.74
470.65	752.99
471.022	738.98
471.394	741.69
471.766	762.48
472.138	756.83
472.51	766.77
472.882	767.68
473.253	799.54
473.625	799.54
473.997	783.27
474.369	812.42
474.74	792.76
475.112	795.02
475.484	811.52
475.855	816.72
476.227	824.63
476.598	836.38
476.97	834.12
477.341	857.62
477.713	865.98
478.084	863.27
478.455	880.44
478.827	908.24
479.198	901.69
479.569	865.3
479.94	894.91
480.311	924.51
480.682	951.18
481.053	956.15
481.424	976.49
481.795	952.98
482.166	952.98
482.537	1010.84
482.908	986.2
483.279	998.41
483.65	1005.19
484.021	1011.51
484.391	1020.78
484.762	1030.04
485.133	1005.86
485.503	1047.22
485.874	1058.74
486.244	1046.09
486.615	1059.2
486.985	1044.28
487.356	1096.48
487.726	1073.21
488.097	1093.54
488.467	1065.97
488.837	1112.3
489.207	1128.35
489.578	1136.71
489.948	1112.75
490.318	1129.93
490.688	1149.36
491.058	1133.32
491.428	1167.22
491.798	1155.92
492.168	1160.66
492.538	1170.83
492.908	1184.16
493.278	1174.45
493.648	1176.25
494.017	1211.06
494.387	1211.73
494.757	1210.6
495.126	1209.93
495.496	1224.16
495.866	1207.67
496.235	1235.24
496.605	1208.8
496.974	1243.15
497.344	1220.32
497.713	1241.34
498.082	1238.4
498.452	1243.15
498.821	1262.81
499.19	1255.35
499.559	1255.35
499.928	1259.42
500.298	1266.65
500.667	1265.07
501.036	1265.74
501.405	1271.62
501.774	1249.7
502.143	1271.17
502.512	1275.23
502.88	1307.55
503.249	1294.67
503.618	1307.32
503.987	1281.56
504.356	1308.45
504.724	1303.48
505.093	1302.35
505.462	1314.78
505.83	1304.39
506.199	1310.49
506.567	1333.54
506.936	1315.91
507.304	1307.32
507.672	1312.52
508.041	1331.28
508.409	1328.34
508.777	1345.74
509.145	1330.15
509.514	1334.22
509.882	1319.75
510.25	1336.93
510.618	1326.98
510.986	1373.54
511.354	1367.66
511.722	1334.67
512.09	1368.34
512.458	1326.31
512.826	1358.85
513.193	1342.35
513.561	1364.5
513.929	1389.36
514.297	1403.37
514.664	1384.61
515.032	1365.18
515.4	1400.2
515.767	1415.34
516.135	1380.32
516.502	1376.02
516.869	1369.7
517.237	1391.84
517.604	1374.44
517.972	1389.58
518.339	1374.89
518.706	1387.55
519.073	1372.18
519.44	1413.76
519.808	1419.19
520.175	1399.98
520.542	1440.2
520.909	1400.88
521.276	1414.89
521.643	1418.51
522.009	1389.58
522.376	1420.99
522.743	1409.92
523.11	1437.94
523.477	1425.06
523.843	1462.57
524.21	1480.43
524.577	1453.76
524.943	1478.85
525.31	1459.64
525.676	1446.98
526.043	1461.67
526.409	1488.56
526.776	1486.08
527.142	1482.24
527.508	1488.79
527.874	1482.91
528.241	1482.24
528.607	1489.92
528.973	1501.67
529.339	1479.3
529.705	1494.21
530.071	1521.33
530.437	1517.04
530.803	1525.4
531.169	1498.28
531.535	1525.4
531.901	1540.09
532.267	1528.56
532.632	1534.66
532.998	1532.18
533.364	1532.18
533.73	1507.32
534.095	1537.6
534.461	1527.21
534.826	1550.03
535.192	1548.22
535.557	1569.01
535.923	1535.34
536.288	1525.4
536.653	1549.13
537.019	1545.96
537.384	1552.29
537.749	1529.69
538.114	1549.58
538.479	1546.41
538.845	1553.42
539.21	1571.5
539.575	1574.44
539.94	1544.15
540.305	1550.26
540.67	1543.7
541.034	1547.32
541.399	1546.64
541.764	1572.63
542.129	1544.83
542.494	1553.42
542.858	1534.21
543.223	1571.72
543.587	1573.98
543.952	1554.55
544.316	1585.28
544.681	1561.55
545.045	1553.19
545.41	1590.25
545.774	1581.89
546.138	1576.92
546.503	1573.76
546.867	1562.68
547.231	1591.61
547.595	1580.99
547.959	1559.07
548.324	1570.14
548.688	1559.3
549.052	1585.06
549.416	1581.44
549.779	1593.64
550.143	1576.24
550.507	1579.63
550.871	1574.21
551.235	1592.97
551.599	1565.4
551.962	1594.55
552.326	1611.27
552.689	1630.48
553.053	1592.29
553.417	1599.52
553.78	1592.29
554.143	1583.93
554.507	1595.23
554.87	1608.33
555.234	1623.25
555.597	1592.29
555.96	1594.55
556.323	1607.88
556.686	1624.38
557.05	1619.18
557.413	1627.99
557.776	1592.29
558.139	1642.68
558.502	1645.17
558.865	1602.68
559.228	1636.13
559.59	1627.77
559.953	1629.8
560.316	1634.1
560.679	1637.49
561.041	1661.89
561.404	1648.33
561.767	1636.81
562.129	1652.63
562.492	1651.27
562.854	1634.55
563.217	1673.19
563.579	1649.46
563.941	1677.03
564.304	1686.3
564.666	1639.75
565.028	1656.69
565.39	1651.27
565.753	1659.18
566.115	1650.59
566.477	1689.01
566.839	1672.74
567.201	1696.92
567.563	1699.63
567.925	1708.9
568.287	1693.3
568.648	1693.3
569.01	1674.55
569.372	1692.4
569.734	1700.99
570.095	1722.23
570.457	1701.89
570.819	1723.36
571.18	1687.43
571.542	1723.81
571.903	1713.42
572.265	1736.92
572.626	1726.75
572.987	1733.3
573.349	1761.55
573.71	1730.59
574.071	1737.14
574.432	1727.2
574.794	1764.49
575.155	1737.14
575.516	1743.02
575.877	1736.92
576.238	1748.22
576.599	1772.17
576.96	1751.83
577.32	1719.74
577.681	1786.18
578.042	1765.17
578.403	1771.72
578.763	1773.75
579.124	1773.53
579.485	1764.26
579.845	1774.43
580.206	1764.71
580.566	1772.85
580.927	1756.8
581.287	1770.59
581.648	1769.69
582.008	1784.6
582.368	1805.62
582.728	1778.5
583.089	1800.64
583.449	1769.91
583.809	1771.27
584.169	1772.4
584.529	1788.67
584.889	1777.59
585.249	1767.65
585.609	1797.03
585.969	1775.56
586.329	1776.24
586.688	1789.12
587.048	1762.45
587.408	1770.14
587.768	1768.33
588.127	1813.98
588.487	1777.59
588.846	1784.83
589.206	1788.44
589.565	1795.22
589.925	1809.46
590.284	1804.94
590.643	1790.93
591.003	1820.31
591.362	1787.99
591.721	1810.14
592.08	1786.41
592.44	1814.88
592.799	1783.92
593.158	1810.81
593.517	1823.47
593.876	1814.43
594.235	1818.27
594.593	1800.42
594.952	1830.93
595.311	1828.44
595.67	1792.06
596.029	1802.9
596.387	1812.62
596.746	1784.15
597.104	1773.75
597.463	1839.51
597.822	1843.36
598.18	1812.17
598.538	1821.21
598.897	1801.55
599.255	1828.44
599.613	1828.89
599.972	1822.79
600.33	1811.27
600.688	1850.36
601.046	1819.63
601.404	1821.89
601.762	1821.21
602.12	1837.48
602.478	1840.42
602.836	1860.53
603.194	1824.37
603.552	1835.67
603.91	1857.59
604.268	1880.64
604.625	1837.03
604.983	1869.12
605.341	1841.55
605.698	1857.59
606.056	1863.02
606.413	1865.05
606.771	1890.36
607.128	1849.01
607.485	1849.46
607.843	1865.73
608.2	1871.6
608.557	1848.78
608.914	1866.63
609.272	1858.72
609.629	1904.37
609.986	1886.74
610.343	1873.86
610.7	1889.68
611.057	1889.68
611.414	1877.7
611.771	1890.36
612.127	1908.89
612.484	1901.43
612.841	1904.37
613.198	1895.33
613.554	1919.74
613.911	1922
614.267	1921.77
614.624	1888.1
614.98	1927.2
615.337	1903.92
615.693	1906.63
616.05	1919.51
616.406	1946.4
616.762	1919.06
617.118	1929.68
617.475	1933.07
617.831	1929.68
618.187	1942.34
618.543	1937.36
618.899	1974.88
619.255	1964.48
619.611	1950.02
619.967	1958.15
620.323	1972.17
620.678	1973.75
621.034	1975.1
621.39	1936.46
621.746	1959.74
622.101	1988.89
622.457	1930.36
622.812	1945.95
623.168	1966.29
623.523	1941.66
623.879	1971.94
624.234	2000.41
624.589	1995.67
624.945	1950.47
625.3	1990.7
625.655	1975.33
626.01	1973.3
626.365	1988.89
626.72	1990.92
627.075	1975.1
627.43	2001.32
627.785	1985.95
628.14	1998.61
628.495	2019.62
628.85	1998.38
629.205	2018.49
629.559	2006.74
629.914	1988.89
630.269	2046.74
630.623	2029.11
630.978	2027.53
631.332	2023.46
631.687	2051.71
632.041	2038.15
632.396	2027.76
632.75	1997.48
633.104	2036.34
633.459	2017.14
633.813	2052.16
634.167	2065.04
634.521	2057.14
634.875	2041.99
635.229	2030.02
635.583	2061.88
635.937	2020.3
636.291	2066.63
636.645	2060.3
636.999	2056.91
637.352	2081.99
637.706	2053.29
638.06	2059.85
638.413	2058.04
638.767	2052.62
639.121	2058.04
639.474	2060.98
639.828	2081.99
640.181	2100.98
640.534	2103.91
640.888	2079.96
641.241	2071.15
641.594	2118.38
641.947	2107.76
642.301	2137.13
642.654	2100.98
643.007	2101.43
643.36	2136.68
643.713	2112.5
644.066	2136
644.419	2100.52
644.771	2124.25
645.124	2140.97
645.477	2132.16
645.83	2143.91
646.182	2129.68
646.535	2121.77
646.888	2130.58
647.24	2136.68
647.593	2184.82
647.945	2161.31
648.298	2182.56
648.65	2155.66
649.002	2131.03
649.355	2168.54
649.707	2207.19
650.059	2210.13
650.411	2235.66
650.763	2232.72
651.115	2258.03
651.467	2249.67
651.819	2307.98
652.171	2290.58
652.523	2291.48
652.875	2305.49
653.227	2308.65
653.578	2301.65
653.93	2316.34
654.282	2301.42
654.633	2347.3
654.985	2364.92
655.337	2345.04
655.688	2357.47
656.039	2338.26
656.391	2332.83
656.742	2368.31
657.094	2389.56
657.445	2386.39
657.796	2422.55
658.147	2424.13
658.498	2417.35
658.849	2448.31
659.2	2441.08
659.551	2464.36
659.902	2483.56
660.253	2444.02
660.604	2492.38
660.955	2479.5
661.306	2487.86
661.656	2479.04
662.007	2490.8
662.358	2530.12
662.708	2539.38
663.059	2506.39
663.409	2581.87
663.76	2574.41
664.11	2564.01
664.461	2610.57
664.811	2608.08
665.161	2648.76
665.511	2636.78
665.862	2630.23
666.212	2646.95
666.562	2638.14
666.912	2649.66
667.262	2643.11
667.612	2672.94
667.962	2698.93
668.312	2686.05
668.662	2710.45
669.011	2751.58
669.361	2721.52
669.711	2734.41
670.06	2711.58
670.41	2741.41
670.76	2764.46
671.109	2774.86
671.459	2785.7
671.808	2769.88
672.157	2813.73
672.507	2799.71
672.856	2804.23
673.205	2807.62
673.554	2824.8
673.904	2821.63
674.253	2842.88
674.602	2822.09
674.951	2833.16
675.3	2807.17
675.649	2916.55
675.998	2888.07
676.346	2907.06
676.695	2897.79
677.044	2886.49
677.393	2935.53
677.741	2938.02
678.09	2945.02
678.438	2983.21
678.787	2939.6
679.135	2997.9
679.484	2983.44
679.832	3018.24
680.181	2970.78
680.529	3011.01
680.877	3034.28
681.225	3045.58
681.573	3028.41
681.922	2974.4
682.27	3024.57
682.618	3003.55
682.966	3036.32
683.314	3077.45
683.661	3103.89
684.009	3051.69
684.357	3066.83
684.705	3060.05
685.053	3061.63
685.4	3090.1
685.748	3068.18
686.095	3061.85
686.443	3129.65
686.79	3087.39
687.138	3114.73
687.485	3109.08
687.832	3100.05
688.18	3144.34
688.527	3139.59
688.874	3109.76
689.221	3116.54
689.568	3133.27
689.915	3113.83
690.262	3121.29
690.609	3143.43
690.956	3131.68
691.303	3158.35
691.65	3140.27
691.997	3137.78
692.344	3160.16
692.69	3112.25
693.037	3121.06
693.383	3114.06
693.73	3129.2
694.077	3140.95
694.423	3124.68
694.769	3122.64
695.116	3114.73
695.462	3128.97
695.808	3148.18
696.155	3121.97
696.501	3084.45
696.847	3107.05
697.193	3113.6
697.539	3115.41
697.885	3073.15
698.231	3105.24
698.577	3106.6
698.923	3115.41
699.269	3111.8
699.614	3084.9
699.96	3065.7
700.306	3057.11
700.651	3061.18
700.997	3087.39
701.342	3080.84
701.688	3090.1
702.033	3056.88
702.379	3060.5
702.724	3088.29
703.069	3068.63
703.415	3057.79
703.76	3064.79
704.105	3029.76
704.45	3046.71
704.795	3042.87
705.14	3036.54
705.485	3044
705.83	3021.18
706.175	3068.63
706.52	2999.48
706.865	3027.51
707.209	3035.41
707.554	3014.62
707.899	3031.8
708.243	3026.15
708.588	3019.14
708.932	2982.31
709.277	3006.94
709.621	2991.8
709.966	3008.75
710.31	2987.51
710.654	2963.1
710.998	2954.06
711.342	3006.04
711.687	2974.85
712.031	2987.28
712.375	2967.85
712.719	2953.61
713.063	2986.15
713.407	2963.1
713.75	2948.19
714.094	2975.98
714.438	2984.34
714.782	2973.72
715.125	2982.76
715.469	2972.82
715.812	2980.95
716.156	2954.06
716.499	2981.86
716.843	2948.41
717.186	2976.89
717.53	2962.87
717.873	2925.13
718.216	2948.86
718.559	2957.22
718.902	2928.3
719.246	2958.58
719.589	2902.76
719.932	2953.83
720.275	2930.56
720.617	2919.94
720.96	2957.45
721.303	2919.71
721.646	2963.78
721.989	2928.3
722.331	2989.54
722.674	2961.74
723.016	2941.63
723.359	2927.85
723.701	2909.99
724.044	2913.84
724.386	2950.9
724.729	2957
725.071	2943.21
725.413	2969.2
725.755	2960.39
726.097	2913.16
726.439	2932.37
726.782	2897.79
727.124	2923.55
727.465	2943.44
727.807	2951.8
728.149	2954.51
728.491	2926.94
728.833	2939.15
729.175	2954.06
729.516	2967.85
729.858	2967.85
730.199	2944.8
730.541	3002.2
730.882	2949.32
731.224	2980.5
731.565	2976.89
731.906	2996.55
732.248	2977.56
732.589	2940.05
732.93	2948.86
733.271	2966.49
733.612	2970.11
733.953	2988.18
734.294	2986.83
734.635	2979.37
734.976	3000.84
735.317	2982.31
735.658	2989.54
735.999	2991.8
736.339	3019.14
736.68	3036.32
737.021	3030.22
737.361	2987.28
737.702	3040.61
738.042	3057.11
738.383	3015.53
738.723	3029.09
739.063	3028.64
739.404	3055.98
739.744	3081.29
740.084	3019.37
740.424	3060.05
740.764	3078.13
741.104	3112.47
741.444	3107.28
741.784	3094.17
742.124	3094.4
742.464	3137.56
742.804	3155.19
743.143	3132.36
743.483	3151.12
743.823	3126.94
744.162	3164
744.502	3128.97
744.841	3178.91
745.181	3208.29
745.52	3192.02
745.86	3192.02
746.199	3203.32
746.538	3236.99
746.877	3262.08
747.216	3210.55
747.556	3229.99
747.895	3288.52
748.234	3312.92
748.573	3307.5
748.911	3324.45
749.25	3340.72
749.589	3333.71
749.928	3324.22
750.267	3387.04
750.605	3397.44
750.944	3388.85
751.283	3432.47
751.621	3429.08
751.96	3422.75
752.298	3436.31
752.636	3491.9
752.975	3521.96
753.313	3506.36
753.651	3527.15
753.989	3555.4
754.327	3628.85
754.666	3595.85
755.004	3637.66
755.342	3639.01
755.679	3662.97
756.017	3662.52
756.355	3745.23
756.693	3695.06
757.031	3705.68
757.368	3764.66
757.706	3771.89
758.044	3787.94
758.381	3809.18
758.719	3804.89
759.056	3858.9
759.394	3857.54
759.731	3862.29
760.068	3896.86
760.405	3920.14
760.743	3881.04
761.08	3941.61
761.417	3878.33
761.754	3923.53
762.091	3894.15
762.428	3933.47
762.765	3960.36
763.102	3973.02
763.438	3986.35
763.775	3949.29
764.112	4034.26
764.449	4021.83
764.785	3989.51
765.122	4020.25
765.458	3972.79
765.795	4060.25
766.131	4035.16
766.467	4033.35
766.804	4024.77
767.14	4027.48
767.476	4031.55
767.812	4050.76
768.148	4077.42
768.485	4032
768.821	4037.2
769.157	4020.7
769.492	4039.23
769.828	4061.38
770.164	4026.35
770.5	3995.62
770.836	4039.23
771.171	4045.78
771.507	3996.52
771.842	3995.62
772.178	3999.01
772.513	3980.47
772.849	3992
773.184	4036.29
773.519	3999.91
773.855	3995.39
774.19	4025.9
774.525	3996.75
774.86	3996.29
775.195	3971.66
775.53	3947.25
775.865	3938.89
776.2	3923.53
776.535	3929.18
776.87	3915.39
777.205	3892.57
777.539	3891.21
777.874	3916.52
778.209	3923.98
778.543	3870.65
778.878	3854.83
779.212	3890.76
779.547	3816.18
779.881	3874.04
780.215	3808.73
780.55	3848.27
780.884	3802.85
781.218	3799.01
781.552	3818.67
781.886	3798.78
782.22	3785.68
782.554	3726.47
782.888	3729.86
783.222	3747.26
783.556	3717.66
783.889	3763.08
784.223	3721.05
784.557	3692.35
784.89	3727.83
785.224	3715.4
785.557	3713.59
785.891	3700.48
786.224	3635.4
786.558	3658
786.891	3634.04
787.224	3648.96
787.557	3585.23
787.891	3626.13
788.224	3622.29
788.557	3588.39
788.89	3578.45
789.223	3627.04
789.556	3523.76
789.888	3563.76
790.221	3541.39
790.554	3542.97
790.887	3544.1
791.219	3498.45
791.552	3538.9
791.884	3466.59
792.217	3509.53
792.549	3524.22
792.882	3447.16
793.214	3466.36
793.546	3477.44
793.879	3456.65
794.211	3470.66
794.543	3455.74
794.875	3434.05
795.207	3445.12
795.539	3457.55
795.871	3379.36
796.203	3407.16
796.535	3353.82
796.867	3379.36
797.198	3316.76
797.53	3349.3
797.862	3322.19
798.193	3344.33
798.525	3322.41
798.856	3305.24
799.188	3274.73
799.519	3267.95
799.85	3291.45
800.182	3270.89
800.513	3269.31
800.844	3244.9
801.175	3217.56
801.506	3252.58
801.837	3262.75
802.168	3243.32
802.499	3242.19
802.83	3192.7
803.161	3185.47
803.491	3232.92
803.822	3177.11
804.153	3205.35
804.483	3185.47
804.814	3154.28
805.145	3143.66
805.475	3139.82
805.805	3123.77
806.136	3125.58
806.466	3142.98
806.796	3114.73
807.126	3120.16
807.457	3117.9
807.787	3139.37
808.117	3108.63
808.447	3080.16
808.777	3056.66
809.107	3075.41
809.436	3043.55
809.766	3039.93
810.096	3069.31
810.426	3008.75
810.755	3055.53
811.085	3011.69
811.414	3025.47
811.744	3026.38
812.073	2992.25
812.403	2989.54
812.732	2948.19
813.061	2985.92
813.39	2937.34
813.719	2990.22
814.049	3003.32
814.378	2972.59
814.707	2933.5
815.036	2963.78
815.365	2947.51
815.693	2957
816.022	2942.76
816.351	2854.85
816.68	2905.7
817.008	2908.41
817.337	2905.93
817.665	2857.79
817.994	2898.69
818.322	2875.19
818.651	2861.86
818.979	2869.77
819.307	2893.95
819.636	2845.36
819.964	2870.9
820.292	2879.03
820.62	2825.48
820.948	2856.44
821.276	2859.37
821.604	2848.75
821.932	2867.06
822.259	2870.67
822.587	2816.44
822.915	2858.7
823.243	2862.99
823.57	2830.22
823.898	2833.61
824.225	2799.94
824.553	2835.65
824.88	2873.16
825.207	2844.91
825.535	2848.3
825.862	2834.29
826.189	2828.41
826.516	2841.3
826.843	2851.69
827.17	2794.29
827.497	2834.29
827.824	2851.92
828.151	2816.21
828.478	2831.35
828.805	2849.43
829.131	2827.28
829.458	2817.57
829.785	2865.7
830.111	2837.68
830.438	2856.89
830.764	2831.35
831.09	2835.87
831.417	2834.97
831.743	2825.25
832.069	2839.94
832.395	2831.8
832.722	2842.88
833.048	2837
833.374	2813.73
833.7	2808.3
834.026	2847.62
834.351	2821.86
834.677	2822.31
835.003	2811.01
835.329	2837.68
835.654	2801.52
835.98	2829.09
836.306	2796.55
836.631	2802.88
836.956	2791.81
837.282	2816.21
837.607	2766.5
837.932	2822.54
838.258	2785.03
838.583	2817.34
838.908	2750.45
839.233	2812.6
839.558	2772.37
839.883	2743.9
840.208	2778.47
840.533	2752.48
840.858	2770.34
841.182	2730.56
841.507	2769.21
841.832	2699.6
842.156	2696.89
842.481	2742.54
842.805	2724.91
843.13	2719.04
843.454	2695.54
843.778	2677.01
844.103	2691.69
844.427	2688.53
844.751	2649.21
845.075	2705.03
845.399	2684.24
845.723	2652.37
846.047	2655.99
846.371	2645.82
846.695	2665.48
847.019	2655.54
847.343	2591.36
847.666	2633.62
847.99	2600.85
848.313	2598.36
848.637	2587.06
848.96	2593.62
849.284	2566.5
849.607	2580.29
849.931	2555.88
850.254	2532.83
850.577	2541.87
850.9	2508.42
851.223	2513.62
851.546	2522.21
851.869	2475.2
852.192	2516.78
852.515	2478.37
852.838	2455.99
853.161	2462.1
853.483	2443.79
853.806	2456.9
854.129	2471.36
854.451	2477.92
854.774	2466.16
855.096	2444.24
855.419	2406.5
855.741	2396.34
856.063	2418.48
856.385	2399.27
856.708	2397.69
857.03	2388.43
857.352	2381.19
857.674	2394.08
857.996	2337.58
858.318	2396.56
858.64	2361.76
858.961	2391.59
859.283	2363.79
859.605	2346.17
859.926	2356.34
860.248	2335.77
860.57	2325.6
860.891	2359.73
861.212	2336
861.534	2348.2
861.855	2333.74
862.176	2292.38
862.498	2306.39
862.819	2325.15
863.14	2276.11
863.461	2319.05
863.782	2289.67
864.103	2269.11
864.424	2255.77
864.745	2284.7
865.065	2260.52
865.386	2277.92
865.707	2276.34
866.027	2265.04
866.348	2264.59
866.668	2257.36
866.989	2247.19
867.309	2216.9
867.63	2235.66
867.95	2227.98
868.27	2220.75
868.59	2214.65
868.91	2230.69
869.23	2251.48
869.55	2199.96
869.87	2237.7
870.19	2202.89
870.51	2198.83
870.83	2249.22
871.15	2250.58
871.469	2212.39
871.789	2215.55
872.109	2226.85
872.428	2190.69
872.748	2187.3
873.067	2206.51
873.386	2226.17
873.706	2210.13
874.025	2193.18
874.344	2180.07
874.663	2185.72
874.982	2184.14
875.301	2174.19
875.62	2182.78
875.939	2182.56
876.258	2182.1
876.577	2174.65
876.896	2177.81
877.214	2184.14
877.533	2168.32
877.852	2156.12
878.17	2155.66
878.489	2155.44
878.807	2156.57
879.125	2119.05
879.444	2152.27
879.762	2134.87
880.08	2140.97
880.398	2121.77
880.716	2143.46
881.034	2150.69
881.352	2120.64
881.67	2098.94
881.988	2123.35
882.306	2099.39
882.624	2105.95
882.941	2098.72
883.259	2080.64
883.577	2077.7
883.894	2090.13
884.212	2091.03
884.529	2117.92
884.846	2067.3
885.164	2071.82
885.481	2059.4
885.798	2073.18
886.115	2046.51
886.432	2076.34
886.75	2052.39
887.067	2055.33
887.383	2061.2
887.7	2064.14
888.017	2027.76
888.334	2027.31
888.651	2067.53
888.967	2024.14
889.284	1996.8
889.6	2035.89
889.917	2005.61
890.233	1998.83
890.55	2001.54
890.866	2019.85
891.182	2016.23
891.498	1993.63
891.815	1964.48
892.131	1992.96
892.447	1981.66
892.763	1982.79
893.079	1993.63
893.395	1994.76
893.71	1959.28
894.026	1926.52
894.342	1946.86
894.657	1946.63
894.973	1971.49
895.289	1944.82
895.604	1943.24
895.92	1900.98
896.235	1922
896.55	1909.12
896.865	1901.43
897.181	1880.42
897.496	1891.04
897.811	1902.11
898.126	1866.86
898.441	1864.15
898.756	1867.76
899.071	1861.89
899.386	1865.95
899.7	1864.6
900.015	1834.77
900.33	1844.94
900.644	1853.52
900.959	1839.74
901.273	1839.06
901.588	1817.82
901.902	1804.49
902.216	1783.24
902.531	1815.33
902.845	1814.66
903.159	1770.14
903.473	1750.25
903.787	1808.33
904.101	1792.06
904.415	1792.51
904.729	1764.26
905.042	1764.94
905.356	1773.3
905.67	1760.42
905.984	1745.05
906.297	1788.44
906.611	1759.06
906.924	1750.48
907.237	1760.65
907.551	1724.04
907.864	1721.55
908.177	1703.92
908.491	1702.12
908.804	1705.28
909.117	1697.82
909.43	1696.47
909.743	1689.24
910.056	1684.94
910.368	1708.44
910.681	1665.51
910.994	1651.72
911.307	1653.08
911.619	1641.78
911.932	1676.35
912.244	1631.84
912.557	1612.85
912.869	1629.8
913.181	1593.42
913.494	1627.09
913.806	1590.48
914.118	1629.12
914.43	1590.25
914.742	1609.46
915.054	1601.1
915.366	1583.48
915.678	1609.01
915.99	1572.63
916.302	1569.92
916.613	1553.65
916.925	1540.54
917.236	1567.2
917.548	1555
917.859	1602.01
918.171	1561.33
918.482	1541.44
918.794	1536.92
919.105	1515.91
919.416	1520.88
919.727	1543.02
920.038	1487.43
920.349	1544.61
920.66	1495.12
920.971	1488.79
921.282	1504.83
921.593	1487.43
921.903	1483.82
922.214	1501.44
922.525	1459.86
922.835	1482.46
923.146	1471.61
923.456	1463.25
923.767	1458.51
924.077	1459.41
924.387	1455.34
924.697	1444.95
925.008	1423.71
925.318	1396.59
925.628	1425.06
925.938	1440.65
926.248	1418.96
926.558	1425.29
926.867	1420.99
927.177	1401.33
927.487	1403.37
927.796	1380.77
928.106	1392.97
928.416	1398.85
928.725	1395.68
929.034	1378.28
929.344	1405.17
929.653	1353.2
929.962	1353.2
930.271	1348.45
930.581	1347.32
930.89	1358.17
931.199	1323.14
931.508	1344.61
931.817	1317.04
932.125	1307.55
932.434	1355.46
932.743	1313.2
933.051	1362.01
933.36	1282.92
933.669	1303.26
933.977	1346.87
934.286	1320.43
934.594	1297.16
934.902	1274.33
935.21	1282.69
935.519	1274.56
935.827	1274.33
936.135	1280.88
936.443	1263.71
936.751	1269.81
937.059	1263.48
937.367	1269.59
937.674	1257.38
937.982	1240.21
938.29	1264.16
938.597	1256.93
938.905	1235.46
939.213	1244.73
939.52	1232.75
939.827	1233.65
940.135	1222.35
940.442	1222.58
940.749	1216.48
941.056	1228.46
941.363	1230.04
941.67	1215.12
941.977	1218.74
942.284	1208.57
942.591	1177.84
942.898	1169.25
943.205	1166.99
943.511	1192.3
943.818	1165.86
944.125	1178.29
944.431	1181.68
944.738	1173.54
945.044	1168.8
945.35	1173.77
945.657	1153.66
945.963	1134.45
946.269	1149.59
946.575	1125.86
946.881	1130.61
947.187	1136.48
947.493	1119.53
947.799	1130.61
948.105	1075.92
948.41	1118.18
948.716	1141.45
949.022	1118.4
949.327	1109.82
949.633	1079.99
949.938	1089.7
950.244	1104.17
950.549	1106.65
950.854	1086.54
951.16	1089.03
951.465	1097.84
951.77	1095.13
952.075	1060.1
952.38	1076.6
952.685	1081.12
952.99	1073.66
953.294	1043.38
953.599	1074.11
953.904	1058.52
954.209	1044.05
954.513	1054
954.818	1029.14
955.122	1031.4
955.426	1033.21
955.731	1020.1
956.035	1042.92
956.339	1032.3
956.643	1026.65
956.948	1008.58
957.252	1027.78
957.556	1023.72
957.86	1015.35
958.163	1040.21
958.467	1014.22
958.771	974.9
959.075	998.86
959.378	995.24
959.682	1016.48
959.985	992.3
960.289	983.72
960.592	977.84
960.896	979.2
961.199	1014.9
961.502	984.85
961.805	971.29
962.108	988.91
962.411	982.14
962.714	962.47
963.017	958.18
963.32	970.16
963.623	971.29
963.926	961.8
964.228	967.45
964.531	953.66
964.833	942.59
965.136	931.97
965.438	940.78
965.741	939.42
966.043	923.38
966.345	936.49
966.648	943.94
966.95	925.87
967.252	919.99
967.554	920.67
967.856	919.31
968.158	925.87
968.46	907.33
968.761	918.63
969.063	894
969.365	911.4
969.666	914.34
969.968	911.85
970.269	897.84
970.571	902.59
970.872	901.23
971.174	918.41
971.475	881.57
971.776	902.82
972.077	885.64
972.378	891.74
972.679	896.71
972.98	863.04
973.281	867.79
973.582	889.26
973.883	874.34
974.183	862.59
974.484	872.53
974.785	856.04
975.085	853.1
975.386	884.28
975.686	830.5
975.986	844.29
976.287	836.38
976.587	846.77
976.887	837.51
977.187	847.45
977.487	817.39
977.787	851.29
978.087	825.53
978.387	829.14
978.687	834.57
978.987	836.38
979.286	819.2
979.586	816.72
979.885	811.74
980.185	819.2
980.484	809.48
980.784	830.95
981.083	789.15
981.382	770.39
981.682	802.25
981.981	813.1
982.28	781.69
982.579	774.01
982.878	799.54
983.177	774.23
983.475	793.21
983.774	756.83
984.073	762.48
984.372	772.2
984.67	785.3
984.969	783.27
985.267	788.24
985.566	780.56
985.864	759.32
986.162	764.06
986.461	732.42
986.759	754.34
987.057	748.92
987.355	768.58
987.653	758.19
987.951	740.11
988.249	741.01
988.547	733.1
988.844	743.05
989.142	738.3
989.44	734.46
989.737	736.04
990.035	744.18
990.332	764.51
990.63	725.87
990.927	729.71
991.224	720.45
991.521	723.61
991.819	747.34
992.116	736.04
992.413	731.29
992.71	718.87
993.006	711.18
993.303	740.33
993.6	721.58
993.897	716.38
994.193	721.58
994.49	716.15
994.787	706.89
995.083	705.31
995.379	715.25
995.676	705.53
995.972	713.67
996.268	693.56
996.565	703.72
996.861	699.88
997.157	700.33
997.453	660.79
997.749	690.39
998.044	682.93
998.34	694.23
998.636	686.32
998.932	688.81
999.227	677.51
999.523	680.22
999.818	675.25
1000.114	645.42
1000.409	647
1000.704	689.94
1001	652.2
1001.295	671.18
1001.59	664.4
1001.885	633.22
1002.18	661.69
1002.475	648.81
1002.77	638.64
1003.065	624.18
1003.359	637.51
1003.654	644.52
1003.949	660.34
1004.243	633.67
1004.538	618.98
1004.832	651.75
1005.127	622.37
1005.421	637.74
1005.715	638.19
1006.009	612.65
1006.304	631.86
1006.598	608.81
1006.892	624.4
1007.186	613.11
1007.48	598.42
1007.773	588.7
1008.067	600
1008.361	616.04
1008.655	617.4
1008.948	608.13
1009.242	595.25
1009.535	607.46
1009.829	605.65
1010.122	613.33
1010.415	602.48
1010.708	605.87
1011.001	591.41
1011.295	602.03
1011.588	596.61
1011.881	572.43
1012.173	580.34
1012.466	590.51
1012.759	593.44
1013.052	597.96
1013.344	562.71
1013.637	575.59
1013.93	573.56
1014.222	593.9
1014.514	560
1014.807	571.3
1015.099	558.42
1015.391	562.71
1015.683	559.1
1015.976	554.58
1016.268	546.21
1016.56	560.9
1016.851	568.59
1017.143	534.92
1017.435	547.57
1017.727	543.28
1018.018	540.34
1018.31	556.38
1018.602	548.25
1018.893	549.83
1019.185	566.55
1019.476	552.77
1019.767	548.02
1020.058	535.82
1020.35	531.98
1020.641	516.61
1020.932	533.11
1021.223	541.47
1021.514	538.53
1021.804	529.72
1022.095	517.51
1022.386	541.69
1022.677	548.93
1022.967	529.72
1023.258	499.89
1023.548	502.15
1023.839	513.67
1024.129	509.38
1024.419	510.28
1024.709	502.83
1025	515.25
1025.29	508.93
1025.58	501.47
1025.87	508.93
1026.16	484.07
1026.449	509.83
1026.739	497.18
1027.029	492.43
1027.319	507.57
1027.608	499.89
1027.898	498.31
1028.187	477.06
1028.477	514.35
1028.766	477.74
1029.055	473.9
1029.344	502.15
1029.634	490.17
1029.923	461.24
1030.212	484.3
1030.501	470.96
1030.79	469.61
1031.078	481.36
1031.367	459.21
1031.656	484.52
1031.945	473.67
1032.233	479.1
1032.522	479.55
1032.81	459.44
1033.099	442.49
1033.387	472.54
1033.675	468.7
1033.963	449.27
1034.251	440.23
1034.54	473
1034.828	466.89
1035.116	449.95
1035.403	442.94
1035.691	449.27
1035.979	454.01
1036.267	454.69
1036.554	469.38
1036.842	467.12
1037.129	446.33
1037.417	435.48
1037.704	459.21
1037.992	426.67
1038.279	461.02
1038.566	444.3
1038.853	444.3
1039.14	444.3
