Data from blue_chair_FLMS001491_00061.txt Node
Date: Wed Feb 08 10:31:33 GMT 2017
User: dcchb
Spectrometer: FLMS00149
Trigger mode: 0
Integration Time (sec): 2.000000E-2
Scans to average: 10
Electric dark correction enabled: true
Nonlinearity correction enabled: false
Boxcar width: 0
XAxis mode: Wavelengths
Number of Pixels in Spectrum: 2048
>>>>>Begin Spectral Data<<<<<
341.393	-22.88
341.776	-22.88
342.16	-22.88
342.543	-57.23
342.927	-67.17
343.31	-58.36
343.693	-67.17
344.077	-71.69
344.46	-63.33
344.843	-57.46
345.226	-33.5
345.61	-32.6
345.993	-1.64
346.376	-6.61
346.759	-7.29
347.142	17.12
347.525	57.34
347.908	54.63
348.291	60.96
348.674	99.6
349.057	110
349.44	125.14
349.823	126.27
350.206	143.22
350.588	179.6
350.971	193.61
351.354	189.77
351.737	221.18
352.119	220.73
352.502	237.45
352.884	247.39
353.267	237.23
353.65	264.34
354.032	290.78
354.414	283.33
354.797	275.64
355.179	287.17
355.562	286.49
355.944	312.25
356.326	288.98
356.709	297.56
357.091	300.05
357.473	314.06
357.855	302.08
358.238	313.38
358.62	315.87
359.002	329.43
359.384	307.51
359.766	318.81
360.148	313.83
360.53	305.25
360.912	308.64
361.294	297.56
361.676	319.94
362.057	316.77
362.439	312.48
362.821	295.75
363.203	298.92
363.584	297.11
363.966	277.68
364.348	284
364.729	284.46
365.111	285.59
365.493	278.13
365.874	300.95
366.256	295.75
366.637	300.05
367.019	267.28
367.4	286.94
367.781	267.28
368.163	294.17
368.544	279.26
368.925	274.06
369.306	281.97
369.688	274.06
370.069	264.8
370.45	290.33
370.831	282.2
371.212	272.03
371.593	286.49
371.974	296.21
372.355	292.14
372.736	275.42
373.117	254.17
373.498	265.7
373.879	278.58
374.26	294.63
374.641	272.03
375.021	311.35
375.402	277
375.783	309.54
376.163	309.09
376.544	306.38
376.925	296.66
377.305	287.62
377.686	285.36
378.066	296.88
378.447	279.26
378.827	311.35
379.208	302.53
379.588	293.5
379.968	260.73
380.349	283.1
380.729	285.13
381.109	289.65
381.489	298.47
381.87	298.69
382.25	293.04
382.63	304.12
383.01	291.24
383.39	308.64
383.77	302.99
384.15	294.4
384.53	298.47
384.91	298.47
385.29	312.7
385.67	305.02
386.049	307.28
386.429	309.54
386.809	315.42
387.189	319.03
387.568	324
387.948	298.24
388.328	293.04
388.707	304.34
389.087	324.45
389.466	296.21
389.846	296.66
390.225	316.55
390.605	331.69
390.984	324.45
391.363	315.42
391.743	318.13
392.122	332.59
392.501	329.65
392.881	348.86
393.26	339.6
393.639	311.8
394.018	319.94
394.397	317.68
394.776	326.04
395.155	326.49
395.534	337.34
395.913	331.01
396.292	333.27
396.671	327.62
397.05	319.94
397.429	301.18
397.808	314.74
398.186	327.39
398.565	337.56
398.944	328.52
399.323	342.53
399.701	315.42
400.08	357.22
400.458	357.22
400.837	376.88
401.215	345.47
401.594	353.83
401.972	328.97
402.351	335.53
402.729	352.02
403.107	362.87
403.486	360.61
403.864	346.15
404.242	371.69
404.62	351.35
404.999	373.72
405.377	370.56
405.755	365.36
406.133	384.57
406.511	359.71
406.889	375.07
407.267	373.27
407.645	372.82
408.023	392.93
408.401	380.5
408.779	387.73
409.156	389.76
409.534	386.6
409.912	380.05
410.29	387.05
410.667	394.28
411.045	412.36
411.422	397
411.8	375.07
412.178	388.41
412.555	405.36
412.933	410.33
413.31	404.68
413.687	402.64
414.065	411.01
414.442	407.39
414.819	408.75
415.197	413.04
415.574	445.81
415.951	424.57
416.328	425.7
416.705	417.79
417.082	420.5
417.46	432.7
417.837	427.5
418.214	420.05
418.591	429.99
418.967	438.12
419.344	437.9
419.721	440.84
420.098	438.35
420.475	460.27
420.852	463.21
421.228	454.85
421.605	455.75
421.982	481.06
422.358	478.57
422.735	472.47
423.111	474.96
423.488	468.63
423.864	472.02
424.241	490.1
424.617	473.38
424.994	494.17
425.37	487.39
425.746	473.6
426.123	505.69
426.499	488.29
426.875	506.82
427.251	511.57
427.627	505.69
428.003	517.22
428.379	542.75
428.756	516.54
429.132	520.61
429.507	510.66
429.883	537.1
430.259	521.96
430.635	545.01
431.011	541.62
431.387	546.37
431.763	561.06
432.138	562.41
432.514	563.54
432.89	583.88
433.265	573.71
433.641	587.72
434.016	574.39
434.392	594.73
434.767	609.42
435.143	607.39
435.518	640.6
435.894	632.7
436.269	639.7
436.644	622.53
437.02	665.46
437.395	662.07
437.77	688.96
438.145	652.58
438.52	686.25
438.895	666.37
439.271	688.06
439.646	694.39
440.021	674.28
440.395	687.16
440.77	711.11
441.145	711.34
441.52	713.82
441.895	721.28
442.27	724.67
442.645	734.39
443.019	728.74
443.394	733.26
443.769	764.22
444.143	734.39
444.518	741.17
444.892	782.97
445.267	764.22
445.641	766.93
446.016	783.43
446.39	795.4
446.764	808.51
447.139	796.98
447.513	818.45
447.887	805.12
448.262	792.24
448.636	816.87
449.01	807.38
449.384	841.73
449.758	817.32
450.132	836.08
450.506	842.41
450.88	833.37
451.254	855.51
451.628	852.12
452.002	887.83
452.376	878.11
452.75	879.92
453.123	881.73
453.497	880.15
453.871	904.55
454.244	905
454.618	900.03
454.992	923.54
455.365	934.83
455.739	934.38
456.112	978.9
456.486	928.28
456.859	954.49
457.232	966.47
457.606	968.05
457.979	974.61
458.352	960.37
458.725	991.1
459.099	986.13
459.472	983.65
459.845	1048.05
460.218	1028.17
460.591	1030.65
460.964	1031.78
461.337	1062.06
461.71	1037.66
462.083	1052.57
462.456	1086.02
462.829	1085.79
463.201	1082.63
463.574	1091.67
463.947	1099.8
464.32	1105.9
464.692	1123.53
465.065	1145.22
465.438	1121.27
465.81	1132.8
466.183	1142.51
466.555	1167.37
466.928	1180.7
467.3	1169.18
467.672	1177.77
468.045	1215.5
468.417	1169.86
468.789	1201.04
469.161	1193.81
469.534	1222.74
469.906	1242.85
470.278	1241.27
470.65	1241.72
471.022	1262.74
471.394	1264.99
471.766	1317.87
472.138	1319.91
472.51	1314.71
472.882	1347.25
473.253	1368.95
473.625	1365.56
473.997	1384.31
474.369	1358.33
474.74	1391.32
475.112	1370.98
475.484	1407.59
475.855	1429.28
476.227	1433.35
476.598	1457.53
476.97	1439.91
477.341	1478.55
477.713	1488.49
478.084	1505.44
478.455	1516.97
478.827	1521.03
479.198	1562.16
479.569	1539.34
479.94	1600.35
480.311	1580.47
480.682	1636.28
481.053	1620.47
481.424	1657.3
481.795	1672.22
482.166	1661.14
482.537	1675.83
482.908	1700.46
483.279	1706.11
483.65	1715.38
484.021	1737.07
484.391	1767.81
484.762	1766.68
485.133	1747.69
485.503	1766.9
485.874	1800.12
486.244	1805.77
486.615	1818.88
486.985	1822.95
487.356	1855.26
487.726	1829.05
488.097	1863.4
488.467	1860.23
488.837	1857.97
489.207	1897.75
489.578	1878.99
489.948	1908.14
490.318	1931.87
490.688	1942.72
491.058	1904.07
491.428	1926.67
491.798	1963.73
492.168	1958.54
492.538	1944.3
492.908	1924.86
493.278	1962.38
493.648	1973
494.017	1982.04
494.387	1953.34
494.757	1970.29
495.126	1985.88
495.496	1991.3
495.866	1966.9
496.235	1980
496.605	2009.61
496.974	1987.01
497.344	1986.11
497.713	1977.74
498.082	1971.64
498.452	1993.56
498.821	1993.79
499.19	1997.86
499.559	1933.45
499.928	1968.71
500.298	1986.33
500.667	1986.56
501.036	1996.05
501.405	1997.63
501.774	1946.11
502.143	1988.59
502.512	1973.45
502.88	2012.32
503.249	1968.25
503.618	1963.06
503.987	1948.82
504.356	1946.78
504.724	1954.24
505.093	1989.04
505.462	1933.9
505.83	1969.61
506.199	1968.03
506.567	1955.6
506.936	1959.67
507.304	1956.73
507.672	1936.84
508.041	1965.99
508.409	1946.56
508.777	1923.06
509.145	1925.77
509.514	1938.2
509.882	1955.6
510.25	1921.7
510.618	1918.99
510.986	1918.54
511.354	1898.42
511.722	1937.75
512.09	1939.78
512.458	1918.54
512.826	1940.23
513.193	1881.25
513.561	1929.38
513.929	1909.72
514.297	1918.09
514.664	1911.08
515.032	1914.7
515.4	1867.24
515.767	1900.46
516.135	1882.61
516.502	1874.7
516.869	1856.17
517.237	1856.39
517.604	1846.22
517.972	1857.3
518.339	1862.27
518.706	1848.03
519.073	1833.34
519.44	1814.13
519.808	1825.88
520.175	1839.67
520.542	1844.41
520.909	1854.81
521.276	1817.75
521.643	1811.65
522.009	1795.6
522.376	1821.36
522.743	1791.99
523.11	1844.64
523.477	1805.09
523.843	1798.77
524.21	1806.22
524.577	1807.81
524.943	1801.7
525.31	1812.1
525.676	1804.87
526.043	1820.91
526.409	1779.56
526.776	1827.47
527.142	1820.69
527.508	1837.64
527.874	1813.46
528.241	1799.44
528.607	1814.36
528.973	1837.86
529.339	1808.26
529.705	1818.2
530.071	1817.07
530.437	1820.23
530.803	1788.82
531.169	1801.48
531.535	1822.95
531.901	1785.89
532.267	1805.32
532.632	1797.64
532.998	1829.95
533.364	1795.83
533.73	1788.37
534.095	1804.64
534.461	1805.32
534.826	1840.12
535.192	1795.6
535.557	1806.9
535.923	1795.83
536.288	1799.9
536.653	1815.04
537.019	1777.3
537.384	1761.71
537.749	1783.4
538.114	1783.17
538.479	1809.16
538.845	1790.4
539.21	1782.04
539.575	1745.66
539.94	1761.25
540.305	1784.76
540.67	1779.11
541.034	1783.4
541.399	1807.58
541.764	1782.95
542.129	1793.57
542.494	1766.9
542.858	1771.65
543.223	1780.46
543.587	1791.53
543.952	1798.99
544.316	1759.45
544.681	1772.33
545.045	1739.33
545.41	1795.6
545.774	1738.88
546.138	1713.12
546.503	1729.39
546.867	1746.79
547.231	1738.2
547.595	1747.69
547.959	1763.51
548.324	1739.78
548.688	1731.2
549.052	1756.96
549.416	1743.63
549.779	1722.84
550.143	1709.73
550.507	1723.06
550.871	1731.65
551.235	1728.94
551.599	1743.63
551.962	1708.83
552.326	1730.07
552.689	1725.1
553.053	1720.8
553.417	1722.16
553.78	1694.14
554.143	1695.94
554.507	1708.37
554.87	1730.97
555.234	1723.74
555.597	1685.77
555.96	1692.78
556.323	1723.74
556.686	1731.42
557.05	1711.08
557.413	1708.83
557.776	1711.08
558.139	1702.05
558.502	1708.37
558.865	1714.25
559.228	1721.03
559.59	1705.21
559.953	1680.35
560.316	1735.49
560.679	1733.01
561.041	1720.58
561.404	1703.85
561.767	1726.9
562.129	1726.23
562.492	1708.83
562.854	1735.94
563.217	1723.29
563.579	1704.08
563.941	1737.75
564.304	1722.61
564.666	1735.27
565.028	1764.87
565.39	1746.56
565.753	1737.52
566.115	1747.92
566.477	1753.34
566.839	1748.82
567.201	1784.08
567.563	1775.04
567.925	1785.43
568.287	1776.39
568.648	1779.78
569.01	1801.25
569.372	1793.12
569.734	1776.62
570.095	1770.74
570.457	1777.3
570.819	1794.02
571.18	1807.81
571.542	1801.93
571.903	1798.54
572.265	1792.89
572.626	1799.44
572.987	1773.68
573.349	1784.98
573.71	1817.52
574.071	1814.13
574.432	1820.23
574.794	1851.87
575.155	1861.82
575.516	1836.05
575.877	1865.88
576.238	1848.26
576.599	1873.79
576.96	1880.8
577.32	1876.73
577.681	1871.31
578.042	1874.24
578.403	1872.21
578.763	1883.28
579.124	1923.28
579.485	1870.18
579.845	1912.44
580.206	1864.98
580.566	1915.83
580.927	1877.63
581.287	1883.28
581.648	1923.73
582.008	1913.57
582.368	1911.98
582.728	1917.41
583.089	1915.37
583.449	1906.56
583.809	1914.24
584.169	1961.7
584.529	1941.59
584.889	1952.21
585.249	1898.42
585.609	1924.41
585.969	1919.89
586.329	1917.86
586.688	1919.89
587.048	1947.91
587.408	1930.74
587.768	1918.99
588.127	1940.01
588.487	1917.41
588.846	1954.92
589.206	1944.75
589.565	1917.18
589.925	1942.04
590.284	1965.99
590.643	1951.3
591.003	1953.11
591.362	1973.45
591.721	1936.39
592.08	1943.4
592.44	1944.75
592.799	1979.78
593.158	1968.03
593.517	1981.13
593.876	1956.05
594.235	1962.6
594.593	1965.77
594.952	1962.6
595.311	1954.24
595.67	1959.89
596.029	1943.4
596.387	1964.64
596.746	1957.41
597.104	1970.97
597.463	1962.83
597.822	1959.67
598.18	1967.12
598.538	1915.83
598.897	1947.91
599.255	1944.3
599.613	1969.84
599.972	1980.91
600.33	1972.32
600.688	1951.3
601.046	1940.23
601.404	1955.6
601.762	1949.27
602.12	1940.46
602.478	1940.01
602.836	1937.07
603.194	1960.57
603.552	1932.32
603.91	1954.69
604.268	1959.89
604.625	1951.08
604.983	1954.47
605.341	1970.29
605.698	1939.1
606.056	1980.46
606.413	1974.35
606.771	1969.84
607.128	1950.17
607.485	1975.48
607.843	1956.73
608.2	1970.74
608.557	1958.08
608.914	1963.51
609.272	1977.52
609.629	1965.09
609.986	1982.26
610.343	1975.03
610.7	1964.41
611.057	1959.21
611.414	1955.37
611.771	1942.72
612.127	1978.2
612.484	1978.2
612.841	2003.51
613.198	1996.05
613.554	1952.89
613.911	1983.17
614.267	1976.16
614.624	1969.84
614.98	1991.98
615.337	1995.37
615.693	1974.81
616.05	2012.55
616.406	2007.12
616.762	1959.89
617.118	1986.56
617.475	1986.78
617.831	1987.69
618.187	1977.74
618.543	2037.4
618.899	2011.42
619.255	2024.75
619.611	2039.89
619.967	2033.11
620.323	2016.16
620.678	1988.59
621.034	1999.44
621.39	2007.35
621.746	1970.74
622.101	2041.25
622.457	2028.82
622.812	1995.82
623.168	2004.86
623.523	2050.74
623.879	2005.77
624.234	2005.09
624.589	2023.17
624.945	2041.02
625.3	2001.02
625.655	2028.82
626.01	1995.82
626.365	2024.98
626.72	2014.81
627.075	2005.99
627.43	2020.68
627.785	2040.79
628.14	2038.53
628.495	2013.9
628.85	2034.69
629.205	2006.22
629.559	2063.62
629.914	2028.36
630.269	2064.52
630.623	2012.55
630.978	2049.16
631.332	2026.56
631.687	2026.33
632.041	2036.05
632.396	2044.86
632.75	2008.7
633.104	2044.41
633.459	2007.12
633.813	2041.7
634.167	2022.72
634.521	2017.29
634.875	1997.18
635.229	1998.08
635.583	2028.82
635.937	2025.43
636.291	2048.93
636.645	2058.65
636.999	1985.43
637.352	2023.62
637.706	2048.93
638.06	2036.73
638.413	2026.33
638.767	2002.83
639.121	2026.33
639.474	2022.94
639.828	2033.56
640.181	2018.42
640.534	2031.3
640.888	2013.9
641.241	2020.23
641.594	2048.03
641.947	2043.96
642.301	2022.04
642.654	2037.86
643.007	2035.6
643.36	2032.88
643.713	2019.78
644.066	2052.77
644.419	2043.96
644.771	2008.03
645.124	2055.26
645.477	1976.39
645.83	1991.76
646.182	2001.02
646.535	2016.84
646.888	2001.92
647.24	1991.76
647.593	1980.23
647.945	2026.1
648.298	1994.92
648.65	2014.35
649.002	2013.68
649.355	1981.59
649.707	2023.85
650.059	1997.86
650.411	2011.19
650.763	2074.01
651.115	2082.83
651.467	2068.82
651.819	2070.62
652.171	2073.11
652.523	2078.31
652.875	2059.1
653.227	2082.15
653.578	2089.61
653.93	2093.67
654.282	2099.78
654.633	2060
654.985	2070.4
655.337	2085.54
655.688	2069.04
656.039	2107.68
656.391	2082.15
656.742	2100.68
657.094	2114.69
657.445	2125.31
657.796	2122.6
658.147	2129.61
658.498	2095.03
658.849	2093.22
659.2	2083.96
659.551	2150.85
659.902	2103.84
660.253	2115.82
660.604	2172.09
660.955	2114.46
661.306	2120.34
661.656	2138.19
662.007	2118.08
662.358	2107.46
662.708	2138.64
663.059	2140.45
663.409	2110.4
663.76	2133.67
664.11	2128.25
664.461	2109.94
664.811	2140.9
665.161	2153.11
665.511	2120.11
665.862	2155.59
666.212	2130.28
666.562	2137.97
666.912	2134.8
667.262	2137.74
667.612	2164.41
667.962	2124.63
668.312	2156.95
668.662	2129.61
669.011	2153.79
669.361	2172.77
669.711	2133.9
670.06	2114.24
670.41	2114.92
670.76	2133.22
671.109	2102.94
671.459	2126.22
671.808	2124.86
672.157	2125.31
672.507	2137.97
672.856	2100.45
673.205	2129.61
673.554	2097.97
673.904	2107.91
674.253	2105.2
674.602	2109.94
674.951	2063.17
675.3	2077.18
675.649	2074.47
675.998	2105.2
676.346	2091.41
676.695	2064.07
677.044	2056.16
677.393	2078.98
677.741	2057.74
678.09	2083.73
678.438	2071.3
678.787	2056.61
679.135	2075.6
679.484	2074.92
679.832	2094.35
680.181	2047.57
680.529	2041.25
680.877	2026.1
681.225	2045.54
681.573	2065.88
681.922	2002.38
682.27	1989.95
682.618	2012.32
682.966	2020
683.314	2008.03
683.661	2045.31
684.009	1956.95
684.357	1988.37
684.705	1969.16
685.053	2018.87
685.4	1990.17
685.748	2022.72
686.095	1995.6
686.443	2009.83
686.79	1953.56
687.138	1954.92
687.485	1928.93
687.832	1957.63
688.18	1916.28
688.527	1974.35
688.874	1970.97
689.221	1952.89
689.568	1932.1
689.915	1913.79
690.262	1947.01
690.609	1935.94
690.956	1932.77
691.303	1895.26
691.65	1878.31
691.997	1905.88
692.344	1904.53
692.69	1905.66
693.037	1890.74
693.383	1887.35
693.73	1864.3
694.077	1860.23
694.423	1886.22
694.769	1854.58
695.116	1868.59
695.462	1827.01
695.808	1862.49
696.155	1868.37
696.501	1838.09
696.847	1863.17
697.193	1813.23
697.539	1830.4
697.885	1816.62
698.231	1808.71
698.577	1842.38
698.923	1823.62
699.269	1801.93
699.614	1814.59
699.96	1836.28
700.306	1797.86
700.651	1784.3
700.997	1764.19
701.342	1766.68
701.688	1775.72
702.033	1769.39
702.379	1777.98
702.724	1769.84
703.069	1794.47
703.415	1738.2
703.76	1758.99
704.105	1747.24
704.45	1767.58
704.795	1747.02
705.14	1784.08
705.485	1740.69
705.83	1742.95
706.175	1713.34
706.52	1730.52
706.865	1725.77
707.209	1750.41
707.554	1748.82
707.899	1732.1
708.243	1746.11
708.588	1726
708.932	1738.43
709.277	1689.16
709.621	1718.32
709.966	1719.9
710.31	1718.54
710.654	1730.52
710.998	1740.24
711.342	1719.9
711.687	1758.54
712.031	1737.07
712.375	1735.04
712.719	1742.72
713.063	1727.81
713.407	1731.65
713.75	1735.49
714.094	1738.2
714.438	1756.51
714.782	1728.94
715.125	1733.68
715.469	1723.51
715.812	1730.52
716.156	1763.51
716.499	1749.28
716.843	1759.67
717.186	1729.39
717.53	1739.33
717.873	1773.68
718.216	1779.11
718.559	1758.77
718.902	1743.85
719.246	1750.18
719.589	1752.89
719.932	1799.22
720.275	1805.77
720.617	1789.73
720.96	1745.89
721.303	1795.38
721.646	1791.76
721.989	1791.76
722.331	1787.02
722.674	1798.54
723.016	1808.03
723.359	1827.24
723.701	1818.43
724.044	1808.48
724.386	1794.25
724.729	1821.82
725.071	1817.97
725.413	1831.53
725.755	1879.44
726.097	1825.66
726.439	1846
726.782	1833.79
727.124	1862.27
727.465	1854.36
727.807	1880.8
728.149	1886.9
728.491	1911.08
728.833	1898.88
729.175	1897.75
729.516	1898.2
729.858	1911.31
730.199	1932.77
730.541	1911.08
730.882	1922.38
731.224	1917.86
731.565	1924.19
731.906	1952.21
732.248	1963.73
732.589	1961.7
732.93	2025.65
733.271	1992.66
733.612	2032.66
733.953	2050.29
734.294	2029.95
734.635	2034.92
734.976	2092.54
735.317	2045.77
735.658	2067.23
735.999	2091.19
736.339	2113.56
736.68	2103.17
737.021	2106.55
737.361	2104.29
737.702	2189.72
738.042	2149.94
738.383	2146.78
738.723	2170.06
739.063	2188.59
739.404	2213.44
739.744	2191.07
740.084	2231.52
740.424	2239.43
740.764	2283.95
741.104	2287.57
741.444	2309.49
741.784	2321.24
742.124	2345.42
742.464	2398.98
742.804	2387
743.143	2407.56
743.483	2411.41
743.823	2437.62
744.162	2460.44
744.502	2502.25
744.841	2533.66
745.181	2568.92
745.52	2564.62
745.86	2583.6
746.199	2621.34
746.538	2706.76
746.877	2724.84
747.216	2727.1
747.556	2775.24
747.895	2815.69
748.234	2820.66
748.573	2859.3
748.911	2943.82
749.25	2966.65
749.589	2994.44
749.928	3038.28
750.267	3082.8
750.605	3102.23
750.944	3151.5
751.283	3163.02
751.621	3198.73
751.96	3277.37
752.298	3344.49
752.636	3375.9
752.975	3403.47
753.313	3480.53
753.651	3550.36
753.989	3596.23
754.327	3643.24
754.666	3661.09
755.004	3723.24
755.342	3827.41
755.679	3836
756.017	3882.1
756.355	3975.43
756.693	4014.08
757.031	4028.54
757.368	4151.47
757.706	4159.16
758.044	4261.53
758.381	4280.51
758.719	4327.51
759.056	4386.72
759.394	4434.18
759.731	4529.99
760.068	4568.18
760.405	4647.28
760.743	4698.8
761.08	4774.28
761.417	4813.83
761.754	4827.61
762.091	4905.8
762.428	4981.28
762.765	4972.02
763.102	5091.56
763.438	5060.15
763.775	5080.49
764.112	5218.11
764.449	5248.85
764.785	5273.48
765.122	5268.73
765.458	5340.37
765.795	5454.26
766.131	5494.04
766.467	5495.62
766.804	5583.75
767.14	5589.63
767.476	5661.26
767.812	5667.59
768.148	5706.46
768.485	5742.84
768.821	5811.32
769.157	5818.32
769.492	5889.73
769.828	5986.68
770.164	5908.49
770.5	5952.1
770.836	5997.07
771.171	6014.93
771.507	6014.93
771.842	6035.94
772.178	6110.29
772.513	6077.3
772.849	6122.27
773.184	6130.63
773.519	6174.7
773.855	6218.99
774.19	6250.17
774.525	6252.43
774.86	6260.57
775.195	6256.95
775.53	6357.29
775.865	6328.82
776.2	6320.91
776.535	6307.12
776.87	6346.22
777.205	6380.57
777.539	6402.49
777.874	6409.94
778.209	6405.88
778.543	6405.65
778.878	6422.6
779.212	6395.48
779.547	6415.37
779.881	6430.28
780.215	6446.55
780.55	6516.61
780.884	6517.74
781.218	6429.38
781.552	6494.24
781.886	6516.16
782.22	6510.28
782.554	6541.01
782.888	6480.9
783.222	6481.36
783.556	6472.99
783.889	6505.31
784.223	6449.04
784.557	6475.93
784.89	6513.44
785.224	6516.61
785.557	6527.91
785.891	6478.64
786.224	6478.64
786.558	6565.87
786.891	6477.06
787.224	6472.77
787.557	6460.11
787.891	6528.36
788.224	6491.07
788.557	6541.01
788.89	6498.3
789.223	6534.91
789.556	6512.09
789.888	6520.45
790.221	6499.89
790.554	6463.73
790.887	6501.02
791.219	6473.22
791.552	6509.15
791.884	6438.64
792.217	6477.29
792.549	6471.64
792.882	6462.82
793.214	6426.67
793.546	6447.01
793.879	6471.86
794.211	6402.49
794.543	6422.6
794.875	6423.05
795.207	6458.53
795.539	6390.28
795.871	6384.63
796.203	6427.35
796.535	6371.53
796.867	6372.43
797.198	6363.39
797.53	6379.44
797.862	6306.44
798.193	6410.85
798.525	6289.72
798.856	6355.93
799.188	6291.08
799.519	6279.78
799.85	6277.52
800.182	6308.93
800.513	6309.16
800.844	6231.64
801.175	6312.32
801.506	6262.83
801.837	6251.3
802.168	6247.24
802.499	6254.47
802.83	6223.51
803.161	6215.6
803.491	6217.41
803.822	6178.31
804.153	6192.1
804.483	6136.28
804.814	6186.45
805.145	6167.24
805.475	6101.25
805.805	6149.39
806.136	6101.03
806.466	6105.77
806.796	6094.02
807.126	6066.22
807.457	6094.7
807.787	6128.82
808.117	6107.35
808.447	6055.38
808.777	6096.96
809.107	6115.94
809.436	6045.21
809.766	6029.62
810.096	6047.24
810.426	6023.97
810.755	6036.17
811.085	6009.95
811.414	6031.2
811.744	5958.2
812.073	5940.35
812.403	5966.57
812.732	5964.53
813.061	5917.75
813.39	5927.02
813.719	5929.05
814.049	6020.58
814.378	5984.19
814.707	5982.16
815.036	5910.52
815.365	5881.6
815.693	5920.47
816.022	5890.41
816.351	5877.98
816.68	5875.04
817.008	5887.47
817.337	5818.32
817.665	5848.6
817.994	5876.85
818.322	5835.27
818.651	5827.81
818.979	5792.33
819.307	5848.15
819.636	5797.98
819.964	5763.63
820.292	5814.71
820.62	5792.79
820.948	5785.1
821.276	5819.45
821.604	5769.74
821.932	5782.39
822.259	5848.83
822.587	5805.67
822.915	5763.41
823.243	5772.45
823.57	5801.6
823.898	5781.03
824.225	5752.56
824.553	5823.75
824.88	5838.89
825.207	5809.96
825.535	5781.94
825.862	5858.09
826.189	5762.28
826.516	5869.17
826.843	5857.19
827.17	5842.5
827.497	5854.03
827.824	5820.81
828.151	5876.85
828.478	5839.79
828.805	5852.22
829.131	5841.82
829.458	5858.09
829.785	5811.32
830.111	5843.18
830.438	5852.22
830.764	5871.65
831.09	5871.65
831.417	5821.94
831.743	5915.49
832.069	5904.65
832.395	5871.2
832.722	5869.62
833.048	5889.05
833.374	5870.07
833.7	5790.75
834.026	5851.77
834.351	5864.65
834.677	5881.37
835.003	5839.79
835.329	5852.67
835.654	5795.95
835.98	5804.08
836.306	5808.6
836.631	5807.7
836.956	5804.08
837.282	5862.61
837.607	5837.76
837.932	5741.26
838.258	5792.11
838.583	5801.6
838.908	5755.5
839.233	5776.74
839.558	5752.33
839.883	5687.48
840.208	5726.8
840.533	5692.45
840.858	5735.39
841.182	5743.97
841.507	5742.84
841.832	5685.67
842.156	5684.77
842.481	5722.28
842.805	5677.31
843.13	5695.84
843.454	5635.95
843.778	5647.93
844.103	5631.21
844.427	5637.76
844.751	5593.92
845.075	5548.5
845.399	5596.86
845.723	5528.61
846.047	5573.58
846.371	5523.19
846.695	5566.12
847.019	5421.27
847.343	5394.15
847.666	5454.72
847.99	5418.78
848.313	5390.76
848.637	5364.77
848.96	5402.97
849.284	5402.06
849.607	5334.49
849.931	5299.24
850.254	5248.17
850.577	5283.19
850.9	5224.44
851.223	5239.35
851.546	5231.22
851.869	5199.35
852.192	5234.38
852.515	5121.16
852.838	5168.62
853.161	5133.37
853.483	5101.96
853.806	5062.64
854.129	5063.54
854.451	5058.79
854.774	5053.82
855.096	5042.52
855.419	5032.13
855.741	5028.74
856.063	4974.95
856.385	4969.53
856.708	4970.43
857.03	4931.34
857.352	4959.81
857.674	4895.63
857.996	4903.77
858.318	4863.54
858.64	4908.52
858.961	4844.11
859.283	4847.5
859.605	4845.01
859.926	4848.86
860.248	4835.07
860.57	4832.36
860.891	4815.18
861.212	4774.51
861.534	4744.68
861.855	4765.02
862.176	4777.22
862.498	4744.45
862.819	4750.1
863.14	4768.63
863.461	4713.94
863.782	4763.89
864.103	4745.13
864.424	4687.73
864.745	4716.66
865.065	4709.65
865.386	4692.02
865.707	4638.47
866.027	4642.31
866.348	4617.68
866.668	4638.47
866.989	4666.94
867.309	4599.14
867.63	4613.83
867.95	4648.86
868.27	4579.48
868.59	4634.62
868.91	4576.77
869.23	4545.59
869.55	4571.12
869.87	4590.78
870.19	4556.89
870.51	4563.89
870.83	4561.63
871.15	4539.71
871.469	4617.45
871.789	4529.09
872.109	4525.93
872.428	4525.93
872.748	4506.27
873.067	4504.46
873.386	4511.01
873.706	4515.76
874.025	4487.96
874.344	4468.75
874.663	4495.64
874.982	4492.25
875.301	4459.04
875.62	4433.05
875.939	4436.44
876.258	4454.74
876.577	4432.82
876.896	4427.62
877.214	4438.92
877.533	4433.05
877.852	4424.69
878.17	4436.66
878.489	4419.71
878.807	4414.97
879.125	4362.77
879.444	4379.49
879.762	4383.11
880.08	4354.63
880.398	4376.55
880.716	4323.22
881.034	4338.36
881.352	4347.85
881.67	4338.36
881.988	4317.57
882.306	4308.98
882.624	4280.96
882.941	4251.58
883.259	4274.63
883.577	4211.81
883.894	4260.17
884.212	4213.39
884.529	4225.82
884.846	4233.5
885.164	4196.22
885.481	4181.53
885.798	4233.96
886.115	4158.48
886.432	4188.99
886.75	4186.5
887.067	4114.41
887.383	4106.5
887.7	4124.58
888.017	4127.07
888.334	4145.37
888.651	4104.69
888.967	4111.7
889.284	4071.93
889.6	4045.26
889.917	4062.44
890.233	4048.88
890.55	3988.31
890.866	4017.24
891.182	4043.23
891.498	4009.1
891.815	3977.01
892.131	4002.78
892.447	3968.88
892.763	3933.17
893.079	3938.82
893.395	3945.15
893.71	3921.87
894.026	3887.3
894.342	3901.31
894.657	3877.58
894.973	3847.3
895.289	3868.99
895.604	3868.99
895.92	3819.73
896.235	3808.66
896.55	3816.34
896.865	3805.72
897.181	3787.19
897.496	3799.84
897.811	3781.76
898.126	3758.49
898.441	3771.82
898.756	3688.21
899.071	3712.84
899.386	3733.86
899.7	3686.4
900.015	3673.52
900.33	3644.14
900.644	3647.98
900.959	3656.12
901.273	3657.93
901.588	3606.4
901.902	3557.82
902.216	3574.09
902.531	3540.87
902.845	3599.17
903.159	3536.12
903.473	3516.69
903.787	3530.02
904.101	3498.61
904.415	3508.55
904.729	3472.62
905.042	3504.48
905.356	3455.45
905.67	3443.24
905.984	3450.02
906.297	3412.96
906.611	3419.29
906.924	3416.58
907.237	3396.46
907.551	3380.87
907.864	3345.84
908.177	3320.99
908.491	3334.77
908.804	3349.01
909.117	3273.53
909.43	3271.04
909.743	3302.46
910.056	3270.14
910.368	3251.84
910.681	3205.06
910.994	3229.01
911.307	3249.35
911.619	3147.66
911.932	3215
912.244	3179.52
912.557	3205.96
912.869	3149.24
913.181	3135
913.494	3116.92
913.806	3130.48
914.118	3118.05
914.43	3073.54
914.742	3107.21
915.054	3097.49
915.366	3088.45
915.678	3070.82
915.99	3050.03
916.302	3001.67
916.613	3003.93
916.925	3000.54
917.236	3000.54
917.548	2983.37
917.859	2967.32
918.171	2996.02
918.482	2956.48
918.794	2929.36
919.105	2962.13
919.416	2910.38
919.727	2922.35
920.038	2893.88
920.349	2909.92
920.66	2855.01
920.971	2864.95
921.282	2884.16
921.593	2824.28
921.903	2817.5
922.214	2809.14
922.525	2782.24
922.835	2813.65
923.146	2768.46
923.456	2758.52
923.767	2753.77
924.077	2743.83
924.387	2753.77
924.697	2730.72
925.008	2749.02
925.318	2716.71
925.628	2683.04
925.938	2711.96
926.248	2666.77
926.558	2667.44
926.867	2680.78
927.177	2686.65
927.487	2672.64
927.796	2599.88
928.106	2602.13
928.416	2651.4
928.725	2603.04
929.034	2596.71
929.344	2574.11
929.653	2607.33
929.962	2556.94
930.271	2570.72
930.581	2538.18
930.89	2515.13
931.199	2504.28
931.508	2526.66
931.817	2521.91
932.125	2491.86
932.434	2491.18
932.743	2488.69
933.051	2473.55
933.36	2470.39
933.669	2439.43
933.977	2432.65
934.286	2441.01
934.594	2451.18
934.902	2394.68
935.21	2395.13
935.519	2401.01
935.827	2346.77
936.135	2368.47
936.443	2360.56
936.751	2321.01
937.059	2332.54
937.367	2344.97
937.674	2322.59
937.982	2325.08
938.29	2318.07
938.597	2303.39
938.905	2317.17
939.213	2274.69
939.52	2266.1
939.827	2276.49
940.135	2267.68
940.442	2250.05
940.749	2259.77
941.056	2222.48
941.363	2198.08
941.67	2229.72
941.977	2182.94
942.284	2214.35
942.591	2191.75
942.898	2177.29
943.205	2172.54
943.511	2137.51
943.818	2178.42
944.125	2159.89
944.431	2140.45
944.738	2145.42
945.044	2123.73
945.35	2083.96
945.657	2081.24
945.963	2104.07
946.269	2058.19
946.575	2085.99
946.881	2061.36
947.187	2056.84
947.493	2053
947.799	2058.42
948.105	2025.43
948.41	2022.04
948.716	2067.69
949.022	2020.46
949.327	1997.41
949.633	1977.29
949.938	1997.18
950.244	1997.86
950.549	1984.07
950.854	2007.35
951.16	1967.35
951.465	1970.29
951.77	1962.6
952.075	1965.77
952.38	1899.33
952.685	1943.4
952.99	1929.61
953.294	1886.45
953.599	1925.32
953.904	1904.3
954.209	1872.66
954.513	1883.74
954.818	1900.46
955.122	1902.27
955.426	1890.52
955.731	1839.67
956.035	1828.6
956.339	1827.01
956.643	1840.35
956.948	1796.73
957.252	1812.1
957.556	1795.15
957.86	1832.66
958.163	1801.03
958.467	1810.74
958.771	1792.44
959.075	1780.91
959.378	1761.25
959.682	1747.92
959.985	1737.3
960.289	1725.77
960.592	1753.34
960.896	1739.56
961.199	1732.1
961.502	1712.89
961.805	1754.02
962.108	1698.66
962.411	1666.34
962.714	1698.66
963.017	1697.53
963.32	1696.17
963.623	1655.49
963.926	1635.38
964.228	1672.89
964.531	1656.4
964.833	1645.55
965.136	1660.01
965.438	1653.91
965.741	1646
966.043	1601.26
966.345	1621.14
966.648	1599.9
966.95	1613.91
967.252	1604.65
967.554	1591.54
967.856	1584.76
968.158	1580.92
968.46	1581.6
968.761	1568.04
969.063	1567.59
969.365	1578.66
969.666	1551.54
969.968	1540.02
970.269	1542.5
970.571	1556.96
970.872	1523.52
971.174	1532.78
971.475	1525.78
971.776	1542.05
972.077	1492.33
972.378	1497.98
972.679	1507.02
972.98	1483.75
973.281	1493.01
973.582	1473.13
973.883	1465.67
974.183	1483.75
974.484	1453.01
974.785	1464.31
975.085	1439.23
975.386	1450.53
975.686	1429.51
975.986	1432.22
976.287	1420.47
976.587	1415.73
976.887	1400.81
977.187	1420.25
977.487	1423.63
977.787	1409.17
978.087	1418.44
978.387	1384.99
978.687	1367.14
978.987	1388.38
979.286	1405.1
979.586	1383.64
979.885	1342.51
980.185	1331.66
980.484	1364.65
980.784	1328.72
981.083	1342.28
981.382	1349.74
981.682	1323.3
981.981	1322.39
982.28	1308.61
982.579	1323.75
982.878	1291.21
983.177	1312.9
983.475	1298.89
983.774	1301.6
984.073	1267.71
984.372	1245.11
984.67	1302.73
984.969	1271.77
985.267	1272.9
985.566	1279.91
985.864	1251.44
986.162	1254.15
986.461	1257.76
986.759	1243.3
987.057	1251.21
987.355	1222.06
987.653	1244.2
987.951	1215.5
988.249	1232.23
988.547	1220.02
988.844	1189.29
989.142	1214.6
989.44	1191.55
989.737	1225.67
990.035	1216.86
990.332	1216.86
990.63	1178.44
990.927	1170.31
991.224	1178.22
991.521	1173.47
991.819	1178.22
992.116	1166.47
992.413	1166.69
992.71	1153.36
993.006	1122.4
993.303	1156.75
993.6	1137.99
993.897	1127.37
994.193	1114.26
994.49	1122.4
994.787	1090.54
995.083	1119.91
995.379	1107.49
995.676	1098.9
995.972	1100.71
996.268	1087.37
996.565	1082.63
996.861	1066.81
997.157	1070.65
997.453	1082.17
997.749	1080.59
998.044	1060.48
998.34	1044.44
998.636	1073.14
998.932	1029.75
999.227	1049.18
999.523	1027.71
999.818	1036.98
1000.114	1041.05
1000.409	1005.34
1000.704	1029.29
1001	1030.42
1001.295	1038.56
1001.59	1010.54
1001.885	1030.2
1002.18	1009.63
1002.475	1020.03
1002.77	1004.66
1003.065	1001.27
1003.359	996.75
1003.654	992.69
1003.949	966.92
1004.243	989.3
1004.538	960.82
1004.832	972.12
1005.127	949.52
1005.421	964.66
1005.715	943.65
1006.009	959.01
1006.304	954.27
1006.598	919.47
1006.892	922.41
1007.186	944.33
1007.48	942.74
1007.773	935.06
1008.067	903.87
1008.361	908.85
1008.655	895.06
1008.948	874.72
1009.242	879.47
1009.535	896.19
1009.829	893.48
1010.122	889.86
1010.415	887.38
1010.708	874.5
1011.001	872.69
1011.295	869.07
1011.588	878.34
1011.881	831.56
1012.173	854.38
1012.466	871.56
1012.759	858.45
1013.052	852.8
1013.344	847.6
1013.637	847.6
1013.93	833.37
1014.222	825.46
1014.514	856.87
1014.807	823.65
1015.099	811.22
1015.391	826.59
1015.683	806.02
1015.976	820.26
1016.268	788.62
1016.56	811.9
1016.851	804.89
1017.143	810.54
1017.435	792.47
1017.727	801.73
1018.018	776.87
1018.31	796.53
1018.602	788.17
1018.893	788.4
1019.185	776.87
1019.476	746.14
1019.767	752.69
1020.058	745.46
1020.35	753.6
1020.641	747.72
1020.932	742.97
1021.223	749.3
1021.514	773.26
1021.804	757.21
1022.095	734.61
1022.386	718.34
1022.677	717.89
1022.967	723.31
1023.258	708.4
1023.548	710.43
1023.839	705.24
1024.129	693.94
1024.419	700.04
1024.709	707.95
1025	698
1025.29	711.34
1025.58	709.98
1025.87	690.77
1026.16	679.47
1026.449	694.61
1026.739	696.87
1027.029	685.35
1027.319	669.3
1027.608	700.94
1027.898	666.14
1028.187	662.52
1028.477	644.45
1028.766	647.16
1029.055	657.33
1029.344	643.32
1029.634	653.71
1029.923	641.73
1030.212	648.29
1030.501	628.85
1030.79	648.74
1031.078	627.5
1031.367	636.99
1031.656	626.59
1031.945	609.64
1032.233	607.61
1032.522	606.48
1032.81	598.57
1033.099	615.07
1033.387	609.87
1033.675	607.16
1033.963	594.05
1034.251	598.35
1034.54	599.93
1034.828	586.82
1035.116	601.74
1035.403	597.44
1035.691	593.83
1035.979	600.61
1036.267	572.58
1036.554	565.13
1036.842	575.52
1037.129	575.3
1037.417	565.58
1037.704	572.36
1037.992	582.75
1038.279	558.57
1038.566	544.79
1038.853	544.79
1039.14	544.79
