Data from blue_shiny_book_FLMS001491_00017.txt Node
Date: Wed Feb 08 15:26:37 GMT 2017
User: dcchb
Spectrometer: FLMS00149
Trigger mode: 0
Integration Time (sec): 2.000000E-2
Scans to average: 10
Electric dark correction enabled: true
Nonlinearity correction enabled: false
Boxcar width: 0
XAxis mode: Wavelengths
Number of Pixels in Spectrum: 2048
>>>>>Begin Spectral Data<<<<<
341.393	-3.45
341.776	-3.45
342.16	-3.45
342.543	-59.72
342.927	-77.34
343.31	-73.27
343.693	-61.98
344.077	-51.58
344.46	-84.12
344.843	-51.13
345.226	-36.89
345.61	-32.82
345.993	-36.21
346.376	-13.84
346.759	27.74
347.142	8.08
347.525	48.3
347.908	48.98
348.291	73.39
348.674	103.44
349.057	131.92
349.44	122.65
349.823	136.89
350.206	165.36
350.588	187.96
350.971	215.53
351.354	239.03
351.737	239.71
352.119	256.43
352.502	260.95
352.884	269.54
353.267	309.31
353.65	313.61
354.032	328.52
354.414	317.9
354.797	347.73
355.179	331.46
355.562	349.54
355.944	354.28
356.326	355.41
356.709	350.67
357.091	359.48
357.473	351.57
357.855	372.14
358.238	380.27
358.62	355.87
359.002	376.88
359.384	352.7
359.766	363.1
360.148	349.76
360.53	357
360.912	356.54
361.294	347.28
361.676	352.7
362.057	357.9
362.439	351.57
362.821	362.19
363.203	361.06
363.584	357.45
363.966	353.15
364.348	344.34
364.729	352.25
365.111	372.36
365.493	342.53
365.874	346.15
366.256	316.32
366.637	346.83
367.019	357.45
367.4	357.45
367.781	349.54
368.163	350.44
368.544	345.47
368.925	333.49
369.306	360.61
369.688	358.8
370.069	366.94
370.45	354.06
370.831	346.6
371.212	371.69
371.593	356.32
371.974	362.19
372.355	361.29
372.736	350.44
373.117	349.31
373.498	364.23
373.879	364.91
374.26	345.25
374.641	366.71
375.021	344.79
375.402	356.32
375.783	364.45
376.163	383.44
376.544	396.32
376.925	378.24
377.305	384.57
377.686	390.44
378.066	381.4
378.447	409.65
378.827	424.34
379.208	407.84
379.588	402.19
379.968	410.1
380.349	440.61
380.729	416.43
381.109	418.24
381.489	418.01
381.87	403.1
382.25	442.19
382.63	413.72
383.01	426.15
383.39	420.27
383.77	435.19
384.15	449.88
384.53	446.49
384.91	445.13
385.29	455.52
385.67	468.63
386.049	457.56
386.429	451.68
386.809	440.16
387.189	484.68
387.568	493.49
387.948	493.94
388.328	496.65
388.707	462.3
389.087	497.11
389.466	495.52
389.846	502.3
390.225	522.87
390.605	524.45
390.984	533.71
391.363	537.1
391.743	540.95
392.122	514.73
392.501	564
392.881	548.4
393.26	554.28
393.639	567.16
394.018	555.64
394.397	593.83
394.776	567.61
395.155	589.53
395.534	607.61
395.913	578.46
396.292	612.13
396.671	620.94
397.05	640.15
397.429	628.4
397.808	615.07
398.186	648.97
398.565	621.17
398.944	639.7
399.323	662.07
399.701	654.39
400.08	659.81
400.458	681.73
400.837	700.49
401.215	672.02
401.594	719.47
401.972	702.07
402.351	695.74
402.729	681.06
403.107	718.79
403.486	728.74
403.864	758.34
404.242	757.21
404.62	770.32
404.999	769.64
405.377	785.46
405.755	801.5
406.133	799.24
406.511	807.61
406.889	815.97
407.267	822.07
407.645	856.64
408.023	845.57
408.401	885.34
408.779	870.88
409.156	872.46
409.534	903.65
409.912	930.99
410.29	957.21
410.667	938.22
411.045	985.91
411.422	949.3
411.8	1005.34
412.178	997.66
412.555	1039.69
412.933	1053.25
413.31	1056.86
413.687	1050.76
414.065	1121.04
414.442	1085.11
414.819	1124.66
415.197	1140.48
415.574	1138.9
415.951	1145.68
416.328	1146.58
416.705	1165.34
417.082	1203.53
417.46	1192.23
417.837	1238.33
418.214	1243.07
418.591	1256.86
418.967	1252.79
419.344	1276.29
419.721	1290.31
420.098	1294.82
420.475	1327.59
420.852	1321.72
421.228	1343.41
421.605	1357.87
421.982	1393.81
422.358	1385.9
422.735	1423.18
423.111	1435.84
423.488	1451.43
423.864	1473.13
424.241	1504.99
424.617	1501.82
424.994	1543.86
425.37	1551.77
425.746	1521.94
426.123	1557.87
426.499	1599
426.875	1618.66
427.251	1663.4
427.627	1693.46
428.003	1695.49
428.379	1725.77
428.756	1741.82
429.132	1758.09
429.507	1774.36
429.883	1795.38
430.259	1815.94
430.635	1872.66
431.011	1881.02
431.387	1918.76
431.763	1949.95
432.138	1997.63
432.514	2028.59
432.89	2047.8
433.265	2072.21
433.641	2122.83
434.016	2159.43
434.392	2191.3
434.767	2197.85
435.143	2195.82
435.518	2246.66
435.894	2253.22
436.269	2306.55
436.644	2312.43
437.02	2350.39
437.395	2368.24
437.77	2463.16
438.145	2481.69
438.52	2491.86
438.895	2532.76
439.271	2523.27
439.646	2599.2
440.021	2583.6
440.395	2619.31
440.77	2626.99
441.145	2637.61
441.52	2677.61
441.895	2732.98
442.27	2726.88
442.645	2772.75
443.019	2815.91
443.394	2804.39
443.769	2860.43
444.143	2838.29
444.518	2885.97
444.892	2918.74
445.267	2903.14
445.641	2962.58
446.016	2962.13
446.39	3010.03
446.764	3018.17
447.139	3027.43
447.513	3093.87
447.887	3110.37
448.262	3136.58
448.636	3126.64
449.01	3178.62
449.384	3195.79
449.758	3226.75
450.132	3295.22
450.506	3295.68
450.88	3321.89
451.254	3322.34
451.628	3408.22
452.002	3434.66
452.376	3494.09
452.75	3515.78
453.123	3551.26
453.497	3624.71
453.871	3653.63
454.244	3732.5
454.618	3734.08
454.992	3774.99
455.365	3791.03
455.739	3895.43
456.112	3939.95
456.486	3952.83
456.859	4001.19
457.232	4130.23
457.606	4113.51
457.979	4183.34
458.352	4306.5
458.725	4348.53
459.099	4369.09
459.472	4466.04
459.845	4522.99
460.218	4534.06
460.591	4575.42
460.964	4629.65
461.337	4729.54
461.71	4787.84
462.083	4883.66
462.456	4907.61
462.829	4908.97
463.201	5056.08
463.574	5083.2
463.947	5130.88
464.32	5297.66
464.692	5304.44
465.065	5370.42
465.438	5438.67
465.81	5513.47
466.183	5529.97
466.555	5648.38
466.928	5732.45
467.3	5739.23
467.672	5833.69
468.045	6010.41
468.417	6013.57
468.789	6067.81
469.161	6225.09
469.534	6300.79
469.906	6418.08
470.278	6496.72
470.65	6549.15
471.022	6652.65
471.394	6793.89
471.766	6831.4
472.138	6955.01
472.51	7061
472.882	7173.09
473.253	7298.96
473.625	7424.16
473.997	7603.81
474.369	7719.74
474.74	7783.47
475.112	7893.97
475.484	8101.65
475.855	8197.47
476.227	8271.14
476.598	8442.89
476.97	8510.23
477.341	8716.32
477.713	8834.06
478.084	8854.63
478.455	9246.93
478.827	9283.32
479.198	9549.75
479.569	9615.51
479.94	9889.85
480.311	9931.21
480.682	10189.28
481.053	10375.04
481.424	10582.49
481.795	10634.69
482.166	10887.57
482.537	10991.07
482.908	11260.44
483.279	11352.64
483.65	11556.48
484.021	11838.05
484.391	11944.04
484.762	12025.62
485.133	12169.79
485.503	12473.06
485.874	12741.76
486.244	12911.47
486.615	13172.7
486.985	13316.88
487.356	13561.39
487.726	13647.04
488.097	13943.76
488.467	13939.24
488.837	14241.83
489.207	14387.81
489.578	14624.42
489.948	14709.61
490.318	15014.46
490.688	15095.37
491.058	15413.78
491.428	15582.13
491.798	15700.55
492.168	16144.83
492.538	16181.66
492.908	16423.69
493.278	16626.62
493.648	16718.6
494.017	16805.38
494.387	16982.77
494.757	17161.3
495.126	17335.08
495.496	17355.65
495.866	17528.97
496.235	17764.67
496.605	18047.15
496.974	18086.93
497.344	18298.67
497.713	18497.31
498.082	18620.7
498.452	18917.86
498.821	19039.22
499.19	19173.45
499.559	19275.14
499.928	19297.29
500.298	19486.89
500.667	19717.39
501.036	19536.38
501.405	19907.89
501.774	19877.61
502.143	20092.52
502.512	20252.74
502.88	20401.67
503.249	20514.88
503.618	20649.57
503.987	20824.25
504.356	21102.21
504.724	21144.47
505.093	21291.14
505.462	21433.96
505.83	21625.82
506.199	21812.93
506.567	21939.03
506.936	22015.41
507.304	22235.97
507.672	22261.05
508.041	22434.38
508.409	22564.32
508.777	22737.88
509.145	23006.57
509.514	22833.69
509.882	23189.84
510.25	23218.32
510.618	23455.37
510.986	23636.38
511.354	23913.89
511.722	24238.18
512.09	24454.22
512.458	24378.96
512.826	24676.58
513.193	24717.26
513.561	24903.92
513.929	25069.79
514.297	25226.85
514.664	25397.69
515.032	25443.12
515.4	25698.93
515.767	25677.46
516.135	25913.16
516.502	25862.77
516.869	26325.8
517.237	26505.24
517.604	26629.53
517.972	26953.13
518.339	27218.66
518.706	27295.95
519.073	27475.15
519.44	27761.25
519.808	28055.48
520.175	27935.03
520.542	28275.13
520.909	28553.54
521.276	28441.91
521.643	28713.76
522.009	28751.96
522.376	28937.49
522.743	29233.07
523.11	29309.68
523.477	29721.65
523.843	29891.36
524.21	30278.24
524.577	30672.13
524.943	30771.56
525.31	30983.31
525.676	31411.55
526.043	31625.55
526.409	31995.94
526.776	32193.45
527.142	32306.66
527.508	32560.44
527.874	32597.96
528.241	32647.22
528.607	32929.47
528.973	33065.06
529.339	32977.16
529.705	33238.84
530.071	33479.97
530.437	33838.15
530.803	33828.88
531.169	34117.69
531.535	34128.99
531.901	34488.98
532.267	34669.09
532.632	35064.56
532.998	35337.32
533.364	35556.75
533.73	35818.89
534.095	36124.19
534.461	36249.39
534.826	36258.2
535.192	36479.66
535.557	36552.43
535.923	36518.53
536.288	36531.41
536.653	36628.13
537.019	36421.13
537.384	36672.2
537.749	36860.44
538.114	37021.12
538.479	37148.12
538.845	37295.69
539.21	37332.07
539.575	37602.57
539.94	37840.3
540.305	38236
540.67	38290.24
541.034	38597.12
541.399	38708.76
541.764	38890.9
542.129	38899.49
542.494	39024.45
542.858	39031.91
543.223	39244.56
543.587	39271.68
543.952	39221.74
544.316	39220.61
544.681	39136.09
545.045	39260.38
545.41	39477.78
545.774	39395.74
546.138	39461.96
546.503	39507.38
546.867	39665.57
547.231	40252.67
547.595	40316.62
547.959	40447.92
548.324	40721.81
548.688	40875.25
549.052	41056.49
549.416	41236.15
549.779	41317.05
550.143	41336.48
550.507	41560.88
550.871	41670.49
551.235	41467.33
551.599	41785.74
551.962	41712.97
552.326	41719.75
552.689	41693.08
553.053	41732.63
553.417	41715.23
553.78	42209.46
554.143	42063.24
554.507	42317.93
554.87	42425.72
555.234	42952.03
555.597	42669.56
555.96	43072.03
556.323	43416.88
556.686	43451.68
557.05	43807.61
557.413	44034.27
557.776	44194.49
558.139	44486.01
558.502	44431.77
558.865	44376.4
559.228	44752.21
559.59	44702.5
559.953	44775.94
560.316	45067.69
560.679	44922.83
561.041	44929.84
561.404	45197.63
561.767	45320.33
562.129	45182.03
562.492	45549.03
562.854	45508.8
563.217	45705.86
563.579	45898.62
563.941	46174.32
564.304	46480.98
564.666	46844.36
565.028	46891.82
565.39	47197.12
565.753	47437.79
566.115	47669.88
566.477	47811.12
566.839	47871.68
567.201	48004.33
567.563	47934.28
567.925	48177.89
568.287	48145.8
568.648	48098.11
569.01	48155.06
569.372	48284.32
569.734	48123.88
570.095	48343.31
570.457	48455.17
570.819	48497.43
571.18	48468.05
571.542	48773.35
571.903	48994.81
572.265	49151.42
572.626	49136.73
572.987	49343.28
573.349	49657.85
573.71	49849.25
574.071	50107.1
574.432	50088.12
574.794	50390.26
575.155	50517.71
575.516	50297.38
575.877	50494.44
576.238	50521.78
576.599	50556.35
576.96	50480.88
577.32	50469.12
577.681	50607.65
578.042	50627.76
578.403	50625.28
578.763	50596.58
579.124	50574.66
579.485	50631.15
579.845	50675.22
580.206	50698.95
580.566	50745.5
580.927	50738.27
581.287	51020.97
581.648	51010.58
582.008	51158.15
582.368	51207.41
582.728	51451.47
583.089	51417.8
583.449	51391.81
583.809	51521.75
584.169	51575.31
584.529	51580.73
584.889	51879.94
585.249	51564.24
585.609	51442.66
585.969	51562.66
586.329	51484.69
586.688	51429.55
587.048	51389.78
587.408	51291.02
587.768	51291.02
588.127	51298.71
588.487	51200.63
588.846	51371.7
589.206	51141.2
589.565	51184.13
589.925	51312.27
590.284	51247.41
590.643	51404.24
591.003	51509.55
591.362	51572.15
591.721	51590
592.08	51705.7
592.44	51860.05
592.799	51843.1
593.158	51830.9
593.517	51839.94
593.876	52021.4
594.235	51884
594.593	52050.78
594.952	51994.96
595.311	51967.84
595.67	52001.74
596.029	51980.05
596.387	51980.27
596.746	51984.57
597.104	51783.89
597.463	51671.81
597.822	51884.68
598.18	51634.52
598.538	51658.92
598.897	51897.79
599.255	51617.57
599.613	52044.9
599.972	51757.9
600.33	52005.58
600.688	51945.02
601.046	52221.62
601.404	52305.01
601.762	52192.02
602.12	52390.88
602.478	52480.82
602.836	52493.48
603.194	52388.62
603.552	52587.04
603.91	52506.81
604.268	52557.66
604.625	52473.82
604.983	52561.5
605.341	52460.94
605.698	52490.54
606.056	52600.59
606.413	52447.38
606.771	52597.2
607.128	52566.7
607.485	52298.46
607.843	52402.63
608.2	52610.99
608.557	52614.83
608.914	52429.53
609.272	52641.27
609.629	52693.25
609.986	52761.95
610.343	52632.46
610.7	52749.07
611.057	52863.86
611.414	52866.12
611.771	52953.13
612.127	53159.9
612.484	53190.41
612.841	53244.42
613.198	53246.23
613.554	53292.78
613.911	53469.27
614.267	53317.64
614.624	53417.97
614.98	53461.81
615.337	53553.79
615.693	53510.85
616.05	53421.14
616.406	53583.39
616.762	53405.09
617.118	53394.92
617.475	53262.27
617.831	53360.8
618.187	53433.11
618.543	53449.39
618.899	53565.09
619.255	53439.22
619.611	53349.95
619.967	53492.55
620.323	53447.13
620.678	53399.67
621.034	53427.92
621.39	53390.18
621.746	53450.29
622.101	53761.92
622.457	53560.34
622.812	53737.29
623.168	53864.29
623.523	53805.08
623.879	53924.18
624.234	53781.13
624.589	53944.06
624.945	54038.07
625.3	54053.66
625.655	54026.77
626.01	53915.36
626.365	53911.07
626.72	53879.43
627.075	53837.17
627.43	53836.04
627.785	53781.13
628.14	53845.31
628.495	53699.1
628.85	53620.45
629.205	53572.55
629.559	53652.54
629.914	53479.44
630.269	53445.32
630.623	53380.91
630.978	53342.72
631.332	53453
631.687	53556.95
632.041	53518.31
632.396	53451.65
632.75	53466.33
633.104	53413.91
633.459	53413.45
633.813	53415.49
634.167	53443.96
634.521	53318.99
634.875	53380.91
635.229	53431.98
635.583	53317.86
635.937	53362.38
636.291	53337.07
636.645	53433.57
636.999	53408.26
637.352	53392.66
637.706	53223.18
638.06	53335.49
638.413	53194.7
638.767	53072.45
639.121	52983.64
639.474	52800.82
639.828	52757.88
640.181	52713.36
640.534	52601.05
640.888	52446.25
641.241	52281.96
641.594	52494.83
641.947	52548.17
642.301	52318.79
642.654	52453.25
643.007	52252.13
643.36	52333.48
643.713	52274.05
644.066	52399.24
644.419	52279.47
644.771	52352.01
645.124	52286.7
645.477	52215.07
645.83	52095.97
646.182	51750.67
646.535	51506.84
646.888	51445.37
647.24	51214.87
647.593	51353.85
647.945	51276.11
648.298	51172.16
648.65	51077.02
649.002	51040.86
649.355	51201.08
649.707	51344.58
650.059	51395.65
650.411	51699.6
650.763	51824.8
651.115	52024.34
651.467	51702.09
651.819	51718.36
652.171	51566.5
652.523	51587.29
652.875	51470.91
653.227	51355.88
653.578	51643.78
653.93	51499.38
654.282	51355.2
654.633	51105.49
654.985	51278.6
655.337	51326.5
655.688	51262.78
656.039	51407.86
656.391	51166.96
656.742	51294.41
657.094	51415.31
657.445	51650.34
657.796	51459.61
658.147	51620.96
658.498	51622.99
658.849	51728.98
659.2	51739.15
659.551	51601.75
659.902	51686.49
660.253	51665.25
660.604	51647.85
660.955	51587.51
661.306	51710.45
661.656	51434.75
662.007	51472.49
662.358	51427.97
662.708	51379.38
663.059	51305.71
663.409	51087.64
663.76	51307.75
664.11	51080.41
664.461	51073.18
664.811	50904.37
665.161	50778.27
665.511	50806.29
665.862	50875.22
666.212	50966.74
666.562	50811.49
666.912	50900.75
667.262	50804.71
667.612	50939.4
667.962	51051.26
668.312	50959.73
668.662	51073.63
669.011	51064.59
669.361	51123.12
669.711	51054.42
670.06	50886.52
670.41	51049
670.76	51115.21
671.109	51245.38
671.459	51120.86
671.808	51011.03
672.157	51310.91
672.507	51026.85
672.856	51007.42
673.205	51118.15
673.554	51186.85
673.904	50991.37
674.253	51106.4
674.602	50864.59
674.951	50255.8
675.3	50242.92
675.649	50597.71
675.998	50350.94
676.346	50325.63
676.695	50360.65
677.044	49925.41
677.393	50092.19
677.741	50054.45
678.09	49911.63
678.438	49736.49
678.787	49818.52
679.135	49742.59
679.484	49452.2
679.832	49826.66
680.181	49715.02
680.529	49666.21
680.877	49767.67
681.225	49701.46
681.573	49995.92
681.922	49785.08
682.27	49719.09
682.618	49891.06
682.966	49810.61
683.314	49908.24
683.661	49836.83
684.009	49650.84
684.357	49614.01
684.705	49673.21
685.053	49706.66
685.4	49629.82
685.748	49322.94
686.095	49348.93
686.443	49195.71
686.79	49149.61
687.138	49127.47
687.485	49051.99
687.832	48918.66
688.18	48853.35
688.527	48482.28
688.874	48385.34
689.221	48243.19
689.568	48150.99
689.915	47923.43
690.262	47900.83
690.609	47713.04
690.956	47547.62
691.303	47472.82
691.65	47324.8
691.997	47155.09
692.344	46951.7
692.69	46948.31
693.037	46859.95
693.383	46586.52
693.73	46824.02
694.077	46625.16
694.423	46686.17
694.769	46546.74
695.116	46595.1
695.462	46744.7
695.808	46451.15
696.155	46641.88
696.501	46423.81
696.847	46450.93
697.193	46209.58
697.539	46321.66
697.885	46111.27
698.231	46021.56
698.577	45967.55
698.923	45946.98
699.269	45775.69
699.614	45455.47
699.96	45454.34
700.306	45339.99
700.651	45103.62
700.997	44816.62
701.342	44775.49
701.688	44444.88
702.033	44293.47
702.379	44399.68
702.724	44058.45
703.069	44102.74
703.415	43639.93
703.76	43518.8
704.105	43451.23
704.45	43173.05
704.795	43033.39
705.14	42742.1
705.485	42580.52
705.83	42545.04
706.175	42784.36
706.52	42507.3
706.865	42443.8
707.209	42529.22
707.554	42437.47
707.899	42530.12
708.243	42204.03
708.588	42391.37
708.932	42239.51
709.277	42257.36
709.621	42249.23
709.966	42043.58
710.31	42353.41
710.654	42065.5
710.998	42136.91
711.342	42154.99
711.687	41984.83
712.031	41986.86
712.375	41731.05
712.719	41727.43
713.063	41601.34
713.407	41623.26
713.75	41420.78
714.094	41560.21
714.438	41246.99
714.782	41210.16
715.125	40976.95
715.469	40967.68
715.812	40801.58
716.156	40393.23
716.499	40387.81
716.843	40290.64
717.186	40060.81
717.53	40126.8
717.873	39926.58
718.216	39674.38
718.559	39544.67
718.902	39277.78
719.246	39561.84
719.589	39451.79
719.932	39343.77
720.275	39259.02
720.617	39325.24
720.96	39306.93
721.303	39312.36
721.646	39432.8
721.989	39122.98
722.331	39261.51
722.674	39241.85
723.016	39416.99
723.359	39362.3
723.701	39583.99
724.044	39291.34
724.386	39128.41
724.729	39467.38
725.071	39295.18
725.413	39266.71
725.755	39226.71
726.097	39471.22
726.439	39018.58
726.782	39117.33
727.124	39154.17
727.465	39007.05
727.807	38937.45
728.149	38852.93
728.491	38738.36
728.833	38767.51
729.175	38455.66
729.516	38542.43
729.858	38371.82
730.199	38412.04
730.541	38074.87
730.882	38049.79
731.224	38195.32
731.565	37850.47
731.906	37864.26
732.248	37757.82
732.589	37629.24
732.93	37551.72
733.271	37477.38
733.612	37721.89
733.953	37620.42
734.294	37412.07
734.635	37325.52
734.976	37520.31
735.317	37195.58
735.658	37427.21
735.999	37366.64
736.339	37596.02
736.68	37759.18
737.021	37444.83
737.361	37390.15
737.702	37577.26
738.042	37495.45
738.383	37629.24
738.723	37648.22
739.063	37440.77
739.404	37642.34
739.744	37796.24
740.084	37647.32
740.424	37825.84
740.764	37739.97
741.104	37816.12
741.444	37602.8
741.784	37532.52
742.124	37749.69
742.464	37643.7
742.804	37564.38
743.143	37555.34
743.483	37516.47
743.823	37206.42
744.162	37324.61
744.502	37355.12
744.841	37288
745.181	37164.16
745.52	37136.37
745.86	37076.71
746.199	37078.97
746.538	36987.22
746.877	37032.42
747.216	37013.21
747.556	37086.65
747.895	36965.98
748.234	36943.6
748.573	36725.76
748.911	36783.61
749.25	36747.23
749.589	36678.53
749.928	36624.97
750.267	36702.71
750.605	36512.66
750.944	36779.09
751.283	36707.45
751.621	36802.59
751.96	36662.71
752.298	36664.74
752.636	36774.34
752.975	36905.41
753.313	36898.86
753.651	37000.55
753.989	36901.35
754.327	36757.17
754.666	36704.97
755.004	36948.8
755.342	36951.06
755.679	37058.18
756.017	37009.14
756.355	37197.16
756.693	36873.1
757.031	37096.37
757.368	36955.58
757.706	36924.62
758.044	36828.13
758.381	36908.13
758.719	36840.1
759.056	36937.73
759.394	36965.75
759.731	36653.89
760.068	36728.02
760.405	36629.26
760.743	36511.3
761.08	36568.93
761.417	36372.09
761.754	36290.97
762.091	36236.96
762.428	36188.14
762.765	35889.4
763.102	36051.42
763.438	35788.38
763.775	35592.23
764.112	35602.17
764.449	35626.35
764.785	35535.28
765.122	35504.77
765.458	35152.01
765.795	35325.34
766.131	35343.42
766.467	35183.2
766.804	35000.61
767.14	34947.05
767.476	35074.95
767.812	34909.76
768.148	35072.92
768.485	34944.34
768.821	34574.18
769.157	34619.15
769.492	34486.27
769.828	34669.54
770.164	34416.67
770.5	34372.37
770.836	34511.58
771.171	34285.6
771.507	34275.43
771.842	34026.62
772.178	34168.31
772.513	34024.81
772.849	34041.08
773.184	33813.29
773.519	33761.54
773.855	33696.46
774.19	33628.89
774.525	33491.27
774.86	33495.56
775.195	33404.49
775.53	33337.82
775.865	33211.05
776.2	32950.49
776.535	32675.47
776.87	32726.31
777.205	32660.1
777.539	32441.8
777.874	32453.55
778.209	32097.18
778.543	32114.13
778.878	31735.61
779.212	31896.28
779.547	31599.11
779.881	31644.76
780.215	31467.82
780.55	31373.13
780.884	31245.22
781.218	31213.13
781.552	31046.13
781.886	30840.94
782.22	30726.37
782.554	30514.85
782.888	30456.09
783.222	30259.94
783.556	30183.56
783.889	30160.51
784.223	29877.12
784.557	29993.28
784.89	29954.18
785.224	29706.28
785.557	29646.17
785.891	29705.6
786.224	29522.78
786.558	29538.6
786.891	29242.11
787.224	29212.51
787.557	29181.32
787.891	29189.46
788.224	29237.37
788.557	29197.37
788.89	29135
789.223	29139.06
789.556	28971.61
789.888	28712.86
790.221	28752.18
790.554	28502.02
790.887	28601.9
791.219	28494.79
791.552	28472.64
791.884	28316.26
792.217	28167.34
792.549	28010.73
792.882	27933.45
793.214	27892.32
793.546	27809.16
793.879	27790.17
794.211	27556.73
794.543	27654.81
794.875	27344.31
795.207	27507.02
795.539	27167.82
795.871	27224.09
796.203	27028.39
796.535	26839.01
796.867	26834.49
797.198	26686.93
797.53	26602.41
797.862	26443.77
798.193	26405.58
798.525	26191.8
798.856	26276.09
799.188	25978.24
799.519	25945.48
799.85	25754.97
800.182	25721.53
800.513	25756.55
800.844	25513.17
801.175	25568.76
801.506	25508.88
801.837	25446.05
802.168	25405.38
802.499	25354.98
802.83	25220.52
803.161	25180.98
803.491	25247.87
803.822	25104.82
804.153	24977.14
804.483	24871.61
804.814	24819.63
805.145	24736.02
805.475	24863.92
805.805	24667.32
806.136	24599.75
806.466	24642.91
806.796	24669.35
807.126	24451.05
807.457	24389.58
807.787	24457.38
808.117	24341.22
808.447	24216.48
808.777	24336.7
809.107	24260.1
809.436	24195.92
809.766	24169.7
810.096	24190.27
810.426	24083.38
810.755	24039.31
811.085	23937.62
811.414	23888.81
811.744	23711.86
812.073	23649.27
812.403	23675.71
812.732	23510.06
813.061	23534.47
813.39	23329.95
813.719	23222.16
814.049	23388.26
814.378	23125.44
814.707	23105.78
815.036	23053.57
815.365	22855.61
815.693	22742.62
816.022	22736.29
816.351	22623.98
816.68	22463.08
817.008	22425.12
817.337	22350.99
817.665	22208.85
817.994	22334.27
818.322	22132.02
818.651	22095.63
818.979	21990.33
819.307	21976.54
819.636	21907.16
819.964	21823.1
820.292	22031.68
820.62	21887.5
820.948	21758.69
821.276	21811.8
821.604	21741.74
821.932	21847.05
822.259	21845.7
822.587	21879.82
822.915	21708.75
823.243	22055.63
823.57	21957.33
823.898	21840.27
824.225	21859.71
824.553	21805.7
824.88	22019.7
825.207	21895.64
825.535	22002.98
825.862	22027.39
826.189	21963.89
826.516	22027.61
826.843	22088.63
827.17	22162.3
827.497	22106.25
827.824	22116.88
828.151	22032.81
828.478	22095.63
828.805	22249.75
829.131	22190.55
829.458	22068.74
829.785	22018.35
830.111	22024.45
830.438	22279.58
830.764	22073.94
831.09	22182.19
831.417	22007.95
831.743	22230.32
832.069	22098.12
832.395	22061.74
832.722	22127.27
833.048	21869.88
833.374	21972.93
833.7	21812.25
834.026	21836.66
834.351	21836.43
834.677	21728.86
835.003	21758.92
835.329	21687.06
835.654	21535.2
835.98	21467.63
836.306	21497.91
836.631	21367.97
836.956	21427.4
837.282	21376.56
837.607	21225.6
837.932	21137.24
838.258	21192.83
838.583	21076.68
838.908	20993.97
839.233	20955.55
839.558	20950.13
839.883	20900.86
840.208	20812.28
840.533	20818.83
840.858	20756.69
841.182	20933.63
841.507	20835.78
841.832	20688.67
842.156	20702
842.481	20675.11
842.805	20553.08
843.13	20654.77
843.454	20469.91
843.778	20468.78
844.103	20451.61
844.427	20439.63
844.751	20438.05
845.075	20408.22
845.399	20484.38
845.723	20241.67
846.047	20136.14
846.371	20048
846.695	20191.28
847.019	20065.63
847.343	19891.62
847.666	19903.6
847.99	19875.81
848.313	19912.64
848.637	19760.78
848.96	19690.73
849.284	19668.58
849.607	19587.68
849.931	19506.55
850.254	19401.92
850.577	19248.48
850.9	19160.57
851.223	19103.62
851.546	18949.28
851.869	18886.9
852.192	18886.9
852.515	18752.67
852.838	18726.68
853.161	18706.57
853.483	18566.23
853.806	18532.79
854.129	18410.53
854.451	18433.13
854.774	18160.37
855.096	18129.41
855.419	18061.39
855.741	17908.4
856.063	17858.01
856.385	17815.29
856.708	17703.21
857.03	17641.06
857.352	17699.59
857.674	17636.99
857.996	17587.73
858.318	17409.43
858.64	17435.64
858.961	17289.43
859.283	17216.21
859.605	17074.97
859.926	17275.42
860.248	17108.87
860.57	16985.71
860.891	17014.41
861.212	16988.2
861.534	16883.12
861.855	16795.66
862.176	16910.01
862.498	16879.95
862.819	16869.1
863.14	16911.14
863.461	16836.56
863.782	16821.42
864.103	16816
864.424	16699.39
864.745	16752.5
865.065	16749.11
865.386	16675.44
865.707	16630.47
866.027	16729.67
866.348	16615.55
866.668	16633.86
866.989	16603.57
867.309	16543.24
867.63	16722.67
867.95	16636.34
868.27	16510.47
868.59	16543.92
868.91	16499.62
869.23	16585.5
869.55	16459.85
869.87	16601.54
870.19	16503.46
870.51	16523.12
870.83	16471.37
871.15	16314.99
871.469	16308.67
871.789	16341.21
872.109	16377.14
872.428	16169.69
872.748	16160.65
873.067	16174.66
873.386	16195.22
873.706	16157.71
874.025	16086.07
874.344	16075.68
874.663	15952.52
874.982	15981.9
875.301	15927.66
875.62	15698.06
875.939	15778.51
876.258	15728.12
876.577	15686.99
876.896	15705.29
877.214	15606.76
877.533	15558.18
877.852	15546.88
878.17	15534.68
878.489	15511.85
878.807	15500.33
879.125	15383.04
879.444	15369.03
879.762	15391.18
880.08	15311.41
880.398	15226.66
880.716	15313.89
881.034	15238.19
881.352	15166.1
881.67	15054.69
881.988	15122.26
882.306	15016.95
882.624	14988.7
882.941	14948.03
883.259	14894.92
883.577	14920.68
883.894	14829.61
884.212	14863.28
884.529	14821.47
884.846	14816.28
885.164	14883.17
885.481	14801.81
885.798	14862.15
886.115	14711.87
886.432	14799.33
886.75	14720.91
887.067	14772.89
887.383	14731.08
887.7	14729.27
888.017	14636.17
888.334	14620.8
888.651	14649.05
888.967	14620.58
889.284	14595.04
889.6	14534.93
889.917	14476.4
890.233	14571.54
890.55	14429.85
890.866	14483.86
891.182	14375.38
891.498	14401.82
891.815	14326.35
892.131	14214.49
892.447	14183.98
892.763	14147.37
893.079	14119.12
893.395	14115.73
893.71	14103.98
894.026	14080.25
894.342	14090.65
894.657	13917.32
894.973	13878
895.289	13913.02
895.604	13800.26
895.92	13698.57
896.235	13594.39
896.55	13617.66
896.865	13597.55
897.181	13484.56
897.496	13512.81
897.811	13417.9
898.126	13261.74
898.441	13267.62
898.756	13225.36
899.071	13148.3
899.386	13081.41
899.7	12969.32
900.015	12851.81
900.33	12806.16
900.644	12812.49
900.959	12827.85
901.273	12667.18
901.588	12603.23
901.902	12667.18
902.216	12512.38
902.531	12523.68
902.845	12487.98
903.159	12370.01
903.473	12280.98
903.787	12235.55
904.101	12180.64
904.415	12257.93
904.729	12121.21
905.042	12053.64
905.356	12088.67
905.67	12033.75
905.984	12048.21
906.297	12004.83
906.611	11849.58
906.924	11911.72
907.237	11896.81
907.551	11793.76
907.864	11759.86
908.177	11724.83
908.491	11657.26
908.804	11665.63
909.117	11652.52
909.43	11576.36
909.743	11608.23
910.056	11446.65
910.368	11499.53
910.681	11474.9
910.994	11384.73
911.307	11432.64
911.619	11335.46
911.932	11324.62
912.244	11295.47
912.557	11356.93
912.869	11231.96
913.181	11205.52
913.494	11237.16
913.806	11103.15
914.118	11106.77
914.43	11010.73
914.742	11011.86
915.054	10979.99
915.366	10931.86
915.678	10821.81
915.99	10761.47
916.302	10727.12
916.613	10747.46
916.925	10731.41
917.236	10714.46
917.548	10675.6
917.859	10603.73
918.171	10472.66
918.482	10501.81
918.794	10402.16
919.105	10348.15
919.416	10225.21
919.727	10182.95
920.038	10187.47
920.349	10126.91
920.66	9991.77
920.971	9993.81
921.282	9905.9
921.593	9865.22
921.903	9772.79
922.214	9787.26
922.525	9686.92
922.835	9642.18
923.146	9529.86
923.456	9492.58
923.767	9493.48
924.077	9496.87
924.387	9497.32
924.697	9397.66
925.008	9283.09
925.318	9286.48
925.628	9274.05
925.938	9159.93
926.248	9105.01
926.558	9064.79
926.867	9041.97
927.177	8974.17
927.487	9062.53
927.796	8930.33
928.106	8876.32
928.416	8893.04
928.725	8789.99
929.034	8865.7
929.344	8796.55
929.653	8817.11
929.962	8664.57
930.271	8636.33
930.581	8621.41
930.89	8575.31
931.199	8537.12
931.508	8563.56
931.817	8595.65
932.125	8563.79
932.434	8458.93
932.743	8467.97
933.051	8425.03
933.36	8445.6
933.669	8315.43
933.977	8369.44
934.286	8369.67
934.594	8376.9
934.902	8278.6
935.21	8258.48
935.519	8247.86
935.827	8216.68
936.135	8186.85
936.443	8133.29
936.751	8159.5
937.059	8202.21
937.367	8108.88
937.674	8130.35
937.982	8011.03
938.29	7997.7
938.597	7970.13
938.905	7875.22
939.213	7830.7
939.52	7885.39
939.827	7858.49
940.135	7752.96
940.442	7714.54
940.749	7663.24
941.056	7692.62
941.363	7583.7
941.67	7643.81
941.977	7544.38
942.284	7448.79
942.591	7424.61
942.898	7414.89
943.205	7392.29
943.511	7352.07
943.818	7304.38
944.125	7195.01
944.431	7173.99
944.738	7187.33
945.044	7127.21
945.35	7122.47
945.657	7064.62
945.963	7044.28
946.269	6986.43
946.575	6970.38
946.881	6918.86
947.187	6916.6
947.493	6868.24
947.799	6792.08
948.105	6727.9
948.41	6735.36
948.716	6747.11
949.022	6702.14
949.327	6649.49
949.633	6582.37
949.938	6576.72
950.244	6543.05
950.549	6436.38
950.854	6466.67
951.16	6483.16
951.465	6425.31
951.77	6398.65
952.075	6390.51
952.38	6313.45
952.685	6339.21
952.99	6244.07
953.294	6286.78
953.599	6260.12
953.904	6270.51
954.209	6182.61
954.513	6148.48
954.818	6122.27
955.122	6133.79
955.426	6110.52
955.731	6110.29
956.035	6023.06
956.339	6034.59
956.643	6048.15
956.948	6023.74
957.252	6032.55
957.556	6015.15
957.86	5988.49
958.163	5935.61
958.467	5873.69
958.771	5880.24
959.075	5869.17
959.378	5859.68
959.682	5889.28
959.985	5847.25
960.289	5773.58
960.592	5823.52
960.896	5814.48
961.199	5744.65
961.502	5711.66
961.805	5735.16
962.108	5688.16
962.411	5672.56
962.714	5639.34
963.017	5611.77
963.32	5603.41
963.623	5572.68
963.926	5531.55
964.228	5495.17
964.531	5471.66
964.833	5503.53
965.136	5436.41
965.438	5412.68
965.741	5390.76
966.043	5394.38
966.345	5327.04
966.648	5325.45
966.95	5236.42
967.252	5212.91
967.554	5212.46
967.856	5202.74
968.158	5154.61
968.46	5146.47
968.761	5118.68
969.063	5104.89
969.365	5063.54
969.666	5048.17
969.968	4931.57
970.269	4948.51
970.571	4921.4
970.872	4908.74
971.174	4887.05
971.475	4852.47
971.776	4866.03
972.077	4825.58
972.378	4827.39
972.679	4800.04
972.98	4717.11
973.281	4722.08
973.582	4738.8
973.883	4671.46
974.183	4629.2
974.484	4594.17
974.785	4584.46
975.085	4553.72
975.386	4581.74
975.686	4470.56
975.986	4452.71
976.287	4509.43
976.587	4452.71
976.887	4425.59
977.187	4357.8
977.487	4438.24
977.787	4326.84
978.087	4318.02
978.387	4312.6
978.687	4304.69
978.987	4294.97
979.286	4271.24
979.586	4252.71
979.885	4236.89
980.185	4198.25
980.484	4264.46
980.784	4192.83
981.083	4181.3
981.382	4216.33
981.682	4163.68
981.981	4139.04
982.28	4105.37
982.579	4106.5
982.878	4142.43
983.177	4054.98
983.475	4080.06
983.774	4027.86
984.073	4035.32
984.372	4050.01
984.67	4021.76
984.969	3997.35
985.267	3991.03
985.566	4000.06
985.864	3974.98
986.162	3941.76
986.461	3949.22
986.759	3904.47
987.057	3941.31
987.355	3873.74
987.653	3875.55
987.951	3838.03
988.249	3834.87
988.547	3818.15
988.844	3814.98
989.142	3757.13
989.44	3738.15
989.737	3767.08
990.035	3727.3
990.332	3718.26
990.63	3725.5
990.927	3700.19
991.224	3688.89
991.521	3640.3
991.819	3643.24
992.116	3607.31
992.413	3574.99
992.71	3567.99
993.006	3576.35
993.303	3539.51
993.6	3540.87
993.897	3483.47
994.193	3473.98
994.49	3472.39
994.787	3429.68
995.083	3390.36
995.379	3381.78
995.676	3379.06
995.972	3406.63
996.268	3327.99
996.565	3325.73
996.861	3325.28
997.157	3274.21
997.453	3262.46
997.749	3205.51
998.044	3156.47
998.34	3246.19
998.636	3141.56
998.932	3150.6
999.227	3094.55
999.523	3092.29
999.818	3077.38
1000.114	3049.58
1000.409	3031.73
1000.704	3013.88
1001	3055.23
1001.295	2982.24
1001.59	2983.59
1001.885	2968
1002.18	2967.32
1002.475	2930.26
1002.77	2934.78
1003.065	2893.2
1003.359	2886.87
1003.654	2890.94
1003.949	2871.96
1004.243	2816.37
1004.538	2801.68
1004.832	2792.41
1005.127	2751.06
1005.421	2754.9
1005.715	2754.67
1006.009	2726.43
1006.304	2713.32
1006.598	2689.14
1006.892	2697.5
1007.186	2652.53
1007.48	2685.07
1007.773	2674.22
1008.067	2620.67
1008.361	2607.56
1008.655	2596.26
1008.948	2593.55
1009.242	2601.01
1009.535	2566.43
1009.829	2543.83
1010.122	2544.28
1010.415	2550.61
1010.708	2533.44
1011.001	2555.36
1011.295	2506.77
1011.588	2511.06
1011.881	2470.39
1012.173	2485.75
1012.466	2448.69
1012.759	2448.92
1013.052	2464.74
1013.344	2431.74
1013.637	2409.37
1013.93	2410.95
1014.222	2374.12
1014.514	2386.32
1014.807	2382.71
1015.099	2335.25
1015.391	2313.78
1015.683	2333.89
1015.976	2320.11
1016.268	2299.77
1016.56	2266.55
1016.851	2259.09
1017.143	2225.2
1017.435	2244.86
1017.727	2236.04
1018.018	2215.48
1018.31	2159.66
1018.602	2158.08
1018.893	2170.06
1019.185	2146.33
1019.476	2143.16
1019.767	2125.54
1020.058	2063.62
1020.35	2086.44
1020.641	2056.39
1020.932	2048.93
1021.223	2034.69
1021.514	2024.98
1021.804	2034.24
1022.095	1991.53
1022.386	1998.99
1022.677	1984.75
1022.967	1944.98
1023.258	1915.15
1023.548	1915.6
1023.839	1886.67
1024.129	1921.02
1024.419	1909.5
1024.709	1854.36
1025	1845.77
1025.29	1840.8
1025.58	1853.45
1025.87	1818.43
1026.16	1793.79
1026.449	1810.74
1026.739	1770.29
1027.029	1730.75
1027.319	1758.09
1027.608	1734.14
1027.898	1705.66
1028.187	1687.13
1028.477	1686.68
1028.766	1689.39
1029.055	1680.35
1029.344	1642.16
1029.634	1646
1029.923	1623.18
1030.212	1616.85
1030.501	1596.51
1030.79	1604.42
1031.078	1593.12
1031.367	1548.83
1031.656	1548.6
1031.945	1535.95
1032.233	1538.89
1032.522	1537.3
1032.81	1526.68
1033.099	1523.97
1033.387	1498.66
1033.675	1500.92
1033.963	1498.44
1034.251	1467.48
1034.54	1446.46
1034.828	1428.38
1035.116	1435.61
1035.403	1457.76
1035.691	1416.4
1035.979	1398.55
1036.267	1377.08
1036.554	1378.21
1036.842	1393.35
1037.129	1397.42
1037.417	1367.59
1037.704	1350.42
1037.992	1352.68
1038.279	1351.77
1038.566	1304.09
1038.853	1304.09
1039.14	1304.09
