Data from blue_chair_FLMS001491_00048.txt Node
Date: Wed Feb 08 10:30:54 GMT 2017
User: dcchb
Spectrometer: FLMS00149
Trigger mode: 0
Integration Time (sec): 2.000000E-2
Scans to average: 10
Electric dark correction enabled: true
Nonlinearity correction enabled: false
Boxcar width: 0
XAxis mode: Wavelengths
Number of Pixels in Spectrum: 2048
>>>>>Begin Spectral Data<<<<<
341.393	-13.33
341.776	-13.33
342.16	-13.33
342.543	-45.65
342.927	-71.18
343.31	-67.79
343.693	-70.73
344.077	-62.37
344.46	-52.88
344.843	-58.53
345.226	-50.17
345.61	-26.21
345.993	-32.32
346.376	11.98
346.759	15.14
347.142	43.39
347.525	37.97
347.908	64.41
348.291	75.48
348.674	90.85
349.057	81.81
349.44	139.66
349.823	135.59
350.206	166.1
350.588	167.91
350.971	190.73
351.354	190.5
351.737	194.35
352.119	235.93
352.502	248.13
352.884	249.26
353.267	261.01
353.65	266.43
354.032	282.25
354.414	278.18
354.797	289.71
355.179	291.97
355.562	290.16
355.944	294.68
356.326	318.86
356.709	336.94
357.091	319.77
357.473	335.36
357.855	289.03
358.238	319.77
358.62	336.26
359.002	334.91
359.384	320.67
359.766	322.03
360.148	313.66
360.53	312.08
360.912	308.69
361.294	315.47
361.676	305.08
362.057	312.76
362.439	327.45
362.821	298.52
363.203	299.2
363.584	304.62
363.966	318.18
364.348	304.85
364.729	301.46
365.111	294.68
365.493	305.08
365.874	291.07
366.256	290.84
366.637	296.72
367.019	280.9
367.4	317.73
367.781	257.39
368.163	273.89
368.544	292.65
368.925	278.64
369.306	295.13
369.688	296.72
370.069	287.45
370.45	312.53
370.831	298.3
371.212	277.05
371.593	299.88
371.974	297.39
372.355	281.12
372.736	288.35
373.117	281.35
373.498	277.73
373.879	269.82
374.26	305.3
374.641	281.57
375.021	293.33
375.402	303.72
375.783	287.45
376.163	299.88
376.544	305.08
376.925	295.13
377.305	324.29
377.686	301.24
378.066	291.74
378.447	320.9
378.827	295.13
379.208	306.88
379.588	310.73
379.968	289.94
380.349	290.84
380.729	288.58
381.109	318.64
381.489	308.24
381.87	306.88
382.25	318.41
382.63	300.78
383.01	297.39
383.39	310.73
383.77	317.28
384.15	328.8
384.53	330.84
384.91	327.45
385.29	309.37
385.67	310.27
386.049	300.11
386.429	325.42
386.809	310.5
387.189	311.86
387.568	301.01
387.948	323.61
388.328	321.35
388.707	322.7
389.087	329.26
389.466	319.09
389.846	325.42
390.225	312.31
390.605	314.57
390.984	336.71
391.363	330.61
391.743	353.66
392.122	318.18
392.501	326.77
392.881	349.37
393.26	335.81
393.639	320.67
394.018	346.21
394.397	338.52
394.776	340.33
395.155	350.73
395.534	345.08
395.913	330.16
396.292	364.96
396.671	357.28
397.05	326.55
397.429	346.66
397.808	344.62
398.186	341.46
398.565	334.45
398.944	359.09
399.323	350.5
399.701	373.32
400.08	381.46
400.458	339.65
400.837	361.57
401.215	370.61
401.594	373.55
401.972	345.75
402.351	349.14
402.729	374.91
403.107	395.02
403.486	385.75
403.864	382.81
404.242	364.28
404.62	380.1
404.999	385.3
405.377	378.97
405.755	396.83
406.133	407.9
406.511	393.44
406.889	397.05
407.267	412.42
407.645	388.46
408.023	409.25
408.401	412.64
408.779	408.8
409.156	403.83
409.534	405.19
409.912	402.48
410.29	440.44
410.667	435.24
411.045	440.89
411.422	437.28
411.8	448.12
412.178	428.46
412.555	442.25
412.933	462.81
413.31	474.11
413.687	441.57
414.065	444.51
414.442	463.04
414.819	478.86
415.197	468.69
415.574	455.36
415.951	476.15
416.328	462.13
416.705	494.45
417.082	473.89
417.46	481.12
417.837	499.87
418.214	505.52
418.591	497.84
418.967	503.94
419.344	493.77
419.721	484.28
420.098	487.67
420.475	489.48
420.852	512.3
421.228	515.69
421.605	510.5
421.982	528.35
422.358	524.28
422.735	541.91
423.111	548.69
423.488	530.16
423.864	549.82
424.241	552.53
424.617	545.97
424.994	557.73
425.37	566.99
425.746	571.96
426.123	576.93
426.499	581
426.875	584.62
427.251	585.97
427.627	602.24
428.003	611.28
428.379	612.19
428.756	598.85
429.132	620.77
429.507	609.93
429.883	608.35
430.259	624.62
430.635	631.62
431.011	629.59
431.387	625.75
431.763	666.88
432.138	682.02
432.514	661.23
432.89	677.72
433.265	688.8
433.641	710.26
434.016	707.78
434.392	715.01
434.767	733.31
435.143	708
435.518	733.31
435.894	746.87
436.269	753.2
436.644	792.97
437.02	779.64
437.395	791.17
437.77	788
438.145	800.2
438.52	828.45
438.895	829.58
439.271	831.84
439.646	870.94
440.021	849.47
440.395	856.25
440.77	870.03
441.145	882.46
441.52	893.76
441.895	897.15
442.27	921.56
442.645	905.06
443.019	883.82
443.394	929.69
443.769	932.4
444.143	933.99
444.518	946.64
444.892	954.78
445.267	934.66
445.641	986.87
446.016	979.64
446.39	986.19
446.764	993.42
447.139	980.54
447.513	1004.04
447.887	1036.58
448.262	1004.49
448.636	1046.07
449.01	1047.88
449.384	1040.2
449.758	1051.95
450.132	1053.76
450.506	1059.41
450.88	1064.15
451.254	1070.71
451.628	1094.89
452.002	1070.71
452.376	1132.85
452.75	1118.61
453.123	1115.45
453.497	1131.27
453.871	1166.3
454.244	1184.83
454.618	1168.56
454.992	1207.2
455.365	1180.76
455.739	1211.72
456.112	1213.53
456.486	1237.71
456.859	1219.18
457.232	1267.09
457.606	1244.04
457.979	1272.06
458.352	1275.22
458.725	1304.82
459.099	1322.68
459.472	1354.99
459.845	1340.08
460.218	1314.77
460.591	1360.87
460.964	1373.07
461.337	1402.67
461.71	1413.3
462.083	1420.08
462.456	1452.17
462.829	1432.73
463.201	1456.23
463.574	1440.64
463.947	1491.03
464.32	1493.52
464.692	1484.93
465.065	1522.67
465.438	1556.12
465.81	1542.33
466.183	1559.06
466.555	1610.13
466.928	1571.94
467.3	1601.99
467.672	1600.86
468.045	1658.94
468.417	1650.58
468.789	1696.45
469.161	1716.34
469.534	1726.96
469.906	1730.8
470.278	1728.09
470.65	1760.41
471.022	1784.59
471.394	1796.34
471.766	1826.39
472.138	1832.49
472.51	1853.96
472.882	1900.29
473.253	1908.88
473.625	1927.18
473.997	1965.82
474.369	1940.74
474.74	1982.32
475.112	2003.11
475.484	2025.48
475.855	2046.05
476.227	2061.87
476.598	2088.98
476.97	2109.32
477.341	2134.41
477.713	2145.25
478.084	2179.15
478.455	2220.28
478.827	2220.73
479.198	2309.32
479.569	2254.63
479.94	2332.37
480.311	2357.23
480.682	2369.66
481.053	2409.88
481.424	2458.01
481.795	2486.49
482.166	2474.29
482.537	2502.99
482.908	2555.64
483.279	2563.55
483.65	2594.28
484.021	2642.87
484.391	2650.55
484.762	2690.1
485.133	2699.36
485.503	2689.19
485.874	2759.7
486.244	2790.89
486.615	2821.85
486.985	2849.42
487.356	2853.48
487.726	2858.91
488.097	2938
488.467	2886.48
488.837	2973.48
489.207	2962.18
489.578	2970.09
489.948	3049.86
490.318	3081.5
490.688	3072.91
491.058	3097.55
491.428	3138
491.798	3168.5
492.168	3147.26
492.538	3155.17
492.908	3182.97
493.278	3239.46
493.648	3230.2
494.017	3243.53
494.387	3275.39
494.757	3240.14
495.126	3276.75
495.496	3288.95
495.866	3259.35
496.235	3311.33
496.605	3313.13
496.974	3383.87
497.344	3335.51
497.713	3356.52
498.082	3341.16
498.452	3376.86
498.821	3400.59
499.19	3368.95
499.559	3377.76
499.928	3407.37
500.298	3407.59
500.667	3436.97
501.036	3410.76
501.405	3394.04
501.774	3428.84
502.143	3450.08
502.512	3424.99
502.88	3407.59
503.249	3464.32
503.618	3395.84
503.987	3420.48
504.356	3452.11
504.724	3454.82
505.093	3468.84
505.462	3410.08
505.83	3412.57
506.199	3420.93
506.567	3530.3
506.936	3462.06
507.304	3501.38
507.672	3481.72
508.041	3495.73
508.409	3515.84
508.777	3506.57
509.145	3469.29
509.514	3471.32
509.882	3468.61
510.25	3491.66
510.618	3486.46
510.986	3485.78
511.354	3470.19
511.722	3478.33
512.09	3513.58
512.458	3481.26
512.826	3459.34
513.193	3495.28
513.561	3460.47
513.929	3482.39
514.297	3473.58
514.664	3492.11
515.032	3457.99
515.4	3468.16
515.767	3490.53
516.135	3447.59
516.502	3469.97
516.869	3455.5
517.237	3472.9
517.604	3425.9
517.972	3432.9
518.339	3426.8
518.706	3393.81
519.073	3407.14
519.44	3442.17
519.808	3410.31
520.175	3405.56
520.542	3433.13
520.909	3411.66
521.276	3374.37
521.643	3389.97
522.009	3427.03
522.376	3408.05
522.743	3428.38
523.11	3387.71
523.477	3417.99
523.843	3431.32
524.21	3410.76
524.577	3378.22
524.943	3390.65
525.31	3401.72
525.676	3406.92
526.043	3383.64
526.409	3390.42
526.776	3378.22
527.142	3356.97
527.508	3384.09
527.874	3374.37
528.241	3394.26
528.607	3329.86
528.973	3393.58
529.339	3338.9
529.705	3356.75
530.071	3361.95
530.437	3340.48
530.803	3363.75
531.169	3318.56
531.535	3321.72
531.901	3301.16
532.267	3324.43
532.632	3319.91
532.998	3330.76
533.364	3306.35
533.73	3304.77
534.095	3275.39
534.461	3300.48
534.826	3309.29
535.192	3305.9
535.557	3297.77
535.923	3228.39
536.288	3287.15
536.653	3231.78
537.019	3255.51
537.384	3231.55
537.749	3195.4
538.114	3192.91
538.479	3182.29
538.845	3144.32
539.21	3173.48
539.575	3167.37
539.94	3133.93
540.305	3139.13
540.67	3120.6
541.034	3143.42
541.399	3098
541.764	3076.08
542.129	3076.53
542.494	3043.76
542.858	3031.56
543.223	3080.15
543.587	3058.68
543.952	3086.25
544.316	3039.47
544.681	3016.19
545.045	2984.55
545.41	2986.36
545.774	2967.61
546.138	2959.92
546.503	2962.41
546.867	2980.03
547.231	2959.24
547.595	2921.28
547.959	2933.03
548.324	2937.55
548.688	2896.2
549.052	2871.11
549.416	2858.91
549.779	2849.64
550.143	2874.73
550.507	2829.08
550.871	2842.86
551.235	2845.8
551.599	2829.08
551.962	2819.13
552.326	2825.01
552.689	2778.46
553.053	2783.43
553.417	2819.36
553.78	2765.13
554.143	2789.53
554.507	2756.31
554.87	2789.08
555.234	2773.26
555.597	2721.51
555.96	2750.89
556.323	2740.94
556.686	2708.18
557.05	2720.15
557.413	2731
557.776	2742.75
558.139	2726.03
558.502	2689.42
558.865	2735.97
559.228	2698.46
559.59	2693.04
559.953	2660.72
560.316	2694.84
560.679	2713.83
561.041	2681.74
561.404	2682.42
561.767	2680.16
562.129	2689.65
562.492	2680.61
562.854	2692.58
563.217	2665.92
563.579	2666.37
563.941	2708.63
564.304	2675.64
564.666	2707.27
565.028	2698.91
565.39	2685.35
565.753	2677.9
566.115	2705.24
566.477	2718.8
566.839	2710.66
567.201	2687.16
567.563	2680.38
567.925	2682.87
568.287	2724.22
568.648	2704.79
569.01	2720.83
569.372	2730.32
569.734	2748.85
570.095	2721.74
570.457	2706.14
570.819	2701.4
571.18	2726.26
571.542	2754.73
571.903	2737.56
572.265	2791.79
572.626	2739.81
572.987	2802.19
573.349	2804.45
573.71	2808.74
574.071	2800.15
574.432	2812.81
574.794	2829.3
575.155	2822.75
575.516	2837.21
575.877	2795.41
576.238	2825.01
576.599	2849.87
576.96	2847.61
577.32	2838.8
577.681	2858.68
578.042	2875.18
578.403	2842.86
578.763	2858.91
579.124	2858.91
579.485	2866.82
579.845	2887.83
580.206	2920.38
580.566	2861.62
580.927	2921.28
581.287	2922.18
581.648	2918.34
582.008	2929.19
582.368	2938.68
582.728	2916.53
583.089	2927.15
583.449	2910.88
583.809	2939.36
584.169	2954.72
584.529	2930.32
584.889	2953.14
585.249	2958.11
585.609	2935.97
585.969	2975.97
586.329	2941.62
586.688	2969.87
587.048	2968.74
587.408	2994.95
587.768	2927.61
588.127	2997.66
588.487	2946.82
588.846	2994.05
589.206	2939.81
589.565	2990.66
589.925	2976.64
590.284	2979.36
590.643	2995.4
591.003	2990.2
591.362	2955.85
591.721	3000.15
592.08	2975.97
592.44	3023.88
592.799	2986.59
593.158	2996.53
593.517	2996.98
593.876	2973.48
594.235	2953.59
594.593	2959.7
594.952	2957.89
595.311	2956.53
595.67	2977.55
596.029	2973.71
596.387	2992.92
596.746	3014.84
597.104	2983.65
597.463	2951.56
597.822	2959.92
598.18	2946.36
598.538	2948.17
598.897	2975.51
599.255	2935.29
599.613	2999.7
599.972	2982.52
600.33	2991.56
600.688	3019.81
601.046	2973.03
601.404	2936.42
601.762	2980.03
602.12	3012.12
602.478	2998.34
602.836	2998.34
603.194	2931.9
603.552	3006.47
603.91	3021.62
604.268	3010.99
604.625	2959.47
604.983	2943.43
605.341	2967.61
605.698	2968.96
606.056	3011.45
606.413	2988.4
606.771	2972.13
607.128	2967.15
607.485	2979.13
607.843	2991.56
608.2	2997.44
608.557	2973.03
608.914	2985.01
609.272	3022.07
609.629	2985.46
609.986	3004.67
610.343	3003.99
610.7	3002.41
611.057	2969.87
611.414	3023.88
611.771	2993.82
612.127	2965.57
612.484	3008.51
612.841	3004.44
613.198	2971
613.554	2971.45
613.911	2986.59
614.267	3046.47
614.624	3018.45
614.98	2997.66
615.337	3030.88
615.693	3004.44
616.05	3050.99
616.406	3053.93
616.762	3032.24
617.118	3047.15
617.475	3030.88
617.831	3069.3
618.187	3051.45
618.543	3048.96
618.899	3071.33
619.255	3052.35
619.611	3074.95
619.967	3048.06
620.323	3028.85
620.678	3037.66
621.034	3045.57
621.39	3001.73
621.746	3012.8
622.101	3070.88
622.457	3038.34
622.812	3046.7
623.168	3027.27
623.523	3032.01
623.879	3049.64
624.234	3053.25
624.589	3041.28
624.945	3011.9
625.3	3060.48
625.655	3044.67
626.01	3067.49
626.365	3030.2
626.72	3044.44
627.075	3040.15
627.43	3052.12
627.785	3040.82
628.14	3047.83
628.495	3025.91
628.85	3061.16
629.205	3017.1
629.559	3076.76
629.914	3030.2
630.269	2997.21
630.623	3018.45
630.978	3020.94
631.332	3071.78
631.687	3025.91
632.041	3011.9
632.396	2994.27
632.75	3018.68
633.104	3060.94
633.459	3000.6
633.813	3010.77
634.167	3014.38
634.521	2975.29
634.875	3009.64
635.229	2958.57
635.583	2995.85
635.937	3022.07
636.291	3034.72
636.645	2985.46
636.999	2981.84
637.352	3013.25
637.706	2983.88
638.06	3024.78
638.413	2982.75
638.767	2976.64
639.121	3036.98
639.474	2985.68
639.828	2973.71
640.181	3003.76
640.534	2956.53
640.888	2956.31
641.241	3004.89
641.594	2981.62
641.947	2981.84
642.301	2970.54
642.654	3015.51
643.007	2971.22
643.36	2957.21
643.713	2949.53
644.066	2995.18
644.419	2971.45
644.771	2935.29
645.124	2953.14
645.477	2955.4
645.83	2880.15
646.182	2909.3
646.535	2881.96
646.888	2891
647.24	2883.09
647.593	2886.7
647.945	2907.04
648.298	2869.98
648.65	2898
649.002	2901.62
649.355	2879.47
649.707	2922.86
650.059	2929.41
650.411	2932.58
650.763	2941.84
651.115	2996.53
651.467	2950.2
651.819	2952.92
652.171	2978.9
652.523	2945.91
652.875	2949.75
653.227	2928.74
653.578	2956.08
653.93	2926.7
654.282	2950.88
654.633	2949.3
654.985	2939.36
655.337	2955.85
655.688	2966.7
656.039	2944.78
656.391	2928.96
656.742	2969.19
657.094	2966.93
657.445	2961.96
657.796	2962.18
658.147	2962.18
658.498	2951.56
658.849	2979.81
659.2	2952.01
659.551	2939.58
659.902	2992.24
660.253	3005.12
660.604	2975.97
660.955	2991.79
661.306	3011.9
661.656	2956.98
662.007	2980.03
662.358	3014.38
662.708	2959.24
663.059	2984.1
663.409	2973.03
663.76	2997.21
664.11	2999.7
664.461	2965.8
664.811	2982.75
665.161	2999.02
665.511	2985.68
665.862	2970.32
666.212	3000.83
666.562	2978.23
666.912	2963.99
667.262	3005.57
667.612	3018.68
667.962	2973.48
668.312	2930.09
668.662	3006.7
669.011	2940.26
669.361	2950.66
669.711	3005.34
670.06	2988.85
670.41	2970.09
670.76	2985.91
671.109	2961.28
671.459	2947.04
671.808	2970.32
672.157	2959.7
672.507	2970.09
672.856	2925.12
673.205	2905.01
673.554	2898.45
673.904	2946.14
674.253	2975.74
674.602	2896.87
674.951	2888.51
675.3	2861.39
675.649	2905.46
675.998	2905.46
676.346	2904.78
676.695	2891.68
677.044	2818.01
677.393	2909.53
677.741	2906.59
678.09	2879.7
678.438	2885.12
678.787	2909.08
679.135	2867.04
679.484	2827.95
679.832	2839.25
680.181	2808.29
680.529	2858.46
680.877	2832.69
681.225	2846.93
681.573	2848.74
681.922	2832.02
682.27	2840.6
682.618	2843.77
682.966	2869.76
683.314	2841.28
683.661	2795.86
684.009	2815.52
684.357	2788.18
684.705	2788.63
685.053	2798.57
685.4	2768.51
685.748	2761.51
686.095	2781.17
686.443	2763.32
686.79	2773.03
687.138	2789.08
687.485	2748.85
687.832	2766.25
688.18	2735.3
688.527	2733.94
688.874	2703.21
689.221	2681.96
689.568	2671.12
689.915	2716.99
690.262	2697.1
690.609	2678.8
690.956	2664.34
691.303	2683.55
691.65	2672.25
691.997	2678.8
692.344	2640.61
692.69	2663.43
693.037	2590.67
693.383	2617.56
693.73	2636.77
694.077	2614.62
694.423	2618.69
694.769	2600.61
695.116	2613.04
695.462	2578.69
695.808	2546.6
696.155	2558.8
696.501	2564.45
696.847	2588.63
697.193	2540.27
697.539	2560.38
697.885	2551.8
698.231	2559.25
698.577	2513.83
698.923	2524.91
699.269	2475.42
699.614	2509.09
699.96	2467.51
700.306	2518.8
700.651	2468.86
700.997	2453.04
701.342	2490.1
701.688	2465.7
702.033	2464.57
702.379	2479.71
702.724	2465.92
703.069	2463.21
703.415	2457.79
703.76	2411.46
704.105	2454.62
704.45	2456.66
704.795	2444.91
705.14	2415.53
705.485	2427.51
705.83	2424.57
706.175	2420.05
706.52	2417.56
706.865	2407.62
707.209	2400.84
707.554	2426.83
707.899	2420.95
708.243	2434.06
708.588	2381.18
708.932	2413.04
709.277	2413.27
709.621	2435.64
709.966	2398.36
710.31	2406.26
710.654	2409.2
710.998	2443.33
711.342	2394.06
711.687	2426.83
712.031	2402.65
712.375	2409.2
712.719	2408.52
713.063	2416.66
713.407	2402.87
713.75	2409.65
714.094	2424.12
714.438	2401.74
714.782	2394.97
715.125	2424.8
715.469	2446.49
715.812	2421.63
716.156	2395.64
716.499	2422.54
716.843	2454.85
717.186	2431.57
717.53	2427.51
717.873	2414.85
718.216	2448.3
718.559	2437.45
718.902	2439.48
719.246	2464.79
719.589	2468.86
719.932	2409.43
720.275	2459.14
720.617	2480.61
720.96	2471.57
721.303	2475.87
721.646	2466.83
721.989	2461.86
722.331	2426.15
722.674	2494.85
723.016	2470.22
723.359	2521.29
723.701	2511.12
724.044	2456.66
724.386	2512.48
724.729	2479.93
725.071	2562.42
725.413	2557.67
725.755	2516.77
726.097	2533.94
726.439	2553.61
726.782	2560.38
727.124	2577.11
727.465	2564
727.807	2534.62
728.149	2593.15
728.491	2560.84
728.833	2576.88
729.175	2578.46
729.516	2635.41
729.858	2623.43
730.199	2619.37
730.541	2629.08
730.882	2650.33
731.224	2641.51
731.565	2677.22
731.906	2682.87
732.248	2690.78
732.589	2649.2
732.93	2636.09
733.271	2675.64
733.612	2685.81
733.953	2667.73
734.294	2653.04
734.635	2700.04
734.976	2700.72
735.317	2736.88
735.658	2702.3
735.999	2733.71
736.339	2769.19
736.68	2785.01
737.021	2772.58
737.361	2826.82
737.702	2847.83
738.042	2852.13
738.383	2857.78
738.723	2879.25
739.063	2886.25
739.404	2883.77
739.744	2925.8
740.084	2905.01
740.424	2970.32
740.764	2961.73
741.104	2960.15
741.444	3004.44
741.784	3028.39
742.124	3045.8
742.464	3085.79
742.804	3103.2
743.143	3150.88
743.483	3190.2
743.823	3171.44
744.162	3219.58
744.502	3244.89
744.841	3284.89
745.181	3345.22
745.52	3318.56
745.86	3359.91
746.199	3389.29
746.538	3444.43
746.877	3508.16
747.216	3512
747.556	3546.12
747.895	3612.56
748.234	3646.46
748.573	3664.31
748.911	3718.32
749.25	3829.05
749.589	3840.8
749.928	3887.13
750.267	3973.23
750.605	4012.55
750.944	4062.94
751.283	4094.13
751.621	4175.03
751.96	4201.7
752.298	4300.23
752.636	4413.67
752.975	4448.02
753.313	4467
753.651	4634.45
753.989	4663.38
754.327	4725.98
754.666	4765.07
755.004	4853.43
755.342	4970.94
755.679	4975.24
756.017	5101.33
756.355	5234.44
756.693	5259.3
757.031	5367.99
757.368	5485.05
757.706	5535
758.044	5576.58
758.381	5739.74
758.719	5803.24
759.056	5898.6
759.394	6000.97
759.731	5981.99
760.068	6169.1
760.405	6265.37
760.743	6300.17
761.08	6390.79
761.417	6484.35
761.754	6634.63
762.091	6635.53
762.428	6704.91
762.765	6729.09
763.102	6861.97
763.438	6951.68
763.775	7041.4
764.112	7115.29
764.449	7223.99
764.785	7306.02
765.122	7332.01
765.458	7395.06
765.795	7542.4
766.131	7566.81
766.467	7582.63
766.804	7692.68
767.14	7715.96
767.476	7833.92
767.812	7868.95
768.148	7949.4
768.485	8030.52
768.821	8032.33
769.157	8103.97
769.492	8197.75
769.828	8264.87
770.164	8227.81
770.5	8329.95
770.836	8327.69
771.171	8425.77
771.507	8492.43
771.842	8455.82
772.178	8498.31
772.513	8562.49
772.849	8607.68
773.184	8617.4
773.519	8661.47
773.855	8657.63
774.19	8641.13
774.525	8746.21
774.86	8797.28
775.195	8795.02
775.53	8860.78
775.865	8896.26
776.2	8852.2
776.535	8796.83
776.87	8873.21
777.205	8796.6
777.539	8812.2
777.874	8905.08
778.209	8899.43
778.543	8889.48
778.878	8920.44
779.212	8952.08
779.547	8925.87
779.881	9036.82
780.215	8956.83
780.55	9014.9
780.884	9030.95
781.218	9024.85
781.552	9094
781.886	9050.61
782.22	9009.71
782.554	8998.18
782.888	8915.02
783.222	8978.52
783.556	8974.68
783.889	8996.37
784.223	9016.03
784.557	8984.4
784.89	9033.21
785.224	8969.71
785.557	8977.84
785.891	8960.44
786.224	9034.56
786.558	9018.97
786.891	8944.85
787.224	8933.55
787.557	8979.2
787.891	8950.05
788.224	8989.82
788.557	8980.1
788.89	8938.3
789.223	8978.29
789.556	8919.54
789.888	8965.87
790.221	8898.07
790.554	8869.6
790.887	8879.99
791.219	8869.15
791.552	8884.51
791.884	8812.42
792.217	8826.43
792.549	8830.95
792.882	8854.46
793.214	8828.02
793.546	8892.42
793.879	8838.86
794.211	8750.5
794.543	8751.86
794.875	8752.09
795.207	8821.46
795.539	8727
795.871	8774.23
796.203	8735.36
796.535	8695.82
796.867	8676.61
797.198	8691.97
797.53	8662.37
797.862	8613.56
798.193	8625.54
798.525	8578.98
798.856	8719.54
799.188	8502.38
799.519	8506.89
799.85	8527.23
800.182	8537.85
800.513	8582.83
800.844	8450.63
801.175	8496.5
801.506	8482.49
801.837	8482.26
802.168	8496.27
802.499	8432.55
802.83	8437.52
803.161	8388.25
803.491	8410.63
803.822	8335.83
804.153	8367.46
804.483	8353
804.814	8269.84
805.145	8271.87
805.475	8332.21
805.805	8336.5
806.136	8249.73
806.466	8357.29
806.796	8260.12
807.126	8235.26
807.457	8236.62
807.787	8237.3
808.117	8214.93
808.447	8157.53
808.777	8160.46
809.107	8185.32
809.436	8155.27
809.766	8204.98
810.096	8123.4
810.426	8136.96
810.755	8178.32
811.085	8156.85
811.414	8073.23
811.744	8108.71
812.073	8052.44
812.403	8083.86
812.732	8043.4
813.061	8066.68
813.39	7934.93
813.719	7972.67
814.049	7993.69
814.378	8024.87
814.707	7942.16
815.036	7985.33
815.365	7958.89
815.693	7924.54
816.022	7834.14
816.351	7828.49
816.68	7840.47
817.008	7886.35
817.337	7799.79
817.665	7818.1
817.994	7806.12
818.322	7833.69
818.651	7764.99
818.979	7764.54
819.307	7819.23
819.636	7745.33
819.964	7710.53
820.292	7779.23
820.62	7685.67
820.948	7742.62
821.276	7772
821.604	7798.44
821.932	7786.01
822.259	7763.41
822.587	7757.31
822.915	7762.73
823.243	7752.56
823.57	7770.19
823.898	7732.45
824.225	7745.33
824.553	7802.28
824.88	7790.98
825.207	7804.09
825.535	7798.44
825.862	7766.12
826.189	7761.38
826.516	7874.82
826.843	7831.21
827.17	7828.49
827.497	7863.3
827.824	7859.91
828.151	7812
828.478	7839.12
828.805	7866.01
829.131	7880.7
829.458	7840.02
829.785	7820.59
830.111	7856.06
830.438	7890.19
830.764	7932.45
831.09	7852.67
831.417	7811.09
831.743	7808.38
832.069	7889.06
832.395	7837.31
832.722	7927.02
833.048	7812.45
833.374	7858.78
833.7	7787.59
834.026	7754.15
834.351	7830.75
834.677	7805.44
835.003	7822.62
835.329	7836.63
835.654	7827.59
835.98	7768.84
836.306	7845.9
836.631	7790.3
836.956	7815.39
837.282	7761.15
837.607	7748.72
837.932	7728.61
838.258	7778.78
838.583	7726.58
838.908	7673.02
839.233	7714.6
839.558	7684.54
839.883	7664.88
840.208	7614.26
840.533	7696.97
840.858	7646.35
841.182	7704.88
841.507	7611.78
841.832	7680.25
842.156	7607.48
842.481	7607.26
842.805	7625.34
843.13	7586.02
843.454	7601.16
843.778	7504.44
844.103	7569.29
844.427	7565.9
844.751	7510.09
845.075	7509.63
845.399	7469.86
845.723	7445.91
846.047	7420.6
846.371	7363.65
846.695	7347.38
847.019	7325.23
847.343	7234.84
847.666	7296.98
847.99	7255.63
848.313	7239.13
848.637	7186.25
848.96	7206.36
849.284	7159.13
849.607	7128.17
849.931	7127.04
850.254	6997.78
850.577	7015.41
850.9	6943.09
851.223	6997.56
851.546	6988.97
851.869	6883.43
852.192	6989.87
852.515	6860.84
852.838	6865.58
853.161	6874.17
853.483	6802.76
853.806	6821.29
854.129	6788.3
854.451	6780.61
854.774	6723.44
855.096	6758.47
855.419	6659.71
855.741	6719.15
856.063	6654.06
856.385	6629.2
856.708	6671.91
857.03	6650.67
857.352	6607.96
857.674	6519.15
857.996	6516.21
858.318	6547.17
858.64	6546.27
858.961	6494.52
859.283	6514.86
859.605	6445.48
859.926	6487.06
860.248	6407.74
860.57	6478.47
860.891	6463.33
861.212	6421.3
861.534	6411.81
861.855	6330.68
862.176	6381.98
862.498	6299.04
862.819	6408.87
863.14	6306.05
863.461	6314.86
863.782	6374.07
864.103	6329.33
864.424	6284.35
864.745	6353.51
865.065	6325.71
865.386	6276.9
865.707	6254.07
866.027	6205.71
866.348	6237.12
866.668	6225.6
866.989	6226.73
867.309	6203
867.63	6158.71
867.95	6208.2
868.27	6146.05
868.59	6223.11
868.91	6169.33
869.23	6180.4
869.55	6153.06
869.87	6181.76
870.19	6142.89
870.51	6108.54
870.83	6159.61
871.15	6059.95
871.469	6143.12
871.789	6116
872.109	6077.81
872.428	6044.59
872.748	6050.69
873.067	6043.68
873.386	6046.17
873.706	6072.38
874.025	6005.27
874.344	6017.02
874.663	6020.86
874.982	5958.49
875.301	6020.86
875.62	5954.65
875.939	6011.82
876.258	5930.92
876.577	6023.12
876.896	6007.53
877.214	5930.01
877.533	5945.61
877.852	5952.16
878.17	5944.25
878.489	5938.37
878.807	5927.98
879.125	5894.99
879.444	5903.35
879.762	5884.59
880.08	5902.22
880.398	5838.49
880.716	5850.47
881.034	5794.42
881.352	5847.53
881.67	5813.41
881.988	5802.33
882.306	5801.88
882.624	5830.81
882.941	5730.7
883.259	5749.23
883.577	5735.44
883.894	5696.57
884.212	5717.59
884.529	5672.17
884.846	5607.54
885.164	5669.46
885.481	5641.66
885.798	5701.54
886.115	5638.04
886.432	5654.54
886.75	5658.38
887.067	5613.19
887.383	5585.39
887.7	5570.02
888.017	5549.68
888.334	5590.14
888.651	5499.74
888.967	5482.79
889.284	5480.31
889.6	5514.43
889.917	5433.08
890.233	5415.45
890.55	5431.5
890.866	5481.89
891.182	5437.82
891.498	5405.28
891.815	5369.12
892.131	5330.48
892.447	5356.24
892.763	5345.62
893.079	5322.35
893.395	5261.33
893.71	5286.19
894.026	5295.91
894.342	5224.04
894.657	5219.3
894.973	5245.96
895.289	5234.66
895.604	5223.82
895.92	5176.59
896.235	5105.63
896.55	5141.11
896.865	5128.68
897.181	5066.53
897.496	5099.53
897.811	5061.34
898.126	5079.64
898.441	5052.3
898.756	5011.85
899.071	4997.38
899.386	5024.95
899.7	4981.34
900.015	4966.42
900.33	4915.8
900.644	4901.57
900.959	4929.59
901.273	4893.88
901.588	4861.57
901.902	4790.38
902.216	4829.7
902.531	4843.94
902.845	4795.81
903.159	4762.81
903.473	4728.24
903.787	4745.41
904.101	4719.88
904.415	4717.39
904.729	4694.34
905.042	4637.39
905.356	4674.68
905.67	4606.88
905.984	4617.05
906.297	4629.93
906.611	4593.33
906.924	4615.02
907.237	4580.67
907.551	4563.04
907.864	4560.78
908.177	4498.86
908.491	4477.17
908.804	4487.34
909.117	4461.58
909.43	4436.27
909.743	4407.34
910.056	4355.37
910.368	4415.03
910.681	4403.05
910.994	4346.78
911.307	4332.77
911.619	4303.84
911.932	4331.19
912.244	4240.34
912.557	4279.66
912.869	4278.98
913.181	4235.59
913.494	4263.16
913.806	4191.53
914.118	4158.76
914.43	4113.11
914.742	4182.71
915.054	4097.29
915.366	4121.25
915.678	4129.61
915.99	4075.37
916.302	4064.07
916.613	4089.61
916.925	4047.13
917.236	4020.91
917.548	4022.49
917.859	3986.11
918.171	4030.85
918.482	3954.7
918.794	3962.83
919.105	3928.94
919.416	3915.38
919.727	3955.15
920.038	3906.34
920.349	3899.11
920.66	3881.03
920.971	3880.35
921.282	3855.04
921.593	3854.36
921.903	3772.33
922.214	3747.47
922.525	3791.99
922.835	3754.93
923.146	3727.81
923.456	3728.26
923.767	3724.2
924.077	3742.27
924.387	3639.23
924.697	3690.98
925.008	3681.03
925.318	3660.24
925.628	3608.94
925.938	3646.46
926.248	3616.85
926.558	3604.65
926.867	3587.48
927.177	3586.57
927.487	3573.47
927.796	3511.77
928.106	3523.52
928.416	3550.42
928.725	3506.57
929.034	3472.23
929.344	3475.84
929.653	3482.85
929.962	3459.34
930.271	3463.64
930.581	3448.72
930.89	3379.57
931.199	3377.76
931.508	3418.22
931.817	3413.7
932.125	3376.63
932.434	3363.53
932.743	3337.77
933.051	3342.06
933.36	3321.95
933.669	3302.06
933.977	3289.18
934.286	3274.72
934.594	3266.81
934.902	3255.96
935.21	3258.9
935.519	3223.42
935.827	3255.51
936.135	3210.54
936.443	3173.25
936.751	3159.69
937.059	3146.36
937.367	3125.34
937.674	3161.5
937.982	3086.25
938.29	3099.58
938.597	3123.53
938.905	3068.85
939.213	3074.04
939.52	3062.74
939.827	3045.8
940.135	3031.11
940.442	2991.33
940.749	3049.19
941.056	2977.55
941.363	2967.83
941.67	2947.27
941.977	2942.52
942.284	2970.54
942.591	2963.31
942.898	2957.44
943.205	2901.84
943.511	2942.52
943.818	2904.1
944.125	2852.13
944.431	2880.15
944.738	2879.25
945.044	2899.58
945.35	2868.4
945.657	2825.24
945.963	2818.01
946.269	2808.97
946.575	2754.05
946.881	2766.25
947.187	2778.46
947.493	2714.5
947.799	2715.41
948.105	2718.35
948.41	2740.72
948.716	2739.81
949.022	2701.62
949.327	2694.17
949.633	2700.72
949.938	2696.65
950.244	2665.92
950.549	2659.14
950.854	2650.55
951.16	2629.76
951.465	2611.68
951.77	2622.08
952.075	2605.36
952.38	2582.98
952.685	2571.23
952.99	2555.87
953.294	2548.18
953.599	2535.98
953.904	2544.11
954.209	2508.41
954.513	2531.46
954.818	2508.63
955.122	2500.95
955.426	2519.93
955.731	2462.99
956.035	2439.48
956.339	2439.26
956.643	2476.09
956.948	2444.68
957.252	2438.58
957.556	2419.15
957.86	2406.94
958.163	2414.63
958.467	2381.63
958.771	2406.04
959.075	2369.66
959.378	2365.59
959.682	2349.77
959.985	2376.21
960.289	2341.86
960.592	2315.19
960.896	2307.06
961.199	2290.34
961.502	2300.5
961.805	2342.09
962.108	2266.61
962.411	2274.06
962.714	2251.47
963.017	2272.93
963.32	2255.53
963.623	2247.17
963.926	2220.51
964.228	2235.65
964.531	2226.83
964.833	2206.72
965.136	2209.43
965.438	2166.95
965.741	2215.08
966.043	2157.23
966.345	2171.69
966.648	2152.26
966.95	2158.59
967.252	2108.87
967.554	2141.64
967.856	2131.7
968.158	2096.22
968.46	2088.53
968.761	2074.52
969.063	2083.11
969.365	2078.59
969.666	2061.19
969.968	2057.57
970.269	2070
970.571	2064.35
970.872	2043.56
971.174	2025.03
971.475	2024.35
971.776	1999.27
972.077	2011.25
972.378	1990
972.679	1995.43
972.98	1990.91
973.281	1965.82
973.582	1986.16
973.883	1947.75
974.183	1957.01
974.484	1943.45
974.785	1930.57
975.085	1953.85
975.386	1932.6
975.686	1915.66
975.986	1914.3
976.287	1895.54
976.587	1880.63
976.887	1878.14
977.187	1866.39
977.487	1869.1
977.787	1837.24
978.087	1855.32
978.387	1862.32
978.687	1847.64
978.987	1825.71
979.286	1806.05
979.586	1821.65
979.885	1787.98
980.185	1780.74
980.484	1785.26
980.784	1793.85
981.083	1765.38
981.382	1776.9
981.682	1785.49
981.981	1744.81
982.28	1750.69
982.579	1735.1
982.878	1728.54
983.177	1744.13
983.475	1695.1
983.774	1701.65
984.073	1693.06
984.372	1714.31
984.67	1700.75
984.969	1683.8
985.267	1680.63
985.566	1703.91
985.864	1641.99
986.162	1657.81
986.461	1673.18
986.759	1644.48
987.057	1639.28
987.355	1636.34
987.653	1592.95
987.951	1622.56
988.249	1566.06
988.547	1581.88
988.844	1587.08
989.142	1589.56
989.44	1582.11
989.737	1573.74
990.035	1561.99
990.332	1562.44
990.63	1572.61
990.927	1547.08
991.224	1541.43
991.521	1543.91
991.819	1533.52
992.116	1521.54
992.413	1549.79
992.71	1511.37
993.006	1520.19
993.303	1499.17
993.6	1497.59
993.897	1463.01
994.193	1504.37
994.49	1470.02
994.787	1442.22
995.083	1434.99
995.379	1466.63
995.676	1437.48
995.972	1430.02
996.268	1430.92
996.565	1417.59
996.861	1447.65
997.157	1399.29
997.453	1398.61
997.749	1399.74
998.044	1387.99
998.34	1392.28
998.636	1397.25
998.932	1374.65
999.227	1361.55
999.523	1351.6
999.818	1346.18
1000.114	1339.63
1000.409	1339.17
1000.704	1358.16
1001	1343.47
1001.295	1319.06
1001.59	1329.23
1001.885	1342.34
1002.18	1302.56
1002.475	1284.26
1002.77	1308.21
1003.065	1274.77
1003.359	1286.52
1003.654	1267.99
1003.949	1253.07
1004.243	1258.05
1004.538	1249.46
1004.832	1262.57
1005.127	1266.86
1005.421	1246.97
1005.715	1250.81
1006.009	1233.19
1006.304	1186.64
1006.598	1220.31
1006.892	1212.17
1007.186	1194.54
1007.48	1194.09
1007.773	1172.4
1008.067	1175.34
1008.361	1192.74
1008.655	1191.83
1008.948	1154.32
1009.242	1136.24
1009.535	1154.32
1009.829	1131.95
1010.122	1141.89
1010.415	1114.32
1010.708	1140.99
1011.001	1125.17
1011.295	1151.83
1011.588	1125.39
1011.881	1105.51
1012.173	1078.16
1012.466	1102.34
1012.759	1067.54
1013.052	1076.58
1013.344	1086.98
1013.637	1072.06
1013.93	1065.06
1014.222	1065.96
1014.514	1042.68
1014.807	1048.79
1015.099	1028
1015.391	1031.84
1015.683	1051.95
1015.976	1038.84
1016.268	1026.41
1016.56	1025.06
1016.851	1010.59
1017.143	1031.16
1017.435	1006.3
1017.727	994.55
1018.018	989.8
1018.31	988
1018.602	1013.53
1018.893	964.27
1019.185	962.91
1019.476	966.3
1019.767	990.93
1020.058	953.42
1020.35	941.9
1020.641	931.95
1020.932	915.91
1021.223	930.37
1021.514	915
1021.804	911.39
1022.095	938.05
1022.386	924.04
1022.677	892.86
1022.967	911.16
1023.258	882.69
1023.548	897.15
1023.839	905.29
1024.129	886.76
1024.419	854.21
1024.709	852.41
1025	866.64
1025.29	863.71
1025.58	903.48
1025.87	851.05
1026.16	856.25
1026.449	846.31
1026.739	842.69
1027.029	861.9
1027.319	830.49
1027.608	832.07
1027.898	808.57
1028.187	827.77
1028.477	830.94
1028.766	806.53
1029.055	807.89
1029.344	804.5
1029.634	810.83
1029.923	768.79
1030.212	770.38
1030.501	782.13
1030.79	777.15
1031.078	761.79
1031.367	748
1031.656	745.52
1031.945	750.49
1032.233	765.63
1032.522	727.66
1032.81	755.23
1033.099	724.05
1033.387	743.48
1033.675	723.82
1033.963	722.69
1034.251	742.81
1034.54	732.86
1034.828	709.13
1035.116	711.39
1035.403	726.08
1035.691	716.82
1035.979	683.37
1036.267	699.19
1036.554	691.51
1036.842	702.81
1037.129	691.06
1037.417	710.26
1037.704	682.92
1037.992	679.53
1038.279	688.12
1038.566	699.87
1038.853	699.87
1039.14	699.87
