Data from blue_shiny_book_FLMS001491_00074.txt Node
Date: Wed Feb 08 15:27:31 GMT 2017
User: dcchb
Spectrometer: FLMS00149
Trigger mode: 0
Integration Time (sec): 2.000000E-2
Scans to average: 10
Electric dark correction enabled: true
Nonlinearity correction enabled: false
Boxcar width: 0
XAxis mode: Wavelengths
Number of Pixels in Spectrum: 2048
>>>>>Begin Spectral Data<<<<<
341.393	-4.17
341.776	-4.17
342.16	-4.17
342.543	-55.01
342.927	-71.96
343.31	-75.13
343.693	-61.79
344.077	-59.08
344.46	-59.31
344.843	-41.68
345.226	-60.89
345.61	-31.51
345.993	-23.83
346.376	-16.82
346.759	29.05
347.142	27.7
347.525	29.05
347.908	53.01
348.291	89.62
348.674	95.72
349.057	105.89
349.44	100.24
349.823	147.24
350.206	146.79
350.588	194.25
350.971	221.82
351.354	234.47
351.737	243.74
352.119	237.41
352.502	257.52
352.884	270.4
353.267	287.35
353.65	297.07
354.032	313.11
354.414	318.54
354.797	314.92
355.179	304.75
355.562	324.64
355.944	317.18
356.326	325.09
356.709	352.21
357.091	320.34
357.473	344.07
357.855	350.17
358.238	340.91
358.62	342.49
359.002	345.43
359.384	330.51
359.766	351.76
360.148	351.98
360.53	368.7
360.912	335.03
361.294	342.72
361.676	339.33
362.057	330.74
362.439	324.86
362.821	312.89
363.203	328.48
363.584	324.41
363.966	321.7
364.348	316.5
364.729	320.12
365.111	312.89
365.493	321.47
365.874	313.79
366.256	308.59
366.637	314.47
367.019	311.76
367.4	342.94
367.781	315.6
368.163	323.96
368.544	314.47
368.925	308.14
369.306	321.93
369.688	318.08
370.069	318.31
370.45	333.45
370.831	294.58
371.212	297.29
371.593	320.12
371.974	317.41
372.355	317.18
372.736	310.85
373.117	326.22
373.498	336.16
373.879	329.61
374.26	306.11
374.641	335.71
375.021	329.38
375.402	301.36
375.783	303.4
376.163	338.88
376.544	362.15
376.925	353.11
377.305	342.94
377.686	337.07
378.066	332.77
378.447	358.76
378.827	355.6
379.208	361.25
379.588	363.28
379.968	358.76
380.349	343.85
380.729	348.14
381.109	354.24
381.489	367.35
381.87	373.9
382.25	374.58
382.63	362.83
383.01	367.58
383.39	377.29
383.77	382.26
384.15	370.96
384.53	385.65
384.91	395.37
385.29	397.4
385.67	369.38
386.049	394.47
386.429	389.72
386.809	398.76
387.189	403.73
387.568	405.54
387.948	405.09
388.328	397.4
388.707	412.09
389.087	426.56
389.466	404.64
389.846	409.16
390.225	449.38
390.605	427.23
390.984	420.46
391.363	441.7
391.743	458.42
392.122	435.82
392.501	436.5
392.881	439.21
393.26	463.39
393.639	470.85
394.018	475.14
394.397	466.56
394.776	467.01
395.155	451.64
395.534	460.45
395.913	495.93
396.292	491.87
396.671	496.39
397.05	492.09
397.429	501.58
397.808	499.55
398.186	490.74
398.565	497.97
398.944	515.37
399.323	500.45
399.701	528.02
400.08	524.41
400.458	521.24
400.837	538.64
401.215	536.84
401.594	542.49
401.972	548.36
402.351	560.34
402.729	560.11
403.107	577.06
403.486	561.02
403.864	590.62
404.242	603.5
404.62	571.41
404.999	589.26
405.377	591.98
405.755	638.98
406.133	623.39
406.511	639.21
406.889	627.91
407.267	628.36
407.645	645.76
408.023	658.87
408.401	674.01
408.779	671.75
409.156	672.88
409.534	688.24
409.912	684.4
410.29	729.37
410.667	716.04
411.045	707.45
411.422	727.11
411.8	744.29
412.178	752.42
412.555	758.75
412.933	765.76
413.31	781.58
413.687	811.18
414.065	828.35
414.442	793.55
414.819	827.45
415.197	830.16
415.574	834.91
415.951	849.14
416.328	865.42
416.705	886.88
417.082	876.71
417.46	880.1
417.837	895.24
418.214	897.73
418.591	918.97
418.967	924.17
419.344	911.74
419.721	925.3
420.098	930.05
420.475	958.07
420.852	976.37
421.228	973.89
421.605	987.9
421.982	985.86
422.358	1006.43
422.735	1035.35
423.111	1036.48
423.488	1049.59
423.864	1077.39
424.241	1057.73
424.617	1073.55
424.994	1103.83
425.37	1108.8
425.746	1113.09
426.123	1147.44
426.499	1173.66
426.875	1181.56
427.251	1194.67
427.627	1214.56
428.003	1205.07
428.379	1234.44
428.756	1269.92
429.132	1250.72
429.507	1243.94
429.883	1293.65
430.259	1316.7
430.635	1304.05
431.011	1366.42
431.387	1396.25
431.763	1427.21
432.138	1401.22
432.514	1427.89
432.89	1447.77
433.265	1504.49
433.641	1506.08
434.016	1521.22
434.392	1531.61
434.767	1539.75
435.143	1547.88
435.518	1591.27
435.894	1593.53
436.269	1620.88
436.644	1643.02
437.02	1674.89
437.395	1669.69
437.77	1735.22
438.145	1775.67
438.52	1749.69
438.895	1766.86
439.271	1767.76
439.646	1837.37
440.021	1823.58
440.395	1829.68
440.77	1850.93
441.145	1895.9
441.52	1918.95
441.895	1944.03
442.27	1968.66
442.645	1982.9
443.019	1956.46
443.394	1987.87
443.769	2040.75
444.143	2018.61
444.518	2036.46
444.892	2019.74
445.267	2043.92
445.641	2079.17
446.016	2112.61
446.39	2109
446.764	2138.38
447.139	2125.27
447.513	2172.95
447.887	2201.65
448.262	2200.97
448.636	2228.77
449.01	2229.22
449.384	2226.06
449.758	2243.91
450.132	2278.49
450.506	2297.47
450.88	2348.77
451.254	2369.56
451.628	2376.79
452.002	2440.74
452.376	2440.97
452.75	2441.42
453.123	2516.45
453.497	2514.86
453.871	2595.09
454.244	2586.05
454.618	2613.39
454.992	2632.37
455.365	2635.54
455.739	2726.16
456.112	2776.55
456.486	2777.23
456.859	2828.75
457.232	2876.89
457.606	2900.16
457.979	2922.76
458.352	3006.6
458.725	3010.22
459.099	3002.99
459.472	3099.03
459.845	3085.92
460.218	3155.07
460.591	3183.77
460.964	3198.69
461.337	3299.7
461.71	3366.14
462.083	3395.29
462.456	3416.08
462.829	3456.76
463.201	3514.38
463.574	3521.62
463.947	3599.81
464.32	3666.02
464.692	3699.24
465.065	3706.24
465.438	3796.19
465.81	3836.86
466.183	3837.77
466.555	3947.14
466.928	3984.43
467.3	3967.71
467.672	4038.66
468.045	4148.94
468.417	4192.33
468.789	4216.74
469.161	4327.47
469.534	4322.27
469.906	4466.68
470.278	4462.38
470.65	4521.82
471.022	4580.12
471.394	4698.99
471.766	4716.16
472.138	4766.33
472.51	4843.16
472.882	4959.54
473.253	5036.15
473.625	5125.42
473.997	5214.68
474.369	5258.75
474.74	5312.98
475.112	5449.25
475.484	5522.92
475.855	5610.15
476.227	5634.33
476.598	5818.28
476.97	5867.09
477.341	5970.59
477.713	6041.32
478.084	6090.81
478.455	6276.8
478.827	6299.4
479.198	6536.9
479.569	6580.52
479.94	6745.26
480.311	6761.98
480.682	6924.69
481.053	7147.28
481.424	7177.79
481.795	7308.64
482.166	7337.56
482.537	7461.4
482.908	7654.62
483.279	7751.79
483.65	7847.38
484.021	8042.63
484.391	8178.67
484.762	8203.08
485.133	8386.12
485.503	8441.49
485.874	8651.43
486.244	8723.51
486.615	8899.1
486.985	8993.34
487.356	9124.41
487.726	9243.73
488.097	9453.66
488.467	9472.87
488.837	9664.28
489.207	9825.63
489.578	9998.96
489.948	10079.64
490.318	10219.97
490.688	10275.34
491.058	10472.39
491.428	10630.13
491.798	10764.59
492.168	10989.89
492.538	11008.43
492.908	11143.34
493.278	11288.87
493.648	11186.95
494.017	11493.16
494.387	11482.99
494.757	11608.64
495.126	11792.13
495.496	11819.93
495.866	11888.85
496.235	12179.92
496.605	12196.87
496.974	12257.21
497.344	12514.15
497.713	12565.22
498.082	12637.53
498.452	12804.08
498.821	12901.26
499.19	12918.66
499.559	13075.72
499.928	13193.68
500.298	13175.83
500.667	13391.41
501.036	13343.96
501.405	13500.11
501.774	13602.48
502.143	13743.49
502.512	13800.67
502.88	14010.61
503.249	13982.36
503.618	14092.64
503.987	14186.87
504.356	14325.17
504.724	14311.62
505.093	14419.18
505.462	14529.69
505.83	14640.19
506.199	14687.88
506.567	14906.18
506.936	14747.54
507.304	15057.81
507.672	15177.13
508.041	15280.18
508.409	15292.38
508.777	15469.32
509.145	15724.69
509.514	15750.45
509.882	15865.92
510.25	15993.83
510.618	15923.32
510.986	16079.25
511.354	16291.45
511.722	16462.97
512.09	16645.11
512.458	16515.63
512.826	16682.4
513.193	16724.21
513.561	16808.5
513.929	16956.52
514.297	16984.77
514.664	17170.3
515.032	17295.27
515.4	17348.6
515.767	17514.92
516.135	17626.56
516.502	17617.29
516.869	17989.03
517.237	18087.56
517.604	18147.22
517.972	18425.63
518.339	18502.47
518.706	18621.33
519.073	18503.6
519.44	18712.18
519.808	18839.41
520.175	18830.37
520.542	19137.7
520.909	19256.8
521.276	19262.9
521.643	19484.36
522.009	19611.14
522.376	19790.57
522.743	19859.27
523.11	20122.31
523.477	20344.45
523.843	20487.5
524.21	20726.81
524.577	20940.37
524.943	21051.78
525.31	21114.6
525.676	21369.73
526.043	21555.72
526.409	21529.05
526.776	21870.29
527.142	21736.73
527.508	21856.28
527.874	21984.41
528.241	22065.08
528.607	22176.49
528.973	22439.09
529.339	22334
529.705	22647.67
530.071	22835.68
530.437	23016.7
530.803	23236.35
531.169	23409.68
531.535	23446.06
531.901	23667.75
532.267	23673.4
532.632	23856.45
532.998	24037.69
533.364	24143.67
533.73	24126.05
534.095	24305.02
534.461	24291.92
534.826	24440.84
535.192	24547.05
535.557	24755.18
535.923	24617.11
536.288	24685.81
536.653	24775.29
537.019	24818.01
537.384	24983.43
537.749	25209.18
538.114	25234.94
538.479	25296.41
538.845	25632.67
539.21	25564.2
539.575	25815.95
539.94	25921.93
540.305	26038.09
540.67	25997.18
541.034	26198.08
541.399	26309.72
541.764	26345.42
542.129	26212.55
542.494	26221.81
542.858	26227.01
543.223	26410.96
543.587	26414.35
543.952	26405.31
544.316	26526.89
544.681	26542.03
545.045	26666.32
545.41	26725.53
545.774	26921
546.138	26993.99
546.503	27022.47
546.867	27160.99
547.231	27499.74
547.595	27652.06
547.959	27646.86
548.324	27736.12
548.688	27769.34
549.052	28018.37
549.416	27844.37
549.779	27738.38
550.143	27833.52
550.507	27876.23
550.871	27906.29
551.235	27805.05
551.599	28077.13
551.962	28092.27
552.326	28067.41
552.689	28229.67
553.053	28172.27
553.417	28318.7
553.78	28679.82
554.143	28543.11
554.507	28822.42
554.87	28902.87
555.234	29209.75
555.597	29122.07
555.96	29398.68
556.323	29479.13
556.686	29532.23
557.05	29688.84
557.413	29761.83
557.776	29726.13
558.139	29755.73
558.502	29754.6
558.865	29666.47
559.228	29722.74
559.59	29705.79
559.953	29757.31
560.316	30073.23
560.679	30047.02
561.041	30372.66
561.404	30359.55
561.767	30715.25
562.129	30569.49
562.492	30988.92
562.854	31024.62
563.217	31175.35
563.579	31180.32
563.941	31545.51
564.304	31752.96
564.666	31855.33
565.028	31961.32
565.39	32062.79
565.753	32223.46
566.115	32293.06
566.477	32281.31
566.839	32284.02
567.201	32367.19
567.563	32255.55
567.925	32404.25
568.287	32497.58
568.648	32468.88
569.01	32529.67
569.372	32821.64
569.734	32714.07
570.095	32785.03
570.457	32977.11
570.819	33139.37
571.18	33174.17
571.542	33539.81
571.903	33517.66
572.265	33858.67
572.626	33873.81
572.987	34129.4
573.349	34259.79
573.71	34408.94
574.071	34395.15
574.432	34527.81
574.794	34705.2
575.155	34669.5
575.516	34367.13
575.877	34575.49
576.238	34441.48
576.599	34622.04
576.96	34500.24
577.32	34523.97
577.681	34625.88
578.042	34664.53
578.403	34595.38
578.763	34694.81
579.124	34772.09
579.485	34926.67
579.845	35135.93
580.206	35088.24
580.566	35271.06
580.927	35254.57
581.287	35512.19
581.648	35474.9
582.008	35737.94
582.368	35709.92
582.728	35792.41
583.089	35729.81
583.449	35677.16
583.809	35753.76
584.169	35803.25
584.529	35564.39
584.889	35872.86
585.249	35551.06
585.609	35375.24
585.969	35686.65
586.329	35311.74
586.688	35271.29
587.048	35321.68
587.408	35362.81
587.768	35397.16
588.127	35471.96
588.487	35466.31
588.846	35625.18
589.206	35403.94
589.565	35550.38
589.925	35807.32
590.284	35860.2
590.643	35972.74
591.003	36080.08
591.362	36279.63
591.721	36130.48
592.08	36241.66
592.44	36323.01
592.799	36410.24
593.158	36397.81
593.517	36387.19
593.876	36210.25
594.235	36040.99
594.593	36194.43
594.952	36064.49
595.311	35886.64
595.67	35946.53
596.029	35983.59
596.387	35933.19
596.746	35976.81
597.104	35786.98
597.463	35909.69
597.822	36043.02
598.18	36042.34
598.538	36098.84
598.897	36177.48
599.255	36076.92
599.613	36484.59
599.972	36356.91
600.33	36593.97
600.688	36526.17
601.046	36754.64
601.404	36886.84
601.762	36849.1
602.12	36983.79
602.478	36842.77
602.836	36911.47
603.194	36680.97
603.552	36702.66
603.91	36584.93
604.268	36768.88
604.625	36432.62
604.983	36486.85
605.341	36395.1
605.698	36412.05
606.056	36511.71
606.413	36582.44
606.771	36582.89
607.128	36631.71
607.485	36375.89
607.843	36574.53
608.2	36795.09
608.557	36942.88
608.914	36958.25
609.272	37073.95
609.629	37289.77
609.986	37274.18
610.343	37166.38
610.7	37438.24
611.057	37470.78
611.414	37435.98
611.771	37648.63
612.127	37922.07
612.484	37725.46
612.841	37840.49
613.198	37746.93
613.554	37909.41
613.911	37875.74
614.267	37871.9
614.624	37760.04
614.98	37792.35
615.337	37887.94
615.693	37545.58
616.05	37537.9
616.406	37706.93
616.762	37635.3
617.118	37698.57
617.475	37641.85
617.831	37746.93
618.187	37822.18
618.543	37974.04
618.899	38237.31
619.255	38123.19
619.611	38114.15
619.967	38141.27
620.323	38394.82
620.678	38063.08
621.034	38365.9
621.39	38442.05
621.746	38442.96
622.101	38902.38
622.457	38610.41
622.812	38662.84
623.168	38664.2
623.523	38676.85
623.879	38876.39
624.234	38652.44
624.589	38572.45
624.945	38605.44
625.3	38593.46
625.655	38623.74
626.01	38381.26
626.365	38527.93
626.72	38306.01
627.075	38433.47
627.43	38260.82
627.785	38160.71
628.14	38249.06
628.495	38248.61
628.85	38241.83
629.205	38057.21
629.559	38176.98
629.914	38240.48
630.269	38271.44
630.623	38153.93
630.978	38306.01
631.332	38501.26
631.687	38606.34
632.041	38416.29
632.396	38503.07
632.75	38340.14
633.104	38224.43
633.459	38171.1
633.813	38238.67
634.167	38266.69
634.521	38109.41
634.875	38243.87
635.229	38019.01
635.583	37849.3
635.937	37952.12
636.291	37787.61
636.645	37846.59
636.999	37630.1
637.352	37631.91
637.706	37390.78
638.06	37588.29
638.413	37390.33
638.767	37214.97
639.121	37199.83
639.474	36947.86
639.828	36892.26
640.181	36910.8
640.534	36934.75
640.888	36954.41
641.241	36959.38
641.594	37014.52
641.947	37031.7
642.301	37044.8
642.654	37210.22
643.007	36996.22
643.36	37157.79
643.713	37125.25
644.066	37155.76
644.419	37096.1
644.771	37146.5
645.124	37067.4
645.477	37028.98
645.83	36947.18
646.182	36538.15
646.535	36086.86
646.888	36065.85
647.24	35704.05
647.593	35790.82
647.945	35463.38
648.298	35458.63
648.65	35396.03
649.002	35432.64
649.355	35479.65
649.707	35538.18
650.059	35708.57
650.411	36003.7
650.763	36135
651.115	36413.63
651.467	36198.95
651.819	36127.09
652.171	36249.34
652.523	36156.01
652.875	36184.71
653.227	36089.8
653.578	36456.12
653.93	36282.56
654.282	36136.8
654.633	36026.75
654.985	36271.04
655.337	36222.45
655.688	36378.38
656.039	36482.78
656.391	36176.13
656.742	36332.28
657.094	36373.63
657.445	36447.3
657.796	36174.32
658.147	36237.14
658.498	36245.73
658.849	36268.1
659.2	36198.05
659.551	36132.74
659.902	36243.92
660.253	36091.38
660.604	36180.64
660.955	35848.22
661.306	36049.35
661.656	36072.62
662.007	35739.3
662.358	35749.7
662.708	35692.97
663.059	35735.01
663.409	35446.88
663.76	35721.9
664.11	35612.98
664.461	35480.32
664.811	35422.25
665.161	35455.01
665.511	35523.49
665.862	35596.48
666.212	35651.17
666.562	35643.26
666.912	35723.26
667.262	35852.74
667.612	35999.41
667.962	36021.33
668.312	35907.88
668.662	36152.17
669.011	35999.63
669.361	35866.75
669.711	35967.09
670.06	35829.24
670.41	35954.89
670.76	35854.78
671.109	35795.8
671.459	35727.55
671.808	35535.92
672.157	35586.99
672.507	35520.55
672.856	35375.69
673.205	35511.28
673.554	35527.55
673.904	35360.1
674.253	35376.82
674.602	35088.7
674.951	34504.08
675.3	34506.34
675.649	35031.3
675.998	34868.36
676.346	34739.1
676.695	34805.09
677.044	34616.62
677.393	34737.07
677.741	34824.97
678.09	34711.53
678.438	34798.53
678.787	34776.16
679.135	34750.4
679.484	34678.76
679.832	34705.66
680.181	34626.11
680.529	34850.06
680.877	34729.84
681.225	34845.09
681.573	34924.18
681.922	34750.63
682.27	34785.2
682.618	34776.61
682.966	34618.43
683.314	34636.5
683.661	34638.31
684.009	34402.84
684.357	34321.26
684.705	34219.34
685.053	34294.59
685.4	34104.09
685.748	33793.59
686.095	33822.97
686.443	33592.92
686.79	33543.2
687.138	33472.24
687.485	33301.4
687.832	33104.79
688.18	33258.91
688.527	32997.9
688.874	32823.44
689.221	32711.13
689.568	32765.82
689.915	32576.22
690.262	32737.57
690.609	32682.43
690.956	32512.72
691.303	32452.61
691.65	32368.09
691.997	32370.12
692.344	32046.74
692.69	32218.26
693.037	32072.73
693.383	31846.07
693.73	32195.21
694.077	32040.87
694.423	32080.64
694.769	31882.68
695.116	31779.63
695.462	31804.94
695.808	31756.13
696.155	31933.98
696.501	31674.55
696.847	31633.19
697.193	31276.37
697.539	31353.43
697.885	31061.23
698.231	30997.5
698.577	30856.49
698.923	30720.45
699.269	30666.67
699.614	30300.12
699.96	30258.77
700.306	30227.81
700.651	30170.63
700.997	29927.48
701.342	29809.51
701.688	29734.71
702.033	29431.67
702.379	29509.18
702.724	29296.08
703.069	29561.84
703.415	29158.23
703.76	29174.28
704.105	29039.14
704.45	29099.93
704.795	28845.47
705.14	28875.98
705.485	28763.44
705.83	28841.85
706.175	29035.07
706.52	28799.82
706.865	28787.17
707.209	28735.64
707.554	28803.21
707.899	28727.06
708.243	28671.69
708.588	28587.4
708.932	28507.17
709.277	28414.52
709.621	28549.88
709.966	28386.05
710.31	28561.86
710.654	28160.74
710.998	28156
711.342	28226.96
711.687	28090.91
712.031	27927.98
712.375	27797.14
712.719	27752.17
713.063	27689.12
713.407	27786.52
713.75	27541.55
714.094	27461.33
714.438	27209.81
714.782	27271.5
715.125	26934.33
715.469	27135.68
715.812	26815.47
716.156	26613.44
716.499	26649.6
716.843	26852.3
717.186	26600.11
717.53	26840.1
717.873	26606.43
718.216	26433.33
718.559	26499.77
718.902	26411.64
719.246	26516.27
719.589	26547.9
719.932	26506.1
720.275	26522.59
720.617	26415.93
720.96	26390.62
721.303	26442.37
721.646	26464.06
721.989	26630.39
722.331	26648.24
722.674	26591.97
723.016	26586.09
723.359	26535.93
723.701	26641.69
724.044	26342.71
724.386	26265.88
724.729	26451.18
725.071	26351.75
725.413	26155.37
725.755	26273.33
726.097	26154.47
726.439	25966.45
726.782	26106.33
727.124	26110.4
727.465	25781.6
727.807	25856.62
728.149	25647.36
728.491	25684.2
728.833	25709.96
729.175	25517.42
729.516	25433.36
729.858	25562.62
730.199	25464.32
730.541	25386.58
730.882	25322.63
731.224	25450.31
731.565	25204.21
731.906	25360.14
732.248	25217.77
732.589	25207.15
732.93	25282.4
733.271	25209.18
733.612	25199.69
733.953	25329.18
734.294	25204.66
734.635	25210.99
734.976	25417.76
735.317	25266.13
735.658	25408.05
735.999	25435.62
736.339	25479.01
736.68	25539.12
737.021	25442.17
737.361	25388.39
737.702	25429.74
738.042	25424.77
738.383	25536.18
738.723	25637.42
739.063	25578.89
739.404	25591.32
739.744	25551.32
740.084	25569.4
740.424	25563.3
740.764	25437.2
741.104	25620.92
741.444	25314.94
741.784	25284.89
742.124	25378.44
742.464	25229.29
742.804	25165.12
743.143	25136.19
743.483	25309.97
743.823	25045.8
744.162	25106.81
744.502	25043.76
744.841	25013.48
745.181	25069.75
745.52	24986.81
745.86	25087.83
746.199	25063.65
746.538	24968.96
746.877	25040.82
747.216	25107.04
747.556	25043.99
747.895	24970.77
748.234	25078.56
748.573	25023.2
748.911	25076.76
749.25	25067.94
749.589	25037.43
749.928	25111.11
750.267	25297.99
750.605	25202.63
750.944	25296.86
751.283	25376.18
751.621	25432.68
751.96	25371.66
752.298	25463.64
752.636	25520.81
752.975	25495.95
753.313	25442.85
753.651	25593.8
753.989	25600.58
754.327	25587.7
754.666	25673.12
755.004	25757.19
755.342	25846.68
755.679	25687.14
756.017	25663.18
756.355	25813.46
756.693	25697.3
757.031	25712.22
757.368	25622.96
757.706	25596.74
758.044	25626.35
758.381	25603.52
758.719	25465.67
759.056	25554.71
759.394	25548.61
759.731	25363.3
760.068	25414.15
760.405	25417.31
760.743	25288.5
761.08	25487.14
761.417	25252.12
761.754	25290.99
762.091	25147.26
762.428	25139.58
762.765	24988.85
763.102	25164.21
763.438	24978.91
763.775	24956.99
764.112	25012.58
764.449	25097.55
764.785	25015.29
765.122	24829.98
765.458	24899.81
765.795	24903.43
766.131	24995.18
766.467	24954.27
766.804	24879.25
767.14	24860.26
767.476	25036.3
767.812	24886.48
768.148	24858.91
768.485	24759.93
768.821	24685.35
769.157	24759.02
769.492	24611.46
769.828	24735.3
770.164	24496.43
770.5	24472.03
770.836	24559.26
771.171	24479.71
771.507	24489.65
771.842	24359.94
772.178	24332.14
772.513	24224.57
772.849	24164.69
773.184	24174.63
773.519	24122.2
773.855	24123.56
774.19	23758.82
774.525	23828.43
774.86	23811.7
775.195	23670.47
775.53	23534.88
775.865	23392.28
776.2	23242.45
776.535	23122.68
776.87	23193.42
777.205	23059.18
777.539	23033.19
777.874	22982.8
778.209	22802.01
778.543	22715.46
778.878	22496.71
779.212	22553.21
779.547	22505.52
779.881	22528.57
780.215	22298.75
780.55	22413.78
780.884	22284.51
781.218	22232.76
781.552	22122.48
781.886	21988.7
782.22	21887.46
782.554	21849.27
782.888	21646.79
783.222	21642.5
783.556	21618.09
783.889	21556.17
784.223	21499.22
784.557	21514.36
784.89	21578.77
785.224	21430.52
785.557	21388.04
785.891	21266.01
786.224	21250.87
786.558	21262.17
786.891	20999.57
787.224	21008.61
787.557	21008.39
787.891	20908.96
788.224	20823.99
788.557	20863.76
788.89	20827.83
789.223	20832.8
789.556	20640.49
789.888	20565.24
790.221	20589.19
790.554	20447.95
790.887	20380.83
791.219	20242.53
791.552	20177.68
791.884	20013.84
792.217	20139.26
792.549	19976.55
792.882	19838.02
793.214	19793.96
793.546	19783.79
793.879	19711.47
794.211	19537.92
794.543	19637.58
794.875	19486.39
795.207	19448.88
795.539	19289.79
795.871	19302.22
796.203	19067.87
796.535	19040.3
796.867	19068.55
797.198	19022
797.53	19035.56
797.862	18840.76
798.193	18931.61
798.525	18712.4
798.856	18732.29
799.188	18543.37
799.519	18508.79
799.85	18398.74
800.182	18488.68
800.513	18520.77
800.844	18332.53
801.175	18479.19
801.506	18388.57
801.837	18301.79
802.168	18291.62
802.499	18291.17
802.83	18142.25
803.161	18109.71
803.491	18105.87
803.822	18102.25
804.153	18020.44
804.483	17860.67
804.814	17802.82
805.145	17900.22
805.475	17805.31
805.805	17765.54
806.136	17845.08
806.466	17695.48
806.796	17790.17
807.126	17618.19
807.457	17646.22
807.787	17736.84
808.117	17530.74
808.447	17468.59
808.777	17486.9
809.107	17365.55
809.436	17358.77
809.766	17318.77
810.096	17144.08
810.426	17155.61
810.755	17225.44
811.085	17149.28
811.414	17069.73
811.744	16897.54
812.073	16852.79
812.403	16824.54
812.732	16693.7
813.061	16692.34
813.39	16542.52
813.719	16540.26
814.049	16663.42
814.378	16535.29
814.707	16366.25
815.036	16428.17
815.365	16422.52
815.693	16255.97
816.022	16300.26
816.351	16245.35
816.68	16118.57
817.008	16199.02
817.337	16088.74
817.665	16001.74
817.994	16004
818.322	15912.25
818.651	15964
818.979	15866.6
819.307	15860.5
819.636	15782.09
819.964	15737.11
820.292	15742.09
820.62	15738.02
820.948	15720.62
821.276	15793.61
821.604	15733.5
821.932	15856.89
822.259	15819.6
822.587	15869.31
822.915	15830.22
823.243	15841.52
823.57	15758.36
823.898	15836.09
824.225	15668.42
824.553	15767.62
824.88	15905.92
825.207	15838.13
825.535	15793.38
825.862	15882.87
826.189	15858.69
826.516	15897.79
826.843	16019.37
827.17	15967.39
827.497	15974.4
827.824	15961.52
828.151	15894.17
828.478	16021.4
828.805	15942.31
829.131	15856.66
829.458	15811.01
829.785	15793.38
830.111	15776.44
830.438	15829.54
830.764	15822.31
831.09	15730.33
831.417	15722.2
831.743	15773.05
832.069	15677.23
832.395	15604.91
832.722	15594.75
833.048	15612.37
833.374	15581.41
833.7	15583.45
834.026	15515.2
834.351	15574.18
834.677	15369.89
835.003	15531.92
835.329	15374.64
835.654	15432.04
835.98	15225.26
836.306	15340.29
836.631	15260.52
836.956	15340.06
837.282	15234.75
837.607	15267.52
837.932	15164.02
838.258	15209.22
838.583	15245.6
838.908	15132.84
839.233	15094.19
839.558	15057.13
839.883	14999.28
840.208	14963.58
840.533	15005.83
840.858	15062.33
841.182	15134.64
841.507	15113.85
841.832	15043.57
842.156	15036.12
842.481	15028.21
842.805	15010.58
843.13	14986.63
843.454	14927.19
843.778	14830.25
844.103	14808.78
844.427	14838.83
844.751	14837.48
845.075	14732.62
845.399	14700.98
845.723	14675.67
846.047	14684.49
846.371	14605.62
846.695	14584.15
847.019	14452.4
847.343	14378.96
847.666	14306.42
847.99	14329.02
848.313	14263.48
848.637	14233.88
848.96	14133.77
849.284	14183.71
849.607	14028.91
849.931	14020.1
850.254	13882.02
850.577	13816.94
850.9	13649.03
851.223	13673.67
851.546	13620.33
851.869	13460.11
852.192	13483.39
852.515	13314.13
852.838	13248.59
853.161	13305.77
853.483	13258.99
853.806	13101.48
854.129	13218.54
854.451	13065.32
854.774	13018.32
855.096	12987.36
855.419	12922.95
855.741	12944.65
856.063	12819.68
856.385	12833.01
856.708	12695.61
857.03	12652.68
857.352	12742.62
857.674	12709.85
857.996	12617.2
858.318	12543.53
858.64	12553.92
858.961	12435.05
859.283	12443.64
859.605	12374.27
859.926	12383.53
860.248	12379.46
860.57	12374.04
860.891	12297.88
861.212	12288.17
861.534	12326.81
861.855	12297.66
862.176	12310.99
862.498	12244.32
862.819	12230.77
863.14	12246.58
863.461	12179.24
863.782	12162.52
864.103	12201.16
864.424	12220.37
864.745	12180.82
865.065	12239.13
865.386	12126.14
865.707	12101.5
866.027	12109.19
866.348	12110.09
866.668	12085.46
866.989	12025.12
867.309	11921.17
867.63	12007.27
867.95	12053.82
868.27	11985.8
868.59	12041.17
868.91	11936.31
869.23	11942.64
869.55	11838.23
869.87	11883.66
870.19	11759.59
870.51	11863.32
870.83	11908.97
871.15	11780.83
871.469	11747.61
871.789	11723.43
872.109	11606.15
872.428	11606.83
872.748	11703.55
873.067	11614.96
873.386	11507.85
873.706	11544.46
874.025	11521.18
874.344	11476.89
874.663	11449.32
874.982	11338.36
875.301	11332.71
875.62	11329.09
875.939	11265.82
876.258	11233.96
876.577	11183.56
876.896	11171.13
877.214	11102.66
877.533	11134.52
877.852	11172.26
878.17	11189.44
878.489	11106.28
878.807	11106.5
879.125	11140.4
879.444	11159.38
879.762	11043
880.08	11075.32
880.398	10873.97
880.716	10990.12
881.034	10893.17
881.352	10969.1
881.67	10938.82
881.988	10897.69
882.306	10871.71
882.624	10885.72
882.941	10822.67
883.259	10855.66
883.577	10807.98
883.894	10801.43
884.212	10832.16
884.529	10755.78
884.846	10674.42
885.164	10780.86
885.481	10734.53
885.798	10701.54
886.115	10724.14
886.432	10718.72
886.75	10673.52
887.067	10666.06
887.383	10673.52
887.7	10689.56
888.017	10586.06
888.334	10560.08
888.651	10528.89
888.967	10544.93
889.284	10589
889.6	10539.29
889.917	10504.71
890.233	10472.39
890.55	10471.26
890.866	10423.36
891.182	10405.73
891.498	10348.56
891.815	10390.81
892.131	10220.2
892.447	10238.95
892.763	10159.86
893.079	10120.31
893.395	10084.38
893.71	10083.48
894.026	10040.32
894.342	9964.16
894.657	9951.28
894.973	9814.11
895.289	9832.64
895.604	9803.03
895.92	9728.23
896.235	9668.12
896.55	9657.73
896.865	9568.69
897.181	9614.79
897.496	9523.72
897.811	9565.98
898.126	9475.81
898.441	9483.04
898.756	9427.22
899.071	9315.81
899.386	9365.53
899.7	9262.71
900.015	9196.72
900.33	9199.89
900.644	9115.37
900.959	9173.22
901.273	9164.18
901.588	9019.78
901.902	9051.87
902.216	9076.5
902.531	9104.97
902.845	9007.35
903.159	8909.27
903.473	8949.27
903.787	8928.71
904.101	8879.89
904.415	8838.09
904.729	8842.83
905.042	8696.62
905.356	8775.04
905.67	8795.38
905.984	8830.63
906.297	8825.21
906.611	8678.77
906.924	8650.97
907.237	8630.63
907.551	8564.87
907.864	8577.53
908.177	8563.07
908.491	8556.96
908.804	8536.63
909.117	8488.49
909.43	8424.54
909.743	8386.12
910.056	8435.61
910.368	8432.67
910.681	8426.57
910.994	8374.14
911.307	8290.08
911.619	8273.81
911.932	8283.98
912.244	8140.25
912.557	8232.23
912.869	8104.09
913.181	8087.15
913.494	8125.56
913.806	7995.62
914.118	8004.66
914.43	7943.42
914.742	7940.48
915.054	7875.4
915.366	7791.79
915.678	7791.79
915.99	7723.77
916.302	7716.99
916.613	7694.39
916.925	7619.36
917.236	7594.5
917.548	7561.74
917.859	7537.56
918.171	7448.29
918.482	7481.06
918.794	7435.64
919.105	7385.92
919.416	7342.76
919.727	7241.07
920.038	7271.57
920.349	7185.02
920.66	7142.09
920.971	7130.11
921.282	7142.54
921.593	7062.54
921.903	7023.67
922.214	7008.98
922.525	7046.72
922.835	7007.17
923.146	6900.51
923.456	6908.19
923.767	6836.56
924.077	6851.92
924.387	6796.56
924.697	6798.59
925.008	6759.5
925.318	6736.9
925.628	6723.79
925.938	6611.03
926.248	6624.59
926.558	6612.16
926.867	6560.86
927.177	6517.02
927.487	6569.9
927.796	6484.02
928.106	6510.69
928.416	6464.14
928.725	6443.12
929.034	6348.66
929.344	6393.63
929.653	6364.93
929.962	6272.96
930.271	6295.78
930.581	6279.06
930.89	6299.85
931.199	6273.41
931.508	6255.33
931.817	6243.8
932.125	6225.5
932.434	6222.56
932.743	6199.06
933.051	6151.6
933.36	6113.86
933.669	6135.11
933.977	6156.35
934.286	6102.34
934.594	6006.3
934.902	6010.82
935.21	6031.61
935.519	6001.55
935.827	5957.26
936.135	5917.26
936.443	5907.32
936.751	5916.58
937.059	5944.6
937.367	5875.68
937.674	5834.32
937.982	5781.44
938.29	5737.6
938.597	5746.42
938.905	5696.7
939.213	5683.82
939.52	5620.32
939.827	5639.53
940.135	5573.99
940.442	5592.07
940.749	5529.25
941.056	5547.33
941.363	5444.05
941.67	5421.91
941.977	5392.3
942.284	5416.26
942.591	5369.25
942.898	5344.62
943.205	5327.22
943.511	5265.07
943.818	5261.68
944.125	5226.66
944.431	5256.94
944.738	5222.14
945.044	5112.08
945.35	5075.93
945.657	5012.2
945.963	5034.57
946.269	5040.45
946.575	5007.23
946.881	4990.73
947.187	4924.97
947.493	4896.27
947.799	4904.4
948.105	4862.15
948.41	4866.21
948.716	4883.61
949.022	4857.17
949.327	4812.43
949.633	4792.09
949.938	4762.49
950.244	4795.26
950.549	4675.03
950.854	4738.31
951.16	4716.84
951.465	4705.77
951.77	4664.19
952.075	4700.79
952.38	4597.29
952.685	4595.94
952.99	4576.5
953.294	4566.79
953.599	4580.35
953.904	4567.46
954.209	4494.7
954.513	4560.46
954.818	4503.51
955.122	4527.24
955.426	4500.35
955.731	4522.04
956.035	4398.2
956.339	4436.85
956.643	4463.06
956.948	4426.23
957.252	4411.76
957.556	4402.95
957.86	4385.32
958.163	4361.59
958.467	4320.01
958.771	4329.28
959.075	4353.91
959.378	4294.7
959.682	4306.45
959.985	4214.03
960.289	4216.29
960.592	4207.47
960.896	4242.5
961.199	4181.26
961.502	4169.73
961.805	4141.04
962.108	4078.66
962.411	4117.53
962.714	4115.5
963.017	4065.33
963.32	4049.96
963.623	3995.05
963.926	4074.37
964.228	4045.22
964.531	3985.33
964.833	3957.99
965.136	3930.65
965.438	3918.67
965.741	3909.18
966.043	3907.37
966.345	3876.41
966.648	3870.53
966.95	3812.68
967.252	3786.69
967.554	3760.48
967.856	3799.12
968.158	3678.9
968.46	3721.39
968.761	3707.6
969.063	3697.43
969.365	3615.17
969.666	3636.87
969.968	3620.14
970.269	3577.66
970.571	3609.98
970.872	3590.77
971.174	3593.03
971.475	3548.28
971.776	3529.75
972.077	3516.64
972.378	3539.92
972.679	3501.28
972.98	3471.9
973.281	3451.56
973.582	3376.08
973.883	3430.32
974.183	3354.39
974.484	3336.54
974.785	3408.17
975.085	3323.2
975.386	3339.93
975.686	3345.12
975.986	3296.31
976.287	3278.91
976.587	3250.21
976.887	3248.4
977.187	3256.31
977.487	3235.75
977.787	3233.49
978.087	3213.83
978.387	3179.25
978.687	3202.75
978.987	3174.96
979.286	3172.02
979.586	3190.1
979.885	3149.65
980.185	3129.54
980.484	3132.25
980.784	3147.61
981.083	3092.25
981.382	3120.05
981.682	3104.68
981.981	3115.3
982.28	3049.31
982.579	3067.39
982.878	3069.88
983.177	3047.73
983.475	3022.87
983.774	2998.01
984.073	3017.9
984.372	2984.91
984.67	3002.08
984.969	2998.47
985.267	2971.8
985.566	2969.09
985.864	2958.69
986.162	2937.9
986.461	2905.36
986.759	2941.97
987.057	2847.51
987.355	2907.4
987.653	2849.09
987.951	2830.79
988.249	2849.77
988.547	2821.3
988.844	2820.17
989.142	2816.55
989.44	2754.63
989.737	2784.91
990.035	2762.31
990.332	2757.57
990.63	2758.02
990.927	2706.5
991.224	2658.59
991.521	2670.79
991.819	2659.04
992.116	2659.49
992.413	2668.98
992.71	2652.26
993.006	2608.42
993.303	2598.02
993.6	2602.09
993.897	2571.58
994.193	2570.68
994.49	2576.78
994.787	2508.31
995.083	2496.11
995.379	2517.35
995.676	2510.12
995.972	2447.29
996.268	2466.05
996.565	2435.32
996.861	2409.78
997.157	2426.05
997.453	2384.47
997.749	2377.92
998.044	2350.35
998.34	2406.39
998.636	2337.24
998.932	2348.09
999.227	2327.75
999.523	2346.73
999.818	2324.13
1000.114	2264.02
1000.409	2302.21
1000.704	2271.48
1001	2217.02
1001.295	2253.63
1001.59	2227.41
1001.885	2219.96
1002.18	2196.68
1002.475	2189.45
1002.77	2180.18
1003.065	2146.29
1003.359	2162.78
1003.654	2155.32
1003.949	2114.65
1004.243	2129.11
1004.538	2108.32
1004.832	2131.37
1005.127	2084.14
1005.421	2078.72
1005.715	2063.8
1006.009	2041.66
1006.304	2037.14
1006.598	2063.8
1006.892	2063.58
1007.186	2008.44
1007.48	2010.47
1007.773	2004.37
1008.067	1986.74
1008.361	1961.88
1008.655	1956.69
1008.948	1995.1
1009.242	2013.63
1009.535	1956.01
1009.829	1965.73
1010.122	1951.26
1010.415	1933.18
1010.708	1908.1
1011.001	1903.35
1011.295	1908.33
1011.588	1893.64
1011.881	1864.71
1012.173	1868.33
1012.466	1854.09
1012.759	1863.13
1013.052	1829.23
1013.344	1844.82
1013.637	1840.3
1013.93	1829.23
1014.222	1815.22
1014.514	1808.44
1014.807	1788.78
1015.099	1805.05
1015.391	1791.49
1015.683	1739.97
1015.976	1714.21
1016.268	1704.04
1016.56	1690.93
1016.851	1688.44
1017.143	1688.9
1017.435	1683.7
1017.727	1677.37
1018.018	1680.08
1018.31	1655
1018.602	1664.04
1018.893	1635.56
1019.185	1621.1
1019.476	1616.13
1019.767	1590.82
1020.058	1578.62
1020.35	1586.98
1020.641	1564.61
1020.932	1561.89
1021.223	1556.02
1021.514	1520.77
1021.804	1530.26
1022.095	1542.69
1022.386	1507.88
1022.677	1506.3
1022.967	1482.8
1023.258	1451.84
1023.548	1454.33
1023.839	1451.84
1024.129	1470.6
1024.419	1457.94
1024.709	1443.03
1025	1416.36
1025.29	1431.73
1025.58	1380.43
1025.87	1374.1
1026.16	1374.1
1026.449	1334.78
1026.739	1333.2
1027.029	1339.3
1027.319	1326.65
1027.608	1302.01
1027.898	1302.69
1028.187	1309.02
1028.477	1305.18
1028.766	1288
1029.055	1274.22
1029.344	1263.6
1029.634	1277.83
1029.923	1268.34
1030.212	1238.74
1030.501	1236.03
1030.79	1229.02
1031.078	1234.67
1031.367	1205.52
1031.656	1208.23
1031.945	1226.99
1032.233	1208.91
1032.522	1186.76
1032.81	1171.17
1033.099	1194.45
1033.387	1145.86
1033.675	1164.84
1033.963	1164.84
1034.251	1166.2
1034.54	1142.24
1034.828	1127.78
1035.116	1111.74
1035.403	1131.85
1035.691	1108.35
1035.979	1137.05
1036.267	1088.46
1036.554	1088.46
1036.842	1090.04
1037.129	1069.48
1037.417	1065.86
1037.704	1081.45
1037.992	1045.07
1038.279	1074.9
1038.566	1061.12
1038.853	1061.12
1039.14	1061.12
