Data from blue_shiny_book_FLMS001491_00092.txt Node
Date: Wed Feb 08 15:27:47 GMT 2017
User: dcchb
Spectrometer: FLMS00149
Trigger mode: 0
Integration Time (sec): 2.000000E-2
Scans to average: 10
Electric dark correction enabled: true
Nonlinearity correction enabled: false
Boxcar width: 0
XAxis mode: Wavelengths
Number of Pixels in Spectrum: 2048
>>>>>Begin Spectral Data<<<<<
341.393	13.88
341.776	13.88
342.16	13.88
342.543	-49.62
342.927	-70.18
343.31	-76.51
343.693	-79
344.077	-54.81
344.46	-53.69
344.843	-53.46
345.226	-43.06
345.61	-37.64
345.993	-26.57
346.376	0.55
346.759	3.71
347.142	11.85
347.525	42.13
347.908	84.39
348.291	70.38
348.674	93.43
349.057	118.29
349.44	132.98
349.823	156.48
350.206	151.51
350.588	194.9
350.971	234.89
351.354	236.02
351.737	242.35
352.119	241.9
352.502	278.96
352.884	266.53
353.267	276.48
353.65	295.23
354.032	293.65
354.414	316.25
354.797	313.08
355.179	311.73
355.562	320.09
355.944	332.29
356.326	331.62
356.709	332.07
357.091	360.99
357.473	350.37
357.855	352.86
358.238	339.75
358.62	347.43
359.002	355.34
359.384	328
359.766	343.14
360.148	370.71
360.53	360.09
360.912	314.67
361.294	334.78
361.676	346.08
362.057	346.76
362.439	338.62
362.821	338.17
363.203	323.93
363.584	324.16
363.966	333.42
364.348	326.19
364.729	324.61
365.111	319.86
365.493	320.77
365.874	325.29
366.256	318.28
366.637	330.49
367.019	324.84
367.4	308.11
367.781	309.7
368.163	334.33
368.544	317.38
368.925	328.23
369.306	334.1
369.688	316.7
370.069	318.28
370.45	344.5
370.831	320.32
371.212	319.86
371.593	337.04
371.974	313.31
372.355	342.91
372.736	337.27
373.117	332.75
373.498	339.52
373.879	324.16
374.26	330.26
374.641	320.32
375.021	353.76
375.402	335.01
375.783	336.59
376.163	329.13
376.544	374.78
376.925	348.34
377.305	345.4
377.686	317.6
378.066	344.72
378.447	352.63
378.827	358.06
379.208	364.38
379.588	354.21
379.968	353.76
380.349	350.15
380.729	358.06
381.109	358.28
381.489	374.33
381.87	367.32
382.25	360.77
382.63	372.29
383.01	372.74
383.39	350.6
383.77	367.77
384.15	381.11
384.53	374.1
384.91	377.94
385.29	391.05
385.67	368.45
386.049	405.74
386.429	384.72
386.809	377.94
387.189	385.4
387.568	389.92
387.948	398.05
388.328	397.15
388.707	415.23
389.087	395.34
389.466	397.83
389.846	409.81
390.225	416.59
390.605	413.87
390.984	417.04
391.363	417.72
391.743	439.64
392.122	451.61
392.501	465.85
392.881	442.57
393.26	432.86
393.639	443.48
394.018	428.79
394.397	453.19
394.776	460.65
395.155	484.15
395.534	478.28
395.913	443.7
396.292	456.81
396.671	475.57
397.05	475.57
397.429	482.35
397.808	495.23
398.186	482.8
398.565	478.73
398.944	471.27
399.323	502.68
399.701	504.27
400.08	530.25
400.458	510.14
400.837	511.05
401.215	513.31
401.594	518.28
401.972	504.72
402.351	550.37
402.729	550.59
403.107	558.73
403.486	569.35
403.864	554.43
404.242	540.88
404.62	558.05
404.999	555.11
405.377	576.58
405.755	572.06
406.133	579.29
406.511	593.98
406.889	588.56
407.267	607.09
407.645	625.62
408.023	585.62
408.401	634.43
408.779	630.36
409.156	646.86
409.534	646.18
409.912	650.93
410.29	652.29
410.667	675.79
411.045	667.43
411.422	666.07
411.8	716.92
412.178	717.59
412.555	710.36
412.933	732.28
413.31	743.81
413.687	729.57
414.065	750.36
414.442	741.1
414.819	761.89
415.197	744.26
415.574	790.81
415.951	784.71
416.328	785.84
416.705	800.76
417.082	819.74
417.46	816.57
417.837	862.9
418.214	854.99
418.591	826.29
418.967	846.86
419.344	845.5
419.721	851.38
420.098	846.63
420.475	892.73
420.852	898.15
421.228	880.53
421.605	919.85
421.982	908.32
422.358	921.2
422.735	957.36
423.111	959.85
423.488	949
423.864	981.77
424.241	1010.47
424.617	1000.3
424.994	1025.61
425.37	1014.08
425.746	1020.64
426.123	1045.72
426.499	1057.7
426.875	1055.21
427.251	1085.04
427.627	1097.47
428.003	1113.06
428.379	1099.5
428.756	1103.57
429.132	1113.52
429.507	1141.76
429.883	1178.82
430.259	1169.56
430.635	1200.07
431.011	1194.19
431.387	1234.42
431.763	1276.22
432.138	1276.45
432.514	1302.21
432.89	1316.45
433.265	1314.87
433.641	1315.77
434.016	1370.91
434.392	1353.51
434.767	1400.97
435.143	1388.76
435.518	1440.96
435.894	1436.45
436.269	1468.08
436.644	1473.05
437.02	1487.74
437.395	1537.23
437.77	1524.35
438.145	1577.23
438.52	1590.57
438.895	1573.84
439.271	1567.52
439.646	1631.47
440.021	1650.45
440.395	1624.46
440.77	1676.44
441.145	1650.68
441.52	1687.29
441.895	1706.72
442.27	1668.08
442.645	1706.49
443.019	1788.3
443.394	1747.62
443.769	1732.71
444.143	1778.36
444.518	1813.61
444.892	1807.96
445.267	1790.11
445.641	1851.35
446.016	1871.91
446.39	1874.85
446.764	1906.94
447.139	1896.77
447.513	1917.11
447.887	1952.36
448.262	1927.96
448.636	1932.25
449.01	1992.59
449.384	1963.66
449.758	1985.58
450.132	2038.46
450.506	2007.96
450.88	2064.9
451.254	2071.68
451.628	2099.03
452.002	2127.5
452.376	2136.99
452.75	2149.65
453.123	2188.74
453.497	2207.05
453.871	2194.62
454.244	2275.52
454.618	2272.81
454.992	2306.03
455.365	2307.38
455.739	2385.35
456.112	2400.71
456.486	2412.69
456.859	2462.18
457.232	2516.19
457.606	2482.75
457.979	2561.84
458.352	2609.52
458.725	2625.11
459.099	2666.02
459.472	2679.12
459.845	2706.24
460.218	2788.05
460.591	2744.21
460.964	2804.54
461.337	2857.65
461.71	2949.17
462.083	2905.56
462.456	2970.42
462.829	3012.22
463.201	3026.69
463.574	3071.43
463.947	3101.49
464.32	3139.68
464.692	3228.04
465.065	3204.53
465.438	3255.38
465.81	3250.63
466.183	3341.71
466.555	3403.63
466.928	3454.02
467.3	3440.23
467.672	3530.4
468.045	3589.83
468.417	3611.76
468.789	3602.72
469.161	3697.4
469.534	3745.99
469.906	3820.34
470.278	3843.84
470.65	3896.27
471.022	3987.11
471.394	4021.69
471.766	4052.2
472.138	4162.02
472.51	4239.08
472.882	4243.38
473.253	4310.95
473.625	4357.5
473.997	4492.18
474.369	4516.36
474.74	4582.13
475.112	4657.6
475.484	4701.9
475.855	4805.17
476.227	4819.18
476.598	4971.95
476.97	4955.9
477.341	5103.69
477.713	5193.18
478.084	5212.84
478.455	5420.97
478.827	5422.56
479.198	5562.44
479.569	5599.73
479.94	5780.29
480.311	5799.27
480.682	5947.97
481.053	6093.95
481.424	6136.21
481.795	6137.34
482.166	6299.37
482.537	6371.68
482.908	6532.36
483.279	6628.17
483.65	6716.98
484.021	6881.05
484.391	6970.99
484.762	7074.49
485.133	7150.42
485.503	7212.79
485.874	7384.54
486.244	7476.74
486.615	7530.3
486.985	7701.37
487.356	7767.8
487.726	7830.63
488.097	8036.27
488.467	8017.06
488.837	8214.35
489.207	8342.03
489.578	8493.66
489.948	8626.76
490.318	8717.84
490.688	8812.97
491.058	8917.38
491.428	9045.96
491.798	9237.37
492.168	9339.29
492.538	9408.44
492.908	9438.49
493.278	9491.37
493.648	9581.32
494.017	9702.89
494.387	9744.02
494.757	9904.7
495.126	10002.55
495.496	10073.05
495.866	10211.13
496.235	10304.01
496.605	10367.96
496.974	10520.5
497.344	10584
497.713	10660.84
498.082	10816.31
498.452	10876.88
498.821	10991.22
499.19	10962.07
499.559	11073.71
499.928	11138.79
500.298	11213.59
500.667	11290.2
501.036	11302.4
501.405	11430.98
501.774	11507.37
502.143	11712.33
502.512	11720.92
502.88	11879.79
503.249	11899.9
503.618	12060.8
503.987	12035.94
504.356	12212.21
504.724	12223.73
505.093	12306.44
505.462	12348.93
505.83	12427.79
506.199	12437.51
506.567	12612.2
506.936	12628.02
507.304	12713.66
507.672	12840.21
508.041	12855.13
508.409	13009.25
508.777	13117.49
509.145	13230.03
509.514	13300.09
509.882	13432.29
510.25	13603.36
510.618	13686.29
510.986	13808.1
511.354	13851.94
511.722	14004.7
512.09	14114.3
512.458	14092.38
512.826	14212.83
513.193	14254.41
513.561	14269.33
513.929	14280.18
514.297	14425.93
514.664	14541.41
515.032	14514.97
515.4	14731.46
515.767	14795.42
516.135	14999.7
516.502	14985.92
516.869	15255.97
517.237	15338.23
517.604	15323.31
517.972	15589.97
518.339	15652.57
518.706	15792.45
519.073	15722.85
519.44	15877.65
519.808	15911.32
520.175	15926.23
520.542	16106.34
520.909	16218.66
521.276	16204.87
521.643	16445.99
522.009	16460.23
522.376	16665.2
522.743	16711.98
523.11	17002.82
523.477	17161.23
523.843	17187.9
524.21	17588.11
524.577	17739.29
524.943	17875.79
525.31	17875.34
525.676	18050.47
526.043	18136.57
526.409	18183.35
526.776	18341.31
527.142	18298.37
527.508	18437.58
527.874	18454.3
528.241	18635.99
528.607	18640.06
528.973	18827.63
529.339	18896.1
529.705	19083.21
530.071	19254.51
530.437	19322.3
530.803	19615.63
531.169	19669.86
531.535	19861.5
531.901	19974.26
532.267	20084.54
532.632	20248.15
532.998	20292.9
533.364	20420.58
533.73	20388.49
534.095	20636.39
534.461	20616.28
534.826	20697.63
535.192	20706.45
535.557	20763.17
535.923	20678.43
536.288	20895.82
536.653	20972.2
537.019	20904.41
537.384	21067.34
537.749	21217.39
538.114	21364.73
538.479	21493.77
538.845	21567.89
539.21	21652.86
539.575	21843.59
539.94	21845.17
540.305	22027.77
540.67	21989.8
541.034	21935.34
541.399	22027.32
541.764	22140.31
542.129	22279.74
542.494	22135.11
542.858	22300.53
543.223	22188.44
543.587	22300.98
543.952	22292.62
544.316	22426.18
544.681	22399.28
545.045	22597.92
545.41	22658.71
545.774	22626.17
546.138	22764.92
546.503	22803.79
546.867	22832.27
547.231	23172.6
547.595	23246.95
547.959	23291.01
548.324	23375.98
548.688	23408.97
549.052	23517.9
549.416	23503.66
549.779	23363.1
550.143	23457.56
550.507	23525.13
550.871	23642.19
551.235	23463.44
551.599	23562.42
551.962	23577.11
552.326	23604.9
552.689	23779.13
553.053	23776.87
553.417	23869.98
553.78	24159.92
554.143	24080.6
554.507	24279.69
554.87	24406.69
555.234	24672.9
555.597	24605.33
555.96	24641.71
556.323	24768.71
556.686	24928.93
557.05	24991.53
557.413	25056.84
557.776	24999.44
558.139	25100.23
558.502	25111.08
558.865	25210.96
559.228	25225.65
559.59	25083.51
559.953	25122.15
560.316	25358.98
560.679	25462.25
561.041	25573.66
561.404	25771.85
561.767	25855.01
562.129	25862.47
562.492	26239.63
562.854	26215.45
563.217	26296.13
563.579	26543.36
563.941	26707.19
564.304	26896.11
564.666	26994.19
565.028	26996.45
565.39	27129.56
565.753	27177.24
566.115	27233.06
566.477	27349.44
566.839	27397.34
567.201	27410.68
567.563	27479.15
567.925	27548.53
568.287	27449.32
568.648	27451.13
569.01	27524.8
569.372	27679.6
569.734	27645.93
570.095	27941.06
570.457	27963.66
570.819	28187.15
571.18	28114.84
571.542	28436.41
571.903	28468.95
572.265	28744.88
572.626	28776.97
572.987	28893.8
573.349	29131.31
573.71	29210.63
574.071	29304.41
574.432	29224.42
574.794	29360.23
575.155	29260.8
575.516	29092.67
575.877	29197.3
576.238	29202.27
576.599	29361.59
576.96	29300.8
577.32	29261.48
577.681	29385.54
578.042	29448.36
578.403	29384.41
578.763	29550.73
579.124	29701.69
579.485	29769.26
579.845	29915.47
580.206	29815.36
580.566	30045.18
580.927	30089.25
581.287	30235.24
581.648	30218.74
582.008	30306.87
582.368	30438.17
582.728	30488.79
583.089	30402.69
583.449	30345.29
583.809	30390.03
584.169	30522.01
584.529	30494.21
584.889	30685.85
585.249	30325.18
585.609	30217.61
585.969	30312.75
586.329	30270.49
586.688	30344.39
587.048	30244.95
587.408	30248.57
587.768	30224.84
588.127	30357.04
588.487	30344.84
588.846	30770.59
589.206	30341.9
589.565	30598.62
589.925	30529.69
590.284	30502.35
590.643	30614.66
591.003	30938.95
591.362	31078.38
591.721	31083.35
592.08	31059.17
592.44	31014.2
592.799	31094.65
593.158	31093.74
593.517	31041.99
593.876	31115.44
594.235	31034.31
594.593	31008.78
594.952	30991.37
595.311	30934.65
595.67	30956.8
596.029	31107.53
596.387	31019.4
596.746	30978.95
597.104	30764.71
597.463	30866.41
597.822	31068.66
598.18	30968.78
598.538	30899.4
598.897	31110.02
599.255	30851.04
599.613	31451.93
599.972	31248.99
600.33	31410.8
600.688	31317.24
601.046	31510.46
601.404	31659.61
601.762	31522.89
602.12	31730.56
602.478	31607.63
602.836	31752.26
603.194	31592.26
603.552	31735.76
603.91	31519.27
604.268	31629.78
604.625	31416.22
604.983	31606.27
605.341	31263.68
605.698	31534.86
606.056	31498.25
606.413	31573.96
606.771	31599.49
607.128	31598.14
607.485	31567.86
607.843	31595.43
608.2	31825.02
608.557	32007.39
608.914	31863.44
609.272	31988.64
609.629	31967.62
609.986	32241.06
610.343	32058.01
610.7	32239.93
611.057	32233.83
611.414	32446.03
611.771	32470.88
612.127	32646.92
612.484	32583.65
612.841	32766.47
613.198	32530.32
613.554	32605.12
613.911	32784.32
614.267	32682.86
614.624	32623.42
614.98	32603.99
615.337	32865.9
615.693	32664.55
616.05	32570.54
616.406	32763.76
616.762	32512.69
617.118	32624.33
617.475	32524.44
617.831	32621.39
618.187	32675.62
618.543	32705.91
618.899	32823.64
619.255	32924.2
619.611	32867.94
619.967	33094.37
620.323	33152.45
620.678	32989.51
621.034	33109.28
621.39	33159.23
621.746	33097.31
622.101	33454.81
622.457	33302.95
622.812	33284.2
623.168	33547.69
623.523	33481.7
623.879	33552.21
624.234	33409.39
624.589	33308.6
624.945	33609.16
625.3	33570.97
625.655	33497.75
626.01	33475.15
626.365	33322.39
626.72	33255.5
627.075	33266.57
627.43	33274.48
627.785	33081.26
628.14	33097.53
628.495	33116.97
628.85	33104.77
629.205	32937.99
629.559	32976.63
629.914	32979.8
630.269	33037.87
630.623	33121.26
630.978	32952.23
631.332	33162.84
631.687	33243.97
632.041	33175.27
632.396	33236.74
632.75	33120.58
633.104	33123.97
633.459	32944.54
633.813	33098.66
634.167	33003.52
634.521	32923.98
634.875	33119.91
635.229	32897.76
635.583	32956.75
635.937	32920.82
636.291	32887.14
636.645	32931.21
636.999	32750.42
637.352	32806.24
637.706	32551.79
638.06	32637.88
638.413	32630.2
638.767	32413.26
639.121	32444.67
639.474	32209.2
639.828	32167.61
640.181	32220.49
640.534	32201.74
640.888	32006.26
641.241	31952.93
641.594	31953.38
641.947	32235.86
642.301	32116.09
642.654	32313.83
643.007	32191.79
643.36	32259.82
643.713	32200.61
644.066	32324.45
644.419	32303.66
644.771	32188.18
645.124	32098.69
645.477	32167.61
645.83	31895.76
646.182	31823.67
646.535	31398.82
646.888	31241.99
647.24	31065.27
647.593	31158.83
647.945	30894.2
648.298	30882.68
648.65	30689.01
649.002	30675.9
649.355	30911.15
649.707	30945.73
650.059	31091.71
650.411	31439.5
650.763	31396.11
651.115	31557.24
651.467	31480.18
651.819	31379.39
652.171	31384.13
652.523	31345.49
652.875	31339.16
653.227	31306.39
653.578	31462.32
653.93	31520.4
654.282	31318.15
654.633	31144.36
654.985	31308.2
655.337	31426.62
655.688	31401.08
656.039	31570.34
656.391	31325.15
656.742	31446.5
657.094	31581.64
657.445	31833.39
657.796	31658.93
658.147	31542.32
658.498	31477.46
658.849	31685.14
659.2	31584.81
659.551	31527.41
659.902	31531.02
660.253	31458.25
660.604	31406.73
660.955	31424.36
661.306	31448.99
661.656	31291.93
662.007	31253.06
662.358	31107.3
662.708	31039.06
663.059	30940.75
663.409	30881.09
663.76	30976.91
664.11	30869.12
664.461	30941.88
664.811	30790.7
665.161	30925.16
665.511	30735.11
665.862	30851.27
666.212	31015.1
666.562	31032.5
666.912	31064.59
667.262	30987.98
667.612	31077.25
667.962	31227.3
668.312	31262.55
668.662	31467.75
669.011	31394.75
669.361	31363.34
669.711	31332.61
670.06	31275.66
670.41	31260.07
670.76	31260.29
671.109	31266.85
671.459	31134.42
671.808	31022.79
672.157	31158.38
672.507	30961.09
672.856	30960.19
673.205	30912.51
673.554	30896.46
673.904	30762.68
674.253	30828.67
674.602	30664.15
674.951	30091.06
675.3	29971.29
675.649	30482.46
675.998	30309.13
676.346	30237.95
676.695	30265.29
677.044	30019.2
677.393	30208.57
677.741	30230.49
678.09	30098.52
678.438	30030.04
678.787	30181.23
679.135	30269.13
679.484	29969.71
679.832	30276.36
680.181	30054.68
680.529	30239.08
680.877	30220.32
681.225	30176.03
681.573	30588.67
681.922	30194.33
682.27	30292.64
682.618	30256.03
682.966	30177.38
683.314	30298.96
683.661	30105.3
684.009	29879.99
684.357	29817.85
684.705	29770.39
685.053	29905.3
685.4	29692.88
685.748	29627.57
686.095	29504.86
686.443	29317.29
686.79	29243.85
687.138	29341.93
687.485	29130.86
687.832	29046.34
688.18	28949.39
688.527	28812
688.874	28678.44
689.221	28533.81
689.568	28375.62
689.915	28378.56
690.262	28435.96
690.609	28311.44
690.956	28228.96
691.303	28183.54
691.65	27974.5
691.997	28109.42
692.344	27791.46
692.69	27815.86
693.037	27821.97
693.383	27757.11
693.73	27751.69
694.077	27788.29
694.423	27797.33
694.769	27664.68
695.116	27672.82
695.462	27577.68
695.808	27510.11
696.155	27642.99
696.501	27377.46
696.847	27507.85
697.193	27195.99
697.539	27232.15
697.885	27108.31
698.231	26981.99
698.577	26981.54
698.923	26834.87
699.269	26810.47
699.614	26622
699.96	26542.9
700.306	26462.68
700.651	26268.79
700.997	25985.86
701.342	25956.93
701.688	25855.92
702.033	25850.72
702.379	25627.22
702.724	25528.24
703.069	25684.85
703.415	25355.36
703.76	25283.05
704.105	25339.09
704.45	25284.41
704.795	25109.04
705.14	25199.21
705.485	25041.25
705.83	24982.27
706.175	25008.03
706.52	25021.36
706.865	24969.61
707.209	25039.67
707.554	24978.43
707.899	25020.68
708.243	24881.48
708.588	24920.35
708.932	24793.57
709.277	24879.67
709.621	24910.18
709.966	24730.97
710.31	24712.67
710.654	24597.42
710.998	24545.67
711.342	24619.79
711.687	24454.15
712.031	24324.88
712.375	24274.71
712.719	24229.29
713.063	24149.97
713.407	24100.03
713.75	24090.31
714.094	23911.33
714.438	23823.2
714.782	23746.37
715.125	23660.95
715.469	23498.24
715.812	23408.3
716.156	23275.65
716.499	23239.49
716.843	23270
717.186	23130.56
717.53	23281.07
717.873	23211.92
718.216	23141.64
718.559	23107.74
718.902	22973.73
719.246	23015.09
719.589	23001.3
719.932	23005.82
720.275	22972.83
720.617	22962.66
720.96	22973.28
721.303	23008.99
721.646	23020.06
721.989	23004.47
722.331	23124.91
722.674	23144.8
723.016	23147.51
723.359	23114.52
723.701	23145.48
724.044	23037.91
724.386	23009.21
724.729	23025.48
725.071	22973.51
725.413	22960.63
725.755	22953.85
726.097	22868.42
726.439	22811.7
726.782	22646.74
727.124	22768.54
727.465	22584.36
727.807	22579.17
728.149	22568.32
728.491	22415.78
728.833	22681.99
729.175	22457.81
729.516	22400.87
729.858	22445.84
730.199	22490.81
730.541	22395.67
730.882	22336.69
731.224	22394.31
731.565	22156.13
731.906	22140.99
732.248	22256.46
732.589	22169.69
732.93	22105.96
733.271	22210.81
733.612	22287.65
733.953	22267.76
734.294	22056.69
734.635	22206.97
734.976	22225.05
735.317	22107.31
735.658	22185.73
735.999	22249.91
736.339	22224.37
736.68	22243.81
737.021	22347.53
737.361	22276.8
737.702	22427.53
738.042	22307.08
738.383	22294.88
738.723	22289.46
739.063	22371.94
739.404	22527.87
739.744	22459.17
740.084	22413.52
740.424	22533.07
740.764	22577.58
741.104	22583.01
741.444	22394.99
741.784	22312.28
742.124	22383.92
742.464	22420.07
742.804	22335.33
743.143	22344.82
743.483	22258.5
743.823	22315.9
744.162	22271.83
744.502	22314.09
744.841	22190.7
745.181	22284.48
745.52	22174.66
745.86	22213.3
746.199	22209.46
746.538	22154.32
746.877	22234.32
747.216	22261.43
747.556	22231.83
747.895	22316.12
748.234	22324.48
748.573	22413.52
748.911	22316.57
749.25	22363.35
749.589	22421.88
749.928	22387.08
750.267	22552.27
750.605	22482.45
750.944	22543.46
751.283	22418.94
751.621	22670.01
751.96	22531.94
752.298	22611.93
752.636	22645.83
752.975	22646.51
753.313	22767.86
753.651	22848.31
753.989	22782.78
754.327	22787.97
754.666	22912.94
755.004	23010.34
755.342	22973.05
755.679	23023
756.017	22863.68
756.355	23148.87
756.693	23026.84
757.031	23107.06
757.368	22990.68
757.706	23092.37
758.044	22931.02
758.381	22959.95
758.719	22932.38
759.056	23044.46
759.394	23041.53
759.731	22917.91
760.068	22921.3
760.405	22947.97
760.743	22877.24
761.08	22981.19
761.417	22854.41
761.754	22834.53
762.091	22756.56
762.428	22774.87
762.765	22495.55
763.102	22585.95
763.438	22508.66
763.775	22482.22
764.112	22580.52
764.449	22730.57
764.785	22542.33
765.122	22509.79
765.458	22515.89
765.795	22532.84
766.131	22591.14
766.467	22438.38
766.804	22409.23
767.14	22528.77
767.476	22576
767.812	22549.11
768.148	22542.33
768.485	22449.45
768.821	22328.55
769.157	22278.16
769.492	22330.81
769.828	22357.03
770.164	22110.25
770.5	22249.68
770.836	22303.24
771.171	22079.74
771.507	22143.25
771.842	22046.07
772.178	22121.55
772.513	22110.48
772.849	21916.36
773.184	21811.5
773.519	21810.6
773.855	21761.11
774.19	21639.98
774.525	21667.33
774.86	21612.86
775.195	21498.52
775.53	21405.64
775.865	21271.4
776.2	21183.72
776.535	21130.16
776.87	21174.01
777.205	20958.64
777.539	21009.04
777.874	20938.53
778.209	20800
778.543	20756.39
778.878	20574.7
779.212	20638.2
779.547	20401.14
779.881	20506.9
780.215	20290.64
780.55	20307.36
780.884	20288.6
781.218	20233.92
781.552	20124.09
781.886	19988.73
782.22	20029.85
782.554	19936.75
782.888	19813.36
783.222	19742.63
783.556	19638.23
783.889	19701.05
784.223	19559.13
784.557	19563.43
784.89	19548.06
785.224	19486.14
785.557	19404.79
785.891	19320.27
786.224	19365.92
786.558	19381.74
786.891	19185.58
787.224	19067.17
787.557	19075.3
787.891	19057.9
788.224	19089.31
788.557	19122.08
788.89	18960.73
789.223	18967.51
789.556	18919.6
789.888	18900.62
790.221	18806.84
790.554	18559.38
790.887	18596.45
791.219	18614.07
791.552	18430.8
791.884	18300.86
792.217	18329.79
792.549	18288.21
792.882	18113.52
793.214	18129.34
793.546	18119.85
793.879	18183.58
794.211	17880.31
794.543	18031.26
794.875	17857.71
795.207	17890.93
795.539	17686.41
795.871	17635.12
796.203	17512.86
796.535	17443.03
796.867	17519.64
797.198	17365.07
797.53	17272.19
797.862	17239.87
798.193	17203.26
798.525	17109.48
798.856	17261.79
799.188	16959.65
799.519	16998.52
799.85	16816.61
800.182	16800.34
800.513	16839.2
800.844	16690.51
801.175	16785.19
801.506	16675.37
801.837	16640.57
802.168	16481.47
802.499	16507.01
802.83	16450.29
803.161	16489.83
803.491	16391.76
803.822	16447.8
804.153	16398.99
804.483	16300.24
804.814	16274.93
805.145	16306.11
805.475	16283.06
805.805	16137.98
806.136	16270.63
806.466	16279.44
806.796	16165.32
807.126	16002.39
807.457	16090.3
807.787	16052.78
808.117	16053.91
808.447	16009.4
808.777	16053.24
809.107	15897.76
809.436	15864.54
809.766	15925.33
810.096	15866.8
810.426	15693.92
810.755	15772.79
811.085	15656.86
811.414	15662.96
811.744	15586.81
812.073	15467.49
812.403	15553.36
812.732	15441.95
813.061	15369.64
813.39	15212.13
813.719	15224.11
814.049	15201.28
814.378	15123.09
814.707	15158.8
815.036	15096.2
815.365	15135.07
815.693	14924.45
816.022	14972.81
816.351	14916.09
816.68	14737.11
817.008	14856.66
817.337	14736.66
817.665	14602.43
817.994	14624.57
818.322	14609.66
818.651	14545.93
818.979	14455.54
819.307	14499.6
819.636	14447.85
819.964	14430.68
820.292	14436.1
820.62	14458.93
820.948	14362.21
821.276	14495.76
821.604	14425.03
821.932	14557.23
822.259	14442.88
822.587	14490.79
822.915	14456.89
823.243	14570.56
823.57	14531.02
823.898	14521.07
824.225	14436.33
824.553	14464.8
824.88	14571.92
825.207	14648.53
825.535	14604.91
825.862	14623.44
826.189	14478.81
826.516	14659.37
826.843	14747.73
827.17	14597.23
827.497	14633.61
827.824	14620.05
828.151	14643.1
828.478	14556.55
828.805	14662.76
829.131	14528.3
829.458	14495.99
829.785	14500.28
830.111	14524.01
830.438	14578.92
830.764	14601.75
831.09	14572.82
831.417	14473.84
831.743	14534.18
832.069	14506.61
832.395	14362.43
832.722	14481.53
833.048	14325.6
833.374	14324.02
833.7	14197.01
834.026	14255.09
834.351	14245.6
834.677	14251.48
835.003	14265.71
835.329	14144.59
835.654	14211.93
835.98	14061.42
836.306	14125.38
836.631	14026.4
836.956	14031.14
837.282	13990.92
837.607	13911.82
837.932	13946.62
838.258	13927.42
838.583	13909.56
838.908	13921.77
839.233	13900.98
839.558	13951.6
839.883	13803.35
840.208	13759.51
840.533	13778.72
840.858	13738.27
841.182	13775.1
841.507	13779.4
841.832	13740.08
842.156	13738.72
842.481	13750.92
842.805	13829.11
843.13	13681.55
843.454	13670.93
843.778	13739.62
844.103	13621.89
844.427	13599.97
844.751	13628.44
845.075	13526.07
845.399	13530.82
845.723	13516.58
846.047	13409.92
846.371	13350.03
846.695	13511.16
847.019	13293.31
847.343	13283.37
847.666	13236.59
847.99	13115.23
848.313	13171.5
848.637	13112.75
848.96	13017.61
849.284	12974
849.607	12854.45
849.931	12847.67
850.254	12743.49
850.577	12684.96
850.9	12615.81
851.223	12513.67
851.546	12449.94
851.869	12408.81
852.192	12448.59
852.515	12289.04
852.838	12231.42
853.161	12254.24
853.483	12119.1
853.806	12022.38
854.129	12112.77
854.451	12041.59
854.774	11888.83
855.096	11873.23
855.419	11781.71
855.741	11840.24
856.063	11733.12
856.385	11712.79
856.708	11700.81
857.03	11579.91
857.352	11634.6
857.674	11522.51
857.996	11524.77
858.318	11495.16
858.64	11459.68
858.961	11486.35
859.283	11456.97
859.605	11382.4
859.926	11380.82
860.248	11328.61
860.57	11347.15
860.891	11376.75
861.212	11265.79
861.534	11200.93
861.855	11227.15
862.176	11270.76
862.498	11235.06
862.819	11249.29
863.14	11232.35
863.461	11153.03
863.782	11179.69
864.103	11156.87
864.424	11171.33
864.745	11235.74
865.065	11222.4
865.386	11135.4
865.707	11183.99
866.027	11167.71
866.348	11125.46
866.668	11060.6
866.989	11029.19
867.309	11000.94
867.63	11075.51
867.95	11067.83
868.27	10997.78
868.59	11112.8
868.91	10988.74
869.23	10987.38
869.55	10983.09
869.87	11027.61
870.19	10876.65
870.51	10929.75
870.83	10901.06
871.15	10831.45
871.469	10808.63
871.789	10739.25
872.109	10762.75
872.428	10724.11
872.748	10720.49
873.067	10646.6
873.386	10665.13
873.706	10628.52
874.025	10611.12
874.344	10526.6
874.663	10513.27
874.982	10568.63
875.301	10426.94
875.62	10375.19
875.939	10377.68
876.258	10296.33
876.577	10357.34
876.896	10343.33
877.214	10339.26
877.533	10321.18
877.852	10350.11
878.17	10322.09
878.489	10270.56
878.807	10287.29
879.125	10198.25
879.444	10230.79
879.762	10163.67
880.08	10153.5
880.398	10087.29
880.716	10071.47
881.034	9988.76
881.352	10050.68
881.67	10043.22
881.988	10059.5
882.306	10029.44
882.624	10040.74
882.941	9965.71
883.259	9885.94
883.577	9958.03
883.894	10001.64
884.212	9928.88
884.529	9981.76
884.846	9931.59
885.164	9854.76
885.481	9909.89
885.798	9916.67
886.115	9979.5
886.432	9834.42
886.75	9854.98
887.067	9911.25
887.383	9876.68
887.7	9895.88
888.017	9789.9
888.334	9799.62
888.651	9765.94
888.967	9734.76
889.284	9753.51
889.6	9806.17
889.917	9673.29
890.233	9684.59
890.55	9631.48
890.866	9643.01
891.182	9598.94
891.498	9492.5
891.815	9570.47
892.131	9485.95
892.447	9492.28
892.763	9435.33
893.079	9410.02
893.395	9347.2
893.71	9286.41
894.026	9209.35
894.342	9175.68
894.657	9226.3
894.973	9143.14
895.289	9157.6
895.604	9151.27
895.92	9021.33
896.235	8963.48
896.55	9004.16
896.865	8932.29
897.181	8940.65
897.496	8890.49
897.811	8796.25
898.126	8769.81
898.441	8662.7
898.756	8711.06
899.071	8619.53
899.386	8658.63
899.7	8536.82
900.015	8597.39
900.33	8512.42
900.644	8471.06
900.959	8488.46
901.273	8433.1
901.588	8351.97
901.902	8317.39
902.216	8365.53
902.531	8344.29
902.845	8285.3
903.159	8214.8
903.473	8217.51
903.787	8206.44
904.101	8129.38
904.415	8170.96
904.729	8066.78
905.042	8109.72
905.356	8098.42
905.67	8140.22
905.984	8059.77
906.297	8076.27
906.611	8002.37
906.924	8006.22
907.237	7983.39
907.551	7920.12
907.864	7876.95
908.177	7903.39
908.491	7942.26
908.804	7854.58
909.117	7811.19
909.43	7802.38
909.743	7734.13
910.056	7771.42
910.368	7768.71
910.681	7679.22
910.994	7659.11
911.307	7663.17
911.619	7595.83
911.932	7584.76
912.244	7572.56
912.557	7580.69
912.869	7512.9
913.181	7460.69
913.494	7503.18
913.806	7377.31
914.118	7373.69
914.43	7353.58
914.742	7348.15
915.054	7336.86
915.366	7266.8
915.678	7191.1
915.99	7193.13
916.302	7148.61
916.613	7114.26
916.925	7171.89
917.236	7131.89
917.548	7088.95
917.859	7050.99
918.171	6921.72
918.482	6890.54
918.794	6885.12
919.105	6810.54
919.416	6770.77
919.727	6769.19
920.038	6736.42
920.349	6667.72
920.66	6646.7
920.971	6622.52
921.282	6562.19
921.593	6520.38
921.903	6520.38
922.214	6522.87
922.525	6489.65
922.835	6407.61
923.146	6477.89
923.456	6385.02
923.767	6409.42
924.077	6346.15
924.387	6336.2
924.697	6287.17
925.008	6287.84
925.318	6266.6
925.628	6224.12
925.938	6174.85
926.248	6162.2
926.558	6120.84
926.867	6131.01
927.177	6102.99
927.487	6025.25
927.796	5996.78
928.106	6058.47
928.416	6037.23
928.725	5993.61
929.034	5929.43
929.344	5939.38
929.653	5924.24
929.962	5899.83
930.271	5847.85
930.581	5872.49
930.89	5891.7
931.199	5843.11
931.508	5831.13
931.817	5786.61
932.125	5810.57
932.434	5783.68
932.743	5698.48
933.051	5706.16
933.36	5686.05
933.669	5674.53
933.977	5656.9
934.286	5647.63
934.594	5657.8
934.902	5578.48
935.21	5588.88
935.519	5570.57
935.827	5584.36
936.135	5516.11
936.443	5512.95
936.751	5477.69
937.059	5488.54
937.367	5462.78
937.674	5421.88
937.982	5394.08
938.29	5383.69
938.597	5338.04
938.905	5266.4
939.213	5250.13
939.52	5220.75
939.827	5248.77
940.135	5149.34
940.442	5146.63
940.749	5169.23
941.056	5159.29
941.363	5088.33
941.67	5085.39
941.977	5048.1
942.284	4973.53
942.591	4974.88
942.898	4907.54
943.205	4985.96
943.511	4940.99
943.818	4880.87
944.125	4795
944.431	4817.37
944.738	4802.68
945.044	4753.42
945.35	4706.19
945.657	4689.92
945.963	4706.19
946.269	4674.55
946.575	4660.77
946.881	4648.11
947.187	4648.56
947.493	4587.1
947.799	4558.17
948.105	4584.39
948.41	4541.67
948.716	4565.85
949.022	4512.07
949.327	4487.44
949.633	4436.14
949.938	4462.13
950.244	4440.66
950.549	4407.67
950.854	4400.66
951.16	4358.63
951.465	4360.21
951.77	4385.52
952.075	4350.72
952.38	4329.7
952.685	4281.34
952.99	4252.19
953.294	4293.09
953.599	4309.36
953.904	4255.13
954.209	4249.48
954.513	4237.73
954.818	4220.55
955.122	4184.62
955.426	4177.62
955.731	4208.35
956.035	4174.9
956.339	4147.33
956.643	4174.23
956.948	4079.31
957.252	4112.08
957.556	4078.18
957.86	4035.02
958.163	4061.46
958.467	4045.42
958.771	4072.99
959.075	4053.55
959.378	3996.6
959.682	3999.09
959.985	4032.54
960.289	3986.89
960.592	3918.87
960.896	3955.48
961.199	3915.7
961.502	3888.13
961.805	3893.1
962.108	3880.67
962.411	3851.3
962.714	3809.94
963.017	3837.29
963.32	3834.8
963.623	3790.51
963.926	3751.41
964.228	3744.41
964.531	3750.51
964.833	3714.35
965.136	3681.58
965.438	3654.24
965.741	3603.85
966.043	3609.04
966.345	3592.09
966.648	3578.99
966.95	3593
967.252	3533.79
967.554	3496.73
967.856	3533.79
968.158	3444.08
968.46	3536.28
968.761	3490.4
969.063	3467.35
969.365	3452.66
969.666	3398.43
969.968	3404.08
970.269	3414.25
970.571	3378.54
970.872	3371.31
971.174	3348.49
971.475	3325.66
971.776	3315.27
972.077	3276.85
972.378	3326.34
972.679	3258.54
972.98	3213.35
973.281	3211.77
973.582	3210.18
973.883	3206.34
974.183	3192.78
974.484	3116.4
974.785	3148.26
975.085	3148.72
975.386	3124.54
975.686	3086.8
975.986	3088.83
976.287	3128.83
976.587	3049.06
976.887	3091.09
977.187	3044.09
977.487	3037.08
977.787	3064.65
978.087	3000.7
978.387	3010.64
978.687	3028.04
978.987	2979.68
979.286	2942.17
979.586	2953.92
979.885	2989.17
980.185	2942.39
980.484	2952.56
980.784	2944.65
981.083	2929.97
981.382	2936.29
981.682	2898.33
981.981	2842.06
982.28	2893.13
982.579	2891.55
982.878	2877.54
983.177	2868.5
983.475	2835.73
983.774	2830.53
984.073	2821.49
984.372	2796.64
984.67	2813.58
984.969	2821.04
985.267	2795.05
985.566	2739.69
985.864	2752.79
986.162	2785.11
986.461	2723.19
986.759	2744.21
987.057	2711.44
987.355	2698.11
987.653	2661.05
987.951	2684.32
988.249	2660.59
988.547	2695.85
988.844	2651.55
989.142	2656.3
989.44	2593.25
989.737	2590.54
990.035	2609.52
990.332	2567.71
990.63	2581.73
990.927	2548.05
991.224	2546.25
991.521	2533.82
991.819	2521.84
992.116	2500.15
992.413	2484.1
992.71	2470.09
993.006	2446.81
993.303	2452.46
993.6	2422.63
993.897	2390.32
994.193	2393.71
994.49	2380.6
994.787	2379.25
995.083	2357.55
995.379	2373.6
995.676	2340.15
995.972	2340.83
996.268	2300.15
996.565	2289.98
996.861	2272.36
997.157	2297.67
997.453	2250.89
997.749	2270.1
998.044	2254.05
998.34	2230.1
998.636	2244.11
998.932	2179.02
999.227	2180.15
999.523	2169.99
999.818	2162.75
1000.114	2170.44
1000.409	2164.56
1000.704	2169.08
1001	2127.05
1001.295	2087.5
1001.59	2108.07
1001.885	2092.93
1002.18	2054.06
1002.475	2066.03
1002.77	2082.53
1003.065	2036.2
1003.359	2050.89
1003.654	2011.57
1003.949	2038.24
1004.243	2013.61
1004.538	2031.01
1004.832	1985.58
1005.127	2017.45
1005.421	2005.02
1005.715	2000.72
1006.009	1955.3
1006.304	1948.07
1006.598	1953.27
1006.892	1946.26
1007.186	1948.07
1007.48	1895.64
1007.773	1875.98
1008.067	1874.4
1008.361	1889.99
1008.655	1881.63
1008.948	1867.17
1009.242	1870.78
1009.535	1830.33
1009.829	1830.33
1010.122	1812.93
1010.415	1831.69
1010.708	1776.55
1011.001	1812.93
1011.295	1784.68
1011.588	1786.04
1011.881	1776.55
1012.173	1758.47
1012.466	1802.76
1012.759	1751.01
1013.052	1727.96
1013.344	1755.98
1013.637	1737
1013.93	1698.36
1014.222	1686.16
1014.514	1706.72
1014.807	1703.33
1015.099	1694.74
1015.391	1681.41
1015.683	1661.75
1015.976	1647.29
1016.268	1655.42
1016.56	1614.07
1016.851	1608.19
1017.143	1597.8
1017.435	1581.98
1017.727	1573.84
1018.018	1588.76
1018.31	1580.4
1018.602	1556.67
1018.893	1566.61
1019.185	1549.21
1019.476	1517.12
1019.767	1518.48
1020.058	1517.8
1020.35	1527.06
1020.641	1508.53
1020.932	1484.35
1021.223	1468.08
1021.514	1439.61
1021.804	1436.9
1022.095	1421.08
1022.386	1449.55
1022.677	1412.72
1022.967	1404.58
1023.258	1422.21
1023.548	1415.88
1023.839	1379.5
1024.129	1355.54
1024.419	1370.46
1024.709	1353.96
1025	1345.15
1025.29	1338.82
1025.58	1325.71
1025.87	1315.54
1026.16	1293.85
1026.449	1292.49
1026.739	1312.61
1027.029	1266.96
1027.319	1265.6
1027.608	1301.08
1027.898	1267.64
1028.187	1252.5
1028.477	1247.07
1028.766	1222.21
1029.055	1208.43
1029.344	1230.57
1029.634	1200.75
1029.923	1184.25
1030.212	1174.98
1030.501	1168.2
1030.79	1177.24
1031.078	1203.01
1031.367	1170.69
1031.656	1141.76
1031.945	1145.15
1032.233	1152.38
1032.522	1158.71
1032.81	1119.39
1033.099	1131.59
1033.387	1135.66
1033.675	1129.33
1033.963	1103.57
1034.251	1090.01
1034.54	1098.83
1034.828	1071.48
1035.116	1075.55
1035.403	1062.9
1035.691	1066.51
1035.979	1071.03
1036.267	1075.55
1036.554	1042.33
1036.842	1050.47
1037.129	1056.57
1037.417	1044.14
1037.704	1052.95
1037.992	1024.93
1038.279	1044.14
1038.566	1010.47
1038.853	1010.47
1039.14	1010.47
