Data from blue_shiny_book_FLMS001491_00097.txt Node
Date: Wed Feb 08 15:27:48 GMT 2017
User: dcchb
Spectrometer: FLMS00149
Trigger mode: 0
Integration Time (sec): 2.000000E-2
Scans to average: 10
Electric dark correction enabled: true
Nonlinearity correction enabled: false
Boxcar width: 0
XAxis mode: Wavelengths
Number of Pixels in Spectrum: 2048
>>>>>Begin Spectral Data<<<<<
341.393	-9.9
341.776	-9.9
342.16	-9.9
342.543	-55.32
342.927	-63.68
343.31	-64.81
343.693	-65.72
344.077	-96.9
344.46	-61.88
344.843	-56
345.226	-38.15
345.61	-16.23
345.993	-23.01
346.376	-18.71
346.759	4.56
347.142	27.39
347.525	66.26
347.908	68.29
348.291	63.77
348.674	97.89
349.057	113.26
349.44	143.54
349.823	136.54
350.206	166.59
350.588	192.13
350.971	212.69
351.354	212.92
351.737	238.23
352.119	239.58
352.502	267.38
352.884	286.36
353.267	277.78
353.65	295.63
354.032	301.96
354.414	322.29
354.797	297.44
355.179	323.65
355.562	327.94
355.944	323.2
356.326	336.3
356.709	346.93
357.091	346.25
357.473	359.13
357.855	356.42
358.238	351.45
358.62	345.8
359.002	345.12
359.384	349.64
359.766	356.87
360.148	361.16
360.53	357.77
360.912	331.11
361.294	342.86
361.676	342.86
362.057	340.6
362.439	361.39
362.821	312.12
363.203	316.87
363.584	344.44
363.966	328.4
364.348	331.33
364.729	334.5
365.111	312.35
365.493	338.11
365.874	349.64
366.256	331.79
366.637	307.6
367.019	355.97
367.4	327.72
367.781	343.99
368.163	331.56
368.544	321.16
368.925	321.84
369.306	313.25
369.688	329.3
370.069	303.31
370.45	324.1
370.831	320.49
371.212	328.62
371.593	311.22
371.974	336.53
372.355	338.11
372.736	327.27
373.117	320.94
373.498	323.42
373.879	337.21
374.26	331.11
374.641	339.02
375.021	340.15
375.402	335.85
375.783	334.95
376.163	353.25
376.544	359.81
376.925	320.71
377.305	348.06
377.686	372.24
378.066	331.79
378.447	343.99
378.827	348.96
379.208	350.99
379.588	356.19
379.968	368.17
380.349	363.65
380.729	371.11
381.109	355.51
381.489	379.47
381.87	327.94
382.25	359.35
382.63	361.84
383.01	376.76
383.39	370.43
383.77	377.21
384.15	391.9
384.53	386.47
384.91	382.41
385.29	374.95
385.67	390.31
386.049	385.34
386.429	404.78
386.809	374.72
387.189	398.45
387.568	385.34
387.948	405.46
388.328	401.16
388.707	414.04
389.087	405.46
389.466	412.69
389.846	443.42
390.225	413.36
390.605	449.07
390.984	424.44
391.363	436.64
391.743	446.81
392.122	440.26
392.501	440.93
392.881	464.89
393.26	450.43
393.639	427.38
394.018	454.49
394.397	433.25
394.776	456.98
395.155	468.96
395.534	460.14
395.913	452.01
396.292	472.35
396.671	469.18
397.05	476.19
397.429	477.77
397.808	475.74
398.186	476.87
398.565	466.24
398.944	497.43
399.323	472.8
399.701	494.27
400.08	504.44
400.458	504.89
400.837	516.41
401.215	520.71
401.594	505.57
401.972	524.77
402.351	523.42
402.729	532.46
403.107	543.08
403.486	567.71
403.864	570.65
404.242	545.11
404.62	575.62
404.999	544.21
405.377	578.33
405.755	583.53
406.133	579.69
406.511	575.17
406.889	598.22
407.267	614.26
407.645	604.32
408.023	610.65
408.401	604.09
408.779	616.07
409.156	630.53
409.534	657.65
409.912	654.26
410.29	648.84
410.667	700.14
411.045	676.86
411.422	670.08
411.8	681.15
412.178	697.2
412.555	729.29
412.933	704.43
413.31	728.38
413.687	760.02
414.065	764.54
414.442	772.68
414.819	741.27
415.197	772.23
415.574	751.44
415.951	804.77
416.328	800.7
416.705	810.19
417.082	838.44
417.46	818.1
417.837	844.54
418.214	835.05
418.591	835.5
418.967	874.14
419.344	828.04
419.721	846.12
420.098	873.69
420.475	889.51
420.852	899.91
421.228	901.04
421.605	911.66
421.982	959.57
422.358	955.05
422.735	960.47
423.111	943.07
423.488	978.1
423.864	979
424.241	987.81
424.617	983.07
424.994	995.27
425.37	1011.77
425.746	1015.38
426.123	1049.51
426.499	1031.2
426.875	1050.18
427.251	1096.28
427.627	1112.56
428.003	1134.25
428.379	1134.48
428.756	1150.75
429.132	1154.36
429.507	1147.36
429.883	1171.54
430.259	1215.83
430.635	1199.33
431.011	1243.85
431.387	1264.87
431.763	1275.49
432.138	1288.14
432.514	1276.84
432.89	1300.8
433.265	1315.26
433.641	1342.38
434.016	1328.14
434.392	1356.84
434.767	1416.5
435.143	1423.28
435.518	1418.99
435.894	1449.95
436.269	1487.01
436.644	1489.49
437.02	1522.04
437.395	1506.22
437.77	1520.23
438.145	1546.22
438.52	1563.84
438.895	1558.87
439.271	1591.86
439.646	1648.59
440.021	1676.61
440.395	1653.33
440.77	1642.26
441.145	1697.17
441.52	1711.64
441.895	1704.86
442.27	1754.8
442.645	1757.74
443.019	1761.8
443.394	1767.45
443.769	1771.52
444.143	1754.57
444.518	1800.67
444.892	1801.12
445.267	1847
445.641	1859.65
446.016	1862.14
446.39	1896.72
446.764	1894.91
447.139	1851.97
447.513	1924.96
447.887	1918.41
448.262	1913.44
448.636	1970.61
449.01	1978.75
449.384	2014.68
449.758	2022.59
450.132	2033.66
450.506	2066.65
450.88	2074.11
451.254	2052.87
451.628	2080.89
452.002	2123.6
452.376	2162.25
452.75	2175.58
453.123	2171.96
453.497	2234.79
453.871	2225.29
454.244	2217.84
454.618	2293.77
454.992	2349.36
455.365	2335.57
455.739	2382.13
456.112	2417.15
456.486	2449.24
456.859	2461.9
457.232	2519.52
457.606	2524.72
457.979	2536.47
458.352	2573.31
458.725	2613.31
459.099	2658.05
459.472	2692.17
459.845	2743.25
460.218	2711.16
460.591	2763.81
460.964	2776.24
461.337	2847.88
461.71	2919.97
462.083	2962.68
462.456	2976.01
462.829	2999.06
463.201	3053.75
463.574	3036.12
463.947	3084.03
464.32	3142.11
464.692	3213.29
465.065	3224.59
465.438	3255.78
465.81	3289.9
466.183	3345.94
466.555	3430.91
466.928	3480.18
467.3	3467.97
467.672	3527.18
468.045	3594.75
468.417	3639.49
468.789	3658.03
469.161	3731.92
469.534	3742.09
469.906	3808.98
470.278	3842.88
470.65	3912.48
471.022	3959.71
471.394	4071.12
471.766	4120.16
472.138	4107.96
472.51	4219.37
472.882	4328.52
473.253	4377.33
473.625	4384.79
473.997	4537.1
474.369	4516.31
474.74	4575.97
475.112	4668.39
475.484	4691.44
475.855	4822.51
476.227	4875.62
476.598	4981.38
476.97	5059.57
477.341	5144.99
477.713	5208.49
478.084	5253.69
478.455	5465.44
478.827	5510.86
479.198	5599.67
479.569	5651.42
479.94	5775.48
480.311	5800.12
480.682	5962.37
481.053	6074.91
481.424	6134.57
481.795	6235.36
482.166	6312.42
482.537	6435.81
482.908	6604.16
483.279	6595.35
483.65	6802.35
484.021	6907.66
484.391	6971.84
484.762	7055
485.133	7170.25
485.503	7259.96
485.874	7353.75
486.244	7464.48
486.615	7599.84
486.985	7694.3
487.356	7842.77
487.726	7873.51
488.097	8048.87
488.467	8057.46
488.837	8246.61
489.207	8400.95
489.578	8530.89
489.948	8508.75
490.318	8739.02
490.688	8852.92
491.058	8969.75
491.428	9118.45
491.798	9193.47
492.168	9352.34
492.538	9394.6
492.908	9480.47
493.278	9595.27
493.648	9600.92
494.017	9750.29
494.387	9867.81
494.757	9945.54
495.126	10018.54
495.496	10166.1
495.866	10240.45
496.235	10348.02
496.605	10472.08
496.974	10588.92
497.344	10673.66
497.713	10805.86
498.082	10867.55
498.452	11092.63
498.821	11036.36
499.19	11022.13
499.559	11148.45
499.928	11171.05
500.298	11260.09
500.667	11345.28
501.036	11328.11
501.405	11444.04
501.774	11540.76
502.143	11655.78
502.512	11738.04
502.88	11823.69
503.249	11919.95
503.618	12057.13
503.987	12084.02
504.356	12162.43
504.724	12302.54
505.093	12350.9
505.462	12512.48
505.83	12464.57
506.199	12574.4
506.567	12636.09
506.936	12725.58
507.304	12842.19
507.672	12873.15
508.041	12914.96
508.409	13067.5
508.777	13133.03
509.145	13364.89
509.514	13479.91
509.882	13530.76
510.25	13657.54
510.618	13737.31
510.986	13724.88
511.354	13981.82
511.722	14086.9
512.09	14120.8
512.458	14187.92
512.826	14291.64
513.193	14332.55
513.561	14282.38
513.929	14496.61
514.297	14464.52
514.664	14604.63
515.032	14692.76
515.4	14799.43
515.767	14933.21
516.135	15119.19
516.502	14968.46
516.869	15283.26
517.237	15341.79
517.604	15377.04
517.972	15647.09
518.339	15818.61
518.706	15771.61
519.073	15750.36
519.44	15872.39
519.808	16083.46
520.175	16016.8
520.542	16259.5
520.909	16235.1
521.276	16330.23
521.643	16454.75
522.009	16622.66
522.376	16734.07
522.743	16785.59
523.11	16938.81
523.477	17073.04
523.843	17348.29
524.21	17540.15
524.577	17881.61
524.943	17967.25
525.31	17899.01
525.676	18133.8
526.043	18215.16
526.409	18362.95
526.776	18414.93
527.142	18469.84
527.508	18475.94
527.874	18603.85
528.241	18737.85
528.607	18796.61
528.973	19037.51
529.339	18914.57
529.705	19184.17
530.071	19358.86
530.437	19503.94
530.803	19749.13
531.169	19806.3
531.535	19889.24
531.901	19871.16
532.267	20117.25
532.632	20338.94
532.998	20396.12
533.364	20573.96
533.73	20683.34
534.095	20749.1
534.461	20714.75
534.826	20758.82
535.192	20750.91
535.557	20912.94
535.923	20904.8
536.288	20904.8
536.653	21025.25
537.019	20920.85
537.384	21080.62
537.749	21253.49
538.114	21415.52
538.479	21471.57
538.845	21676.76
539.21	21651.45
539.575	21930.09
539.94	21980.48
540.305	22147.26
540.67	21991.33
541.034	22151.55
541.399	22185.45
541.764	22263.41
542.129	22277.42
542.494	22304.31
542.858	22352
543.223	22360.58
543.587	22323.75
543.952	22293.24
544.316	22334.14
544.681	22554.7
545.045	22533.01
545.41	22742.95
545.774	22706.79
546.138	22757.64
546.503	22913.79
546.867	23057.74
547.231	23283.05
547.595	23279.2
547.959	23446.66
548.324	23456.15
548.688	23542.7
549.052	23686.88
549.416	23560.78
549.779	23649.14
550.143	23604.17
550.507	23609.37
550.871	23764.39
551.235	23568.24
551.599	23672.64
551.962	23835.35
552.326	23768.68
552.689	23948.79
553.053	23800.32
553.417	23936.81
553.78	24362.57
554.143	24192.4
554.507	24498.38
554.87	24541.09
555.234	24744.48
555.597	24739.05
555.96	24845.72
556.323	24953.96
556.686	25040.29
557.05	25028.76
557.413	25164.8
557.776	25231.7
558.139	25196.67
558.502	25167.06
558.865	25190.34
559.228	25290
559.59	25311.02
559.953	25221.98
560.316	25484.8
560.679	25521.63
561.041	25706.71
561.404	25901.28
561.767	26033.48
562.129	25920.49
562.492	26290.65
562.854	26270.99
563.217	26432.12
563.579	26622.85
563.941	26963.85
564.304	27040.91
564.666	27098.76
565.028	27055.15
565.39	27186.45
565.753	27396.61
566.115	27437.74
566.477	27487.68
566.839	27494.23
567.201	27536.72
567.563	27382.15
567.925	27568.13
568.287	27579.43
568.648	27537.85
569.01	27637.96
569.372	27835.47
569.734	27752.31
570.095	28051.28
570.457	28169.92
570.819	28280.65
571.18	28327.43
571.542	28429.13
571.903	28599.52
572.265	28857.59
572.626	28791.15
572.987	28996.34
573.349	29140.07
573.71	29203.34
574.071	29354.52
574.432	29364.47
574.794	29508.87
575.155	29431.13
575.516	29368.54
575.877	29321.08
576.238	29330.57
576.599	29436.33
576.96	29397.01
577.32	29382.09
577.681	29631.58
578.042	29500.51
578.403	29628.19
578.763	29675.19
579.124	29769.2
579.485	29942.53
579.845	30039.25
580.206	29999.71
580.566	30116.31
580.927	30321.05
581.287	30405.57
581.648	30338.23
582.008	30561.72
582.368	30567.15
582.728	30732.79
583.089	30598.33
583.449	30552.01
583.809	30626.36
584.169	30724.43
584.529	30568.73
584.889	30806.46
585.249	30470.2
585.609	30574.15
585.969	30584.1
586.329	30592.46
586.688	30420.71
587.048	30492.57
587.408	30337.1
587.768	30373.26
588.127	30386.59
588.487	30376.87
588.846	30702.29
589.206	30596.3
589.565	30618.45
589.925	30678.78
590.284	30726.69
590.643	30875.16
591.003	30958.32
591.362	31118.09
591.721	31035.38
592.08	31112.9
592.44	31183.4
592.799	31264.53
593.158	31294.81
593.517	31282.38
593.876	31185.66
594.235	31214.81
594.593	31117.64
594.952	31184.08
595.311	30968.27
595.67	30929.85
596.029	31290.29
596.387	31129.17
596.746	31161.71
597.104	30914.94
597.463	31031.32
597.822	31107.92
598.18	31013.24
598.538	30946.57
598.897	31250.52
599.255	31093.46
599.613	31514.92
599.972	31298.2
600.33	31575.48
600.688	31561.25
601.046	31600.34
601.404	31717.17
601.762	31669.49
602.12	31790.39
602.478	31778.87
602.836	31881.01
603.194	31697.97
603.552	31810.96
603.91	31808.02
604.268	31759.66
604.625	31536.39
604.983	31594.47
605.341	31441.25
605.698	31541.81
606.056	31713.33
606.413	31563.28
606.771	31810.05
607.128	31692.99
607.485	31624.3
607.843	31720.11
608.2	31869.71
608.557	32054.11
608.914	31966.43
609.272	32194.22
609.629	32250.27
609.986	32318.97
610.343	32232.19
610.7	32317.84
611.057	32428.34
611.414	32479.19
611.771	32527.32
612.127	32732.97
612.484	32765.06
612.841	32811.16
613.198	32672.4
613.554	32725.96
613.911	32862.91
614.267	32867.88
614.624	32751.95
614.98	32852.51
615.337	32933.87
615.693	32942.9
616.05	32702.46
616.406	32845.73
616.762	32685.74
617.118	32694.32
617.475	32758.5
617.831	32789.69
618.187	32771.16
618.543	32885.73
618.899	33032.85
619.255	33019.97
619.611	33151.04
619.967	33200.53
620.323	33282.11
620.678	33191.94
621.034	33283.69
621.39	33247.3
621.746	33213.86
622.101	33565.94
622.457	33384.25
622.812	33563.91
623.168	33611.36
623.523	33649.1
623.879	33677.35
624.234	33476.68
624.589	33660.17
624.945	33640.29
625.3	33669.67
625.655	33589.67
626.01	33535.88
626.365	33426.28
626.72	33354.19
627.075	33461.99
627.43	33301.77
627.785	33236.68
628.14	33236.68
628.495	33223.8
628.85	33188.32
629.205	33157.59
629.559	33182.22
629.914	33085.5
630.269	33227.64
630.623	33150.13
630.978	33098.61
631.332	33368.66
631.687	33412.05
632.041	33341.09
632.396	33372.95
632.75	33257.02
633.104	33196.91
633.459	33166.63
633.813	33272.39
634.167	33254.99
634.521	33101.09
634.875	33221.09
635.229	33147.42
635.583	33061.77
635.937	33184.48
636.291	33002.34
636.645	33032.85
636.999	32952.85
637.352	32989.01
637.706	32589.24
638.06	32907.2
638.413	32779.75
638.767	32584.5
639.121	32435.35
639.474	32212.75
639.828	32363.26
640.181	32333.88
640.534	32313.32
640.888	32105.41
641.241	32105.64
641.594	32316.03
641.947	32310.83
642.301	32250.04
642.654	32272.41
643.007	32303.37
643.36	32345.41
643.713	32282.13
644.066	32472.86
644.419	32373.88
644.771	32349.7
645.124	32237.61
645.477	32157.16
645.83	32113.55
646.182	31848.7
646.535	31515.82
646.888	31339.78
647.24	31206.68
647.593	31311.08
647.945	30974.37
648.298	30929.17
648.65	31011.88
649.002	30851.66
649.355	31015.27
649.707	30994.26
650.059	31216.17
650.411	31532.09
650.763	31478.76
651.115	31758.76
651.467	31541.13
651.819	31610.06
652.171	31519.21
652.523	31420.91
652.875	31422.27
653.227	31402.38
653.578	31678.08
653.93	31617.06
654.282	31412.1
654.633	31370.06
654.985	31438.54
655.337	31395.83
655.688	31490.97
656.039	31585.65
656.391	31415.26
656.742	31537.07
657.094	31542.49
657.445	31935.02
657.796	31793.33
658.147	31606.67
658.498	31644.86
658.849	31777.96
659.2	31789.49
659.551	31649.61
659.902	31778.64
660.253	31606.89
660.604	31593.56
660.955	31392.89
661.306	31504.75
661.656	31433.79
662.007	31292.55
662.358	31283.06
662.708	31354.25
663.059	31243.51
663.409	31027.25
663.76	31213.91
664.11	30986.35
664.461	31033.8
664.811	30879
665.161	30850.3
665.511	30887.82
665.862	31021.6
666.212	31250.75
666.562	31221.37
666.912	31119.9
667.262	31162.84
667.612	31307.92
667.962	31384.98
668.312	31389.95
668.662	31603.05
669.011	31534.58
669.361	31602.6
669.711	31425.66
670.06	31413.23
670.41	31387.69
670.76	31362.61
671.109	31349.73
671.459	31344.08
671.808	31098.43
672.157	31351.31
672.507	31011.66
672.856	31026.12
673.205	31089.85
673.554	30989.28
673.904	30800.59
674.253	31032.9
674.602	30879.46
674.951	30263.88
675.3	30186.59
675.649	30685.11
675.998	30511.1
676.346	30446.7
676.695	30499.58
677.044	30202.86
677.393	30312.69
677.741	30374.16
678.09	30339.36
678.438	30218.23
678.787	30375.97
679.135	30267.04
679.484	30078.57
679.832	30238.57
680.181	30222.75
680.529	30307.04
680.877	30369.19
681.225	30492.12
681.573	30603.98
681.922	30339.58
682.27	30326.02
682.618	30366.02
682.966	30262.98
683.314	30320.6
683.661	30213.49
684.009	30067.27
684.357	30019.37
684.705	29902.53
685.053	29958.8
685.4	29967.39
685.748	29701.41
686.095	29634.52
686.443	29521.07
686.79	29447.4
687.138	29454.18
687.485	29214.64
687.832	29071.82
688.18	29211.25
688.527	28899.17
688.874	28823.24
689.221	28662.79
689.568	28614.21
689.915	28520.2
690.262	28587.54
690.609	28469.58
690.956	28353.2
691.303	28300.09
691.65	28123.6
691.997	28100.77
692.344	27894
692.69	27977.61
693.037	27906.65
693.383	27813.1
693.73	27860.78
694.077	27902.36
694.423	27984.84
694.769	27818.07
695.116	27704.62
695.462	27667.56
695.808	27614.46
696.155	27682.48
696.501	27567.23
696.847	27508.7
697.193	27341.47
697.539	27303.51
697.885	27215.82
698.231	27032.1
698.577	26956.85
698.923	26982.38
699.269	26833.01
699.614	26780.58
699.96	26679.34
700.306	26521.38
700.651	26325.9
700.997	26286.81
701.342	26103.08
701.688	25979.25
702.033	25824.9
702.379	25837.33
702.724	25686.37
703.069	25659.03
703.415	25425.59
703.76	25508.98
704.105	25464.23
704.45	25458.36
704.795	25204.13
705.14	25179.72
705.485	25074.19
705.83	25079.83
706.175	25160.96
706.52	25125.48
706.865	25113.73
707.209	25211.58
707.554	25140.85
707.899	25218.59
708.243	25045.71
708.588	25008.88
708.932	24943.79
709.277	24969.78
709.621	25031.25
709.966	24812.05
710.31	24908.31
710.654	24712.61
710.998	24731.14
711.342	24692.5
711.687	24626.74
712.031	24465.16
712.375	24381.1
712.719	24372.06
713.063	24232.63
713.407	24238.5
713.75	24146.07
714.094	23937.72
714.438	23868.34
714.782	23857.95
715.125	23758.06
715.469	23671.28
715.812	23515.81
716.156	23372.54
716.499	23366.21
716.843	23351.29
717.186	23164.41
717.53	23400.33
717.873	23376.6
718.216	23208.47
718.559	23069.72
718.902	22935.71
719.246	23242.82
719.589	23037.4
719.932	22992.43
720.275	22945.65
720.617	23070.4
720.96	23127.8
721.303	23109.04
721.646	23178.42
721.989	23213.9
722.331	23274.23
722.674	23178.42
723.016	23362.59
723.359	23209.38
723.701	23216.16
724.044	23110.4
724.386	22968.93
724.729	23152.65
725.071	22970.96
725.413	23078.31
725.755	23000.34
726.097	23047.8
726.439	22859.78
726.782	22717.64
727.124	22944.75
727.465	22639.67
727.807	22664.98
728.149	22555.38
728.491	22664.53
728.833	22675.83
729.175	22512.9
729.516	22458.43
729.858	22537.53
730.199	22495.27
730.541	22551.31
730.882	22521.26
731.224	22368.04
731.565	22280.59
731.906	22273.81
732.248	22342.28
732.589	22222.96
732.93	22265.22
733.271	22290.53
733.612	22309.06
733.953	22321.49
734.294	22217.54
734.635	22337.08
734.976	22295.5
735.317	22227.48
735.658	22299.34
735.999	22357.42
736.339	22326.23
736.68	22494.37
737.021	22351.09
737.361	22358.78
737.702	22465.89
738.042	22467.47
738.383	22406.23
738.723	22441.26
739.063	22505.67
739.404	22489.17
739.744	22648.03
740.084	22511.31
740.424	22540.92
740.764	22528.94
741.104	22647.36
741.444	22492.78
741.784	22434.48
742.124	22620.46
742.464	22430.87
742.804	22432.45
743.143	22548.83
743.483	22419.79
743.823	22217.99
744.162	22385.67
744.502	22436.06
744.841	22301.83
745.181	22377.31
745.52	22265.9
745.86	22346.57
746.199	22340.92
746.538	22254.6
746.877	22368.04
747.216	22393.35
747.556	22232.9
747.895	22337.76
748.234	22341.38
748.573	22383.18
748.911	22444.88
749.25	22454.14
749.589	22442.16
749.928	22479.9
750.267	22617.98
750.605	22455.27
750.944	22689.39
751.283	22480.58
751.621	22644.42
751.96	22694.59
752.298	22695.26
752.636	22814.13
752.975	22691.2
753.313	22733.91
753.651	22956.95
753.989	22795.83
754.327	22923.96
754.666	22957.18
755.004	23113.56
755.342	23073.33
755.679	23272.65
756.017	23102.94
756.355	23191.75
756.693	23080.34
757.031	23252.99
757.368	23149.49
757.706	23153.11
758.044	22971.19
758.381	23153.56
758.719	23085.54
759.056	23276.49
759.394	23044.63
759.731	22997.86
760.068	22936.16
760.405	23067.23
760.743	22849.84
761.08	22973.45
761.417	22934.35
761.754	22928.93
762.091	22934.81
762.428	22751.08
762.765	22624.31
763.102	22775.04
763.438	22641.48
763.775	22688.71
764.112	22678.54
764.449	22741.14
764.785	22588.6
765.122	22601.48
765.458	22710.18
765.795	22667.02
766.131	22652.33
766.467	22630.63
766.804	22657.07
767.14	22600.13
767.476	22690.52
767.812	22505.67
768.148	22757.64
768.485	22471.09
768.821	22490.3
769.157	22393.13
769.492	22429.51
769.828	22365.78
770.164	22296.41
770.5	22294.82
770.836	22361.26
771.171	22199.46
771.507	22175.5
771.842	22087.37
772.178	22132.12
772.513	22124.88
772.849	21992.91
773.184	21913.82
773.519	21936.87
773.855	21854.38
774.19	21750.43
774.525	21679.25
774.86	21665.24
775.195	21694.39
775.53	21502.53
775.865	21491.68
776.2	21305.7
776.535	21149.09
776.87	21293.49
777.205	21170.79
777.539	20997.46
777.874	21034.97
778.209	20850.12
778.543	20803.79
778.878	20683.34
779.212	20686.96
779.547	20543.23
779.881	20568.99
780.215	20319.96
780.55	20347.98
780.884	20365.16
781.218	20253.75
781.552	20297.14
781.886	20121.55
782.22	20010.14
782.554	19994.09
782.888	19790.71
783.222	19844.04
783.556	19814.66
783.889	19786.19
784.223	19583.03
784.557	19672.52
784.89	19567.21
785.224	19462.13
785.557	19493.54
785.891	19399.98
786.224	19394.79
786.558	19415.58
786.891	19255.36
787.224	19137.17
787.557	19197.73
787.891	19110.05
788.224	19195.92
788.557	19147.34
788.89	19040.22
789.223	19033.21
789.556	18935.14
789.888	19006.77
790.221	18828.47
790.554	18633.45
790.887	18727.23
791.219	18623.28
791.552	18571.08
791.884	18495.6
792.217	18436.39
792.549	18347.36
792.882	18188.04
793.214	18126.57
793.546	18277.08
793.879	18103.3
794.211	17942.17
794.543	18042.96
794.875	17971.55
795.207	17923.86
795.539	17802.96
795.871	17792.79
796.203	17504.89
796.535	17361.39
796.867	17393.71
797.198	17356.42
797.53	17336.54
797.862	17274.39
798.193	17192.13
798.525	17242.07
798.856	17247.05
799.188	17033.94
799.519	16999.6
799.85	16868.3
800.182	16840.96
800.513	16925.02
800.844	16727.96
801.175	16850.9
801.506	16767.96
801.837	16712.82
802.168	16655.65
802.499	16614.97
802.83	16563.22
803.161	16451.81
803.491	16534.75
803.822	16517.57
804.153	16422.21
804.483	16316.22
804.814	16335.88
805.145	16297.47
805.475	16264.7
805.805	16283.46
806.136	16309.44
806.466	16276.22
806.796	16300.4
807.126	16093.63
807.457	16042.11
807.787	15996.91
808.117	16117.81
808.447	16016.8
808.777	16092.5
809.107	15993.97
809.436	15962.56
809.766	15935.67
810.096	15862.22
810.426	15779.51
810.755	15857.93
811.085	15714.43
811.414	15719.18
811.744	15627.43
812.073	15594.66
812.403	15565.28
812.732	15553.98
813.061	15450.48
813.39	15267.66
813.719	15340.43
814.049	15330.03
814.378	15226.53
814.707	15195.58
815.036	15193.54
815.365	15058.86
815.693	14923.49
816.022	14955.36
816.351	14941.57
816.68	14800.11
817.008	14862.48
817.337	14667.91
817.665	14710.16
817.994	14693.44
818.322	14705.64
818.651	14542.71
818.979	14575.93
819.307	14592.65
819.636	14512.88
819.964	14336.61
820.292	14531.19
820.62	14448.25
820.948	14422.04
821.276	14508.81
821.604	14510.4
821.932	14540
822.259	14580.45
822.587	14532.99
822.915	14467.01
823.243	14577.74
823.57	14544.97
823.898	14596.72
824.225	14513.79
824.553	14511.07
824.88	14584.52
825.207	14567.34
825.535	14631.3
825.862	14667.91
826.189	14641.92
826.516	14683.95
826.843	14798.75
827.17	14723.95
827.497	14619.32
827.824	14706.55
828.151	14612.99
828.478	14607.79
828.805	14686.89
829.131	14614.35
829.458	14554.01
829.785	14613.44
830.111	14578.87
830.438	14649.15
830.764	14655.7
831.09	14691.18
831.417	14469.49
831.743	14585.87
832.069	14543.84
832.395	14361.47
832.722	14421.36
833.048	14445.99
833.374	14507.23
833.7	14413.9
834.026	14293.23
834.351	14426.56
834.677	14249.16
835.003	14370.74
835.329	14267.92
835.654	14247.13
835.98	14121.03
836.306	14145.21
836.631	14057.98
836.956	14179.33
837.282	14123.74
837.607	14014.82
837.932	13949.73
838.258	13928.94
838.583	13904.54
838.908	13874.25
839.233	13930.07
839.558	13944.08
839.883	13850.98
840.208	13886
840.533	13913.12
840.858	13830.87
841.182	13866.8
841.507	13889.62
841.832	13900.02
842.156	13801.94
842.481	13716.74
842.805	13775.73
843.13	13735.05
843.454	13775.27
843.778	13723.3
844.103	13705.44
844.427	13585.9
844.751	13674.94
845.075	13514.72
845.399	13559.46
845.723	13477.2
846.047	13560.36
846.371	13422.74
846.695	13493.25
847.019	13316.53
847.343	13366.24
847.666	13258.22
847.99	13181.84
848.313	13166.48
848.637	13060.49
848.96	13066.82
849.284	12998.8
849.607	12934.17
849.931	12947.05
850.254	12789.31
850.577	12738.46
850.9	12635.64
851.223	12606.94
851.546	12474.29
851.869	12406.5
852.192	12467.06
852.515	12274.75
852.838	12219.61
853.161	12271.81
853.483	12209.66
853.806	12076.79
854.129	12093.96
854.451	12025.04
854.774	11901.65
855.096	11933.74
855.419	11873.63
855.741	11787.53
856.063	11735.1
856.385	11716.8
856.708	11675.44
857.03	11676.57
857.352	11648.32
857.674	11713.18
857.996	11609.68
858.318	11524.49
858.64	11523.13
858.961	11483.13
859.283	11445.39
859.605	11393.87
859.926	11359.97
860.248	11371.04
860.57	11314.1
860.891	11322.23
861.212	11348.22
861.534	11233.42
861.855	11298.5
862.176	11322
862.498	11257.15
862.819	11257.37
863.14	11251.5
863.461	11229.58
863.782	11220.54
864.103	11209.47
864.424	11205.85
864.745	11292.17
865.065	11249.46
865.386	11218.73
865.707	11139.86
866.027	11136.47
866.348	11121.11
866.668	11112.52
866.989	11132.63
867.309	11014.67
867.63	11044.95
867.95	11117.26
868.27	10973.09
868.59	11066.19
868.91	11014.22
869.23	11022.13
869.55	10995.69
869.87	11056.47
870.19	10952.52
870.51	11009.47
870.83	10942.81
871.15	10852.19
871.469	10785.97
871.789	10823.94
872.109	10766.09
872.428	10770.15
872.748	10760.89
873.067	10732.42
873.386	10672.3
873.706	10747.1
874.025	10574
874.344	10613.77
874.663	10648.12
874.982	10567.9
875.301	10555.7
875.62	10415.59
875.939	10443.61
876.258	10439.32
876.577	10412.42
876.896	10350.73
877.214	10359.09
877.533	10392.76
877.852	10299.66
878.17	10331.07
878.489	10412.65
878.807	10348.24
879.125	10291.52
879.444	10289.04
879.762	10252.2
880.08	10188.48
880.398	10174.01
880.716	10093.56
881.034	10144.63
881.352	10111.19
881.67	10020.12
881.988	10104.86
882.306	10046.56
882.624	10018.54
882.941	9987.58
883.259	9985.54
883.577	10033.22
883.894	9981.93
884.212	10089.95
884.529	9997.75
884.846	9996.16
885.164	9951.42
885.481	9956.84
885.798	10039.78
886.115	9995.03
886.432	9906.45
886.75	9885.21
887.067	9975.83
887.383	9864.87
887.7	9855.15
888.017	9842.95
888.334	9915.26
888.651	9830.07
888.967	9865.55
889.284	9802.27
889.6	9753.23
889.917	9698.09
890.233	9647.7
890.55	9684.53
890.866	9677.3
891.182	9597.98
891.498	9642.95
891.815	9574.71
892.131	9470.3
892.447	9479.34
892.763	9379.46
893.079	9347.37
893.395	9337.42
893.71	9328.61
894.026	9218.11
894.342	9316.86
894.657	9195.96
894.973	9192.12
895.289	9110.09
895.604	9166.58
895.92	9030.31
896.235	8996.87
896.55	9054.27
896.865	8976.76
897.181	8913.71
897.496	8937.66
897.811	8873.03
898.126	8848.17
898.441	8757.33
898.756	8691.34
899.071	8659.48
899.386	8702.19
899.7	8606.82
900.015	8489.76
900.33	8542.19
900.644	8532.93
900.959	8502.87
901.273	8475.07
901.588	8419.48
901.902	8400.05
902.216	8346.26
902.531	8351.91
902.845	8271.46
903.159	8266.72
903.473	8289.32
903.787	8195.31
904.101	8167.96
904.415	8226.27
904.729	8173.61
905.042	8073.95
905.356	8094.29
905.67	8144.46
905.984	8137
906.297	8041.41
906.611	8053.16
906.924	7978.36
907.237	8010.68
907.551	7935.88
907.864	7916.22
908.177	7948.53
908.491	7959.16
908.804	7841.42
909.117	7871.93
909.43	7775.88
909.743	7779.5
910.056	7800.97
910.368	7783.57
910.681	7666.96
910.994	7688.2
911.307	7653.4
911.619	7668.09
911.932	7608.43
912.244	7534.76
912.557	7563.01
912.869	7556.23
913.181	7563.69
913.494	7521.65
913.806	7434.88
914.118	7432.16
914.43	7389
914.742	7399.85
915.054	7294.54
915.366	7240.3
915.678	7238.95
915.99	7267.42
916.302	7179.29
916.613	7184.94
916.925	7137.48
917.236	7085.05
917.548	7052.51
917.859	7037.37
918.171	6957.6
918.482	6911.27
918.794	6826.76
919.105	6842.12
919.416	6816.81
919.727	6788.34
920.038	6759.64
920.349	6725.06
920.66	6688
920.971	6642.58
921.282	6596.25
921.593	6584.5
921.903	6567.33
922.214	6542.24
922.525	6517.39
922.835	6462.25
923.146	6419.31
923.456	6464.73
923.767	6358.52
924.077	6414.11
924.387	6361.91
924.697	6351.29
925.008	6310.84
925.318	6275.81
925.628	6264.74
925.938	6238.75
926.248	6191.07
926.558	6113.78
926.867	6123.95
927.177	6043.73
927.487	6109.71
927.796	6022.03
928.106	6070.84
928.416	6071.75
928.725	6028.58
929.034	5974.35
929.344	5998.3
929.653	5955.37
929.962	5900.9
930.271	5845.09
930.581	5850.06
930.89	5858.19
931.199	5852.77
931.508	5835.37
931.817	5866.33
932.125	5861.36
932.434	5775.94
932.743	5732.55
933.051	5646.22
933.36	5712.89
933.669	5692.55
933.977	5685.77
934.286	5690.74
934.594	5661.14
934.902	5575.94
935.21	5606.22
935.519	5625.88
935.827	5576.62
936.135	5557.64
936.443	5555.6
936.751	5469.96
937.059	5500.46
937.367	5475.6
937.674	5456.4
937.982	5450.29
938.29	5372.33
938.597	5346.79
938.905	5276.74
939.213	5274.71
939.52	5208.04
939.827	5261.37
940.135	5186.57
940.442	5195.61
940.749	5202.84
941.056	5176.4
941.363	5075.84
941.67	5066.58
941.977	4997.43
942.284	5039.01
942.591	4997.65
942.898	4946.13
943.205	4976.41
943.511	4881.72
943.818	4919.01
944.125	4863.19
944.431	4816.64
944.738	4795.4
945.044	4781.16
945.35	4729.18
945.657	4686.92
945.963	4738
946.269	4710.88
946.575	4697.77
946.881	4658
947.187	4614.84
947.493	4597.21
947.799	4575.52
948.105	4578.91
948.41	4536.65
948.716	4516.08
949.022	4530.77
949.327	4538
949.633	4486.03
949.938	4439.02
950.244	4475.18
950.549	4409.42
950.854	4422.3
951.16	4395.86
951.465	4331.91
951.77	4343.66
952.075	4344.11
952.38	4297.78
952.685	4274.96
952.99	4257.33
953.294	4283.77
953.599	4297.78
953.904	4271.79
954.209	4247.39
954.513	4249.65
954.818	4186.37
955.122	4216.43
955.426	4210.33
955.731	4146.15
956.035	4191.12
956.339	4184.11
956.643	4168.52
956.948	4149.54
957.252	4123.55
957.556	4114.28
957.86	4077.9
958.163	4086.94
958.467	4094.85
958.771	4090.1
959.075	4080.61
959.378	4010.78
959.682	4041.97
959.985	4019.82
960.289	3979.82
960.592	3935.76
960.896	3931.46
961.199	3928.3
961.502	3972.37
961.805	3923.33
962.108	3889.21
962.411	3856.66
962.714	3846.72
963.017	3844.91
963.32	3843.33
963.623	3786.61
963.926	3763.11
964.228	3765.37
964.531	3766.5
964.833	3728.76
965.136	3686.27
965.438	3686.27
965.741	3683.56
966.043	3669.55
966.345	3630
966.648	3606.5
966.95	3597.46
967.252	3607.18
967.554	3548.65
967.856	3558.37
968.158	3514.07
968.46	3503.23
968.761	3510.68
969.063	3452.61
969.365	3437.01
969.666	3445.38
969.968	3415.77
970.269	3397.02
970.571	3411.93
970.872	3373.74
971.174	3330.35
971.475	3351.82
971.776	3326.96
972.077	3303.23
972.378	3286.28
972.679	3292.61
972.98	3276.11
973.281	3240.86
973.582	3230.92
973.883	3184.37
974.183	3205.38
974.484	3195.66
974.785	3188.66
975.085	3154.54
975.386	3164.03
975.686	3149.34
975.986	3149.11
976.287	3103.46
976.587	3080.87
976.887	3048.32
977.187	3050.36
977.487	3025.05
977.787	3052.84
978.087	3018.72
978.387	3014.43
978.687	3005.61
978.987	3009.23
979.286	2982.11
979.586	2970.81
979.885	2955.67
980.185	2947.08
980.484	2918.84
980.784	2938.95
981.083	2864.6
981.382	2941.66
981.682	2896.92
981.981	2888.55
982.28	2856.01
982.579	2865.05
982.878	2868.22
983.177	2867.09
983.475	2881.32
983.774	2836.35
984.073	2838.16
984.372	2847.43
984.67	2802.23
984.969	2795.22
985.267	2826.41
985.566	2809.91
985.864	2787.54
986.162	2776.47
986.461	2738.73
986.759	2712.06
987.057	2705.51
987.355	2677.49
987.653	2691.27
987.951	2684.94
988.249	2668.9
988.547	2669.8
988.844	2632.52
989.142	2642.46
989.44	2631.84
989.737	2585.96
990.035	2627.77
990.332	2601.33
990.63	2530.6
990.927	2545.51
991.224	2540.31
991.521	2518.85
991.819	2500.99
992.116	2539.18
992.413	2488.11
992.71	2468.45
993.006	2478.85
993.303	2476.81
993.6	2449.24
993.897	2424.16
994.193	2414.44
994.49	2405.63
994.787	2414.89
995.083	2373.99
995.379	2377.38
995.676	2364.95
995.972	2349.36
996.268	2319.53
996.565	2334.22
996.861	2293.09
997.157	2301.22
997.453	2277.04
997.749	2283.37
998.044	2208.35
998.34	2215.8
998.636	2201.79
998.932	2217.84
999.227	2218.29
999.523	2174.67
999.818	2160.89
1000.114	2155.24
1000.409	2138.29
1000.704	2136.94
1001	2141.23
1001.295	2139.87
1001.59	2055.81
1001.885	2091.96
1002.18	2082.93
1002.475	2074.79
1002.77	2084.06
1003.065	2070.95
1003.359	2044.51
1003.654	2055.81
1003.949	2010.16
1004.243	2025.98
1004.538	2040.44
1004.832	2029.59
1005.127	1984.4
1005.421	2000.44
1005.715	2007.9
1006.009	1971.06
1006.304	1925.42
1006.598	1916.15
1006.892	1934.68
1007.186	1925.87
1007.48	1929.48
1007.773	1919.31
1008.067	1881.8
1008.361	1874.8
1008.655	1846.77
1008.948	1850.39
1009.242	1862.37
1009.535	1856.94
1009.829	1875.25
1010.122	1818.53
1010.415	1823.95
1010.708	1807.9
1011.001	1793.89
1011.295	1797.06
1011.588	1794.8
1011.881	1773.78
1012.173	1771.3
1012.466	1742.6
1012.759	1768.58
1013.052	1728.81
1013.344	1727.23
1013.637	1714.35
1013.93	1723.61
1014.222	1712.54
1014.514	1731.75
1014.807	1671.86
1015.099	1685.2
1015.391	1671.18
1015.683	1634.58
1015.976	1678.87
1016.268	1658.3
1016.56	1637.97
1016.851	1646.55
1017.143	1587.8
1017.435	1616.05
1017.727	1593.9
1018.018	1581.02
1018.31	1583.96
1018.602	1560.68
1018.893	1559.55
1019.185	1530.62
1019.476	1540.79
1019.767	1513.22
1020.058	1525.43
1020.35	1495.37
1020.641	1488.59
1020.932	1478.65
1021.223	1449.27
1021.514	1474.58
1021.804	1458.99
1022.095	1430.74
1022.386	1418.31
1022.677	1430.29
1022.967	1378.31
1023.258	1400.46
1023.548	1391.64
1023.839	1387.35
1024.129	1376.96
1024.419	1365.43
1024.709	1355.94
1025	1338.54
1025.29	1354.81
1025.58	1347.8
1025.87	1315.26
1026.16	1321.36
1026.449	1291.99
1026.739	1268.94
1027.029	1293.34
1027.319	1256.73
1027.608	1264.19
1027.898	1254.7
1028.187	1262.16
1028.477	1259.22
1028.766	1238.2
1029.055	1243.17
1029.344	1184.19
1029.634	1226
1029.923	1216.96
1030.212	1194.14
1030.501	1179.22
1030.79	1181.48
1031.078	1178.99
1031.367	1176.51
1031.656	1170.41
1031.945	1153.91
1032.233	1145.1
1032.522	1141.26
1032.81	1142.39
1033.099	1131.54
1033.387	1128.15
1033.675	1108.71
1033.963	1106.68
1034.251	1111.2
1034.54	1110.52
1034.828	1075.72
1035.116	1089.51
1035.403	1109.62
1035.691	1068.04
1035.979	1080.69
1036.267	1081.14
1036.554	1056.74
1036.842	1026.68
1037.129	1053.35
1037.417	1061.48
1037.704	1029.62
1037.992	1048.83
1038.279	1020.35
1038.566	1014.03
1038.853	1014.03
1039.14	1014.03
