Data from blue_clamp_base_FLMS001491_00090.txt Node
Date: Wed Feb 08 15:16:39 GMT 2017
User: dcchb
Spectrometer: FLMS00149
Trigger mode: 0
Integration Time (sec): 2.000000E-2
Scans to average: 10
Electric dark correction enabled: true
Nonlinearity correction enabled: false
Boxcar width: 0
XAxis mode: Wavelengths
Number of Pixels in Spectrum: 2048
>>>>>Begin Spectral Data<<<<<
341.393	-32.26
341.776	-32.26
342.16	-32.26
342.543	-64.35
342.927	-78.36
343.31	-58.02
343.693	-79.49
344.077	-79.26
344.46	-65.7
344.843	-53.95
345.226	-45.59
345.61	-16.21
345.993	-17.57
346.376	-3.11
346.759	9.1
347.142	23.33
347.525	37.12
347.908	74.86
348.291	79.38
348.674	97
349.057	98.13
349.44	140.62
349.823	144.46
350.206	156.44
350.588	191.24
350.971	219.49
351.354	244.12
351.737	230.33
352.119	257.22
352.502	267.85
352.884	259.26
353.267	300.61
353.65	293.83
354.032	310.1
354.414	313.27
354.797	332.48
355.179	324.34
355.562	329.09
355.944	340.61
356.326	343.55
356.709	341.97
357.091	348.07
357.473	356.66
357.855	357.11
358.238	342.42
358.62	343.78
359.002	357.79
359.384	339.26
359.766	370.89
360.148	362.98
360.53	376.09
360.912	348.07
361.294	350.56
361.676	355.98
362.057	332.7
362.439	344.91
362.821	341.97
363.203	349.88
363.584	357.11
363.966	327.05
364.348	336.09
364.729	336.77
365.111	346.26
365.493	351.69
365.874	350.1
366.256	338.58
366.637	353.04
367.019	335.41
367.4	360.27
367.781	344.68
368.163	341.52
368.544	322.31
368.925	323.21
369.306	339.93
369.688	328.64
370.069	326.83
370.45	345.58
370.831	353.95
371.212	338.35
371.593	335.64
371.974	343.78
372.355	349.2
372.736	341.74
373.117	337
373.498	351.23
373.879	348.97
374.26	345.36
374.641	330.67
375.021	345.13
375.402	341.29
375.783	351.01
376.163	376.54
376.544	360.27
376.925	342.42
377.305	349.88
377.686	369.31
378.066	373.15
378.447	365.02
378.827	372.48
379.208	374.06
379.588	378.8
379.968	378.58
380.349	380.61
380.729	395.75
381.109	375.19
381.489	373.15
381.87	414.96
382.25	408.86
382.63	392.36
383.01	386.94
383.39	394.62
383.77	416.09
384.15	391.68
384.53	374.28
384.91	409.76
385.29	414.73
385.67	424.23
386.049	431.46
386.429	426.03
386.809	410.44
387.189	423.77
387.568	444.56
387.948	426.26
388.328	449.31
388.707	440.27
389.087	447.95
389.466	479.59
389.846	464.68
390.225	456.99
390.605	482.76
390.984	466.94
391.363	472.59
391.743	491.79
392.122	489.99
392.501	472.36
392.881	481.17
393.26	494.73
393.639	506.03
394.018	513.49
394.397	503.77
394.776	506.94
395.155	514.39
395.534	515.98
395.913	524.11
396.292	520.95
396.671	529.76
397.05	541.96
397.429	545.8
397.808	546.71
398.186	559.36
398.565	524.56
398.944	560.72
399.323	568.86
399.701	581.28
400.08	583.77
400.458	580.61
400.837	595.75
401.215	603.88
401.594	580.83
401.972	591.68
402.351	613.37
402.729	633.03
403.107	633.03
403.486	625.35
403.864	642.53
404.242	638.91
404.62	645.92
404.999	659.02
405.377	692.92
405.755	685.91
406.133	682.07
406.511	697.89
406.889	691.79
407.267	711.22
407.645	713.94
408.023	770.21
408.401	750.55
408.779	773.14
409.156	754.61
409.534	757.1
409.912	771.11
410.29	802.97
410.667	831
411.045	823.54
411.422	848.4
411.8	841.62
412.178	851.79
412.555	838.68
412.933	871.45
413.31	884.55
413.687	885
414.065	919.35
414.442	904.67
414.819	905.57
415.197	901.95
415.574	951.44
415.951	939.69
416.328	975.4
416.705	958.9
417.082	974.27
417.46	980.82
417.837	1009.75
418.214	1003.42
418.591	1020.37
418.967	999.8
419.344	1025.34
419.721	1013.36
420.098	1059.01
420.475	1066.7
420.852	1076.64
421.228	1089.97
421.605	1080.25
421.982	1096.98
422.358	1122.51
422.735	1115.96
423.111	1154.83
423.488	1167.03
423.864	1179.23
424.241	1152.12
424.617	1207.71
424.994	1208.61
425.37	1214.04
425.746	1208.39
426.123	1239.35
426.499	1241.15
426.875	1278.67
427.251	1310.08
427.627	1314.82
428.003	1320.25
428.379	1318.21
428.756	1355.95
429.132	1369.74
429.507	1412.45
429.883	1420.81
430.259	1426.69
430.635	1451.54
431.011	1446.57
431.387	1496.74
431.763	1531.32
432.138	1517.53
432.514	1580.35
432.89	1569.05
433.265	1589.39
433.641	1602.95
434.016	1616.74
434.392	1644.98
434.767	1683.4
435.143	1685.89
435.518	1729.28
435.894	1731.31
436.269	1758.88
436.644	1772.89
437.02	1803.17
437.395	1828.26
437.77	1807.01
438.145	1868.93
438.52	1887.69
438.895	1890.63
439.271	1929.72
439.646	1936.95
440.021	1947.12
440.395	1960.46
440.77	1954.58
441.145	1995.03
441.52	2003.85
441.895	2049.95
442.27	2085.88
442.645	2046.78
443.019	2063.05
443.394	2080.68
443.769	2103.05
444.143	2083.39
444.518	2178.08
444.892	2192.54
445.267	2176.95
445.641	2216.5
446.016	2200.68
446.39	2204.74
446.764	2214.24
447.139	2232.09
447.513	2287
447.887	2280.45
448.262	2301.69
448.636	2319.32
449.01	2329.26
449.384	2380.78
449.758	2401.58
450.132	2425.08
450.506	2403.84
450.88	2447.68
451.254	2441.8
451.628	2465.08
452.002	2526.54
452.376	2510.95
452.75	2538.29
453.123	2604.96
453.497	2610.84
453.871	2632.98
454.244	2697.61
454.618	2720.44
454.992	2733.32
455.365	2781.45
455.739	2795.24
456.112	2850.15
456.486	2827.33
456.859	2837.5
457.232	2943.93
457.606	2924.5
457.979	2959.3
458.352	3028.9
458.725	3034.78
459.099	3115.68
459.472	3145.96
459.845	3155.23
460.218	3180.99
460.591	3222.8
460.964	3239.97
461.337	3334.66
461.71	3361.55
462.083	3449.46
462.456	3399.97
462.829	3409.23
463.201	3488.55
463.574	3499.17
463.947	3510.02
464.32	3613.52
464.692	3647.87
465.065	3659.17
465.438	3703.01
465.81	3772.39
466.183	3778.94
466.555	3914.76
466.928	3921.08
467.3	3924.25
467.672	3988.43
468.045	4060.06
468.417	4062.32
468.789	4040.4
469.161	4087.18
469.534	4233.39
469.906	4286.72
470.278	4314.97
470.65	4319.94
471.022	4418.92
471.394	4525.59
471.766	4510.67
472.138	4511.8
472.51	4656.66
472.882	4702.08
473.253	4756.32
473.625	4892.81
473.997	4909.76
474.369	4971.9
474.74	5034.05
475.112	5118.79
475.484	5161.5
475.855	5227.72
476.227	5302.97
476.598	5414.15
476.97	5442.85
477.341	5568.5
477.713	5645.11
478.084	5655.28
478.455	5815.27
478.827	5804.65
479.198	6044.19
479.569	5955.83
479.94	6160.57
480.311	6206.9
480.682	6266.78
481.053	6377.74
481.424	6464.29
481.795	6500.22
482.166	6636.27
482.537	6653.67
482.908	6808.01
483.279	6900.21
483.65	6973.43
484.021	7132.52
484.391	7151.05
484.762	7177.04
485.133	7256.59
485.503	7342.69
485.874	7469.01
486.244	7507.88
486.615	7716.24
486.985	7743.36
487.356	7831.71
487.726	7867.19
488.097	8056.34
488.467	8029
488.837	8191.71
489.207	8291.82
489.578	8339.72
489.948	8395.32
490.318	8533.84
490.688	8551.02
491.058	8600.28
491.428	8677.12
491.798	8802.08
492.168	8920.73
492.538	8941.97
492.908	9022.19
493.278	9138.8
493.648	9166.14
494.017	9199.59
494.387	9262.86
494.757	9359.36
495.126	9446.36
495.496	9413.59
495.866	9388.06
496.235	9537.43
496.605	9578.11
496.974	9618.56
497.344	9679.58
497.713	9715.96
498.082	9749.4
498.452	9869.63
498.821	9903.52
499.19	9914.82
499.559	10029.4
499.928	9997.08
500.298	10046.12
500.667	10109.4
501.036	10095.38
501.405	10210.41
501.774	10203.86
502.143	10233.01
502.512	10309.39
502.88	10357.75
503.249	10331.76
503.618	10416.96
503.987	10461.7
504.356	10519.1
504.724	10531.98
505.093	10514.36
505.462	10558.87
505.83	10674.35
506.199	10750.96
506.567	10816.04
506.936	10802.71
507.304	10950.5
507.672	10924.97
508.041	10972.2
508.409	11118.41
508.777	11115.92
509.145	11177.16
509.514	11162.7
509.882	11201.34
510.25	11254.45
510.618	11309.36
510.986	11301.91
511.354	11506.65
511.722	11500.09
512.09	11539.87
512.458	11599.75
512.826	11638.17
513.193	11668
513.561	11668.22
513.929	11790.25
514.297	11818.5
514.664	11855.34
515.032	11946.18
515.4	11990.7
515.767	12046.07
516.135	12044.26
516.502	12000.19
516.869	12269.11
517.237	12281.77
517.604	12171.71
517.972	12317.25
518.339	12424.36
518.706	12340.07
519.073	12434.98
519.44	12524.7
519.808	12658.48
520.175	12627.07
520.542	12785.03
520.909	12754.07
521.276	12774.86
521.643	12883.79
522.009	13012.6
522.376	12984.8
522.743	13072.48
523.11	13177.79
523.477	13316.99
523.843	13404.68
524.21	13491
524.577	13579.13
524.943	13592.47
525.31	13657.1
525.676	13748.85
526.043	13851.9
526.409	13873.59
526.776	13998.78
527.142	14027.26
527.508	13987.71
527.874	14176.86
528.241	14236.74
528.607	14312.67
528.973	14437.64
529.339	14414.37
529.705	14553.8
530.071	14661.14
530.437	14563.74
530.803	14708.37
531.169	14740.91
531.535	14706.79
531.901	14824.3
532.267	14972.54
532.632	15018.64
532.998	15029.72
533.364	15167.57
533.73	15125.08
534.095	15257.73
534.461	15282.59
534.826	15353.55
535.192	15309.26
535.557	15554.9
535.923	15476.49
536.288	15585.64
536.653	15630.15
537.019	15654.56
537.384	15659.53
537.749	15827.89
538.114	15834.22
538.479	15753.77
538.845	15986.75
539.21	15891.16
539.575	16032.63
539.94	15939.98
540.305	16110.37
540.67	16011.16
541.034	16105.85
541.399	16172.29
541.764	16231.95
542.129	16297.48
542.494	16331.38
542.858	16262.23
543.223	16350.14
543.587	16367.99
543.952	16395.33
544.316	16458.38
544.681	16506.74
545.045	16640.3
545.41	16678.04
545.774	16720.52
546.138	16725.94
546.503	16759.39
546.867	16786.96
547.231	16955.32
547.595	16950.35
547.959	16906.28
548.324	16979.72
548.688	17029.67
549.052	17083.22
549.416	17095.88
549.779	17188.31
550.143	17246.38
550.507	17316.89
550.871	17383.78
551.235	17387.62
551.599	17452.48
551.962	17501.97
552.326	17435.98
552.689	17629.65
553.053	17563.66
553.417	17632.36
553.78	17731.79
554.143	17614.96
554.507	17800.04
554.87	17890.89
555.234	18081.84
555.597	17857.67
555.96	18065.8
556.323	18008.85
556.686	18046.14
557.05	18238.67
557.413	18166.13
557.776	18237.54
558.139	18278.67
558.502	18369.97
558.865	18430.76
559.228	18508.95
559.59	18564.77
559.953	18592.56
560.316	18754.14
560.679	18746.91
561.041	18847.02
561.404	18978.54
561.767	19053.79
562.129	18917.07
562.492	19103.06
562.854	19251.3
563.217	19167.24
563.579	19282.71
563.941	19390.51
564.304	19437.74
564.666	19583.5
565.028	19498.75
565.39	19712.76
565.753	19799.76
566.115	19698.07
566.477	19910.27
566.839	19884.28
567.201	20008.57
567.563	20082.92
567.925	20240.65
568.287	20258.51
568.648	20212.18
569.01	20316.58
569.372	20531.95
569.734	20308
570.095	20547.99
570.457	20640.42
570.819	20579.18
571.18	20573.98
571.542	20867.3
571.903	20770.36
572.265	20899.85
572.626	20912.5
572.987	20993.85
573.349	20966.74
573.71	21044.93
574.071	21203.79
574.432	21251.7
574.794	21367.4
575.155	21351.59
575.516	21342.55
575.877	21469.77
576.238	21441.07
576.599	21525.14
576.96	21584.8
577.32	21523.33
577.681	21597.45
578.042	21690.56
578.403	21710.45
578.763	21786.83
579.124	21691.24
579.485	21822.99
579.845	22014.17
580.206	21953.15
580.566	21803.1
580.927	21955.19
581.287	21942.76
581.648	21883.1
582.008	22101.62
582.368	21997.22
582.728	22146.37
583.089	22168.29
583.449	22133.49
583.809	22240.38
584.169	22237.44
584.529	22124.45
584.889	22323.09
585.249	22241.51
585.609	22125.35
585.969	22301.62
586.329	22290.32
586.688	22268.17
587.048	22217.78
587.408	22244.67
587.768	22220.26
588.127	22233.6
588.487	22183.2
588.846	22533.7
589.206	22205.8
589.565	22297.55
589.925	22462.97
590.284	22286.93
590.643	22393.14
591.003	22382.74
591.362	22563.98
591.721	22470.2
592.08	22457.55
592.44	22497.32
592.799	22588.62
593.158	22424.55
593.517	22494.15
593.876	22473.14
594.235	22443.08
594.593	22598.56
594.952	22499.35
595.311	22542.97
595.67	22570.99
596.029	22775.28
596.387	22749.06
596.746	22679.23
597.104	22602.4
597.463	22510.43
597.822	22620.03
598.18	22538.22
598.538	22724.43
598.897	22705.9
599.255	22585.9
599.613	22824.32
599.972	22810.3
600.33	22813.47
600.688	22701.15
601.046	22692.12
601.404	22911.77
601.762	22841.94
602.12	22900.02
602.478	22959.68
602.836	22856.18
603.194	22789.29
603.552	22767.14
603.91	22846.01
604.268	22938.44
604.625	22894.37
604.983	22968.04
605.341	22815.95
605.698	22998.55
606.056	22936.63
606.413	23062.5
606.771	23140.92
607.128	23057.08
607.485	23011.2
607.843	23083.52
608.2	23199.9
608.557	23252.78
608.914	23118.54
609.272	23185.44
609.629	23283.06
609.986	23379.1
610.343	23272.89
610.7	23401.02
611.057	23382.27
611.414	23286
611.771	23438.99
612.127	23432.43
612.484	23541.13
612.841	23533.22
613.198	23473.56
613.554	23425.88
613.911	23462.04
614.267	23502.72
614.624	23470.85
614.98	23559.21
615.337	23629.27
615.693	23580.23
616.05	23505.65
616.406	23671.75
616.762	23612.99
617.118	23609.15
617.475	23629.04
617.831	23727.34
618.187	23763.05
618.543	23794.91
618.899	23815.7
619.255	23748.36
619.611	23781.35
619.967	23905.64
620.323	23916.26
620.678	23841.69
621.034	23847.34
621.39	23876.72
621.746	23809.6
622.101	24136.82
622.457	23904.51
622.812	23985.64
623.168	24054.79
623.523	24007.79
623.879	24144.05
624.234	23989.26
624.589	23948.35
624.945	24053.44
625.3	24023.83
625.655	24066.99
626.01	24092.53
626.365	24032.64
626.72	24083.94
627.075	24154.9
627.43	24025.87
627.785	24068.8
628.14	24045.98
628.495	24201.45
628.85	24148.8
629.205	24076.26
629.559	24218.85
629.914	24079.88
630.269	24141.34
630.623	24168.46
630.978	24053.66
631.332	24219.08
631.687	24208.23
632.041	24093.66
632.396	24197.84
632.75	24125.98
633.104	24183.38
633.459	24111.51
633.813	24032.42
634.167	24025.64
634.521	24027
634.875	24070.61
635.229	24060.67
635.583	23997.17
635.937	24029.93
636.291	24078.52
636.645	24070.16
636.999	23931.4
637.352	23985.87
637.706	23853.44
638.06	24014.11
638.413	23890.5
638.767	23957.62
639.121	23976.6
639.474	23939.09
639.828	23878.75
640.181	24015.92
640.534	23950.84
640.888	24030.16
641.241	23841.01
641.594	23888.02
641.947	24060.21
642.301	23939.99
642.654	23913.1
643.007	23987.22
643.36	24052.08
643.713	23906.55
644.066	24142.7
644.419	23895.02
644.771	23703.61
645.124	23491.19
645.477	23514.92
645.83	23403.06
646.182	23350.18
646.535	23260.46
646.888	23285.09
647.24	23248.71
647.593	23448.48
647.945	23319.9
648.298	23233.57
648.65	23183.4
649.002	23254.36
649.355	23329.39
649.707	23302.95
650.059	23442.83
650.411	23773.44
650.763	23768.47
651.115	24053.89
651.467	23948.35
651.819	23887.11
652.171	23962.36
652.523	23924.63
652.875	23793.78
653.227	23811.63
653.578	23987.45
653.93	24021.35
654.282	23829.26
654.633	23747
654.985	23898.19
655.337	23944.96
655.688	24010.5
656.039	24048.69
656.391	23832.65
656.742	23990.16
657.094	23888.47
657.445	24044.62
657.796	23926.43
658.147	23953.32
658.498	24009.14
658.849	23916.04
659.2	23882.59
659.551	23855.7
659.902	24053.21
660.253	24027
660.604	24017.05
660.955	23855.7
661.306	23991.97
661.656	24010.72
662.007	23930.95
662.358	23915.13
662.708	24028.35
663.059	23851.41
663.409	23706.78
663.76	23931.4
664.11	23904.96
664.461	23911.07
664.811	23922.14
665.161	23831.07
665.511	23853.67
665.862	23867.9
666.212	23884.63
666.562	23844.18
666.912	23854.34
667.262	23829.49
667.612	23823.16
667.962	23764.4
668.312	23727.57
668.662	23897.51
669.011	23729.6
669.361	23702.71
669.711	23688.02
670.06	23751.07
670.41	23609.15
670.76	23612.77
671.109	23676.5
671.459	23608.48
671.808	23540.23
672.157	23567.57
672.507	23473.34
672.856	23470.63
673.205	23405.77
673.554	23499.78
673.904	23439.44
674.253	23487.57
674.602	23320.8
674.951	23120.13
675.3	22826.57
675.649	23243.06
675.998	23189.05
676.346	23204.42
676.695	23408.93
677.044	23174.81
677.393	23077.42
677.741	23087.81
678.09	23070.86
678.438	22952.22
678.787	23041.94
679.135	22884.88
679.484	22787.71
679.832	22890.98
680.181	22765.33
680.529	22837.2
680.877	22686.24
681.225	22704.09
681.573	22834.94
681.922	22674.94
682.27	22514.94
682.618	22585.68
682.966	22558.56
683.314	22508.62
683.661	22437.88
684.009	22366.25
684.357	22334.61
684.705	22229.53
685.053	22260.49
685.4	22350.66
685.748	22119.93
686.095	22093.26
686.443	22093.03
686.79	21915.41
687.138	22139.81
687.485	22187.27
687.832	21899.14
688.18	22016.2
688.527	21975.75
688.874	21886.94
689.221	21807.17
689.568	21743.44
689.915	21663.22
690.262	21624.35
690.609	21685.81
690.956	21509.32
691.303	21487.18
691.65	21446.27
691.997	21468.19
692.344	21435.2
692.69	21382.32
693.037	21359.04
693.383	21198.14
693.73	21335.31
694.077	21097.13
694.423	21132.16
694.769	21161.31
695.116	20981.2
695.462	21109.33
695.808	21020.97
696.155	21088.99
696.501	21025.72
696.847	20880.86
697.193	20794.31
697.539	20874.76
697.885	20833.41
698.231	20628.67
698.577	20644.03
698.923	20578.5
699.269	20663.24
699.614	20533.08
699.96	20408.33
700.306	20493.53
700.651	20445.62
700.997	20393.64
701.342	20295.34
701.688	20231.39
702.033	20200.88
702.379	20317.49
702.724	20081.79
703.069	20272.07
703.415	20018.97
703.76	20053.77
704.105	20074.33
704.45	20068.46
704.795	19886.31
705.14	19891.28
705.485	19781.91
705.83	19789.37
706.175	19913.66
706.52	19851.06
706.865	19696.71
707.209	19667.34
707.554	19609.48
707.899	19696.71
708.243	19537.62
708.588	19568.81
708.932	19484.29
709.277	19499.88
709.621	19438.64
709.966	19327.68
710.31	19403.16
710.654	19384.86
710.998	19350.96
711.342	19447
711.687	19341.02
712.031	19261.47
712.375	19128.14
712.719	19202.49
713.063	19263.05
713.407	19326.55
713.75	19236.16
714.094	19190.29
714.438	19086.33
714.782	19150.06
715.125	18997.07
715.469	19079.1
715.812	18946.22
716.156	18878.88
716.499	18920.01
716.843	18903.06
717.186	18886.11
717.53	18924.76
717.873	18971.08
718.216	18869.84
718.559	18929.73
718.902	18750.98
719.246	18802.05
719.589	18760.47
719.932	18743.07
720.275	18732.67
720.617	18662.62
720.96	18651.09
721.303	18602.96
721.646	18578.33
721.989	18543.75
722.331	18620.13
722.674	18602.96
723.016	18581.94
723.359	18574.71
723.701	18626.91
724.044	18463.07
724.386	18419.01
724.729	18609.51
725.071	18553.69
725.413	18413.13
725.755	18466.24
726.097	18402.51
726.439	18181.95
726.782	18296.3
727.124	18455.16
727.465	18405.9
727.807	18324.55
728.149	18275.73
728.491	18291.1
728.833	18279.12
729.175	18159.58
729.516	18186.24
729.858	18204.55
730.199	18254.04
730.541	18254.94
730.882	18248.16
731.224	18343.3
731.565	18183.76
731.906	18190.31
732.248	18309.18
732.589	18149.18
732.93	18149.86
733.271	18252.91
733.612	18226.47
733.953	18181.73
734.294	18072.12
734.635	18095.4
734.976	18191.22
735.317	18047.04
735.658	18113.25
735.999	18109.64
736.339	18033.48
736.68	18268.73
737.021	18141.73
737.361	18053.14
737.702	18186.02
738.042	18129.52
738.383	18123.42
738.723	18241.38
739.063	18213.36
739.404	18247.03
739.744	18145.12
740.084	18188.05
740.424	18109.86
740.764	18202.97
741.104	18244.77
741.444	18174.95
741.784	18131.78
742.124	18278.22
742.464	18184.21
742.804	18202.06
743.143	18240.48
743.483	18300.14
743.823	18233.48
744.162	18402.51
744.502	18402.51
744.841	18305.56
745.181	18540.81
745.52	18354.15
745.86	18414.49
746.199	18418.1
746.538	18475.05
746.877	18571.77
747.216	18509.63
747.556	18491.1
747.895	18490.87
748.234	18567.93
748.573	18579
748.911	18600.02
749.25	18571.32
749.589	18524.09
749.928	18718.66
750.267	18704.2
750.605	18679.79
750.944	18653.13
751.283	18650.87
751.621	18726.34
751.96	18688.83
752.298	18649.96
752.636	18760.47
752.975	18717.98
753.313	18663.75
753.651	18718.66
753.989	18614.26
754.327	18710.3
754.666	18855.15
755.004	18775.16
755.342	18843.18
755.679	18858.54
756.017	18809.51
756.355	18921.59
756.693	18781.94
757.031	18816.74
757.368	18852.89
757.706	18830.52
758.044	18787.81
758.381	18910.52
758.719	18869.39
759.056	18891.54
759.394	18821.93
759.731	18768.6
760.068	18842.95
760.405	18832.1
760.743	18826.68
761.08	18880.01
761.417	18861.03
761.754	18807.02
762.091	18888.37
762.428	18825.55
762.765	18733.8
763.102	18918.43
763.438	18811.54
763.775	18771.99
764.112	18802.73
764.449	18818.32
764.785	18802.5
765.122	18681.15
765.458	18713.01
765.795	18746.23
766.131	18742.39
766.467	18818.09
766.804	18660.58
767.14	18644.76
767.476	18690.19
767.812	18597.99
768.148	18714.14
768.485	18558.44
768.821	18569.74
769.157	18612
769.492	18579.91
769.828	18638.66
770.164	18455.84
770.5	18550.98
770.836	18515.95
771.171	18402.28
771.507	18427.37
771.842	18380.82
772.178	18431.21
772.513	18385.34
772.849	18347.37
773.184	18277.09
773.519	18358.44
773.855	18369.74
774.19	18359.8
774.525	18226.24
774.86	18282.29
775.195	18236.87
775.53	18180.37
775.865	18122.52
776.2	17929.98
776.535	17957.32
776.87	18002.75
777.205	17976.08
777.539	17884.78
777.874	18016.08
778.209	17861.28
778.543	17812.02
778.878	17770.44
779.212	17824.9
779.547	17718.23
779.881	17734.05
780.215	17713.72
780.55	17695.64
780.884	17678.69
781.218	17645.69
781.552	17696.99
781.886	17591.46
782.22	17583.32
782.554	17447.06
782.888	17445.47
783.222	17468.98
783.556	17369.32
783.889	17344.69
784.223	17273.05
784.557	17219.72
784.89	17354.63
785.224	17289.09
785.557	17278.92
785.891	17183.56
786.224	17157.12
786.558	17134.97
786.891	17006.16
787.224	17033.73
787.557	16920.06
787.891	16993.28
788.224	16935.66
788.557	17023.34
788.89	16878.03
789.223	16903.34
789.556	16771.37
789.888	16890.69
790.221	16698.6
790.554	16680.97
790.887	16686.85
791.219	16687.75
791.552	16621.09
791.884	16510.58
792.217	16575.21
792.549	16442.11
792.882	16358.27
793.214	16426.74
793.546	16518.72
793.879	16307.88
794.211	16295.67
794.543	16325.73
794.875	16258.16
795.207	16374.77
795.539	16166.19
795.871	16277.14
796.203	16077.15
796.535	16123.47
796.867	16105.85
797.198	16095.68
797.53	16060.88
797.862	16014.32
798.193	15981.78
798.525	15881.9
798.856	16010.48
799.188	15770.72
799.519	15742.69
799.85	15634.67
800.182	15690.27
800.513	15751.96
800.844	15567.1
801.175	15713.99
801.506	15658.18
801.837	15600.78
802.168	15576.82
802.499	15496.37
802.83	15492.76
803.161	15437.62
803.491	15493.43
803.822	15460.44
804.153	15347.22
804.483	15194.91
804.814	15217.28
805.145	15172.99
805.475	15161.47
805.805	15190.39
806.136	15125.99
806.466	15175.93
806.796	15131.64
807.126	15031.98
807.457	15083.73
807.787	15057.74
808.117	14955.14
808.447	14958.76
808.777	15020.23
809.107	14977.74
809.436	14813.23
809.766	14800.35
810.096	14841.93
810.426	14827.46
810.755	14793.79
811.085	14729.16
811.414	14666.56
811.744	14606.68
812.073	14601.93
812.403	14640.12
812.732	14544.53
813.061	14551.99
813.39	14418.43
813.719	14433.8
814.049	14563.97
814.378	14488.04
814.707	14420.69
815.036	14326.91
815.365	14277.42
815.693	14173.7
816.022	14312.67
816.351	14187.03
816.68	14057.31
817.008	14229.74
817.337	14052.57
817.665	14003.3
817.994	14125.79
818.322	14127.14
818.651	13986.36
818.979	13884.66
819.307	14001.95
819.636	13977.09
819.964	13925.57
820.292	13924.21
820.62	13953.14
820.948	13845.79
821.276	13865.91
821.604	13866.13
821.932	13930.76
822.259	13913.36
822.587	13904.55
822.915	13853.25
823.243	13820.26
823.57	13864.78
823.898	13909.75
824.225	13866.81
824.553	13792.69
824.88	13884.89
825.207	13964.21
825.535	13911.33
825.862	13921.95
826.189	13903.87
826.516	13926.7
826.843	13905.23
827.17	13983.42
827.497	13857.55
827.824	13986.81
828.151	14002.85
828.478	14024.32
828.805	14033.13
829.131	13931.22
829.458	13944.32
829.785	13842.63
830.111	13903.42
830.438	13961.5
830.764	13946.13
831.09	14002.63
831.417	13914.04
831.743	13905.23
832.069	13901.39
832.395	13916.53
832.722	13950.88
833.048	13967.37
833.374	13868.17
833.7	13914.04
834.026	13884.66
834.351	13949.29
834.677	13841.73
835.003	13906.13
835.329	13888.28
835.654	13825
835.98	13773.71
836.306	13855.96
836.631	13783.42
836.956	13841.95
837.282	13841.05
837.607	13742.29
837.932	13686.7
838.258	13703.2
838.583	13719.7
838.908	13708.17
839.233	13716.98
839.558	13584.33
839.883	13595.41
840.208	13507.27
840.533	13489.65
840.858	13462.3
841.182	13473.83
841.507	13501.17
841.832	13400.16
842.156	13499.36
842.481	13495.52
842.805	13427.27
843.13	13358.12
843.454	13314.06
843.778	13256.43
844.103	13347.73
844.427	13218.01
844.751	13279.48
845.075	13163.1
845.399	13211.23
845.723	13120.39
846.047	13170.78
846.371	12974.18
846.695	13026.61
847.019	12907.74
847.343	12856.89
847.666	12856.22
847.99	12815.09
848.313	12720.4
848.637	12622.1
848.96	12656.9
849.284	12638.82
849.607	12480.63
849.931	12488.54
850.254	12405.61
850.577	12442.67
850.9	12207.87
851.223	12260.3
851.546	12264.59
851.869	12197.02
852.192	12154.77
852.515	12078.16
852.838	12071.38
853.161	12046.97
853.483	11922.45
853.806	11947.31
854.129	11864.83
854.451	11921.55
854.774	11823.7
855.096	11802.46
855.419	11787.54
855.741	11693.08
856.063	11673.65
856.385	11575.35
856.708	11620.77
857.03	11588.45
857.352	11507.32
857.674	11499.19
857.996	11476.14
858.318	11456.03
858.64	11416.03
858.961	11315.24
859.283	11364.73
859.605	11209.25
859.926	11378.06
860.248	11314.56
860.57	11231.4
860.891	11288.8
861.212	11199.99
861.534	11167.45
861.855	11115.7
862.176	11192.76
862.498	11156.83
862.819	11118.63
863.14	11113.66
863.461	11037.96
863.782	11054.46
864.103	10980.11
864.424	10933.1
864.745	10986.21
865.065	10934.01
865.386	10891.52
865.707	10904.4
866.027	10878.64
866.348	10852.88
866.668	10881.13
866.989	10785.54
867.309	10770.17
867.63	10770.62
867.95	10751.86
868.27	10729.27
868.59	10738.31
868.91	10703.73
869.23	10686.56
869.55	10680.91
869.87	10690.85
870.19	10652.21
870.51	10697.85
870.83	10666.22
871.15	10526.79
871.469	10581.25
871.789	10559.55
872.109	10602.49
872.428	10483.17
872.748	10622.83
873.067	10520.91
873.386	10590.06
873.706	10472.1
874.025	10485.43
874.344	10394.13
874.663	10494.7
874.982	10430.97
875.301	10428.26
875.62	10430.97
875.939	10291.76
876.258	10372.67
876.577	10318.66
876.896	10314.36
877.214	10288.83
877.533	10311.2
877.852	10299.45
878.17	10298.54
878.489	10294.7
878.807	10263.52
879.125	10270.07
879.444	10146.46
879.762	10207.02
880.08	10193.23
880.398	10122.28
880.716	10056.29
881.034	10130.86
881.352	10092.9
881.67	10051.54
881.988	10096.97
882.306	10044.09
882.624	10001.38
882.941	10007.25
883.259	9910.53
883.577	9891.77
883.894	9962.96
884.212	9881.83
884.529	9922.96
884.846	9798.89
885.164	9778.78
885.481	9779.23
885.798	9827.14
886.115	9635.28
886.432	9717.54
886.75	9748.27
887.067	9669.18
887.383	9621.5
887.7	9695.62
888.017	9629.86
888.334	9645.68
888.651	9586.25
888.967	9533.59
889.284	9510.09
889.6	9529.07
889.917	9410.43
890.233	9425.35
890.55	9386.02
890.866	9353.26
891.182	9324.11
891.498	9327.49
891.815	9307.61
892.131	9307.61
892.447	9206.37
892.763	9192.58
893.079	9155.07
893.395	9184
893.71	9092.25
894.026	9125.01
894.342	9126.6
894.657	9052.02
894.973	8996.2
895.289	8953.95
895.604	8982.19
895.92	8936.54
896.235	8863.78
896.55	8872.59
896.865	8811.58
897.181	8846.83
897.496	8833.72
897.811	8746.49
898.126	8765.25
898.441	8723.89
898.756	8615.65
899.071	8619.94
899.386	8586.27
899.7	8543.11
900.015	8529.1
900.33	8480.74
900.644	8442.55
900.959	8466.73
901.273	8483.22
901.588	8406.84
901.902	8367.97
902.216	8359.38
902.531	8292.72
902.845	8292.95
903.159	8269.22
903.473	8290.46
903.787	8164.81
904.101	8086.62
904.415	8170.46
904.729	8088.66
905.042	8090.24
905.356	8035.33
905.67	8012.5
905.984	7969.11
906.297	7994.87
906.611	7954.65
906.924	7894.31
907.237	7875.1
907.551	7871.49
907.864	7779.06
908.177	7744.03
908.491	7738.38
908.804	7691.15
909.117	7643.92
909.43	7634.21
909.743	7598.73
910.056	7612.51
910.368	7567.54
910.681	7528.9
910.994	7447.77
911.307	7491.38
911.619	7408.22
911.932	7449.13
912.244	7387.66
912.557	7363.93
912.869	7331.62
913.181	7293.88
913.494	7273.31
913.806	7210.71
914.118	7187.89
914.43	7136.82
914.742	7125.52
915.054	7067.22
915.366	7080.1
915.678	7085.52
915.99	7021.34
916.302	6959.42
916.613	6938.18
916.925	6900.21
917.236	6950.38
917.548	6889.37
917.859	6855.47
918.171	6744.74
918.482	6752.2
918.794	6758.07
919.105	6808.47
919.416	6669.49
919.727	6666.32
920.038	6739.31
920.349	6649.83
920.66	6610.5
920.971	6518.76
921.282	6587.23
921.593	6496.16
921.903	6449.38
922.214	6457.74
922.525	6437.85
922.835	6386.78
923.146	6390.62
923.456	6383.39
923.767	6327.35
924.077	6346.33
924.387	6291.64
924.697	6219.33
925.008	6194.47
925.318	6187.46
925.628	6174.36
925.938	6183.62
926.248	6123.51
926.558	6069.28
926.867	6084.64
927.177	6019.33
927.487	6055.94
927.796	5996.96
928.106	5978.2
928.416	5992.89
928.725	5934.36
929.034	5857.53
929.344	5904.76
929.653	5920.8
929.962	5795.61
930.271	5783.86
930.581	5751.77
930.89	5714.48
931.199	5735.27
931.508	5679.23
931.817	5688.27
932.125	5679
932.434	5625.22
932.743	5554.49
933.051	5593.13
933.36	5537.09
933.669	5473.58
933.977	5437.2
934.286	5486.92
934.594	5461.38
934.902	5361.05
935.21	5406.92
935.519	5344.55
935.827	5324.44
936.135	5335.28
936.443	5220.94
936.751	5295.06
937.059	5292.57
937.367	5249.86
937.674	5219.81
937.982	5182.29
938.29	5148.85
938.597	5190.2
938.905	5168.73
939.213	5139.36
939.52	5085.35
939.827	5094.84
940.135	5032.92
940.442	4999.02
940.749	5014.84
941.056	5035.18
941.363	4927.61
941.67	4937.33
941.977	4892.36
942.284	4855.52
942.591	4856.2
942.898	4852.81
943.205	4907.95
943.511	4788.86
943.818	4780.5
944.125	4746.37
944.431	4732.59
944.738	4739.59
945.044	4751.57
945.35	4709.54
945.657	4684.91
945.963	4694.85
946.269	4632.03
946.575	4683.78
946.881	4596.09
947.187	4627.51
947.493	4514.97
947.799	4510.45
948.105	4495.08
948.41	4493.95
948.716	4458.47
949.022	4432.03
949.327	4413.5
949.633	4372.82
949.938	4402.88
950.244	4350.45
950.549	4382.54
950.854	4358.81
951.16	4343.9
951.465	4265.71
951.77	4333.05
952.075	4232.04
952.38	4268.64
952.685	4244.92
952.99	4194.3
953.294	4182.09
953.599	4145.48
953.904	4169.21
954.209	4106.62
954.513	4139.61
954.818	4071.59
955.122	4102.1
955.426	4093.73
955.731	4075.88
956.035	4042.66
956.339	4011.7
956.643	3966.51
956.948	3941.65
957.252	3949.33
957.556	3924.47
957.86	3927.64
958.163	3941.2
958.467	3889.45
958.771	3902.33
959.075	3838.6
959.378	3831.14
959.682	3827.75
959.985	3778.49
960.289	3800.41
960.592	3776.68
960.896	3756.57
961.199	3784.59
961.502	3706.4
961.805	3720.86
962.108	3724.25
962.411	3673.63
962.714	3640.64
963.017	3630.24
963.32	3654.88
963.623	3614.88
963.926	3585.72
964.228	3590.24
964.531	3572.17
964.833	3545.95
965.136	3547.08
965.438	3502.11
965.741	3503.47
966.043	3483.13
966.345	3494.43
966.648	3473.64
966.95	3432.96
967.252	3405.84
967.554	3391.15
967.856	3421.21
968.158	3357.26
968.46	3359.74
968.761	3341.89
969.063	3317.03
969.365	3332.4
969.666	3336.24
969.968	3280.87
970.269	3300.99
970.571	3277.71
970.872	3268.9
971.174	3222.57
971.475	3244.04
971.776	3205.85
972.077	3153.19
972.378	3146.87
972.679	3175.11
972.98	3178.5
973.281	3126.53
973.582	3142.8
973.883	3108.45
974.183	3095.57
974.484	3085.4
974.785	3058.06
975.085	3039.07
975.386	3042.69
975.686	3018.06
975.986	3006.98
976.287	2976.7
976.587	2992.29
976.887	2982.58
977.187	2980.32
977.487	2938.28
977.787	2931.96
978.087	2934.22
978.387	2917.95
978.687	2914.33
978.987	2878.85
979.286	2871.17
979.586	2819.19
979.885	2865.74
980.185	2855.12
980.484	2844.5
980.784	2833.88
981.083	2792.98
981.382	2815.35
981.682	2777.61
981.981	2760.66
982.28	2723.6
982.579	2751.85
982.878	2763.15
983.177	2719.31
983.475	2712.08
983.774	2723.83
984.073	2687.44
984.372	2668.23
984.67	2649.25
984.969	2635.69
985.267	2626.2
985.566	2623.72
985.864	2598.41
986.162	2600.67
986.461	2620.33
986.759	2578.97
987.057	2548.01
987.355	2547.33
987.653	2564.51
987.951	2541.01
988.249	2501.23
988.547	2527
988.844	2487.45
989.142	2504.62
989.44	2469.6
989.737	2484.06
990.035	2464.85
990.332	2432.76
990.63	2428.02
990.927	2414.68
991.224	2413.33
991.521	2418.07
991.819	2348.24
992.116	2393.67
992.413	2349.83
992.71	2363.38
993.006	2329.94
993.303	2333.33
993.6	2296.95
993.897	2277.06
994.193	2312.99
994.49	2273.44
994.787	2273.67
995.083	2270.51
995.379	2237.74
995.676	2257.62
995.972	2218.53
996.268	2226.44
996.565	2183.28
996.861	2199.77
997.157	2184.63
997.453	2166.1
997.749	2141.7
998.044	2129.94
998.34	2128.59
998.636	2111.64
998.932	2107.35
999.227	2091.75
999.523	2098.31
999.818	2054.69
1000.114	2066.22
1000.409	2064.86
1000.704	2088.82
1001	2054.92
1001.295	2018.53
1001.59	2016.5
1001.885	2003.85
1002.18	1987.8
1002.475	1977.18
1002.77	1980.8
1003.065	1970.63
1003.359	1973.34
1003.654	1960.68
1003.949	1906.22
1004.243	1908.25
1004.538	1883.62
1004.832	1922.94
1005.127	1898.76
1005.421	1875.49
1005.715	1902.83
1006.009	1879.78
1006.304	1856.73
1006.598	1818.77
1006.892	1823.51
1007.186	1837.75
1007.48	1818.09
1007.773	1820.57
1008.067	1792.78
1008.361	1805.43
1008.655	1778.77
1008.948	1759.33
1009.242	1741.25
1009.535	1753.91
1009.829	1727.92
1010.122	1746.9
1010.415	1692.67
1010.708	1717.3
1011.001	1688.6
1011.295	1681.14
1011.588	1692.89
1011.881	1712.33
1012.173	1669.62
1012.466	1626.45
1012.759	1676.85
1013.052	1643.63
1013.344	1619
1013.637	1609.73
1013.93	1604.08
1014.222	1600.01
1014.514	1566.57
1014.807	1579.9
1015.099	1559.34
1015.391	1576.74
1015.683	1546
1015.976	1545.1
1016.268	1557.08
1016.56	1521.37
1016.851	1495.61
1017.143	1504.65
1017.435	1478.66
1017.727	1489.73
1018.018	1475.95
1018.31	1469.4
1018.602	1428.27
1018.893	1441.6
1019.185	1416.97
1019.476	1436.4
1019.767	1411.09
1020.058	1423.3
1020.35	1407.48
1020.641	1407.25
1020.932	1383.52
1021.223	1371.32
1021.514	1347.14
1021.804	1363.64
1022.095	1350.3
1022.386	1318.44
1022.677	1314.37
1022.967	1325.67
1023.258	1332.45
1023.548	1306.01
1023.839	1311.21
1024.129	1264.43
1024.419	1282.73
1024.709	1260.14
1025	1257.65
1025.29	1219.69
1025.58	1255.39
1025.87	1232.79
1026.16	1200.48
1026.449	1230.53
1026.739	1216.97
1027.029	1210.42
1027.319	1197.54
1027.608	1174.04
1027.898	1171.33
1028.187	1176.75
1028.477	1166.58
1028.766	1172.46
1029.055	1168.16
1029.344	1160.25
1029.634	1136.52
1029.923	1119.58
1030.212	1088.16
1030.501	1110.99
1030.79	1108.73
1031.078	1091.78
1031.367	1120.25
1031.656	1092.91
1031.945	1093.36
1032.233	1085
1032.522	1097.88
1032.81	1057.43
1033.099	1047.94
1033.387	1052.46
1033.675	1016.75
1033.963	1037.09
1034.251	1021.05
1034.54	1021.27
1034.828	1013.36
1035.116	1020.14
1035.403	1003.19
1035.691	978.34
1035.979	1022.4
1036.267	991.22
1036.554	952.35
1036.842	970.43
1037.129	968.39
1037.417	960.71
1037.704	936.08
1037.992	925
1038.279	941.95
1038.566	925.46
1038.853	925.46
1039.14	925.46
