Data from blue_surface_keyboard_FLMS001491_024.txt Node
Date: Tue Feb 07 11:12:51 GMT 2017
User: dcchb
Spectrometer: FLMS00149
Trigger mode: 0
Integration Time (sec): 2.000000E-2
Scans to average: 10
Electric dark correction enabled: true
Nonlinearity correction enabled: false
Boxcar width: 0
XAxis mode: Wavelengths
Number of Pixels in Spectrum: 2048
>>>>>Begin Spectral Data<<<<<
341.393	-28.86
341.776	-28.86
342.16	-28.86
342.543	-58.23
342.927	-61.4
343.31	-73.83
343.693	-72.02
344.077	-62.3
344.46	-53.71
344.843	-38.35
345.226	-38.8
345.61	-26.6
345.993	-8.97
346.376	-8.74
346.759	-3.32
347.142	42.78
347.525	33.97
347.908	45.49
348.291	79.16
348.674	77.81
349.057	107.41
349.44	123.46
349.823	126.62
350.206	131.14
350.588	183.57
350.971	216.34
351.354	209.1
351.737	214.75
352.119	224.7
352.502	246.62
352.884	242.32
353.267	248.2
353.65	254.3
354.032	285.94
354.414	287.29
354.797	300.18
355.179	287.52
355.562	291.14
355.944	297.01
356.326	331.14
356.709	294.3
357.091	308.99
357.473	304.47
357.855	318.93
358.238	320.74
358.62	316.9
359.002	309.89
359.384	329.1
359.766	316.9
360.148	300.4
360.53	308.31
360.912	302.66
361.294	327.97
361.676	320.29
362.057	312.15
362.439	311.93
362.821	303.34
363.203	286.16
363.584	300.18
363.966	297.92
364.348	289.55
364.729	289.33
365.111	266.96
365.493	285.71
365.874	304.02
366.256	283.45
366.637	281.42
367.019	281.65
367.4	293.17
367.781	297.92
368.163	294.98
368.544	282.78
368.925	276.45
369.306	302.89
369.688	277.8
370.069	266.73
370.45	293.17
370.831	292.04
371.212	278.93
371.593	259.95
371.974	269.67
372.355	289.1
372.736	286.62
373.117	277.35
373.498	260.85
373.879	280.74
374.26	277.13
374.641	272.61
375.021	268.54
375.402	286.62
375.783	288.42
376.163	309.67
376.544	284.81
376.925	286.84
377.305	288.88
377.686	275.32
378.066	289.1
378.447	271.7
378.827	287.52
379.208	313.73
379.588	283.23
379.968	273.51
380.349	293.85
380.729	283.9
381.109	295.43
381.489	313.06
381.87	275.32
382.25	286.39
382.63	294.75
383.01	292.27
383.39	290.91
383.77	289.55
384.15	291.36
384.53	295.43
384.91	294.53
385.29	316.9
385.67	318.03
386.049	304.92
386.429	319.84
386.809	303.57
387.189	316.67
387.568	309.22
387.948	280.29
388.328	303.11
388.707	311.7
389.087	311.47
389.466	316.9
389.846	308.76
390.225	315.77
390.605	318.03
390.984	309.22
391.363	315.09
391.743	316.22
392.122	316.45
392.501	299.05
392.881	316.67
393.26	319.38
393.639	310.57
394.018	324.36
394.397	322.55
394.776	315.99
395.155	314.41
395.534	321.19
395.913	323.68
396.292	322.32
396.671	334.75
397.05	315.54
397.429	304.02
397.808	318.71
398.186	328.2
398.565	328.2
398.944	332.27
399.323	343.34
399.701	312.38
400.08	307.18
400.458	324.81
400.837	328.65
401.215	347.41
401.594	315.54
401.972	335.43
402.351	346.5
402.729	335.66
403.107	334.3
403.486	332.49
403.864	349.67
404.242	350.12
404.62	348.08
404.999	360.97
405.377	369.55
405.755	356.22
406.133	356.22
406.511	335.2
406.889	344.47
407.267	353.73
407.645	368.42
408.023	367.74
408.401	353.96
408.779	365.03
409.156	349.21
409.534	365.03
409.912	373.39
410.29	371.81
410.667	360.06
411.045	357.12
411.422	348.99
411.8	371.81
412.178	358.25
412.555	373.17
412.933	392.83
413.31	369.1
413.687	355.54
414.065	393.51
414.442	376.56
414.819	365.48
415.197	377.24
415.574	383.34
415.951	379.72
416.328	379.72
416.705	379.27
417.082	357.12
417.46	394.41
417.837	398.7
418.214	381.08
418.591	362.32
418.967	378.14
419.344	404.81
419.721	381.53
420.098	391.25
420.475	413.62
420.852	419.95
421.228	409.55
421.605	393.96
421.982	410.68
422.358	408.2
422.735	411.36
423.111	397.57
423.488	405.71
423.864	388.99
424.241	398.7
424.617	402.32
424.994	407.97
425.37	415.2
425.746	407.29
426.123	419.72
426.499	402.55
426.875	439.16
427.251	407.29
427.627	386.05
428.003	435.77
428.379	419.72
428.756	433.96
429.132	421.08
429.507	424.92
429.883	440.74
430.259	455.65
430.635	447.74
431.011	446.16
431.387	445.48
431.763	433.96
432.138	441.64
432.514	461.08
432.89	459.72
433.265	453.62
433.641	477.35
434.016	456.78
434.392	458.14
434.767	465.82
435.143	472.37
435.518	486.39
435.894	458.82
436.269	488.19
436.644	482.32
437.02	468.98
437.395	480.96
437.77	490.91
438.145	483
438.52	484.58
438.895	483.67
439.271	469.89
439.646	518.93
440.021	486.84
440.395	491.58
440.77	495.42
441.145	488.42
441.52	513.5
441.895	503.79
442.27	497.68
442.645	511.47
443.019	508.98
443.394	516.67
443.769	527.51
444.143	509.44
444.518	531.36
444.892	512.37
445.267	512.15
445.641	524.12
446.016	533.16
446.39	545.37
446.764	538.14
447.139	528.19
447.513	543.56
447.887	521.41
448.262	531.81
448.636	530.9
449.01	541.75
449.384	543.33
449.758	553.28
450.132	540.17
450.506	558.7
450.88	547.4
451.254	563.22
451.628	581.07
452.002	555.99
452.376	569.32
452.75	564.58
453.123	560.51
453.497	576.55
453.871	586.5
454.244	575.65
454.618	588.08
454.992	578.36
455.365	606.38
455.739	586.95
456.112	586.5
456.486	624.46
456.859	602.77
457.232	626.72
457.606	619.26
457.979	611.58
458.352	636.89
458.725	633.5
459.099	628.08
459.472	642.99
459.845	596.21
460.218	626.72
460.591	621.52
460.964	646.83
461.337	646.16
461.71	629.88
462.083	639.15
462.456	644.57
462.829	684.35
463.201	660.62
463.574	657.91
463.947	695.65
464.32	708.53
464.692	674.18
465.065	683.22
465.438	675.53
465.81	683.89
466.183	707.4
466.555	697.45
466.928	703.33
467.3	723.22
467.672	704.68
468.045	729.54
468.417	707.62
468.789	719.15
469.161	729.77
469.534	735.19
469.906	739.03
470.278	750.11
470.65	767.96
471.022	765.25
471.394	800.05
471.766	771.58
472.138	760.05
472.51	793.5
472.882	812.03
473.253	781.52
473.625	805.25
473.997	815.42
474.369	785.13
474.74	811.8
475.112	816.09
475.484	842.76
475.855	832.37
476.227	861.29
476.598	875.53
476.97	878.92
477.341	877.79
477.713	877.56
478.084	897
478.455	907.84
478.827	927.96
479.198	906.49
479.569	946.03
479.94	922.76
480.311	950.55
480.682	955.07
481.053	963.21
481.424	983.55
481.795	992.81
482.166	989.88
482.537	991.91
482.908	1006.15
483.279	1013.83
483.65	1026.03
484.021	1033.26
484.391	1070.1
484.762	1049.08
485.133	1033.04
485.503	1050.89
485.874	1057.67
486.244	1083.66
486.615	1095.18
486.985	1100.15
487.356	1096.31
487.726	1091.57
488.097	1144.45
488.467	1111.45
488.837	1131.57
489.207	1134.5
489.578	1111.23
489.948	1143.54
490.318	1195.29
490.688	1156.2
491.058	1173.37
491.428	1214.73
491.798	1176.99
492.168	1189.87
492.538	1210.89
492.908	1214.28
493.278	1220.38
493.648	1189.64
494.017	1237.78
494.387	1226.93
494.757	1226.48
495.126	1232.81
495.496	1229.19
495.866	1264.9
496.235	1236.87
496.605	1255.63
496.974	1259.7
497.344	1255.86
497.713	1312.13
498.082	1253.37
498.452	1285.01
498.821	1297.21
499.19	1269.87
499.559	1298.79
499.928	1287.95
500.298	1311.22
500.667	1302.64
501.036	1315.74
501.405	1279.58
501.774	1283.43
502.143	1333.14
502.512	1332.01
502.88	1302.18
503.249	1314.61
503.618	1302.86
503.987	1319.13
504.356	1309.19
504.724	1344.22
505.093	1329.3
505.462	1335.4
505.83	1351.22
506.199	1329.98
506.567	1366.36
506.936	1337.66
507.304	1344.22
507.672	1363.65
508.041	1371.33
508.409	1392.58
508.777	1391.22
509.145	1384.89
509.514	1345.8
509.882	1383.54
510.25	1374.95
510.618	1395.51
510.986	1375.4
511.354	1375.18
511.722	1392.12
512.09	1391.22
512.458	1399.58
512.826	1379.92
513.193	1410.2
513.561	1410.88
513.929	1406.59
514.297	1416.98
514.664	1440.48
515.032	1410.43
515.4	1414.27
515.767	1411.33
516.135	1421.95
516.502	1381.05
516.869	1431.67
517.237	1414.95
517.604	1421.5
517.972	1413.14
518.339	1419.92
518.706	1406.81
519.073	1428.51
519.44	1464.44
519.808	1471.67
520.175	1469.18
520.542	1467.38
520.909	1479.58
521.276	1456.53
521.643	1462.41
522.009	1456.53
522.376	1458.34
522.743	1447.72
523.11	1487.04
523.477	1477.77
523.843	1500.14
524.21	1499.24
524.577	1472.57
524.943	1486.81
525.31	1492.91
525.676	1511.44
526.043	1496.3
526.409	1505.34
526.776	1539.01
527.142	1503.53
527.508	1538.56
527.874	1516.41
528.241	1543.76
528.607	1520.03
528.973	1533.14
529.339	1536.08
529.705	1558.22
530.071	1532.01
530.437	1573.59
530.803	1542.63
531.169	1566.13
531.535	1563.19
531.901	1546.47
532.267	1567.26
532.632	1545.34
532.998	1571.1
533.364	1551.44
533.73	1565
534.095	1585.34
534.461	1558.9
534.826	1579.92
535.192	1597.09
535.557	1586.92
535.923	1554.61
536.288	1580.37
536.653	1578.11
537.019	1605.23
537.384	1569.97
537.749	1572.46
538.114	1590.99
538.479	1590.31
538.845	1598.22
539.21	1578.33
539.575	1591.22
539.94	1584.21
540.305	1599.58
540.67	1594.15
541.034	1610.88
541.399	1592.57
541.764	1598.67
542.129	1607.71
542.494	1611.78
542.858	1610.2
543.223	1588.05
543.587	1595.28
543.952	1558.67
544.316	1601.61
544.681	1599.12
545.045	1594.83
545.41	1619.24
545.774	1614.49
546.138	1611.33
546.503	1601.61
546.867	1622.4
547.231	1650.42
547.595	1616.98
547.959	1624.21
548.324	1596.64
548.688	1616.3
549.052	1593.93
549.416	1617.66
549.779	1632.8
550.143	1615.17
550.507	1641.61
550.871	1640.25
551.235	1613.14
551.599	1628.5
551.962	1634.6
552.326	1626.92
552.689	1638.9
553.053	1628.28
553.417	1626.02
553.78	1645
554.143	1642.06
554.507	1625.11
554.87	1637.09
555.234	1642.06
555.597	1657.2
555.96	1657.2
556.323	1603.87
556.686	1656.07
557.05	1660.82
557.413	1640.25
557.776	1637.99
558.139	1642.74
558.502	1655.85
558.865	1675.05
559.228	1657.43
559.59	1668.05
559.953	1686.35
560.316	1680.03
560.679	1655.85
561.041	1686.13
561.404	1667.6
561.767	1683.19
562.129	1709.86
562.492	1687.03
562.854	1678.67
563.217	1681.61
563.579	1657.65
563.941	1696.75
564.304	1732.91
564.666	1716.64
565.028	1705.11
565.39	1691.78
565.753	1718.67
566.115	1727.71
566.477	1737.43
566.839	1725
567.201	1709.86
567.563	1694.72
567.925	1729.97
568.287	1687.03
568.648	1736.75
569.01	1758.67
569.372	1757.76
569.734	1737.88
570.095	1731.55
570.457	1750.31
570.819	1757.54
571.18	1750.08
571.542	1774.71
571.903	1770.65
572.265	1766.35
572.626	1763.19
572.987	1784.88
573.349	1768.39
573.71	1793.02
574.071	1775.62
574.432	1795.5
574.794	1749.4
575.155	1798.89
575.516	1769.52
575.877	1796.86
576.238	1776.75
576.599	1799.12
576.96	1803.41
577.32	1791.66
577.681	1789.4
578.042	1807.71
578.403	1811.55
578.763	1804.32
579.124	1811.77
579.485	1821.27
579.845	1842.06
580.206	1815.84
580.566	1837.31
580.927	1807.03
581.287	1833.24
581.648	1815.39
582.008	1844.09
582.368	1800.93
582.728	1818.78
583.089	1783.98
583.449	1816.07
583.809	1814.49
584.169	1826.69
584.529	1824.2
584.889	1838.21
585.249	1829.85
585.609	1804.32
585.969	1847.71
586.329	1791.89
586.688	1812.23
587.048	1837.08
587.408	1835.05
587.768	1803.41
588.127	1816.29
588.487	1845.9
588.846	1826.01
589.206	1843.64
589.565	1826.01
589.925	1858.78
590.284	1844.99
590.643	1830.98
591.003	1831.66
591.362	1807.03
591.721	1858.55
592.08	1854.03
592.44	1860.59
592.799	1859.46
593.158	1833.02
593.517	1875.95
593.876	1862.85
594.235	1844.77
594.593	1880.7
594.952	1870.76
595.311	1889.29
595.67	1842.28
596.029	1850.19
596.387	1876.86
596.746	1863.3
597.104	1863.98
597.463	1882.73
597.822	1889.29
598.18	1886.8
598.538	1872.79
598.897	1886.8
599.255	1849.29
599.613	1884.99
599.972	1868.5
600.33	1879.8
600.688	1868.72
601.046	1888.83
601.404	1887.25
601.762	1890.19
602.12	1866.01
602.478	1883.86
602.836	1905.11
603.194	1884.77
603.552	1876.41
603.91	1889.74
604.268	1924.54
604.625	1860.36
604.983	1892.9
605.341	1876.86
605.698	1920.92
606.056	1897.87
606.413	1861.49
606.771	1908.27
607.128	1912.56
607.485	1881.83
607.843	1911.88
608.2	1902.85
608.557	1905.78
608.914	1950.08
609.272	1924.54
609.629	1938.1
609.986	1910.98
610.343	1927.25
610.7	1952.79
611.057	1926.35
611.414	1942.62
611.771	1919.79
612.127	1937.87
612.484	1966.57
612.841	1979.91
613.198	1927.7
613.554	1944.65
613.911	1952.79
614.267	1957.76
614.624	1968.15
614.98	1971.54
615.337	1974.93
615.693	1945.56
616.05	1958.44
616.406	1979.45
616.762	1977.87
617.118	1977.65
617.475	1943.52
617.831	1954.82
618.187	2002.05
618.543	2004.09
618.899	2007.02
619.255	1971.77
619.611	1983.97
619.967	1973.8
620.323	1972.67
620.678	2002.96
621.034	1966.57
621.39	1970.64
621.746	2014.25
622.101	2004.09
622.457	1996.63
622.812	2020.81
623.168	2039.11
623.523	2019.23
623.879	2033.69
624.234	2004.76
624.589	2022.16
624.945	2021.26
625.3	2042.5
625.655	2030.53
626.01	2008.83
626.365	2052.22
626.72	2028.49
627.075	2050.86
627.43	2036.63
627.785	2029.85
628.14	2044.54
628.495	2030.07
628.85	2038.66
629.205	2053.35
629.559	2061.71
629.914	2068.94
630.269	2043.86
630.623	2051.99
630.978	2038.89
631.332	2064.42
631.687	2059.23
632.041	2051.32
632.396	2057.87
632.75	2082.28
633.104	2076.85
633.459	2080.02
633.813	2089.51
634.167	2065.1
634.521	2074.14
634.875	2113.24
635.229	2103.07
635.583	2100.58
635.937	2090.64
636.291	2102.61
636.645	2083.18
636.999	2130.64
637.352	2113.69
637.706	2126.79
638.06	2144.42
638.413	2145.1
638.767	2119.34
639.121	2109.85
639.474	2120.92
639.828	2115.72
640.181	2171.76
640.534	2158.88
640.888	2151.43
641.241	2156.17
641.594	2171.54
641.947	2179.67
642.301	2160.24
642.654	2174.93
643.007	2193.69
643.36	2136.96
643.713	2152.1
644.066	2202.27
644.419	2205.66
644.771	2223.74
645.124	2170.86
645.477	2174.02
645.83	2158.66
646.182	2160.47
646.535	2157.3
646.888	2202.5
647.24	2157.75
647.593	2191.88
647.945	2184.19
648.298	2213.12
648.65	2193.69
649.002	2215.15
649.355	2244.31
649.707	2229.16
650.059	2231.2
650.411	2268.49
650.763	2322.95
651.115	2311.42
651.467	2320.01
651.819	2321.14
652.171	2327.47
652.523	2330.4
652.875	2338.99
653.227	2343.29
653.578	2380.35
653.93	2401.59
654.282	2360.01
654.633	2389.39
654.985	2329.27
655.337	2386.45
655.688	2414.92
656.039	2395.04
656.391	2411.98
656.742	2428.03
657.094	2409.72
657.445	2421.25
657.796	2454.24
658.147	2463.73
658.498	2443.4
658.849	2488.14
659.2	2488.37
659.551	2484.3
659.902	2512.55
660.253	2517.29
660.604	2532.43
660.955	2543.05
661.306	2545.99
661.656	2560.46
662.007	2565.2
662.358	2561.13
662.708	2588.7
663.059	2597.06
663.409	2591.64
663.76	2634.58
664.11	2630.51
664.461	2635.26
664.811	2652.66
665.161	2663.05
665.511	2683.16
665.862	2692.43
666.212	2708.93
666.562	2716.61
666.912	2745.76
667.262	2724.07
667.612	2733.78
667.962	2742.82
668.312	2771.52
668.662	2781.47
669.011	2767
669.361	2844.97
669.711	2815.59
670.06	2814.01
670.41	2829.83
670.76	2833.89
671.109	2852.88
671.459	2839.77
671.808	2850.84
672.157	2842.48
672.507	2881.12
672.856	2866.21
673.205	2867.57
673.554	2914.57
673.904	2901.24
674.253	2937.62
674.602	2961.57
674.951	2912.99
675.3	2914.12
675.649	2967.22
675.998	2957.06
676.346	3006.55
676.695	3024.62
677.044	2976.26
677.393	3012.42
677.741	3035.7
678.09	2990.73
678.438	3021.01
678.787	3047.9
679.135	3047
679.484	3088.8
679.832	3079.99
680.181	3072.98
680.529	3047.45
680.877	3095.13
681.225	3113.44
681.573	3143.49
681.922	3105.75
682.27	3097.16
682.618	3105.75
682.966	3119.76
683.314	3172.42
683.661	3120.44
684.009	3164.73
684.357	3176.71
684.705	3193.21
685.053	3161.8
685.4	3159.31
685.748	3171.29
686.095	3205.18
686.443	3152.76
686.79	3212.64
687.138	3187.56
687.485	3215.13
687.832	3234.34
688.18	3255.58
688.527	3238.4
688.874	3221.23
689.221	3198.63
689.568	3198.18
689.915	3228.23
690.262	3175.58
690.609	3225.52
690.956	3184.62
691.303	3189.14
691.65	3213.09
691.997	3251.51
692.344	3218.74
692.69	3246.99
693.037	3263.26
693.383	3235.69
693.73	3220.55
694.077	3235.69
694.423	3195.47
694.769	3228.69
695.116	3230.49
695.462	3260.32
695.808	3209.03
696.155	3249.7
696.501	3201.12
696.847	3230.49
697.193	3211.06
697.539	3214
697.885	3190.27
698.231	3238.4
698.577	3197.73
698.923	3225.97
699.269	3232.53
699.614	3212.87
699.96	3209.48
700.306	3159.08
700.651	3183.49
700.997	3143.04
701.342	3173.77
701.688	3184.85
702.033	3179.42
702.379	3192.53
702.724	3137.16
703.069	3197.27
703.415	3171.06
703.76	3186.88
704.105	3137.84
704.45	3129.48
704.795	3189.59
705.14	3132.64
705.485	3137.84
705.83	3138.07
706.175	3141.46
706.52	3150.04
706.865	3156.37
707.209	3115.92
707.554	3105.53
707.899	3154.34
708.243	3095.36
708.588	3091.74
708.932	3086.54
709.277	3102.59
709.621	3105.98
709.966	3088.8
710.31	3105.53
710.654	3130.84
710.998	3089.25
711.342	3078.63
711.687	3097.84
712.031	3091.74
712.375	3098.07
712.719	3129.03
713.063	3108.69
713.407	3078.18
713.75	3089.25
714.094	3073.66
714.438	3098.75
714.782	3139.88
715.125	3092.42
715.469	3053.55
715.812	3058.52
716.156	3047.67
716.499	3072.31
716.843	3066.88
717.186	3077.05
717.53	3088.13
717.873	3082.02
718.216	3079.09
718.559	3047
718.902	3049.03
719.246	3067.33
719.589	3066.66
719.932	3020.33
720.275	3053.32
720.617	3060.78
720.96	3069.59
721.303	3089.48
721.646	3102.81
721.989	3057.17
722.331	3067.33
722.674	3025.53
723.016	3090.38
723.359	3080.89
723.701	3038.41
724.044	3059.88
724.386	3055.81
724.729	3047
725.071	3063.27
725.413	3133.1
725.755	3031.4
726.097	3058.75
726.439	3032.53
726.782	3043.83
727.124	3106.43
727.465	3051.29
727.807	3081.35
728.149	3056.94
728.491	3080.44
728.833	3078.63
729.175	3036.6
729.516	3077.96
729.858	3091.29
730.199	3105.75
730.541	3097.39
730.882	3088.13
731.224	3072.53
731.565	3117.73
731.906	3096.49
732.248	3105.3
732.589	3102.36
732.93	3080.89
733.271	3107.33
733.612	3107.11
733.953	3134.9
734.294	3092.87
734.635	3133.55
734.976	3113.66
735.317	3119.31
735.658	3115.92
735.999	3125.41
736.339	3130.61
736.68	3127.45
737.021	3130.38
737.361	3101.23
737.702	3166.77
738.042	3156.82
738.383	3157.28
738.723	3173.32
739.063	3197.5
739.404	3194.56
739.744	3184.62
740.084	3192.98
740.424	3213.09
740.764	3226.2
741.104	3240.21
741.444	3240.21
741.784	3216.94
742.124	3248.35
742.464	3244.96
742.804	3256.93
743.143	3237.73
743.483	3274.79
743.823	3270.27
744.162	3261.45
744.502	3292.41
744.841	3297.84
745.181	3330.83
745.52	3326.08
745.86	3344.84
746.199	3375.35
746.538	3380.09
746.877	3417.38
747.216	3418.51
747.556	3411.28
747.895	3446.99
748.234	3458.28
748.573	3435.91
748.911	3487.66
749.25	3506.42
749.589	3494.89
749.928	3557.04
750.267	3560.65
750.605	3576.47
750.944	3564.04
751.283	3615.34
751.621	3623.48
751.96	3637.26
752.298	3651.27
752.636	3698.05
752.975	3689.47
753.313	3660.31
753.651	3726.98
753.989	3748.67
754.327	3767.2
754.666	3733.31
755.004	3788.67
755.342	3822.34
755.679	3827.09
756.017	3825.96
756.355	3868.22
756.693	3928.55
757.031	3921.32
757.368	3934.43
757.706	3936.01
758.044	3968.33
758.381	3993.19
758.719	3985.73
759.056	4063.01
759.394	4072.51
759.731	4027.54
760.068	4060.3
760.405	4101.21
760.743	4075.67
761.08	4087.87
761.417	4122.22
761.754	4116.57
762.091	4101.88
762.428	4118.38
762.765	4154.31
763.102	4170.81
763.438	4186.63
763.775	4205.16
764.112	4198.83
764.449	4187.31
764.785	4210.13
765.122	4207.42
765.458	4219.39
765.795	4222.11
766.131	4241.54
766.467	4235.89
766.804	4199.73
767.14	4246.74
767.476	4279.96
767.812	4199.73
768.148	4286.96
768.485	4257.81
768.821	4228.21
769.157	4264.37
769.492	4241.09
769.828	4256.23
770.164	4225.95
770.5	4228.21
770.836	4264.14
771.171	4232.73
771.507	4234.76
771.842	4175.78
772.178	4234.76
772.513	4244.25
772.849	4200.41
773.184	4232.28
773.519	4248.09
773.855	4176.68
774.19	4198.38
774.525	4206.06
774.86	4181.66
775.195	4196.34
775.53	4191.82
775.865	4158.38
776.2	4158.83
776.535	4146.18
776.87	4173.75
777.205	4137.14
777.539	4127.19
777.874	4126.97
778.209	4086.29
778.543	4080.19
778.878	4069.12
779.212	4103.01
779.547	4048.78
779.881	4082.9
780.215	4048.78
780.55	4028.44
780.884	4026.18
781.218	4002.68
781.552	4002.9
781.886	3956.8
782.22	3984.82
782.554	3962.45
782.888	3914.54
783.222	3950.7
783.556	3961.32
783.889	3936.01
784.223	3914.77
784.557	3931.94
784.89	3931.94
785.224	3914.09
785.557	3869.8
785.891	3824.83
786.224	3886.3
786.558	3838.84
786.891	3826.86
787.224	3856.69
787.557	3818.95
787.891	3810.82
788.224	3802.91
788.557	3825.73
788.89	3787.54
789.223	3799.74
789.556	3729.69
789.888	3737.83
790.221	3761.33
790.554	3688.56
790.887	3717.04
791.219	3699.86
791.552	3695.79
791.884	3669.8
792.217	3705.51
792.549	3661.44
792.882	3667.77
793.214	3625.96
793.546	3626.64
793.879	3625.74
794.211	3653.31
794.543	3596.81
794.875	3617.38
795.207	3635.68
795.539	3590.71
795.871	3631.84
796.203	3550.26
796.535	3573.99
796.867	3560.65
797.198	3542.35
797.53	3536.93
797.862	3516.14
798.193	3530.15
798.525	3485.4
798.856	3495.35
799.188	3486.08
799.519	3478.85
799.85	3422.13
800.182	3459.41
800.513	3470.04
800.844	3448.34
801.175	3436.59
801.506	3461.67
801.837	3428.46
802.168	3385.74
802.499	3381
802.83	3389.81
803.161	3440.66
803.491	3376.48
803.822	3348.01
804.153	3353.2
804.483	3350.49
804.814	3307.33
805.145	3306.65
805.475	3318.18
805.805	3258.52
806.136	3296.93
806.466	3336.93
806.796	3340.55
807.126	3298.29
807.457	3288.35
807.787	3256.93
808.117	3244.96
808.447	3275.01
808.777	3278.63
809.107	3253.54
809.436	3237.95
809.766	3214.9
810.096	3203.15
810.426	3207.67
810.755	3211.51
811.085	3226.65
811.414	3189.59
811.744	3191.4
812.073	3166.32
812.403	3153.21
812.732	3149.82
813.061	3139.2
813.39	3112.76
813.719	3137.16
814.049	3150.27
814.378	3139.2
814.707	3122.7
815.036	3157.73
815.365	3125.19
815.693	3096.94
816.022	3037.96
816.351	3067.79
816.68	3034.79
817.008	3049.26
817.337	3048.13
817.665	3038.86
817.994	3076.6
818.322	3051.52
818.651	3038.41
818.979	3014.68
819.307	3025.98
819.636	3030.05
819.964	3020.78
820.292	2993.66
820.62	2990.27
820.948	2984.62
821.276	2993.89
821.604	3016.04
821.932	3016.71
822.259	3007.9
822.587	3013.1
822.915	2982.37
823.243	3003.16
823.57	3009.03
823.898	2998.41
824.225	2959.77
824.553	3026.43
824.88	2981.91
825.207	3026.43
825.535	3013.78
825.862	3007.22
826.189	3004.96
826.516	3006.09
826.843	3019.2
827.17	2995.25
827.497	2989.82
827.824	3004.51
828.151	2990.05
828.478	3022.82
828.805	3022.14
829.131	2998.18
829.458	2958.41
829.785	2965.42
830.111	3005.42
830.438	3003.83
830.764	2983.27
831.09	3006.09
831.417	2987.79
831.743	2988.47
832.069	2973.1
832.395	2957.28
832.722	3038.86
833.048	2959.31
833.374	2996.15
833.7	2994.57
834.026	2994.34
834.351	2987.11
834.677	2963.38
835.003	2971.74
835.329	2995.7
835.654	2973.78
835.98	2947.56
836.306	2959.31
836.631	2945.98
836.956	2959.54
837.282	2953.89
837.607	2938.3
837.932	2960.44
838.258	2933.33
838.583	2927.45
838.908	2899.88
839.233	2954.8
839.558	2933.33
839.883	2899.88
840.208	2907.11
840.533	2897.4
840.858	2924.51
841.182	2896.72
841.507	2937.62
841.832	2872.54
842.156	2886.1
842.481	2902.37
842.805	2857.17
843.13	2875.93
843.454	2834.8
843.778	2868.7
844.103	2830.73
844.427	2859.88
844.751	2831.86
845.075	2836.83
845.399	2802.26
845.723	2816.95
846.047	2804.29
846.371	2771.52
846.695	2802.48
847.019	2766.33
847.343	2744.41
847.666	2751.64
847.99	2739.43
848.313	2717.97
848.637	2730.62
848.96	2737.4
849.284	2704.63
849.607	2702.15
849.931	2689.04
850.254	2700.11
850.577	2672.09
850.9	2667.12
851.223	2631.19
851.546	2648.59
851.869	2592.09
852.192	2606.56
852.515	2602.49
852.838	2598.65
853.161	2595.48
853.483	2588.25
853.806	2616.27
854.129	2597.74
854.451	2553.45
854.774	2576.73
855.096	2564.07
855.419	2514.35
855.741	2572.66
856.063	2496.28
856.385	2542.38
856.708	2536.28
857.03	2519.55
857.352	2508.71
857.674	2510.29
857.996	2503.96
858.318	2495.37
858.64	2507.35
858.961	2491.98
859.283	2441.14
859.605	2427.35
859.926	2463.73
860.248	2457.41
860.57	2473.68
860.891	2463.06
861.212	2438.65
861.534	2458.09
861.855	2433
862.176	2437.07
862.498	2437.97
862.819	2438.65
863.14	2456.73
863.461	2420.57
863.782	2417.63
864.103	2417.63
864.424	2413.11
864.745	2388.71
865.065	2409.05
865.386	2362.95
865.707	2402.27
866.027	2408.59
866.348	2385.77
866.668	2386.67
866.989	2389.16
867.309	2369.95
867.63	2371.99
867.95	2337.18
868.27	2358.88
868.59	2363.85
868.91	2394.58
869.23	2368.37
869.55	2329.5
869.87	2367.92
870.19	2344.42
870.51	2339.44
870.83	2366.56
871.15	2289.28
871.469	2317.3
871.789	2343.29
872.109	2327.02
872.428	2297.64
872.748	2330.18
873.067	2319.78
873.386	2287.02
873.706	2318.65
874.025	2289.05
874.344	2293.12
874.663	2315.94
874.982	2284.53
875.301	2302.38
875.62	2261.03
875.939	2309.39
876.258	2273.68
876.577	2285.43
876.896	2265.55
877.214	2269.16
877.533	2284.53
877.852	2285.43
878.17	2303.96
878.489	2246.57
878.807	2246.34
879.125	2272.55
879.444	2207.02
879.762	2263.29
880.08	2209.96
880.398	2267.58
880.716	2229.16
881.034	2224.42
881.352	2231.42
881.67	2204.53
881.988	2228.03
882.306	2189.84
882.624	2190.75
882.941	2227.13
883.259	2188.49
883.577	2171.54
883.894	2181.93
884.212	2217.64
884.529	2186.91
884.846	2154.82
885.164	2165.66
885.481	2210.86
885.798	2149.62
886.115	2177.64
886.432	2188.94
886.75	2146.45
887.067	2183.52
887.383	2121.37
887.7	2146.91
888.017	2159.34
888.334	2159.79
888.651	2129.73
888.967	2141.26
889.284	2129.05
889.6	2108.94
889.917	2128.15
890.233	2120.01
890.55	2103.52
890.866	2110.07
891.182	2117.53
891.498	2069.85
891.815	2083.86
892.131	2085.67
892.447	2063.07
892.763	2111.65
893.079	2076.4
893.395	2075.5
893.71	2028.72
894.026	2050.41
894.342	2059.68
894.657	2040.47
894.973	2035.72
895.289	2008.83
895.604	2038.21
895.92	2043.18
896.235	2024.2
896.55	2009.28
896.865	2008.38
897.181	1984.43
897.496	2013.35
897.811	1992.11
898.126	1965.67
898.441	1967.48
898.756	1970.87
899.071	1956.63
899.386	1957.31
899.7	1946.69
900.015	1950.75
900.33	1904.2
900.644	1938.1
900.959	1951.21
901.273	1925.67
901.588	1916.18
901.902	1905.56
902.216	1897.42
902.531	1881.83
902.845	1898.78
903.159	1897.65
903.473	1875.5
903.787	1867.37
904.101	1856.07
904.415	1880.02
904.729	1870.53
905.042	1872.56
905.356	1859.46
905.67	1868.27
905.984	1840.7
906.297	1835.05
906.611	1821.49
906.924	1832.11
907.237	1823.75
907.551	1807.25
907.864	1804.99
908.177	1796.18
908.491	1787.14
908.804	1796.41
909.117	1764.09
909.43	1772.45
909.743	1734.04
910.056	1769.06
910.368	1761.15
910.681	1743.75
910.994	1779.23
911.307	1730.42
911.619	1697.88
911.932	1734.71
912.244	1730.19
912.557	1742.17
912.869	1716.64
913.181	1682.06
913.494	1687.71
913.806	1718.67
914.118	1708.73
914.43	1679.12
914.742	1694.26
915.054	1687.03
915.366	1653.36
915.678	1688.84
915.99	1646.36
916.302	1640.25
916.613	1640.03
916.925	1649.52
917.236	1641.38
917.548	1625.34
917.859	1653.81
918.171	1612.01
918.482	1588.28
918.794	1605.9
919.105	1621.72
919.416	1597.99
919.727	1573.14
920.038	1586.47
920.349	1579.69
920.66	1569.29
920.971	1593.48
921.282	1574.49
921.593	1578.11
921.903	1526.58
922.214	1550.09
922.525	1550.99
922.835	1516.19
923.146	1528.39
923.456	1527.04
923.767	1532.01
924.077	1537.21
924.387	1518.67
924.697	1535.4
925.008	1523.87
925.318	1520.71
925.628	1527.04
925.938	1524.55
926.248	1479.81
926.558	1468.51
926.867	1477.77
927.177	1478.45
927.487	1469.41
927.796	1451.33
928.106	1454.04
928.416	1433.71
928.725	1447.94
929.034	1448.85
929.344	1452.91
929.653	1437.09
929.962	1453.37
930.271	1418.11
930.581	1394.61
930.89	1407.04
931.199	1415.17
931.508	1390.32
931.817	1399.81
932.125	1387.6
932.434	1399.81
932.743	1383.99
933.051	1363.65
933.36	1409.75
933.669	1349.64
933.977	1353.48
934.286	1357.55
934.594	1355.97
934.902	1357.1
935.21	1350.77
935.519	1351.9
935.827	1353.26
936.135	1346.93
936.443	1350.32
936.751	1335.85
937.059	1336.31
937.367	1325.46
937.674	1321.17
937.982	1325.23
938.29	1314.39
938.597	1311
938.905	1277.55
939.213	1291.11
939.52	1276.2
939.827	1271.68
940.135	1285.69
940.442	1284.78
940.749	1275.07
941.056	1285.91
941.363	1263.99
941.67	1269.87
941.977	1279.36
942.284	1235.07
942.591	1263.77
942.898	1246.14
943.205	1238.91
943.511	1230.32
943.818	1232.58
944.125	1202.98
944.431	1205.91
944.738	1220.83
945.044	1233.48
945.35	1210.89
945.657	1197.33
945.963	1202.3
946.269	1212.92
946.575	1221.96
946.881	1192.58
947.187	1199.36
947.493	1169.76
947.799	1183.77
948.105	1185.35
948.41	1173.83
948.716	1175.18
949.022	1162.75
949.327	1160.72
949.633	1133.6
949.938	1150.32
950.244	1150.55
950.549	1155.07
950.854	1130.44
951.16	1146.03
951.465	1169.53
951.77	1131.34
952.075	1126.59
952.38	1114.39
952.685	1111.68
952.99	1096.09
953.294	1089.31
953.599	1082.98
953.904	1100.83
954.209	1101.06
954.513	1087.5
954.818	1113.49
955.122	1092.7
955.426	1089.08
955.731	1098.12
956.035	1085.47
956.339	1062.42
956.643	1073.49
956.948	1060.83
957.252	1079.82
957.556	1058.35
957.86	1057.44
958.163	1054.73
958.467	1041.63
958.771	1020.83
959.075	1020.83
959.378	1050.44
959.682	1038.24
959.985	1028.74
960.289	1023.32
960.592	1026.94
960.896	1000.95
961.199	1028.97
961.502	1009.99
961.805	999.82
962.108	1016.54
962.411	1011.8
962.714	992.36
963.017	990.1
963.32	1012.47
963.623	1021.06
963.926	1001.17
964.228	1003.89
964.531	1006.6
964.833	991.23
965.136	978.35
965.438	949.42
965.741	972.02
966.043	957.33
966.345	966.82
966.648	959.14
966.95	981.06
967.252	945.36
967.554	936.09
967.856	956.43
968.158	944.23
968.46	958.24
968.761	969.54
969.063	969.31
969.365	956.43
969.666	936.09
969.968	929.31
970.269	942.87
970.571	951.91
970.872	930.44
971.174	939.48
971.475	918.24
971.776	913.04
972.077	887.73
972.378	904.91
972.679	887.73
972.98	917.11
973.281	895.87
973.582	908.07
973.883	899.48
974.183	892.02
974.484	898.13
974.785	869.65
975.085	864
975.386	880.73
975.686	888.18
975.986	890.22
976.287	873.49
976.587	871.91
976.887	838.69
977.187	886.15
977.487	865.58
977.787	857
978.087	840.27
978.387	878.69
978.687	837.56
978.987	861.06
979.286	855.87
979.586	853.61
979.885	838.24
980.185	849.99
980.484	815.64
980.784	822.2
981.083	837.34
981.382	827.39
981.682	834.17
981.981	817.22
982.28	825.59
982.579	807.51
982.878	833.27
983.177	826.94
983.475	826.04
983.774	815.19
984.073	784.91
984.372	805.02
984.67	783.78
984.969	804.8
985.267	808.41
985.566	795.76
985.864	804.57
986.162	805.93
986.461	786.04
986.759	812.93
987.057	789.43
987.355	796.89
987.653	789.88
987.951	785.81
988.249	765.25
988.547	790.11
988.844	751.46
989.142	767.28
989.44	742.2
989.737	783.1
990.035	762.31
990.332	777.23
990.63	749.2
990.927	743.55
991.224	743.55
991.521	758.69
991.819	754.85
992.116	753.05
992.413	733.16
992.71	744.91
993.006	734.97
993.303	727.74
993.6	744.01
993.897	708.07
994.193	722.99
994.49	720.73
994.787	706.27
995.083	708.75
995.379	712.59
995.676	721.41
995.972	711.24
996.268	703.1
996.565	711.24
996.861	714.63
997.157	716.66
997.453	696.1
997.749	696.55
998.044	707.62
998.34	707.17
998.636	689.09
998.932	694.74
999.227	671.01
999.523	688.64
999.818	683.22
1000.114	683.67
1000.409	671.24
1000.704	706.94
1001	678.92
1001.295	668.3
1001.59	681.63
1001.885	666.95
1002.18	665.82
1002.475	665.36
1002.77	670.11
1003.065	656.78
1003.359	654.97
1003.654	647.51
1003.949	671.24
1004.243	642.09
1004.538	651.58
1004.832	626.95
1005.127	645.48
1005.421	648.64
1005.715	645.7
1006.009	649.77
1006.304	638.7
1006.598	648.87
1006.892	647.29
1007.186	630.56
1007.48	618.81
1007.773	626.95
1008.067	603.22
1008.361	636.89
1008.655	617.91
1008.948	607.29
1009.242	622.2
1009.535	588.76
1009.829	604.57
1010.122	597.34
1010.415	645.25
1010.708	576.33
1011.001	607.74
1011.295	594.18
1011.588	605.25
1011.881	598.92
1012.173	588.08
1012.466	596.21
1012.759	609.09
1013.052	602.77
1013.344	577.68
1013.637	586.95
1013.93	581.3
1014.222	560.73
1014.514	562.32
1014.807	587.85
1015.099	581.98
1015.391	572.48
1015.683	571.36
1015.976	576.33
1016.268	572.94
1016.56	600.05
1016.851	577
1017.143	570.45
1017.435	561.19
1017.727	547.63
1018.018	583.78
1018.31	567.29
1018.602	539.72
1018.893	540.85
1019.185	567.29
1019.476	537.01
1019.767	558.47
1020.058	531.81
1020.35	529.32
1020.641	559.6
1020.932	546.5
1021.223	546.04
1021.514	542.66
1021.804	536.55
1022.095	520.73
1022.386	557.8
1022.677	510.11
1022.967	520.73
1023.258	507.18
1023.548	521.19
1023.839	510.57
1024.129	530
1024.419	502.2
1024.709	517.57
1025	522.54
1025.29	490.23
1025.58	512.37
1025.87	502.88
1026.16	468.53
1026.449	510.79
1026.739	506.95
1027.029	517.57
1027.319	506.27
1027.608	498.81
1027.898	497.68
1028.187	498.81
1028.477	491.13
1028.766	517.57
1029.055	491.81
1029.344	481.19
1029.634	488.42
1029.923	478.7
1030.212	495.88
1030.501	478.25
1030.79	473.5
1031.078	490.45
1031.367	486.39
1031.656	491.36
1031.945	482.77
1032.233	499.49
1032.522	473.96
1032.81	467.4
1033.099	477.57
1033.387	471.47
1033.675	451.81
1033.963	475.31
1034.251	475.76
1034.54	448.87
1034.828	449.55
1035.116	478.02
1035.403	447.97
1035.691	480.74
1035.979	462.43
1036.267	464.92
1036.554	464.24
1036.842	463.34
1037.129	440.29
1037.417	444.13
1037.704	446.84
1037.992	449.78
1038.279	448.65
1038.566	468.53
1038.853	468.53
1039.14	468.53
