Data from blue_chair_FLMS001491_00056.txt Node
Date: Wed Feb 08 10:31:18 GMT 2017
User: dcchb
Spectrometer: FLMS00149
Trigger mode: 0
Integration Time (sec): 2.000000E-2
Scans to average: 10
Electric dark correction enabled: true
Nonlinearity correction enabled: false
Boxcar width: 0
XAxis mode: Wavelengths
Number of Pixels in Spectrum: 2048
>>>>>Begin Spectral Data<<<<<
341.393	-33.98
341.776	-33.98
342.16	-33.98
342.543	-64.04
342.927	-74.21
343.31	-70.82
343.693	-56.81
344.077	-71.04
344.46	-36.47
344.843	-63.36
345.226	-47.54
345.61	-28.11
345.993	-26.3
346.376	2.85
346.759	13.47
347.142	18.9
347.525	37.88
347.908	67.94
348.291	63.64
348.674	99.12
349.057	96.64
349.44	131.89
349.823	128.95
350.206	156.3
350.588	154.26
350.971	180.48
351.354	196.07
351.737	208.05
352.119	225.9
352.502	220.47
352.884	250.3
353.267	242.85
353.65	265.22
354.032	277.2
354.414	276.97
354.797	264.99
355.179	282.85
355.562	284.65
355.944	284.88
356.326	299.34
356.709	300.02
357.091	305.67
357.473	317.42
357.855	329.4
358.238	305.9
358.62	306.35
359.002	314.26
359.384	313.58
359.766	306.35
360.148	310.42
360.53	321.94
360.912	315.39
361.294	312.9
361.676	291.21
362.057	300.02
362.439	298.44
362.821	312.9
363.203	299.79
363.584	277.2
363.966	286.91
364.348	308.61
364.729	287.14
365.111	293.69
365.493	272.9
365.874	298.21
366.256	292.34
366.637	280.36
367.019	288.04
367.4	286.24
367.781	303.18
368.163	283.3
368.544	291.21
368.925	296.63
369.306	276.07
369.688	280.36
370.069	272.9
370.45	272.45
370.831	273.81
371.212	257.54
371.593	277.2
371.974	264.77
372.355	292.11
372.736	274.48
373.117	275.16
373.498	278.33
373.879	271.09
374.26	273.58
374.641	275.16
375.021	277.2
375.402	287.59
375.783	294.37
376.163	281.72
376.544	272.22
376.925	292.34
377.305	273.58
377.686	286.46
378.066	300.02
378.447	286.69
378.827	296.86
379.208	268.61
379.588	301.83
379.968	298.89
380.349	297.76
380.729	291.21
381.109	290.98
381.489	289.63
381.87	297.08
382.25	277.2
382.63	293.01
383.01	300.47
383.39	294.82
383.77	302.28
384.15	283.07
384.53	301.38
384.91	305.44
385.29	315.61
385.67	290.08
386.049	311.09
386.429	300.02
386.809	286.46
387.189	300.02
387.568	297.08
387.948	303.86
388.328	308.38
388.707	298.89
389.087	321.04
389.466	291.66
389.846	290.53
390.225	305.9
390.605	318.32
390.984	310.19
391.363	315.16
391.743	306.35
392.122	321.04
392.501	327.36
392.881	324.2
393.26	312.68
393.639	311.77
394.018	293.69
394.397	322.39
394.776	336.86
395.155	333.47
395.534	326.91
395.913	310.64
396.292	308.83
396.671	323.3
397.05	312.22
397.429	324.43
397.808	324.88
398.186	333.69
398.565	340.92
398.944	323.52
399.323	329.62
399.701	310.64
400.08	321.49
400.458	342.05
400.837	349.74
401.215	344.09
401.594	335.05
401.972	356.74
402.351	344.99
402.729	343.64
403.107	342.73
403.486	370.08
403.864	350.19
404.242	339.79
404.62	343.18
404.999	348.83
405.377	344.54
405.755	352.67
406.133	343.64
406.511	342.73
406.889	372.56
407.267	361.04
407.645	342.96
408.023	375.05
408.401	397.42
408.779	382.96
409.156	390.19
409.534	370.98
409.912	385.67
410.29	373.92
410.667	380.47
411.045	397.64
411.422	375.5
411.8	406.01
412.178	424.08
412.555	406.01
412.933	382.5
413.31	398.55
413.687	388.38
414.065	400.36
414.442	412.33
414.819	431.09
415.197	403.97
415.574	410.07
415.951	448.94
416.328	410.07
416.705	411.43
417.082	417.31
417.46	420.92
417.837	432.67
418.214	414.37
418.591	431.54
418.967	428.83
419.344	425.89
419.721	443.97
420.098	426.34
420.475	422.73
420.852	423.63
421.228	447.81
421.605	433.12
421.982	451.88
422.358	461.15
422.735	455.72
423.111	452.11
423.488	446.91
423.864	477.19
424.241	458.43
424.617	467.47
424.994	466.34
425.37	466.8
425.746	486.23
426.123	480.81
426.499	478.77
426.875	495.95
427.251	486.91
427.627	496.85
428.003	519.9
428.379	525.33
428.756	506.57
429.132	529.62
429.507	512.22
429.883	516.06
430.259	523.52
430.635	542.95
431.011	539.56
431.387	529.39
431.763	548.38
432.138	575.49
432.514	511.54
432.89	547.47
433.265	572.1
433.641	576.4
434.016	575.49
434.392	562.61
434.767	593.12
435.143	585.89
435.518	615.72
435.894	600.13
436.269	606.45
436.644	591.54
437.02	619.33
437.395	636.06
437.77	671.08
438.145	655.27
438.52	655.04
438.895	662.04
439.271	671.54
439.646	686
440.021	685.09
440.395	709.73
440.77	693.91
441.145	698.65
441.52	723.74
441.895	712.89
442.27	733
442.645	729.84
443.019	762.38
443.394	709.5
443.769	735.04
444.143	755.38
444.518	759.44
444.892	779.33
445.267	769.39
445.641	786.11
446.016	783.17
446.39	775.26
446.764	778.2
447.139	775.94
447.513	812.1
447.887	828.14
448.262	788.6
448.636	806.9
449.01	836.73
449.384	827.46
449.758	820.23
450.132	822.04
450.506	847.8
450.88	857.07
451.254	861.14
451.628	839.67
452.002	853.45
452.376	876.5
452.75	881.93
453.123	860.91
453.497	865.43
453.871	884.41
454.244	902.26
454.618	916.95
454.992	934.35
455.365	895.71
455.739	956.95
456.112	955.14
456.486	965.77
456.859	942.49
457.232	955.37
457.606	977.97
457.979	988.14
458.352	966.9
458.725	988.36
459.099	1009.38
459.472	1019.32
459.845	1012.77
460.218	1034.01
460.591	1018.65
460.964	999.44
461.337	1048.7
461.71	1068.59
462.083	1068.14
462.456	1067.23
462.829	1085.99
463.201	1066.33
463.574	1077.63
463.947	1093.9
464.32	1103.62
464.692	1119.43
465.065	1127.57
465.438	1149.49
465.81	1148.81
466.183	1140.68
466.555	1158.98
466.928	1176.83
467.3	1171.86
467.672	1171.86
468.045	1201.24
468.417	1216.38
468.789	1219.54
469.161	1217.28
469.534	1228.13
469.906	1250.28
470.278	1241.01
470.65	1272.2
471.022	1274.68
471.394	1304.74
471.766	1292.08
472.138	1312.2
472.51	1295.47
472.882	1365.08
473.253	1323.95
473.625	1316.26
473.997	1337.73
474.369	1401.46
474.74	1381.57
475.112	1385.64
475.484	1416.83
475.855	1435.58
476.227	1443.04
476.598	1484.85
476.97	1467.67
477.341	1488.92
477.713	1498.18
478.084	1496.83
478.455	1525.98
478.827	1518.29
479.198	1534.34
479.569	1552.87
479.94	1586.77
480.311	1587.22
480.682	1614.11
481.053	1620.89
481.424	1669.02
481.795	1636.03
482.166	1668.35
482.537	1676.03
482.908	1706.76
483.279	1661.79
483.65	1708.8
484.021	1741.56
484.391	1787.89
484.762	1754.67
485.133	1786.53
485.503	1750.15
485.874	1806.2
486.244	1792.64
486.615	1826.31
486.985	1812.52
487.356	1854.33
487.726	1844.16
488.097	1851.39
488.467	1883.26
488.837	1920.09
489.207	1916.48
489.578	1908.57
489.948	1920.99
490.318	1917.15
490.688	1921.9
491.058	1934.55
491.428	1935.91
491.798	1941.79
492.168	1958.73
492.538	1953.31
492.908	1967.1
493.278	1964.38
493.648	1978.85
494.017	2005.29
494.387	1984.27
494.757	2000.54
495.126	2009.35
495.496	2002.35
495.866	1961.22
496.235	1999.86
496.605	1983.59
496.974	2022.01
497.344	1971.39
497.713	2000.31
498.082	1990.82
498.452	2018.17
498.821	2005.51
499.19	2000.77
499.559	2003.25
499.928	2019.75
500.298	2007.77
500.667	1998.28
501.036	1994.89
501.405	1997.83
501.774	1987.89
502.143	2043.03
502.512	1977.72
502.88	1995.34
503.249	1985.4
503.618	1979.52
503.987	1985.85
504.356	1992.63
504.724	1970.26
505.093	1973.42
505.462	1953.76
505.83	1996.7
506.199	1971.84
506.567	1963.48
506.936	1980.65
507.304	1975
507.672	1960.09
508.041	1945.4
508.409	1966.19
508.777	1980.43
509.145	1948.79
509.514	1945.17
509.882	1928.9
510.25	1950.37
510.618	1939.53
510.986	1946.3
511.354	1925.51
511.722	1948.79
512.09	1927.55
512.458	1954.21
512.826	1952.63
513.193	1967.55
513.561	1917.15
513.929	1920.99
514.297	1949.02
514.664	1906.08
515.032	1908.79
515.4	1913.99
515.767	1864.95
516.135	1904.5
516.502	1877.15
516.869	1900.88
517.237	1888
517.604	1845.06
517.972	1864.72
518.339	1842.8
518.706	1860.88
519.073	1841.9
519.44	1861.56
519.808	1818.4
520.175	1814.78
520.542	1827.89
520.909	1874.44
521.276	1819.3
521.643	1823.14
522.009	1841.22
522.376	1840.32
522.743	1810.26
523.11	1844.84
523.477	1798.96
523.843	1805.97
524.21	1816.59
524.577	1794.44
524.943	1792.64
525.31	1757.84
525.676	1782.47
526.043	1779.3
526.409	1802.81
526.776	1793.77
527.142	1771.39
527.508	1765.52
527.874	1762.13
528.241	1774.78
528.607	1763.26
528.973	1778.85
529.339	1744.5
529.705	1753.32
530.071	1761
530.437	1718.97
530.803	1761.45
531.169	1764.39
531.535	1734.78
531.901	1714.9
532.267	1738.4
532.632	1722.81
532.998	1732.98
533.364	1702.02
533.73	1726.2
534.095	1690.49
534.461	1717.61
534.826	1702.92
535.192	1707.67
535.557	1697.27
535.923	1697.5
536.288	1650.72
536.653	1684.39
537.019	1648.69
537.384	1678.06
537.749	1669.02
538.114	1660.66
538.479	1656.59
538.845	1653.66
539.21	1623.15
539.575	1646.43
539.94	1622.92
540.305	1627.67
540.67	1604.17
541.034	1643.26
541.399	1585.18
541.764	1632.64
542.129	1624.28
542.494	1590.16
542.858	1567.11
543.223	1571.4
543.587	1561.91
543.952	1559.2
544.316	1565.07
544.681	1557.61
545.045	1561.91
545.41	1534.11
545.774	1521.23
546.138	1545.86
546.503	1544.96
546.867	1528.46
547.231	1543.83
547.595	1527.78
547.959	1520.78
548.324	1532.08
548.688	1537.73
549.052	1513.1
549.416	1472.87
549.779	1517.62
550.143	1499.54
550.507	1492.76
550.871	1481.46
551.235	1481.46
551.599	1456.37
551.962	1502.93
552.326	1459.76
552.689	1497.95
553.053	1467
553.417	1476.71
553.78	1434.68
554.143	1474.45
554.507	1451.63
554.87	1451.18
555.234	1453.21
555.597	1413.21
555.96	1438.52
556.323	1462.48
556.686	1442.59
557.05	1421.35
557.413	1446.2
557.776	1454.11
558.139	1435.81
558.502	1410.95
558.865	1417.73
559.228	1423.15
559.59	1392.2
559.953	1400.33
560.316	1407.79
560.679	1422.25
561.041	1413.44
561.404	1420.67
561.767	1400.56
562.129	1410.73
562.492	1434.23
562.854	1421.57
563.217	1390.16
563.579	1432.19
563.941	1418.64
564.304	1429.26
564.666	1401.91
565.028	1437.17
565.39	1419.99
565.753	1422.02
566.115	1428.13
566.477	1433.1
566.839	1431.52
567.201	1428.58
567.563	1401.23
567.925	1417.05
568.287	1471.51
568.648	1412.99
569.01	1415.02
569.372	1408.47
569.734	1437.17
570.095	1436.71
570.457	1449.82
570.819	1445.53
571.18	1446.43
571.542	1429.26
571.903	1451.85
572.265	1457.28
572.626	1456.6
572.987	1463.38
573.349	1459.99
573.71	1464.06
574.071	1430.39
574.432	1451.63
574.794	1484.62
575.155	1484.17
575.516	1488.01
575.877	1467.9
576.238	1437.17
576.599	1494.11
576.96	1460.44
577.32	1488.01
577.681	1491.18
578.042	1507.67
578.403	1479.88
578.763	1493.44
579.124	1490.72
579.485	1488.46
579.845	1507.22
580.206	1491.85
580.566	1509.71
580.927	1506.54
581.287	1499.99
581.648	1499.76
582.008	1494.11
582.368	1503.83
582.728	1489.37
583.089	1512.64
583.449	1534.11
583.809	1532.98
584.169	1521.68
584.529	1531.85
584.889	1518.29
585.249	1493.89
585.609	1502.47
585.969	1529.14
586.329	1504.51
586.688	1512.64
587.048	1471.29
587.408	1516.71
587.768	1513.32
588.127	1486.66
588.487	1497.73
588.846	1501.12
589.206	1531.17
589.565	1509.48
589.925	1510.61
590.284	1505.19
590.643	1495.92
591.003	1527.11
591.362	1533.89
591.721	1509.25
592.08	1509.03
592.44	1482.36
592.799	1535.92
593.158	1505.19
593.517	1491.85
593.876	1507.22
594.235	1515.58
594.593	1505.19
594.952	1521.68
595.311	1486.43
595.67	1522.81
596.029	1517.16
596.387	1533.89
596.746	1528.91
597.104	1516.94
597.463	1482.81
597.822	1518.52
598.18	1504.73
598.538	1528.91
598.897	1557.61
599.255	1511.06
599.613	1496.15
599.972	1530.72
600.33	1522.14
600.688	1523.49
601.046	1518.29
601.404	1517.16
601.762	1514.68
602.12	1511.74
602.478	1490.27
602.836	1486.88
603.194	1500.21
603.552	1519.88
603.91	1498.18
604.268	1469.26
604.625	1524.62
604.983	1522.36
605.341	1475.13
605.698	1525.75
606.056	1501.8
606.413	1529.82
606.771	1531.4
607.128	1513.1
607.485	1483.94
607.843	1533.21
608.2	1523.72
608.557	1526.43
608.914	1499.76
609.272	1526.65
609.629	1550.83
609.986	1538.63
610.343	1527.33
610.7	1535.02
611.057	1539.54
611.414	1523.72
611.771	1519.42
612.127	1506.54
612.484	1532.3
612.841	1531.4
613.198	1516.71
613.554	1530.04
613.911	1558.97
614.267	1531.63
614.624	1535.02
614.98	1542.47
615.337	1529.14
615.693	1546.54
616.05	1547.67
616.406	1527.11
616.762	1558.29
617.118	1531.85
617.475	1542.93
617.831	1532.98
618.187	1537.28
618.543	1540.21
618.899	1543.38
619.255	1549.25
619.611	1538.63
619.967	1552.42
620.323	1556.03
620.678	1533.66
621.034	1520.1
621.39	1542.93
621.746	1550.16
622.101	1574.11
622.457	1562.81
622.812	1560.78
623.168	1543.15
623.523	1542.25
623.879	1569.82
624.234	1553.55
624.589	1567.33
624.945	1546.09
625.3	1553.77
625.655	1550.16
626.01	1555.58
626.365	1590.83
626.72	1584.96
627.075	1551.74
627.43	1558.97
627.785	1573.21
628.14	1569.14
628.495	1544.28
628.85	1565.3
629.205	1538.86
629.559	1582.92
629.914	1584.28
630.269	1535.69
630.623	1576.14
630.978	1569.37
631.332	1579.31
631.687	1563.72
632.041	1571.4
632.396	1557.16
632.75	1577.05
633.104	1591.96
633.459	1576.82
633.813	1565.52
634.167	1555.58
634.521	1538.41
634.875	1548.58
635.229	1549.03
635.583	1556.48
635.937	1573.43
636.291	1530.5
636.645	1547.22
636.999	1547.45
637.352	1550.83
637.706	1526.65
638.06	1556.48
638.413	1571.4
638.767	1555.58
639.121	1521.01
639.474	1544.96
639.828	1547.22
640.181	1550.16
640.534	1541.8
640.888	1549.93
641.241	1559.42
641.594	1533.66
641.947	1576.14
642.301	1598.07
642.654	1588.35
643.007	1564.85
643.36	1542.02
643.713	1548.35
644.066	1564.17
644.419	1589.25
644.771	1532.76
645.124	1549.71
645.477	1532.76
645.83	1499.99
646.182	1488.92
646.535	1523.49
646.888	1545.41
647.24	1532.3
647.593	1523.72
647.945	1533.21
648.298	1534.34
648.65	1514.45
649.002	1518.75
649.355	1509.93
649.707	1512.19
650.059	1505.64
650.411	1560.1
650.763	1556.03
651.115	1548.8
651.467	1549.93
651.819	1565.3
652.171	1585.64
652.523	1589.25
652.875	1553.77
653.227	1556.94
653.578	1568.46
653.93	1555.81
654.282	1557.61
654.633	1542.7
654.985	1565.98
655.337	1548.58
655.688	1570.04
656.039	1589.7
656.391	1579.76
656.742	1556.03
657.094	1583.6
657.445	1569.59
657.796	1572.76
658.147	1579.08
658.498	1539.31
658.849	1596.94
659.2	1591.06
659.551	1596.03
659.902	1568.46
660.253	1603.49
660.604	1578.86
660.955	1563.49
661.306	1574.56
661.656	1583.83
662.007	1587.44
662.358	1551.51
662.708	1600.1
663.059	1617.95
663.409	1576.6
663.76	1582.02
664.11	1598.52
664.461	1580.89
664.811	1586.54
665.161	1580.66
665.511	1569.59
665.862	1551.06
666.212	1580.44
666.562	1595.13
666.912	1524.62
667.262	1561.68
667.612	1589.93
667.962	1591.51
668.312	1579.08
668.662	1583.15
669.011	1576.37
669.361	1584.05
669.711	1542.93
670.06	1548.8
670.41	1560.55
670.76	1578.86
671.109	1566.65
671.459	1579.53
671.808	1578.18
672.157	1572.53
672.507	1564.17
672.856	1525.52
673.205	1542.93
673.554	1561.68
673.904	1558.52
674.253	1566.65
674.602	1556.71
674.951	1539.08
675.3	1542.7
675.649	1551.06
675.998	1562.59
676.346	1515.36
676.695	1533.66
677.044	1530.27
677.393	1527.11
677.741	1545.64
678.09	1556.03
678.438	1492.08
678.787	1511.51
679.135	1565.07
679.484	1549.03
679.832	1547.9
680.181	1486.88
680.529	1533.21
680.877	1538.18
681.225	1513.32
681.573	1543.38
681.922	1530.95
682.27	1512.19
682.618	1518.52
682.966	1489.14
683.314	1481.23
683.661	1506.32
684.009	1492.08
684.357	1476.26
684.705	1516.49
685.053	1474.68
685.4	1491.18
685.748	1481.01
686.095	1493.44
686.443	1476.71
686.79	1498.63
687.138	1486.88
687.485	1466.32
687.832	1464.28
688.18	1473.32
688.527	1465.41
688.874	1493.44
689.221	1455.47
689.568	1451.18
689.915	1425.64
690.262	1443.04
690.609	1465.87
690.956	1446.43
691.303	1418.18
691.65	1412.99
691.997	1419.99
692.344	1432.42
692.69	1414.34
693.037	1454.34
693.383	1455.92
693.73	1431.97
694.077	1438.07
694.423	1428.13
694.769	1374.57
695.116	1405.53
695.462	1381.57
695.808	1375.7
696.155	1391.97
696.501	1401.23
696.847	1396.26
697.193	1401.23
697.539	1400.1
697.885	1386.77
698.231	1375.92
698.577	1373.89
698.923	1387.45
699.269	1372.08
699.614	1357.39
699.96	1357.39
700.306	1377.05
700.651	1396.94
700.997	1367.56
701.342	1382.03
701.688	1382.93
702.033	1365.53
702.379	1351.29
702.724	1370.73
703.069	1373.44
703.415	1322.14
703.76	1356.72
704.105	1364.63
704.45	1333.44
704.795	1350.16
705.14	1350.16
705.485	1350.39
705.83	1334.12
706.175	1362.14
706.52	1349.71
706.865	1342.93
707.209	1343.38
707.554	1343.83
707.899	1335.47
708.243	1336.15
708.588	1355.13
708.932	1332.76
709.277	1370.27
709.621	1353.78
709.966	1313.33
710.31	1338.19
710.654	1356.94
710.998	1344.29
711.342	1378.41
711.687	1364.17
712.031	1331.86
712.375	1334.8
712.719	1342.7
713.063	1362.37
713.407	1355.13
713.75	1362.82
714.094	1361.01
714.438	1370.95
714.782	1373.66
715.125	1365.3
715.469	1366.88
715.812	1397.84
716.156	1344.06
716.499	1385.19
716.843	1405.3
717.186	1394.23
717.53	1382.93
717.873	1370.73
718.216	1382.93
718.559	1394
718.902	1360.78
719.246	1377.96
719.589	1382.7
719.932	1402.14
720.275	1414.34
720.617	1402.59
720.96	1393.78
721.303	1403.95
721.646	1441.69
721.989	1421.8
722.331	1429.03
722.674	1429.26
723.016	1428.58
723.359	1417.51
723.701	1426.32
724.044	1462.25
724.386	1446.88
724.729	1478.75
725.071	1437.17
725.413	1458.63
725.755	1461.12
726.097	1453.66
726.439	1435.81
726.782	1471.06
727.124	1488.69
727.465	1483.49
727.807	1486.2
728.149	1510.84
728.491	1498.86
728.833	1501.8
729.175	1506.09
729.516	1480.1
729.858	1530.04
730.199	1511.51
730.541	1520.78
730.882	1545.41
731.224	1545.41
731.565	1543.15
731.906	1558.29
732.248	1570.04
732.589	1571.63
732.93	1574.56
733.271	1556.03
733.612	1605.07
733.953	1592.42
734.294	1609.36
734.635	1585.18
734.976	1594.68
735.317	1614.56
735.658	1642.36
735.999	1652.3
736.339	1631.74
736.68	1672.41
737.021	1665.18
737.361	1665.18
737.702	1693.43
738.042	1705.18
738.383	1697.05
738.723	1734.11
739.063	1692.75
739.404	1748.8
739.744	1757.38
740.084	1779.76
740.424	1797.83
740.764	1808.68
741.104	1826.76
741.444	1849.58
741.784	1851.17
742.124	1875.12
742.464	1875.57
742.804	1901.11
743.143	1930.03
743.483	1970.71
743.823	1954.21
744.162	1996.02
744.502	2028.56
744.841	2043.25
745.181	2049.35
745.52	2066.98
745.86	2088.67
746.199	2134.55
746.538	2156.02
746.877	2178.62
747.216	2219.29
747.556	2253.64
747.895	2285.73
748.234	2314.2
748.573	2338.84
748.911	2387.88
749.25	2446.86
749.589	2450.47
749.928	2531.6
750.267	2564.14
750.605	2559.62
750.944	2622.45
751.283	2674.87
751.621	2684.59
751.96	2795.77
752.298	2801.65
752.636	2846.39
752.975	2877.58
753.313	2961.42
753.651	3031.47
753.989	3057.01
754.327	3128.42
754.666	3160.74
755.004	3235.08
755.342	3345.36
755.679	3378.81
756.017	3454.51
756.355	3502.2
756.693	3595.53
757.031	3687.5
757.368	3730.89
757.706	3737.9
758.044	3891.56
758.381	3981.28
758.719	3995.29
759.056	4048.4
759.394	4144.21
759.731	4234.15
760.068	4355.96
760.405	4367.26
760.743	4412.68
761.08	4556.86
761.417	4626.23
761.754	4682.5
762.091	4770.86
762.428	4860.8
762.765	4882.95
763.102	5006.11
763.438	5085.66
763.775	5095.83
764.112	5214.92
764.449	5303.96
764.785	5347.57
765.122	5426.67
765.458	5463.05
765.795	5563.16
766.131	5662.82
766.467	5743.49
766.804	5787.11
767.14	5881.57
767.476	6007.21
767.812	5977.39
768.148	6060.32
768.485	6106.2
768.821	6129.92
769.157	6222.12
769.492	6281.56
769.828	6373.08
770.164	6333.99
770.5	6472.29
770.836	6546.41
771.171	6532.17
771.507	6668.67
771.842	6650.14
772.178	6691.26
772.513	6788.66
772.849	6782.11
773.184	6838.15
773.519	6920.19
773.855	6948.66
774.19	7026.4
774.525	7008.09
774.86	7115.89
775.195	7134.19
775.53	7147.98
775.865	7166.28
776.2	7207.64
776.535	7181.65
776.87	7267.07
777.205	7269.78
777.539	7300.29
777.874	7357.46
778.209	7338.25
778.543	7420.51
778.878	7412.83
779.212	7479.27
779.547	7428.42
779.881	7481.98
780.215	7479.94
780.55	7599.26
780.884	7549.55
781.218	7589.55
781.552	7701.63
781.886	7617.57
782.22	7607.4
782.554	7631.58
782.888	7557
783.222	7681.75
783.556	7608.08
783.889	7663.22
784.223	7595.65
784.557	7605.36
784.89	7714.29
785.224	7664.8
785.557	7695.76
785.891	7699.6
786.224	7682.65
786.558	7683.78
786.891	7628.87
787.224	7669.32
787.557	7677.68
787.891	7708.19
788.224	7668.64
788.557	7670.9
788.89	7746.38
789.223	7766.26
789.556	7694.85
789.888	7710.9
790.221	7742.08
790.554	7623.9
790.887	7686.04
791.219	7659.37
791.552	7698.02
791.884	7660.28
792.217	7725.81
792.549	7711.8
792.882	7649.43
793.214	7678.58
793.546	7659.6
793.879	7615.31
794.211	7662.31
794.543	7643.78
794.875	7650.11
795.207	7717
795.539	7614.86
795.871	7683.78
796.203	7618.92
796.535	7603.33
796.867	7567.63
797.198	7571.02
797.53	7582.31
797.862	7517.01
798.193	7564.91
798.525	7593.39
798.856	7633.61
799.188	7498.02
799.519	7530.56
799.85	7423.67
800.182	7517.01
800.513	7518.14
800.844	7405.14
801.175	7518.14
801.506	7399.95
801.837	7444.69
802.168	7378.7
802.499	7339.38
802.83	7354.75
803.161	7340.51
803.491	7413.05
803.822	7370.79
804.153	7353.85
804.483	7251.25
804.814	7296.67
805.145	7305.03
805.475	7343.68
805.805	7270.91
806.136	7319.04
806.466	7280.63
806.796	7307.75
807.126	7266.84
807.457	7208.77
807.787	7148.43
808.117	7239.95
808.447	7235.21
808.777	7159.28
809.107	7157.92
809.436	7173.74
809.766	7175.32
810.096	7172.61
810.426	7140.29
810.755	7079.96
811.085	7117.24
811.414	7162.44
811.744	7092.16
812.073	7094.87
812.403	7081.76
812.732	7077.02
813.061	6983.69
813.39	6993.63
813.719	7019.17
814.049	7028.21
814.378	7056.68
814.707	7004.48
815.036	7030.46
815.365	6970.81
815.693	6907.98
816.022	6909.56
816.351	6907.98
816.68	6913.18
817.008	6911.6
817.337	6902.11
817.665	6862.11
817.994	6907.3
818.322	6840.64
818.651	6835.89
818.979	6871.15
819.307	6821.66
819.636	6854.65
819.964	6829.34
820.292	6824.14
820.62	6833.63
820.948	6822.79
821.276	6866.85
821.604	6866.85
821.932	6878.15
822.259	6839.51
822.587	6770.36
822.915	6842.9
823.243	6807.19
823.57	6818.27
823.898	6912.95
824.225	6827.53
824.553	6813.75
824.88	6834.54
825.207	6837.48
825.535	6804.26
825.862	6898.72
826.189	6881.54
826.516	6877.02
826.843	6832.96
827.17	6873.63
827.497	6847.42
827.824	6909.79
828.151	6870.47
828.478	6874.08
828.805	6907.08
829.131	6846.06
829.458	6870.47
829.785	6859.62
830.111	6896.01
830.438	6849.68
830.764	6889.23
831.09	6917.7
831.417	6858.49
831.743	6893.29
832.069	6866.85
832.395	6879.73
832.722	6853.97
833.048	6872.95
833.374	6812.17
833.7	6819.17
834.026	6796.8
834.351	6845.16
834.677	6908.43
835.003	6798.83
835.329	6806.97
835.654	6891.49
835.98	6835.44
836.306	6835.89
836.631	6882.9
836.956	6851.26
837.282	6859.17
837.607	6825.05
837.932	6709.12
838.258	6799.28
838.583	6743.92
838.908	6740.53
839.233	6707.31
839.558	6711.15
839.883	6682.68
840.208	6708.21
840.533	6695.56
840.858	6685.39
841.182	6666.63
841.507	6652.4
841.832	6691.04
842.156	6646.29
842.481	6637.71
842.805	6627.76
843.13	6613.53
843.454	6587.31
843.778	6585.05
844.103	6544.83
844.427	6554.55
844.751	6554.32
845.075	6514.32
845.399	6570.36
845.723	6515.22
846.047	6487.65
846.371	6389.58
846.695	6408.11
847.019	6365.85
847.343	6371.27
847.666	6272.52
847.99	6284.95
848.313	6234.33
848.637	6269.35
848.96	6203.82
849.284	6208.57
849.607	6212.86
849.931	6171.05
850.254	6133.77
850.577	6097.61
850.9	6094.44
851.223	6048.57
851.546	6098.96
851.869	5996.59
852.192	6039.76
852.515	5915.24
852.838	5984.62
853.161	5940.1
853.483	5920.66
853.806	5871.4
854.129	5880.21
854.451	5864.39
854.774	5870.04
855.096	5824.39
855.419	5783.27
855.741	5812.64
856.063	5779.88
856.385	5750.72
856.708	5747.11
857.03	5693.55
857.352	5745.53
857.674	5691.07
857.996	5627.56
858.318	5632.08
858.64	5622.37
858.961	5586.44
859.283	5603.61
859.605	5604.97
859.926	5602.25
860.248	5553.44
860.57	5583.5
860.891	5601.35
861.212	5541.69
861.534	5497.85
861.855	5493.56
862.176	5470.73
862.498	5501.92
862.819	5484.52
863.14	5445.42
863.461	5428.93
863.782	5463.27
864.103	5411.75
864.424	5382.15
864.745	5449.72
865.065	5392.32
865.386	5376.95
865.707	5371.53
866.027	5385.08
866.348	5331.75
866.668	5392.99
866.989	5304.18
867.309	5268.93
867.63	5331.07
867.95	5310.51
868.27	5326.78
868.59	5294.01
868.91	5308.02
869.23	5253.11
869.55	5262.15
869.87	5282.94
870.19	5200.68
870.51	5197.29
870.83	5244.07
871.15	5220.34
871.469	5220.79
871.789	5232.77
872.109	5207.91
872.428	5230.74
872.748	5165.88
873.067	5198.87
873.386	5221.02
873.706	5181.47
874.025	5148.25
874.344	5113
874.663	5137.86
874.982	5162.27
875.301	5151.87
875.62	5053.79
875.939	5084.75
876.258	5097.18
876.577	5066.22
876.896	5058.99
877.214	5026.22
877.533	5053.57
877.852	5008.15
878.17	5003.85
878.489	4992.78
878.807	5065.09
879.125	5002.5
879.444	5002.27
879.762	5026.68
880.08	4992.78
880.398	4957.75
880.716	4959.56
881.034	4953.01
881.352	4945.77
881.67	4966.34
881.988	4974.25
882.306	4892.89
882.624	4924.98
882.941	4898.54
883.259	4876.62
883.577	4875.95
883.894	4849.96
884.212	4840.92
884.529	4840.47
884.846	4832.56
885.164	4833.46
885.481	4788.26
885.798	4790.75
886.115	4763.63
886.432	4745.1
886.75	4738.32
887.067	4714.59
887.383	4746.68
887.7	4703.29
888.017	4648.38
888.334	4679.34
888.651	4664.65
888.967	4630.75
889.284	4615.84
889.6	4671.66
889.917	4594.37
890.233	4598.66
890.55	4576.29
890.866	4572.22
891.182	4577.87
891.498	4552.34
891.815	4512.11
892.131	4526.58
892.447	4528.84
892.763	4517.08
893.079	4470.98
893.395	4452
893.71	4426.47
894.026	4403.64
894.342	4427.14
894.657	4376.07
894.973	4389.63
895.289	4369.52
895.604	4358.44
895.92	4339.24
896.235	4317.77
896.55	4294.72
896.865	4296.07
897.181	4296.3
897.496	4334.26
897.811	4268.73
898.126	4229.86
898.441	4266.02
898.756	4214.95
899.071	4147.83
899.386	4168.85
899.7	4138.56
900.015	4134.95
900.33	4107.83
900.644	4100.37
900.959	4091.56
901.273	4062.63
901.588	4052.92
901.902	4021.05
902.216	4046.14
902.531	4054.05
902.845	4009.08
903.159	3990.09
903.473	3939.25
903.787	3928.17
904.101	3949.42
904.415	3961.62
904.729	3893.82
905.042	3869.19
905.356	3894.05
905.67	3848.85
905.984	3813.83
906.297	3838.91
906.611	3793.71
906.924	3802.53
907.237	3803.21
907.551	3784.45
907.864	3727.27
908.177	3786.93
908.491	3726.37
908.804	3687.05
909.117	3661.06
909.43	3709.87
909.743	3678.69
910.056	3634.62
910.368	3652.25
910.681	3626.94
910.994	3603.89
911.307	3592.36
911.619	3570.44
911.932	3599.59
912.244	3544.91
912.557	3547.17
912.869	3487.96
913.181	3478.24
913.494	3481.86
913.806	3462.88
914.118	3515.3
914.43	3398.92
914.742	3470.33
915.054	3430.33
915.366	3390.79
915.678	3430.33
915.99	3414.74
916.302	3347.85
916.613	3360.96
916.925	3350.11
917.236	3318.92
917.548	3304.01
917.859	3320.51
918.171	3283.67
918.482	3296.55
918.794	3285.03
919.105	3255.87
919.416	3238.02
919.727	3202.09
920.038	3229.43
920.349	3179.27
920.66	3184.69
920.971	3118.93
921.282	3152.6
921.593	3122.77
921.903	3111.7
922.214	3122.09
922.525	3114.64
922.835	3075.77
923.146	3099.95
923.456	3092.94
923.767	3092.72
924.077	3050.23
924.387	3055.2
924.697	3034.64
925.008	3023.11
925.318	3011.59
925.628	3012.49
925.938	2956
926.248	2948.76
926.558	2999.38
926.867	2962.32
927.177	2909.22
927.487	2904.92
927.796	2927.07
928.106	2902.89
928.416	2869.9
928.725	2869.44
929.034	2851.59
929.344	2858.15
929.653	2859.28
929.962	2845.49
930.271	2817.92
930.581	2812.27
930.89	2789.9
931.199	2777.02
931.508	2785.15
931.817	2780.41
932.125	2748.09
932.434	2779.5
932.743	2761.2
933.051	2708.09
933.36	2728.43
933.669	2699.96
933.977	2687.08
934.286	2651.14
934.594	2668.77
934.902	2656.12
935.21	2632.39
935.519	2629.68
935.827	2646.4
936.135	2634.42
936.443	2590.36
936.751	2616.12
937.059	2604.14
937.367	2546.74
937.674	2546.74
937.982	2574.08
938.29	2554.88
938.597	2546.74
938.905	2520.98
939.213	2535.22
939.52	2541.54
939.827	2488.21
940.135	2480.3
940.442	2475.56
940.749	2504.48
941.056	2479.4
941.363	2453.18
941.67	2417.7
941.977	2420.87
942.284	2432.17
942.591	2422.22
942.898	2441.66
943.205	2410.25
943.511	2389
943.818	2400.76
944.125	2363.92
944.431	2359.4
944.738	2363.47
945.044	2319.85
945.35	2345.16
945.657	2332.74
945.963	2316.46
946.269	2309.69
946.575	2298.84
946.881	2274.88
947.187	2271.49
947.493	2291.83
947.799	2256.58
948.105	2251.38
948.41	2230.37
948.716	2219.29
949.022	2208.44
949.327	2208.22
949.633	2221.33
949.938	2183.59
950.244	2205.28
950.549	2163.25
950.854	2173.19
951.16	2140.2
951.465	2172.74
951.77	2132.97
952.075	2162.8
952.38	2116.92
952.685	2099.07
952.99	2101.78
953.294	2087.09
953.599	2090.71
953.904	2088.67
954.209	2062.01
954.513	2067.88
954.818	2082.35
955.122	2046.42
955.426	2007.77
955.731	2058.17
956.035	2019.75
956.339	2028.11
956.643	2019.75
956.948	2026.75
957.252	1979.75
957.556	1975.46
957.86	1976.81
958.163	1982.24
958.467	1948.79
958.771	1956.47
959.075	1949.92
959.378	1945.63
959.682	1937.49
959.985	1932.97
960.289	1916.48
960.592	1941.56
960.896	1911.5
961.199	1874.89
961.502	1860.21
961.805	1879.41
962.108	1870.6
962.411	1863.6
962.714	1842.58
963.017	1853.43
963.32	1845.29
963.623	1854.56
963.926	1820.88
964.228	1793.31
964.531	1824.73
964.833	1828.79
965.136	1815.91
965.438	1796.48
965.741	1807.1
966.043	1772.07
966.345	1785.18
966.648	1771.85
966.95	1742.47
967.252	1762.58
967.554	1744.73
967.856	1770.26
968.158	1723.71
968.46	1743.6
968.761	1711.73
969.063	1702.24
969.365	1718.51
969.666	1706.09
969.968	1668.8
970.269	1671.96
970.571	1669.48
970.872	1671.28
971.174	1678.06
971.475	1634.45
971.776	1620.21
972.077	1653.43
972.378	1643.71
972.679	1646.88
972.98	1603.49
973.281	1600.78
973.582	1592.87
973.883	1598.52
974.183	1622.92
974.484	1588.35
974.785	1585.86
975.085	1580.66
975.386	1574.79
975.686	1554
975.986	1562.13
976.287	1559.42
976.587	1558.74
976.887	1579.99
977.187	1538.86
977.487	1563.04
977.787	1524.62
978.087	1490.27
978.387	1521.23
978.687	1488.92
978.987	1509.71
979.286	1504.96
979.586	1505.64
979.885	1463.83
980.185	1464.06
980.484	1484.17
980.784	1483.72
981.083	1452.53
981.382	1450.27
981.682	1430.16
981.981	1435.36
982.28	1430.61
982.579	1410.95
982.878	1420.44
983.177	1401.69
983.475	1401.23
983.774	1417.96
984.073	1384.51
984.372	1388.58
984.67	1375.02
984.969	1374.12
985.267	1377.96
985.566	1368.92
985.864	1380.22
986.162	1333.67
986.461	1336.6
986.759	1353.33
987.057	1299.09
987.355	1335.02
987.653	1336.6
987.951	1318.75
988.249	1333.44
988.547	1316.04
988.844	1322.59
989.142	1285.98
989.44	1295.25
989.737	1287.57
990.035	1271.97
990.332	1287.79
990.63	1268.58
990.927	1294.34
991.224	1264.51
991.521	1250.05
991.819	1235.81
992.116	1240.33
992.413	1266.1
992.71	1228.81
993.006	1257.96
993.303	1238.07
993.6	1227.68
993.897	1208.7
994.193	1201.69
994.49	1214.57
994.787	1190.62
995.083	1187.91
995.379	1208.7
995.676	1180
995.972	1195.36
996.268	1194.69
996.565	1169.6
996.861	1138.64
997.157	1170.05
997.453	1159.88
997.749	1141.35
998.044	1149.72
998.34	1113.78
998.636	1134.12
998.932	1136.38
999.227	1134.57
999.523	1135.25
999.818	1150.62
1000.114	1106.55
1000.409	1102.71
1000.704	1071.3
1001	1084.18
1001.295	1082.82
1001.59	1095.71
1001.885	1098.64
1002.18	1069.94
1002.475	1079.43
1002.77	1077.85
1003.065	1048.93
1003.359	1064.07
1003.654	1049.15
1003.949	1037.85
1004.243	1010.96
1004.538	1027.68
1004.832	1029.49
1005.127	1047.12
1005.421	1025.2
1005.715	1021.81
1006.009	1005.31
1006.304	1003.05
1006.598	1002.37
1006.892	1005.54
1007.186	990.4
1007.48	1004.41
1007.773	1001.02
1008.067	958.08
1008.361	981.58
1008.655	975.03
1008.948	961.25
1009.242	951.3
1009.535	946.11
1009.829	935.94
1010.122	961.47
1010.415	914.02
1010.708	945.2
1011.001	913.56
1011.295	914.92
1011.588	923.73
1011.881	914.47
1012.173	893
1012.466	937.07
1012.759	877.63
1013.052	887.58
1013.344	865.2
1013.637	913.79
1013.93	899.1
1014.222	886.67
1014.514	879.21
1014.807	858.42
1015.099	852.55
1015.391	882.6
1015.683	849.16
1015.976	840.12
1016.268	856.84
1016.56	823.17
1016.851	836.96
1017.143	829.05
1017.435	855.03
1017.727	825.2
1018.018	820.46
1018.31	823.85
1018.602	815.04
1018.893	794.24
1019.185	804.19
1019.476	806.22
1019.767	800.35
1020.058	809.39
1020.35	766.22
1020.641	787.47
1020.932	763.96
1021.223	779.56
1021.514	771.19
1021.804	755.38
1022.095	776.62
1022.386	775.71
1022.677	744.75
1022.967	744.53
1023.258	761.48
1023.548	746.79
1023.839	755.83
1024.129	727.13
1024.419	740.69
1024.709	739.78
1025	740.46
1025.29	735.26
1025.58	724.19
1025.87	714.25
1026.16	715.6
1026.449	721.48
1026.739	705.21
1027.029	695.72
1027.319	709.73
1027.608	692.55
1027.898	692.78
1028.187	697.75
1028.477	690.74
1028.766	671.99
1029.055	692.1
1029.344	652.55
1029.634	654.14
1029.923	654.59
1030.212	678.32
1030.501	676.96
1030.79	678.54
1031.078	663.17
1031.367	655.49
1031.656	644.42
1031.945	646
1032.233	634.47
1032.522	642.84
1032.81	639.9
1033.099	612.33
1033.387	627.24
1033.675	639.9
1033.963	644.87
1034.251	641.03
1034.54	620.69
1034.828	608.26
1035.116	603.74
1035.403	608.94
1035.691	611.2
1035.979	595.38
1036.267	612.33
1036.554	593.35
1036.842	602.61
1037.129	613.68
1037.417	571.43
1037.704	564.65
1037.992	574.59
1038.279	580.24
1038.566	584.53
1038.853	584.53
1039.14	584.53
