Data from blue_chair_FLMS001491_00088.txt Node
Date: Wed Feb 08 10:31:56 GMT 2017
User: dcchb
Spectrometer: FLMS00149
Trigger mode: 0
Integration Time (sec): 2.000000E-2
Scans to average: 10
Electric dark correction enabled: true
Nonlinearity correction enabled: false
Boxcar width: 0
XAxis mode: Wavelengths
Number of Pixels in Spectrum: 2048
>>>>>Begin Spectral Data<<<<<
341.393	-9.03
341.776	-9.03
342.16	-9.03
342.543	-63.26
342.927	-43.6
343.31	-68.01
343.693	-52.64
344.077	-68.01
344.46	-53.77
344.843	-49.93
345.226	-55.13
345.61	-27.78
345.993	-20.78
346.376	-30.27
346.759	19.45
347.142	25.78
347.525	46.34
347.908	57.87
348.291	81.59
348.674	83.4
349.057	111.88
349.44	132.21
349.823	128.37
350.206	154.81
350.588	155.94
350.971	206.11
351.354	207.47
351.737	220.8
352.119	228.48
352.502	253.57
352.884	236.62
353.267	242.72
353.65	285.88
354.032	273.23
354.414	291.76
354.797	287.01
355.179	290.4
355.562	296.05
355.944	312.1
356.326	308.71
356.709	306.67
357.091	310.51
357.473	301.7
357.855	310.97
358.238	319.33
358.62	310.51
359.002	307.58
359.384	319.55
359.766	327.01
360.148	323.85
360.53	317.07
360.912	326.79
361.294	315.03
361.676	301.7
362.057	302.61
362.439	317.75
362.821	294.92
363.203	302.15
363.584	302.83
363.966	281.36
364.348	308.48
364.729	298.54
365.111	298.09
365.493	290.4
365.874	294.92
366.256	300.8
366.637	297.63
367.019	292.21
367.4	306.22
367.781	287.69
368.163	295.83
368.544	295.15
368.925	264.19
369.306	278.2
369.688	299.44
370.069	277.97
370.45	285.43
370.831	289.72
371.212	282.04
371.593	296.5
371.974	270.74
372.355	287.46
372.736	292.89
373.117	278.2
373.498	286.11
373.879	269.39
374.26	280.68
374.641	284.75
375.021	291.08
375.402	289.72
375.783	295.15
376.163	295.15
376.544	288.82
376.925	292.66
377.305	296.5
377.686	291.08
378.066	304.86
378.447	281.81
378.827	282.04
379.208	289.95
379.588	266.22
379.968	297.18
380.349	298.76
380.729	297.86
381.109	315.03
381.489	279.55
381.87	319.55
382.25	309.16
382.63	295.37
383.01	287.92
383.39	282.49
383.77	313.23
384.15	307.8
384.53	300.12
384.91	330.85
385.29	308.48
385.67	306.45
386.049	304.19
386.429	302.38
386.809	308.03
387.189	304.64
387.568	296.05
387.948	326.56
388.328	308.93
388.707	308.03
389.087	321.81
389.466	306.67
389.846	300.8
390.225	327.69
390.605	333.11
390.984	334.02
391.363	315.49
391.743	320.46
392.122	335.6
392.501	347.12
392.881	326.33
393.26	316.39
393.639	323.85
394.018	316.84
394.397	324.98
394.776	314.36
395.155	327.46
395.534	326.33
395.913	351.19
396.292	344.41
396.671	341.02
397.05	341.47
397.429	339.21
397.808	334.02
398.186	358.42
398.565	345.32
398.944	336.05
399.323	325.2
399.701	349.38
400.08	335.37
400.458	345.09
400.837	368.82
401.215	339.44
401.594	360
401.972	390.74
402.351	363.85
402.729	353.9
403.107	352.1
403.486	360.91
403.864	367.46
404.242	351.87
404.62	391.64
404.999	357.74
405.377	374.92
405.755	366.78
406.133	340.57
406.511	384.41
406.889	367.24
407.267	358.65
407.645	392.09
408.023	371.08
408.401	383.96
408.779	388.7
409.156	388.25
409.534	380.57
409.912	390.51
410.29	390.74
410.667	400.91
411.045	388.93
411.422	415.6
411.8	397.07
412.178	428.93
412.555	404.3
412.933	422.6
413.31	425.54
413.687	415.82
414.065	432.55
414.442	436.16
414.819	442.04
415.197	428.48
415.574	435.26
415.951	410.85
416.328	438.19
416.705	437.52
417.082	443.17
417.46	433
417.837	431.87
418.214	443.84
418.591	461.7
418.967	441.58
419.344	451.3
419.721	438.87
420.098	445.43
420.475	475.71
420.852	450.17
421.228	468.02
421.605	459.44
421.982	458.53
422.358	480.45
422.735	495.14
423.111	479.55
423.488	486.78
423.864	475.93
424.241	484.97
424.617	495.59
424.994	503.5
425.37	493.33
425.746	478.42
426.123	501.92
426.499	513.22
426.875	514.58
427.251	527.23
427.627	532.2
428.003	532.66
428.379	541.69
428.756	539.66
429.132	528.81
429.507	550.06
429.883	544.63
430.259	555.71
430.635	553.9
431.011	559.55
431.387	585.99
431.763	574.01
432.138	583.73
432.514	596.61
432.89	591.41
433.265	613.33
433.641	599.09
434.016	602.94
434.392	630.28
434.767	620.11
435.143	620.56
435.518	634.12
435.894	638.64
436.269	641.35
436.644	648.58
437.02	647.45
437.395	676.38
437.77	688.13
438.145	661.69
438.52	693.1
438.895	686.78
439.271	680.67
439.646	701.46
440.021	723.38
440.395	693.1
440.77	725.19
441.145	745.08
441.52	748.7
441.895	751.86
442.27	747.79
442.645	745.08
443.019	769.94
443.394	789.15
443.769	757.73
444.143	762.93
444.518	785.98
444.892	787.79
445.267	779.88
445.641	795.7
446.016	790.73
446.39	806.09
446.764	811.74
447.139	814.91
447.513	814.91
447.887	807.45
448.262	841.12
448.636	858.07
449.01	841.35
449.384	832.08
449.758	849.71
450.132	840.67
450.506	847.9
450.88	870.5
451.254	858.75
451.628	873.44
452.002	904.4
452.376	898.3
452.75	903.49
453.123	915.47
453.497	891.52
453.871	943.49
454.244	909.59
454.618	903.49
454.992	929.48
455.365	931.29
455.739	952.53
456.112	957.05
456.486	955.92
456.859	998.18
457.232	983.04
457.606	987.11
457.979	979.65
458.352	1031.17
458.725	1012.87
459.099	1021
459.472	1034.56
459.845	1026.2
460.218	1044.51
460.591	1062.81
460.964	1054.68
461.337	1061.46
461.71	1079.31
462.083	1099.87
462.456	1104.62
462.829	1081.79
463.201	1104.62
463.574	1122.7
463.947	1129.25
464.32	1145.75
464.692	1137.84
465.065	1128.57
465.438	1133.77
465.81	1154.33
466.183	1181.45
466.555	1197.04
466.928	1178.29
467.3	1170.38
467.672	1190.27
468.045	1212.41
468.417	1232.98
468.789	1218.74
469.161	1270.04
469.534	1296.48
469.906	1265.74
470.278	1269.13
470.65	1302.35
471.022	1314.56
471.394	1338.96
471.766	1320.21
472.138	1340.09
472.51	1372.18
472.882	1365.63
473.253	1356.59
473.625	1392.75
473.997	1386.87
474.369	1420.09
474.74	1411.95
475.112	1435.46
475.484	1460.54
475.855	1425.06
476.227	1447.43
476.598	1492.18
476.97	1471.61
477.341	1524.27
477.713	1529.69
478.084	1542.57
478.455	1557.94
478.827	1590.03
479.198	1598.16
479.569	1604.72
479.94	1636.81
480.311	1613.76
480.682	1633.64
481.053	1660.31
481.424	1680.2
481.795	1686.07
482.166	1698.5
482.537	1733.08
482.908	1720.42
483.279	1743.92
483.65	1763.81
484.021	1797.48
484.391	1800.87
484.762	1806.52
485.133	1795.22
485.503	1835.45
485.874	1827.76
486.244	1872.51
486.615	1867.76
486.985	1846.07
487.356	1884.71
487.726	1851.49
488.097	1889.91
488.467	1922
488.837	1912.73
489.207	1920.87
489.578	1938.04
489.948	1957.93
490.318	1943.24
490.688	1974.65
491.058	1982.79
491.428	1960.87
491.798	1990.02
492.168	2003.35
492.538	1976.46
492.908	2037.25
493.278	2013.07
493.648	2038.15
494.017	2019.4
494.387	2049.23
494.757	2040.41
495.126	2050.81
495.496	2025.27
495.866	2020.3
496.235	2029.79
496.605	2036.8
496.974	2043.12
497.344	2077.02
497.713	2049.45
498.082	2049.23
498.452	2061.2
498.821	2068.21
499.19	2037.93
499.559	2031.6
499.928	2064.59
500.298	2054.88
500.667	2034.54
501.036	2046.74
501.405	2041.32
501.774	2046.74
502.143	2031.37
502.512	2030.7
502.88	2027.53
503.249	2025.5
503.618	2051.49
503.987	2029.11
504.356	2032.73
504.724	2043.12
505.093	2034.54
505.462	2031.83
505.83	2029.34
506.199	2044.48
506.567	2016.68
506.936	2018.72
507.304	2031.15
507.672	1995.22
508.041	2050.58
508.409	2006.97
508.777	2032.28
509.145	2050.36
509.514	2015.78
509.882	1995.89
510.25	1984.59
510.618	1978.95
510.986	2005.16
511.354	1991.83
511.722	2007.19
512.09	2002.9
512.458	1963.8
512.826	1983.46
513.193	1996.35
513.561	1991.37
513.929	1978.04
514.297	1990.47
514.664	1964.03
515.032	1945.5
515.4	1970.36
515.767	1952.28
516.135	1954.99
516.502	1935.1
516.869	1952.51
517.237	1945.5
517.604	1933.75
517.972	1954.99
518.339	1969.91
518.706	1940.08
519.073	1919.74
519.44	1911.83
519.808	1934.2
520.175	1917.25
520.542	1919.51
520.909	1936.01
521.276	1922.9
521.643	1917.25
522.009	1881.55
522.376	1939.85
522.743	1898.5
523.11	1881.09
523.477	1926.07
523.843	1905.95
524.21	1946.63
524.577	1933.97
524.943	1892.17
525.31	1910.02
525.676	1886.97
526.043	1916.57
526.409	1911.38
526.776	1928.55
527.142	1900.53
527.508	1911.15
527.874	1912.73
528.241	1890.81
528.607	1884.71
528.973	1946.18
529.339	1930.13
529.705	1911.83
530.071	1937.36
530.437	1893.07
530.803	1931.94
531.169	1918.61
531.535	1938.27
531.901	1934.2
532.267	1916.8
532.632	1927.87
532.998	1913.41
533.364	1908.66
533.73	1929.45
534.095	1914.54
534.461	1909.57
534.826	1898.72
535.192	1890.81
535.557	1881.77
535.923	1937.59
536.288	1912.51
536.653	1934.2
537.019	1912.73
537.384	1940.3
537.749	1921.77
538.114	1893.07
538.479	1924.94
538.845	1897.59
539.21	1865.5
539.575	1913.64
539.94	1898.27
540.305	1891.94
540.67	1883.81
541.034	1904.14
541.399	1897.37
541.764	1858.72
542.129	1868.67
542.494	1916.35
542.858	1893.75
543.223	1887.2
543.587	1871.38
543.952	1886.97
544.316	1883.35
544.681	1884.26
545.045	1863.47
545.41	1884.48
545.774	1859.17
546.138	1870.02
546.503	1864.37
546.867	1852.85
547.231	1872.06
547.595	1875.67
547.959	1879.96
548.324	1842.9
548.688	1893.75
549.052	1858.5
549.416	1869.8
549.779	1857.82
550.143	1857.82
550.507	1859.85
550.871	1856.01
551.235	1830.93
551.599	1869.57
551.962	1824.6
552.326	1856.01
552.689	1848.33
553.053	1822.79
553.417	1846.97
553.78	1838.84
554.143	1823.02
554.507	1850.59
554.87	1835.9
555.234	1847.42
555.597	1833.19
555.96	1802.9
556.323	1827.54
556.686	1826.86
557.05	1873.19
557.413	1834.77
557.776	1821.21
558.139	1809.46
558.502	1795.22
558.865	1812.4
559.228	1834.77
559.59	1809.46
559.953	1836.12
560.316	1821.66
560.679	1850.36
561.041	1825.05
561.404	1831.83
561.767	1852.17
562.129	1805.84
562.492	1838.16
562.854	1836.58
563.217	1850.81
563.579	1810.81
563.941	1838.16
564.304	1838.61
564.666	1886.07
565.028	1881.77
565.39	1846.75
565.753	1846.52
566.115	1815.11
566.477	1855.11
566.839	1873.64
567.201	1837.25
567.563	1860.08
567.925	1866.41
568.287	1929
568.648	1896.69
569.01	1893.52
569.372	1899.4
569.734	1888.78
570.095	1898.04
570.457	1910.92
570.819	1931.04
571.18	1931.49
571.542	1955.89
571.903	1958.15
572.265	1944.82
572.626	1972.62
572.987	1912.96
573.349	1928.1
573.71	1969.91
574.071	1986.18
574.432	1971.26
574.794	1972.39
575.155	1999.96
575.516	1985.05
575.877	2030.7
576.238	2022.11
576.599	2013.97
576.96	2037.47
577.32	2031.37
577.681	2021.43
578.042	2047.87
578.403	2018.72
578.763	2047.64
579.124	2046.51
579.485	2061.2
579.845	2052.84
580.206	2029.57
580.566	2037.47
580.927	2052.39
581.287	2059.62
581.648	2085.83
582.008	2089.9
582.368	2081.99
582.728	2059.4
583.089	2081.99
583.449	2058.49
583.809	2117.47
584.169	2114.31
584.529	2089
584.889	2138.71
585.249	2105.04
585.609	2130.35
585.969	2131.03
586.329	2101.2
586.688	2142.33
587.048	2098.94
587.408	2146.85
587.768	2136.23
588.127	2136.68
588.487	2139.39
588.846	2121.54
589.206	2116.34
589.565	2093.07
589.925	2137.36
590.284	2086.06
590.643	2138.04
591.003	2141.65
591.362	2141.88
591.721	2119.96
592.08	2128.09
592.44	2137.13
592.799	2152.27
593.158	2141.2
593.517	2146.17
593.876	2112.5
594.235	2127.19
594.593	2152.95
594.952	2127.42
595.311	2131.94
595.67	2159.28
596.029	2136.23
596.387	2148.43
596.746	2141.65
597.104	2130.13
597.463	2116.34
597.822	2150.01
598.18	2147.75
598.538	2139.84
598.897	2124.03
599.255	2112.73
599.613	2140.52
599.972	2117.92
600.33	2150.69
600.688	2140.3
601.046	2124.25
601.404	2137.81
601.762	2136
602.12	2152.27
602.478	2117.02
602.836	2154.08
603.194	2133.52
603.552	2139.17
603.91	2119.96
604.268	2110.92
604.625	2122.44
604.983	2093.29
605.341	2128.32
605.698	2143.46
606.056	2152.27
606.413	2121.99
606.771	2138.04
607.128	2144.82
607.485	2149.79
607.843	2145.27
608.2	2151.37
608.557	2171.48
608.914	2140.97
609.272	2137.59
609.629	2117.7
609.986	2166.28
610.343	2167.64
610.7	2124.7
611.057	2187.3
611.414	2152.27
611.771	2151.6
612.127	2131.48
612.484	2164.03
612.841	2140.97
613.198	2145.72
613.554	2176.91
613.911	2154.31
614.267	2148.66
614.624	2117.02
614.98	2172.39
615.337	2170.58
615.693	2146.4
616.05	2153.4
616.406	2210.58
616.762	2168.32
617.118	2148.43
617.475	2155.44
617.831	2152.73
618.187	2142.56
618.543	2169.22
618.899	2201.31
619.255	2144.14
619.611	2178.26
619.967	2148.43
620.323	2173.52
620.678	2153.4
621.034	2154.76
621.39	2157.47
621.746	2183.69
622.101	2223.46
622.457	2155.21
622.812	2144.59
623.168	2191.37
623.523	2173.06
623.879	2174.87
624.234	2144.36
624.589	2198.6
624.945	2172.16
625.3	2183.46
625.655	2193.63
626.01	2184.82
626.365	2205.83
626.72	2191.37
627.075	2208.54
627.43	2204.7
627.785	2192.95
628.14	2183.46
628.495	2185.72
628.85	2189.79
629.205	2178.26
629.559	2187.53
629.914	2162.22
630.269	2206.96
630.623	2163.8
630.978	2190.24
631.332	2194.53
631.687	2215.1
632.041	2226.85
632.396	2166.51
632.75	2154.53
633.104	2163.8
633.459	2187.53
633.813	2195.21
634.167	2186.4
634.521	2190.69
634.875	2163.35
635.229	2166.51
635.583	2175.1
635.937	2173.74
636.291	2221.42
636.645	2169
636.999	2193.63
637.352	2194.76
637.706	2197.47
638.06	2165.15
638.413	2147.98
638.767	2157.25
639.121	2188.21
639.474	2179.17
639.828	2204.25
640.181	2192.95
640.534	2187.98
640.888	2132.16
641.241	2172.39
641.594	2161.31
641.947	2219.16
642.301	2186.62
642.654	2164.7
643.007	2178.04
643.36	2196.79
643.713	2179.84
644.066	2173.74
644.419	2138.94
644.771	2167.64
645.124	2154.99
645.477	2149.56
645.83	2136
646.182	2100.07
646.535	2149.56
646.888	2160.41
647.24	2177.13
647.593	2144.59
647.945	2127.19
648.298	2154.31
648.65	2124.03
649.002	2189.56
649.355	2122.9
649.707	2138.94
650.059	2173.74
650.411	2180.52
650.763	2160.41
651.115	2199.5
651.467	2199.5
651.819	2208.09
652.171	2223.23
652.523	2195.66
652.875	2243.34
653.227	2227.07
653.578	2227.75
653.93	2260.52
654.282	2236.79
654.633	2249.9
654.985	2237.47
655.337	2218.71
655.688	2238.83
656.039	2218.49
656.391	2223.91
656.742	2246.28
657.094	2262.78
657.445	2228.2
657.796	2245.83
658.147	2257.81
658.498	2263.23
658.849	2252.61
659.2	2270.24
659.551	2247.86
659.902	2251.03
660.253	2244.7
660.604	2270.24
660.955	2266.85
661.306	2271.14
661.656	2286.06
662.007	2241.54
662.358	2247.19
662.708	2259.84
663.059	2260.75
663.409	2271.37
663.76	2294.64
664.11	2287.19
664.461	2255.1
664.811	2297.81
665.161	2290.35
665.511	2244.02
665.862	2265.72
666.212	2264.14
666.562	2271.59
666.912	2293.97
667.262	2261.65
667.612	2275.89
667.962	2283.57
668.312	2278.6
668.662	2285.15
669.011	2302.1
669.361	2272.04
669.711	2266.17
670.06	2253.51
670.41	2250.8
670.76	2266.85
671.109	2241.09
671.459	2258.94
671.808	2270.46
672.157	2272.95
672.507	2238.6
672.856	2229.56
673.205	2199.5
673.554	2208.32
673.904	2220.07
674.253	2213.29
674.602	2213.52
674.951	2177.81
675.3	2168.32
675.649	2222.33
675.998	2208.54
676.346	2233.85
676.695	2210.13
677.044	2222.1
677.393	2218.71
677.741	2215.78
678.09	2217.81
678.438	2170.58
678.787	2172.84
679.135	2176.23
679.484	2174.87
679.832	2181.88
680.181	2151.82
680.529	2163.8
680.877	2170.13
681.225	2139.17
681.573	2148.66
681.922	2168.32
682.27	2151.14
682.618	2134.42
682.966	2105.5
683.314	2139.84
683.661	2119.28
684.009	2103.01
684.357	2106.63
684.705	2107.98
685.053	2080.19
685.4	2104.14
685.748	2102.78
686.095	2109.56
686.443	2065.5
686.79	2087.64
687.138	2103.69
687.485	2095.78
687.832	2076.8
688.18	2057.59
688.527	2075.44
688.874	2056.01
689.221	2037.25
689.568	2068.66
689.915	2049.9
690.262	2055.78
690.609	2012.62
690.956	2039.73
691.303	1997.02
691.65	1993.86
691.997	2001.09
692.344	2017.14
692.69	1957.25
693.037	1997.93
693.383	1968.1
693.73	1984.59
694.077	1978.49
694.423	1965.84
694.769	1954.31
695.116	1969.23
695.462	1970.13
695.808	1935.78
696.155	1940.3
696.501	1941.66
696.847	1940.75
697.193	1926.29
697.539	1921.09
697.885	1939.4
698.231	1912.73
698.577	1922.45
698.923	1912.28
699.269	1905.73
699.614	1898.95
699.96	1872.73
700.306	1910.92
700.651	1909.12
700.997	1874.09
701.342	1875.9
701.688	1891.04
702.033	1873.41
702.379	1833.64
702.724	1822.11
703.069	1857.37
703.415	1854.43
703.76	1855.78
704.105	1856.69
704.45	1852.17
704.795	1857.59
705.14	1793.64
705.485	1832.73
705.83	1823.69
706.175	1819.63
706.52	1814.66
706.865	1814.43
707.209	1812.85
707.554	1830.25
707.899	1822.57
708.243	1810.36
708.588	1842.23
708.932	1824.82
709.277	1830.47
709.621	1823.47
709.966	1846.07
710.31	1794.09
710.654	1812.62
710.998	1801.55
711.342	1829.34
711.687	1808.55
712.031	1810.14
712.375	1839.97
712.719	1786.86
713.063	1826.86
713.407	1842.23
713.75	1836.58
714.094	1791.15
714.438	1814.43
714.782	1815.11
715.125	1849.68
715.469	1841.77
715.812	1857.37
716.156	1886.29
716.499	1813.3
716.843	1855.56
717.186	1850.13
717.53	1841.32
717.873	1862.79
718.216	1851.26
718.559	1874.99
718.902	1862.11
719.246	1849.46
719.589	1890.59
719.932	1858.27
720.275	1881.09
720.617	1857.59
720.96	1855.33
721.303	1906.86
721.646	1896.46
721.989	1910.25
722.331	1890.36
722.674	1870.93
723.016	1925.61
723.359	1917.03
723.701	1901.89
724.044	1938.49
724.386	1923.58
724.729	1911.38
725.071	1954.31
725.413	1957.48
725.755	1982.56
726.097	1951.38
726.439	1950.47
726.782	1988.66
727.124	2006.06
727.465	1990.24
727.807	1998.61
728.149	1978.27
728.491	1995.22
728.833	2055.55
729.175	2047.87
729.516	1999.74
729.858	2001.54
730.199	2042.67
730.541	2056.91
730.882	2051.94
731.224	2082.45
731.565	2077.47
731.906	2078.38
732.248	2070.92
732.589	2083.58
732.93	2094.87
733.271	2104.14
733.612	2135.33
733.953	2154.31
734.294	2146.17
734.635	2166.74
734.976	2167.64
735.317	2211.93
735.658	2177.36
735.999	2201.09
736.339	2222.33
736.68	2238.15
737.021	2216.45
737.361	2273.63
737.702	2247.41
738.042	2261.88
738.383	2288.54
738.723	2300.52
739.063	2285.38
739.404	2339.61
739.744	2352.72
740.084	2373.06
740.424	2392.95
740.764	2420.52
741.104	2434.53
741.444	2413.28
741.784	2467.75
742.124	2473.85
742.464	2511.36
742.804	2566.5
743.143	2578.7
743.483	2587.52
743.823	2641.75
744.162	2619.83
744.502	2655.76
744.841	2688.08
745.181	2698.93
745.52	2733.73
745.86	2738.02
746.199	2795.65
746.538	2822.54
746.877	2902.54
747.216	2906.83
747.556	2943.21
747.895	2980.27
748.234	3016.88
748.573	3010.56
748.911	3099.59
749.25	3147.28
749.589	3228.4
749.928	3246.03
750.267	3250.78
750.605	3305.69
750.944	3339.81
751.283	3439.25
751.621	3452.13
751.96	3472.01
752.298	3589.75
752.636	3611.22
752.975	3659.8
753.313	3728.05
753.651	3761.72
753.989	3789.07
754.327	3904.09
754.666	3913.13
755.004	3985.9
755.342	4007.59
755.679	4114.03
756.017	4163.97
756.355	4229.06
756.693	4274.48
757.031	4364.19
757.368	4404.87
757.706	4469.95
758.044	4496.17
758.381	4592.21
758.719	4653.9
759.056	4671.08
759.394	4712.43
759.731	4818.42
760.068	4861.81
760.405	4914.91
760.743	4929.6
761.08	5058.41
761.417	5076.49
761.754	5161.69
762.091	5227.45
762.428	5206.88
762.765	5305.64
763.102	5382.25
763.438	5405.97
763.775	5468.8
764.112	5524.39
764.449	5538.85
764.785	5591.28
765.122	5646.19
765.458	5673.54
765.795	5732.52
766.131	5773.87
766.467	5817.71
766.804	5857.04
767.14	5910.82
767.476	5960.54
767.812	5961.89
768.148	6001.21
768.485	6035.56
768.821	6089.57
769.157	6087.76
769.492	6140.42
769.828	6198.04
770.164	6156.91
770.5	6207.99
770.836	6251.83
771.171	6316.23
771.507	6298.38
771.842	6314.88
772.178	6388.55
772.513	6445.27
772.849	6402.11
773.184	6463.8
773.519	6508.54
773.855	6451.82
774.19	6462.44
774.525	6449.11
774.86	6509.67
775.195	6543.12
775.53	6576.56
775.865	6610.91
776.2	6584.47
776.535	6568.65
776.87	6628.54
777.205	6586.96
777.539	6655.66
777.874	6709.22
778.209	6731.14
778.543	6698.82
778.878	6687.3
779.212	6623.79
779.547	6732.04
779.881	6744.7
780.215	6755.99
780.55	6716.45
780.884	6749.22
781.218	6792.6
781.552	6768.2
781.886	6832.15
782.22	6759.61
782.554	6727.29
782.888	6727.52
783.222	6784.02
783.556	6735.88
783.889	6838.93
784.223	6771.36
784.557	6723.23
784.89	6707.41
785.224	6729.1
785.557	6784.47
785.891	6780.63
786.224	6780.63
786.558	6803.23
786.891	6813.17
787.224	6760.97
787.557	6760.29
787.891	6846.16
788.224	6790.8
788.557	6839.61
788.89	6768.88
789.223	6819.95
789.556	6789.89
789.888	6796.45
790.221	6795.09
790.554	6740.63
790.887	6741.53
791.219	6772.94
791.552	6747.86
791.884	6758.71
792.217	6767.29
792.549	6778.82
792.882	6727.29
793.214	6755.54
793.546	6788.54
793.879	6754.41
794.211	6746.5
794.543	6779.72
794.875	6786.73
795.207	6753.28
795.539	6733.85
795.871	6793.28
796.203	6676.45
796.535	6697.47
796.867	6723
797.198	6744.24
797.53	6668.77
797.862	6652.04
798.193	6677.58
798.525	6718.93
798.856	6623.12
799.188	6624.47
799.519	6625.15
799.85	6595.32
800.182	6592.61
800.513	6630.35
800.844	6608.43
801.175	6660.63
801.506	6629.44
801.837	6587.64
802.168	6625.6
802.499	6607.75
802.83	6536.57
803.161	6533.4
803.491	6563.46
803.822	6606.17
804.153	6541.54
804.483	6530.92
804.814	6483.69
805.145	6540.41
805.475	6478.26
805.805	6529.56
806.136	6487.53
806.466	6523.91
806.796	6466.06
807.126	6467.41
807.457	6408.21
807.787	6527.98
808.117	6432.39
808.447	6415.89
808.777	6469.45
809.107	6440.07
809.436	6394.2
809.766	6470.8
810.096	6412.5
810.426	6390.35
810.755	6429.68
811.085	6403.91
811.414	6418.38
811.744	6385.83
812.073	6399.85
812.403	6351.26
812.732	6366.17
813.061	6397.36
813.39	6327.98
813.719	6345.16
814.049	6378.83
814.378	6347.64
814.707	6362.33
815.036	6348.77
815.365	6346.74
815.693	6296.35
816.022	6277.14
816.351	6282.33
816.68	6285.05
817.008	6341.09
817.337	6249.79
817.665	6236.46
817.994	6224.48
818.322	6252.05
818.651	6235.78
818.979	6159.85
819.307	6188.78
819.636	6232.39
819.964	6231.49
820.292	6194.88
820.62	6165.95
820.948	6233.75
821.276	6213.64
821.604	6193.98
821.932	6202.34
822.259	6227.87
822.587	6254.76
822.915	6207.31
823.243	6234.2
823.57	6253.64
823.898	6252.05
824.225	6226.07
824.553	6274.65
824.88	6269.91
825.207	6294.09
825.535	6287.31
825.862	6307.42
826.189	6270.13
826.516	6300.41
826.843	6311.94
827.17	6323.69
827.497	6286.18
827.824	6279.62
828.151	6319.4
828.478	6354.88
828.805	6303.58
829.131	6352.16
829.458	6335.89
829.785	6281.66
830.111	6267.42
830.438	6356.01
830.764	6320.53
831.09	6315.33
831.417	6323.46
831.743	6351.26
832.069	6395.1
832.395	6321.88
832.722	6347.87
833.048	6322.11
833.374	6336.57
833.7	6306.29
834.026	6319.85
834.351	6371.6
834.677	6303.8
835.003	6354.88
835.329	6370.24
835.654	6291.37
835.98	6310.81
836.306	6302
836.631	6306.29
836.956	6297.48
837.282	6310.58
837.607	6248.66
837.932	6292.28
838.258	6281.43
838.583	6296.8
838.908	6284.14
839.233	6262.67
839.558	6257.7
839.883	6226.97
840.208	6265.39
840.533	6209.79
840.858	6214.99
841.182	6253.86
841.507	6250.47
841.832	6171.83
842.156	6196.69
842.481	6191.04
842.805	6126.18
843.13	6183.13
843.454	6175.67
843.778	6125.05
844.103	6152.85
844.427	6131.38
844.751	6106.29
845.075	6121.66
845.399	6091.38
845.723	6056.13
846.047	6106.52
846.371	5996.01
846.695	6001.44
847.019	5979.29
847.343	5942.46
847.666	5905.4
847.99	5894.32
848.313	5900.65
848.637	5804.16
848.96	5881.22
849.284	5883.93
849.607	5780.43
849.931	5755.34
850.254	5726.87
850.577	5722.8
850.9	5722.12
851.223	5700.2
851.546	5701.56
851.869	5676.02
852.192	5723.25
852.515	5609.58
852.838	5621.56
853.161	5615.01
853.483	5605.29
853.806	5509.47
854.129	5581.11
854.451	5575.23
854.774	5499.3
855.096	5482.36
855.419	5511.51
855.741	5500.89
856.063	5445.29
856.385	5485.97
856.708	5417.5
857.03	5405.75
857.352	5393.54
857.674	5365.97
857.996	5353.32
858.318	5356.26
858.64	5358.52
858.961	5319.2
859.283	5339.99
859.605	5286.88
859.926	5301.34
860.248	5242.59
860.57	5268.8
860.891	5276.71
861.212	5223.38
861.534	5235.36
861.855	5242.59
862.176	5234
862.498	5233.77
862.819	5270.61
863.14	5231.51
863.461	5188.8
863.782	5187.45
864.103	5176.15
864.424	5208.69
864.745	5173.21
865.065	5196.71
865.386	5139.09
865.707	5131.4
866.027	5093.89
866.348	5122.14
866.668	5106.09
866.989	5070.84
867.309	5061.35
867.63	5140.22
867.95	5056.83
868.27	5075.81
868.59	5077.39
868.91	5047.79
869.23	5020.67
869.55	4960.11
869.87	5058.41
870.19	5031.97
870.51	5021.58
870.83	5017.74
871.15	4969.15
871.469	4980.67
871.789	4995.36
872.109	5017.06
872.428	5008.7
872.748	4934.35
873.067	4989.49
873.386	4977.74
873.706	4921.47
874.025	4930.96
874.344	4884.63
874.663	4943.39
874.982	4916.95
875.301	4924.63
875.62	4930.96
875.939	4919.66
876.258	4905.2
876.577	4886.89
876.896	4888.7
877.214	4867.68
877.533	4880.34
877.852	4816.61
878.17	4812.54
878.489	4832.2
878.807	4830.85
879.125	4816.61
879.444	4817.51
879.762	4804.86
880.08	4814.35
880.398	4765.76
880.716	4803.73
881.034	4761.7
881.352	4766.89
881.67	4782.49
881.988	4702.26
882.306	4772.54
882.624	4782.49
882.941	4690.51
883.259	4717.63
883.577	4672.21
883.894	4711.08
884.212	4684.64
884.529	4684.86
884.846	4660.91
885.164	4620.01
885.481	4611.19
885.798	4625.2
886.115	4607.8
886.432	4638.76
886.75	4564.19
887.067	4530.06
887.383	4535.71
887.7	4606.67
888.017	4517.64
888.334	4540.69
888.651	4513.79
888.967	4547.47
889.284	4503.17
889.6	4511.53
889.917	4453.68
890.233	4514.02
890.55	4493
890.866	4439.9
891.182	4421.59
891.498	4435.6
891.815	4409.84
892.131	4399.9
892.447	4375.04
892.763	4360.58
893.079	4381.37
893.395	4335.27
893.71	4316.28
894.026	4306.79
894.342	4312.22
894.657	4278.77
894.973	4254.59
895.289	4244.87
895.604	4237.87
895.92	4229.96
896.235	4151.77
896.55	4204.65
896.865	4179.57
897.181	4181.6
897.496	4197.42
897.811	4140.7
898.126	4140.7
898.441	4156.29
898.756	4093.69
899.071	4091.21
899.386	4102.96
899.7	4012.11
900.015	4079
900.33	3994.49
900.644	3988.61
900.959	4032
901.273	4047.37
901.588	4002.17
901.902	3978.44
902.216	3966.92
902.531	3980.25
902.845	3963.98
903.159	3909.06
903.473	3886.24
903.787	3844.66
904.101	3837.65
904.415	3836.75
904.729	3832.23
905.042	3842.4
905.356	3811.89
905.67	3782.06
905.984	3809.86
906.297	3764.43
906.611	3761.05
906.924	3751.78
907.237	3740.03
907.551	3740.03
907.864	3674.95
908.177	3706.13
908.491	3677.66
908.804	3687.83
909.117	3661.84
909.43	3642.18
909.743	3580.94
910.056	3609.41
910.368	3573.25
910.681	3547.04
910.994	3605.34
911.307	3549.98
911.619	3549.53
911.932	3539.58
912.244	3472.92
912.557	3497.78
912.869	3447.16
913.181	3476.08
913.494	3478.11
913.806	3446.03
914.118	3433.14
914.43	3421.17
914.742	3373.48
915.054	3389.76
915.366	3418.23
915.678	3343.88
915.99	3351.34
916.302	3330.32
916.613	3314.96
916.925	3284.9
917.236	3295.97
917.548	3256.43
917.859	3284.45
918.171	3280.15
918.482	3243.54
918.794	3259.36
919.105	3224.56
919.416	3187.95
919.727	3160.83
920.038	3184.56
920.349	3143.21
920.66	3169.87
920.971	3160.61
921.282	3139.37
921.593	3087.62
921.903	3097.79
922.214	3097.56
922.525	3077.22
922.835	3090.1
923.146	3097.56
923.456	3057.11
923.767	3039.48
924.077	3053.95
924.387	3031.57
924.697	2982.53
925.008	3004.68
925.318	3026.6
925.628	2991.8
925.938	2951.8
926.248	2970.33
926.558	2913.38
926.867	2956.55
927.177	2925.13
927.487	2889.43
927.796	2921.52
928.106	2883.78
928.416	2905.25
928.725	2867.28
929.034	2862.99
929.344	2859.15
929.653	2859.6
929.962	2841.07
930.271	2788.42
930.581	2807.62
930.89	2783.9
931.199	2759.94
931.508	2775.53
931.817	2779.15
932.125	2762.88
932.434	2754.07
932.743	2734.86
933.051	2741.41
933.36	2717.46
933.669	2709.77
933.977	2670.68
934.286	2695.99
934.594	2650.57
934.902	2650.57
935.21	2631.81
935.519	2658.48
935.827	2616.44
936.135	2568.99
936.443	2624.13
936.751	2585.03
937.059	2579.16
937.367	2580.74
937.674	2551.13
937.982	2543.22
938.29	2554.52
938.597	2549.33
938.905	2555.2
939.213	2508.2
939.52	2507.97
939.827	2544.81
940.135	2507.97
940.442	2526.28
940.749	2464.36
941.056	2474.75
941.363	2419.84
941.67	2425.94
941.977	2423
942.284	2417.35
942.591	2375.77
942.898	2396.79
943.205	2424.81
943.511	2387.52
943.818	2387.52
944.125	2384.13
944.431	2335.32
944.738	2351.82
945.044	2369.67
945.35	2346.62
945.657	2314.76
945.963	2317.92
946.269	2257.81
946.575	2322.21
946.881	2298.48
947.187	2288.99
947.493	2250.35
947.799	2237.92
948.105	2231.59
948.41	2229.56
948.716	2241.99
949.022	2231.14
949.327	2220.07
949.633	2212.39
949.938	2214.42
950.244	2176.68
950.549	2143.91
950.854	2170.8
951.16	2148.88
951.465	2150.01
951.77	2167.64
952.075	2133.74
952.38	2136.91
952.685	2125.83
952.99	2116.79
953.294	2097.81
953.599	2078.15
953.904	2065.5
954.209	2064.14
954.513	2049.23
954.818	2062.78
955.122	2057.81
955.426	2067.76
955.731	2035.67
956.035	2009
956.339	2038.15
956.643	2018.49
956.948	2016.68
957.252	2010.58
957.556	2005.16
957.86	1978.04
958.163	1973.97
958.467	1985.05
958.771	1945.5
959.075	1943.92
959.378	1940.53
959.682	1950.47
959.985	1909.79
960.289	1954.54
960.592	1928.33
960.896	1901.21
961.199	1891.04
961.502	1899.17
961.805	1857.59
962.108	1866.63
962.411	1879.74
962.714	1862.56
963.017	1857.37
963.32	1859.4
963.623	1825.5
963.926	1834.09
964.228	1813.98
964.531	1842.45
964.833	1802.9
965.136	1821.66
965.438	1793.87
965.741	1793.19
966.043	1774.66
966.345	1787.09
966.648	1784.15
966.95	1765.84
967.252	1776.69
967.554	1770.82
967.856	1764.71
968.158	1717.71
968.46	1725.39
968.761	1723.81
969.063	1703.47
969.365	1706.18
969.666	1703.7
969.968	1703.92
970.269	1675
970.571	1699.63
970.872	1656.69
971.174	1669.35
971.475	1672.74
971.776	1662.34
972.077	1666.19
972.378	1669.35
972.679	1636.58
972.98	1644.72
973.281	1648.33
973.582	1640.42
973.883	1611.72
974.183	1618.73
974.484	1602.01
974.785	1597.94
975.085	1593.87
975.386	1583.48
975.686	1599.75
975.986	1551.84
976.287	1577.15
976.587	1563.36
976.887	1551.61
977.187	1586.87
977.487	1549.58
977.787	1545.51
978.087	1546.87
978.387	1521.56
978.687	1505.96
978.987	1514.32
979.286	1503.25
979.586	1518.39
979.885	1483.14
980.185	1480.88
980.484	1508.22
980.784	1498.96
981.083	1496.47
981.382	1432.07
981.682	1439.98
981.981	1462.12
982.28	1442.69
982.579	1427.77
982.878	1436.36
983.177	1394.1
983.475	1449.24
983.774	1439.75
984.073	1385.51
984.372	1405.4
984.67	1416.7
984.969	1422.8
985.267	1398.17
985.566	1416.02
985.864	1388.23
986.162	1384.16
986.461	1358.17
986.759	1373.76
987.057	1361.11
987.355	1366.31
987.653	1360.66
987.951	1348
988.249	1350.71
988.547	1330.15
988.844	1346.19
989.142	1318.4
989.44	1307.55
989.737	1330.37
990.035	1286.99
990.332	1309.13
990.63	1272.3
990.927	1298.06
991.224	1276.82
991.521	1277.95
991.819	1270.49
992.116	1267.55
992.413	1264.84
992.71	1249.25
993.006	1252.86
993.303	1268.68
993.6	1231.17
993.897	1262.81
994.193	1254.67
994.49	1237.5
994.787	1235.01
995.083	1223.71
995.379	1220.77
995.676	1184.84
995.972	1207.21
996.268	1208.57
996.565	1205.63
996.861	1182.58
997.157	1190.27
997.453	1187.1
997.749	1163.15
998.044	1141.91
998.34	1145.75
998.636	1159.08
998.932	1161.57
999.227	1137.16
999.523	1163.15
999.818	1136.93
1000.114	1120.44
1000.409	1122.24
1000.704	1136.26
1001	1115.01
1001.295	1076.37
1001.59	1098.52
1001.885	1090.61
1002.18	1087.44
1002.475	1093.09
1002.77	1081.12
1003.065	1084.28
1003.359	1070.49
1003.654	1072.75
1003.949	1066.65
1004.243	1050.38
1004.538	1069.82
1004.832	1036.6
1005.127	1062.59
1005.421	1040.21
1005.715	1026.88
1006.009	1039.99
1006.304	1040.21
1006.598	1021
1006.892	1014.9
1007.186	1011.74
1007.48	992.53
1007.773	984.17
1008.067	1000.44
1008.361	1002.93
1008.655	1001.34
1008.948	993.43
1009.242	972.19
1009.535	988.46
1009.829	962.7
1010.122	971.51
1010.415	958.63
1010.708	968.35
1011.001	905.53
1011.295	947.56
1011.588	945.07
1011.881	971.06
1012.173	934.45
1012.466	923.38
1012.759	941.01
1013.052	917.5
1013.344	896.49
1013.637	920.67
1013.93	902.14
1014.222	929.26
1014.514	868.24
1014.807	903.95
1015.099	875.47
1015.391	883.38
1015.683	880.89
1015.976	873.89
1016.268	886.77
1016.56	865.3
1016.851	861.91
1017.143	852.65
1017.435	848.81
1017.727	859.43
1018.018	829.6
1018.31	834.79
1018.602	838.41
1018.893	835.25
1019.185	828.24
1019.476	805.64
1019.767	831.86
1020.058	813.1
1020.35	795.02
1020.641	822.82
1020.932	815.36
1021.223	796.83
1021.514	794.12
1021.804	791.63
1022.095	769.26
1022.386	759.54
1022.677	781.69
1022.967	795.7
1023.258	772.2
1023.548	755.47
1023.839	751.86
1024.129	753.21
1024.419	749.37
1024.709	763.84
1025	739.66
1025.29	739.2
1025.58	748.7
1025.87	748.24
1026.16	741.92
1026.449	731.52
1026.739	724.29
1027.029	729.49
1027.319	695.59
1027.608	713.22
1027.898	712.99
1028.187	706.21
1028.477	691.52
1028.766	688.13
1029.055	710.05
1029.344	691.75
1029.634	685.19
1029.923	693.78
1030.212	689.71
1030.501	668.47
1030.79	668.25
1031.078	684.52
1031.367	674.35
1031.656	684.06
1031.945	683.16
1032.233	668.02
1032.522	640.9
1032.81	652.65
1033.099	644.06
1033.387	642.48
1033.675	654.23
1033.963	650.62
1034.251	632.99
1034.54	629.38
1034.828	635.03
1035.116	636.83
1035.403	642.03
1035.691	625.76
1035.979	625.76
1036.267	607
1036.554	609.04
1036.842	609.72
1037.129	604.52
1037.417	615.82
1037.704	611.52
1037.992	593.9
1038.279	600.22
1038.566	575.37
1038.853	575.37
1039.14	575.37
