Data from blue_surface_keyboard_FLMS001491_054.txt Node
Date: Tue Feb 07 11:13:20 GMT 2017
User: dcchb
Spectrometer: FLMS00149
Trigger mode: 0
Integration Time (sec): 2.000000E-2
Scans to average: 10
Electric dark correction enabled: true
Nonlinearity correction enabled: false
Boxcar width: 0
XAxis mode: Wavelengths
Number of Pixels in Spectrum: 2048
>>>>>Begin Spectral Data<<<<<
341.393	-13.88
341.776	-13.88
342.16	-13.88
342.543	-45.52
342.927	-74.67
343.31	-90.27
343.693	-52.3
344.077	-62.24
344.46	-72.87
344.843	-61.34
345.226	-37.16
345.61	-47.1
345.993	-34.45
346.376	9.62
346.759	6.45
347.142	43.74
347.525	60.24
347.908	63.18
348.291	79
348.674	76.28
349.057	119.22
349.44	128.71
349.823	150.63
350.206	146.79
350.588	172.1
350.971	204.87
351.354	202.38
351.737	208.94
352.119	241.02
352.502	238.54
352.884	267.46
353.267	256.84
353.65	249.84
354.032	276.28
354.414	272.89
354.797	278.76
355.179	289.16
355.562	317.86
355.944	297.52
356.326	322.6
356.709	309.27
357.091	315.37
357.473	319.21
357.855	302.49
358.238	317.18
358.62	321.93
359.002	315.6
359.384	316.5
359.766	312.44
360.148	302.27
360.53	311.98
360.912	301.14
361.294	290.97
361.676	320.57
362.057	317.86
362.439	291.42
362.821	307.69
363.203	302.49
363.584	282.83
363.966	323.96
364.348	314.02
364.729	304.75
365.111	298.42
365.493	309.95
365.874	299.55
366.256	312.44
366.637	284.41
367.019	280.8
367.4	266.79
367.781	292.32
368.163	302.94
368.544	271.53
368.925	271.76
369.306	290.29
369.688	292.1
370.069	283.96
370.45	302.49
370.831	302.49
371.212	286
371.593	297.97
371.974	286.22
372.355	279.44
372.736	278.31
373.117	296.39
373.498	280.12
373.879	293.9
374.26	293.23
374.641	294.81
375.021	287.35
375.402	304.98
375.783	284.87
376.163	290.97
376.544	284.41
376.925	294.58
377.305	304.53
377.686	297.97
378.066	270.63
378.447	292.1
378.827	299.78
379.208	305.2
379.588	294.13
379.968	308.37
380.349	288.48
380.729	317.18
381.109	281.48
381.489	303.17
381.87	307.24
382.25	313.57
382.63	289.84
383.01	294.58
383.39	292.77
383.77	323.73
384.15	310.63
384.53	305.2
384.91	300.91
385.29	308.59
385.67	294.36
386.049	322.83
386.429	307.92
386.809	313.57
387.189	311.98
387.568	315.83
387.948	318.08
388.328	302.94
388.707	315.6
389.087	311.53
389.466	320.8
389.846	316.73
390.225	321.93
390.605	316.5
390.984	319.44
391.363	321.02
391.743	333.23
392.122	331.87
392.501	313.57
392.881	338.42
393.26	332.55
393.639	334.36
394.018	330.97
394.397	307.69
394.776	345.65
395.155	312.66
395.534	342.72
395.913	332.55
396.292	345.43
396.671	338.2
397.05	326.67
397.429	335.26
397.808	337.07
398.186	326.67
398.565	325.99
398.944	329.38
399.323	320.12
399.701	330.51
400.08	332.32
400.458	333.9
400.837	349.72
401.215	342.94
401.594	340.23
401.972	330.97
402.351	337.52
402.729	348.59
403.107	351.76
403.486	354.24
403.864	348.37
404.242	347.69
404.62	344.3
404.999	371.19
405.377	368.03
405.755	361.47
406.133	356.95
406.511	358.99
406.889	370.96
407.267	368.93
407.645	363.73
408.023	372.09
408.401	364.19
408.779	351.53
409.156	341.14
409.534	361.02
409.912	367.12
410.29	365.54
410.667	373.45
411.045	368.7
411.422	371.64
411.8	378.42
412.178	384.98
412.555	381.13
412.933	382.94
413.31	364.19
413.687	385.2
414.065	377.07
414.442	393.56
414.819	387.01
415.197	377.07
415.574	401.25
415.951	391.3
416.328	382.26
416.705	380
417.082	384.3
417.46	405.77
417.837	416.84
418.214	389.95
418.591	387.91
418.967	408.03
419.344	407.57
419.721	391.3
420.098	408.25
420.475	394.69
420.852	415.03
421.228	409.61
421.605	387.46
421.982	399.66
422.358	431.3
422.735	412.32
423.111	423.62
423.488	421.36
423.864	419.1
424.241	429.72
424.617	420.23
424.994	416.39
425.37	400.34
425.746	429.95
426.123	426.1
426.499	435.6
426.875	407.12
427.251	411.19
427.627	438.08
428.003	441.92
428.379	439.21
428.756	473.56
429.132	436.95
429.507	463.84
429.883	451.19
430.259	450.74
430.635	468.82
431.011	470.17
431.387	457.97
431.763	475.59
432.138	463.84
432.514	460.91
432.89	476.27
433.265	448.48
433.641	483.28
434.016	472.66
434.392	480.34
434.767	486.44
435.143	492.54
435.518	483.28
435.894	482.6
436.269	489.15
436.644	490.06
437.02	507.91
437.395	499.1
437.77	501.58
438.145	501.13
438.52	499.32
438.895	503.62
439.271	495.48
439.646	531.19
440.021	522.6
440.395	513.11
440.77	509.27
441.145	530.06
441.52	514.46
441.895	518.76
442.27	520.34
442.645	520.57
443.019	532.09
443.394	527.12
443.769	537.29
444.143	520.11
444.518	524.63
444.892	532.54
445.267	564.63
445.641	530.73
446.016	538.64
446.39	554.69
446.764	562.15
447.139	536.84
447.513	538.64
447.887	564.41
448.262	576.38
448.636	553.33
449.01	562.6
449.384	557.63
449.758	564.18
450.132	570.51
450.506	584.74
450.88	570.73
451.254	549.04
451.628	575.93
452.002	581.81
452.376	571.19
452.75	579.77
453.123	590.62
453.497	602.82
453.871	598.76
454.244	580.22
454.618	579.55
454.992	605.53
455.365	600.34
455.739	587.91
456.112	594.46
456.486	613.67
456.859	623.16
457.232	604.86
457.606	630.84
457.979	636.95
458.352	654.35
458.725	647.79
459.099	632.2
459.472	651.18
459.845	654.8
460.218	638.98
460.591	673.1
460.964	658.87
461.337	653.44
461.71	674.91
462.083	673.1
462.456	676.72
462.829	684.18
463.201	683.05
463.574	686.89
463.947	697.74
464.32	689.15
464.692	701.35
465.065	697.96
465.438	707.91
465.81	730.5
466.183	734.8
466.555	714.91
466.928	718.98
467.3	737.06
467.672	742.25
468.045	762.37
468.417	754.01
468.789	755.59
469.161	777.96
469.534	776.6
469.906	799.65
470.278	800.78
470.65	786.32
471.022	796.26
471.394	804.17
471.766	791.29
472.138	817.73
472.51	837.39
472.882	813.21
473.253	826.55
473.625	846.88
473.997	863.16
474.369	857.73
474.74	868.58
475.112	856.83
475.484	877.84
475.855	862.25
476.227	878.75
476.598	900.67
476.97	927.33
477.341	902.48
477.713	929.82
478.084	918.75
478.455	945.86
478.827	947.22
479.198	949.48
479.569	964.85
479.94	984.51
480.311	1005.98
480.682	992.87
481.053	1010.95
481.424	1025.86
481.795	1011.17
482.166	1044.39
482.537	1045.52
482.908	1074
483.279	1065.86
483.65	1078.74
484.021	1097.95
484.391	1085.52
484.762	1103.15
485.133	1094.79
485.503	1088.69
485.874	1104.96
486.244	1128.23
486.615	1155.8
486.985	1142.92
487.356	1147.67
487.726	1154.45
488.097	1172.75
488.467	1181.11
488.837	1174.79
489.207	1209.81
489.578	1192.86
489.948	1224.73
490.318	1246.2
490.688	1227.89
491.058	1243.03
491.428	1270.38
491.798	1253.65
492.168	1253.43
492.538	1302.01
492.908	1268.79
493.278	1273.31
493.648	1264.27
494.017	1288.23
494.387	1301.34
494.757	1333.65
495.126	1299.53
495.496	1312.63
495.866	1332.97
496.235	1325.29
496.605	1339.3
496.974	1329.81
497.344	1363.71
497.713	1368.23
498.082	1364.84
498.452	1349.92
498.821	1372.52
499.19	1344.5
499.559	1370.71
499.928	1380.88
500.298	1383.59
500.667	1370.94
501.036	1409.58
501.405	1370.03
501.774	1377.04
502.143	1390.83
502.512	1414.78
502.88	1416.81
503.249	1396.25
503.618	1410.71
503.987	1418.62
504.356	1405.74
504.724	1445.06
505.093	1412.97
505.462	1410.71
505.83	1416.59
506.199	1411.39
506.567	1424.04
506.936	1418.17
507.304	1439.64
507.672	1423.82
508.041	1456.13
508.409	1426.76
508.777	1440.32
509.145	1470.14
509.514	1438.28
509.882	1453.42
510.25	1461.11
510.618	1464.04
510.986	1488
511.354	1487.09
511.722	1486.64
512.09	1498.84
512.458	1495.23
512.826	1481.67
513.193	1502.69
513.561	1500.65
513.929	1481.67
514.297	1504.49
514.664	1509.47
515.032	1507.66
515.4	1497.71
515.767	1516.7
516.135	1515.57
516.502	1509.92
516.869	1510.82
517.237	1535.91
517.604	1519.86
517.972	1538.17
518.339	1526.41
518.706	1544.04
519.073	1533.42
519.44	1539.75
519.808	1517.83
520.175	1536.36
520.542	1540.88
520.909	1564.83
521.276	1551.05
521.643	1553.08
522.009	1566.64
522.376	1597.37
522.743	1556.47
523.11	1565.51
523.477	1589.69
523.843	1579.75
524.21	1583.14
524.577	1598.73
524.943	1566.19
525.31	1588.33
525.676	1611.84
526.043	1607.54
526.409	1610.48
526.776	1613.42
527.142	1612.06
527.508	1651.84
527.874	1643.02
528.241	1615.68
528.607	1626.07
528.973	1635.34
529.339	1639.18
529.705	1631.27
530.071	1629.01
530.437	1638.73
530.803	1675.79
531.169	1646.86
531.535	1680.08
531.901	1650.48
532.267	1646.19
532.632	1665.17
532.998	1673.76
533.364	1660.42
533.73	1659.74
534.095	1659.52
534.461	1638.95
534.826	1687.99
535.192	1666.52
535.557	1676.69
535.923	1671.72
536.288	1671.5
536.653	1716.69
537.019	1663.36
537.384	1703.13
537.749	1681.66
538.114	1660.2
538.479	1656.58
538.845	1699.29
539.21	1694.77
539.575	1672.17
539.94	1689.57
540.305	1722.79
540.67	1685.05
541.034	1725.51
541.399	1678.95
541.764	1681.44
542.129	1679.4
542.494	1685.28
542.858	1707.88
543.223	1692.51
543.587	1687.54
543.952	1711.27
544.316	1709.91
544.681	1687.54
545.045	1724.6
545.41	1695.9
545.774	1733.19
546.138	1721.66
546.503	1712.17
546.867	1704.94
547.231	1713.3
547.595	1748.1
547.959	1713.75
548.324	1714.88
548.688	1690.7
549.052	1702.46
549.416	1727.99
549.779	1727.09
550.143	1739.74
550.507	1721.21
550.871	1742.23
551.235	1734.32
551.599	1727.99
551.962	1733.19
552.326	1725.96
552.689	1742
553.053	1708.33
553.417	1755.11
553.78	1756.47
554.143	1753.08
554.507	1750.59
554.87	1736.8
555.234	1750.36
555.597	1728.22
555.96	1767.99
556.323	1750.36
556.686	1751.04
557.05	1759.63
557.413	1802.11
557.776	1737.26
558.139	1737.26
558.502	1776.35
558.865	1755.34
559.228	1764.15
559.59	1756.01
559.953	1776.8
560.316	1793.75
560.679	1800.31
561.041	1801.66
561.404	1786.97
561.767	1808.44
562.129	1785.84
562.492	1810.25
562.854	1783.36
563.217	1770.48
563.579	1793.3
563.941	1798.95
564.304	1794.43
564.666	1827.65
565.028	1786.07
565.39	1803.7
565.753	1815.9
566.115	1824.49
566.477	1804.83
566.839	1803.92
567.201	1861.1
567.563	1833.3
567.925	1828.55
568.287	1826.75
568.648	1823.36
569.01	1841.43
569.372	1828.33
569.734	1812.96
570.095	1855.45
570.457	1869.68
570.819	1878.27
571.18	1851.38
571.542	1860.19
571.903	1875.11
572.265	1857.71
572.626	1860.42
572.987	1845.28
573.349	1910.81
573.71	1908.78
574.071	1892.96
574.432	1859.74
574.794	1909
575.155	1915.11
575.516	1904.71
575.877	1889.57
576.238	1902.9
576.599	1896.12
576.96	1903.58
577.32	1896.35
577.681	1915.56
578.042	1887.99
578.403	1881.89
578.763	1927.99
579.124	1929.12
579.485	1920.08
579.845	1911.04
580.206	1928.66
580.566	1926.63
580.927	1925.95
581.287	1900.87
581.648	1924.6
582.008	1895.9
582.368	1931.83
582.728	1907.2
583.089	1935.9
583.449	1913.07
583.809	1946.29
584.169	1943.58
584.529	1890.7
584.889	1920.08
585.249	1937.03
585.609	1899.29
585.969	1949.68
586.329	1956.23
586.688	1914.88
587.048	1933.64
587.408	1920.3
587.768	1896.35
588.127	1930.92
588.487	1918.49
588.846	1940.87
589.206	1914.43
589.565	1934.31
589.925	1964.6
590.284	1935.22
590.643	1927.99
591.003	1925.27
591.362	1936.57
591.721	1970.02
592.08	1938.16
592.44	1940.64
592.799	1989.23
593.158	1903.58
593.517	1947.19
593.876	1932.51
594.235	1933.41
594.593	1942.45
594.952	1937.48
595.311	1949.23
595.67	1948.55
596.029	1946.29
596.387	1975.22
596.746	1928.44
597.104	1961.43
597.463	1939.06
597.822	1965.95
598.18	1962.11
598.538	1972.5
598.897	1986.52
599.255	1953.52
599.613	1982
599.972	1996.23
600.33	1974.31
600.688	1979.06
601.046	1974.54
601.404	1981.77
601.762	1957.36
602.12	1990.58
602.478	1973.63
602.836	1990.13
603.194	1968.44
603.552	1992.17
603.91	1962.34
604.268	1999.85
604.625	2010.24
604.983	1986.74
605.341	1970.24
605.698	2014.99
606.056	2040.07
606.413	1996.46
606.771	1996.23
607.128	2006.85
607.485	2005.95
607.843	2027.42
608.2	2058.38
608.557	2050.47
608.914	2063.35
609.272	2023.8
609.629	2014.99
609.986	2026.06
610.343	2029.45
610.7	2050.02
611.057	2051.15
611.414	2025.84
611.771	2072.61
612.127	2061.32
612.484	2050.69
612.841	2021.77
613.198	2069.9
613.554	2057.7
613.911	2090.47
614.267	2075.55
614.624	2064.48
614.98	2082.56
615.337	2074.2
615.693	2052.05
616.05	2090.02
616.406	2105.61
616.762	2076.68
617.118	2101.09
617.475	2054.99
617.831	2106.06
618.187	2115.55
618.543	2111.48
618.899	2104.7
619.255	2076.91
619.611	2092.73
619.967	2126.85
620.323	2140.18
620.678	2124.59
621.034	2118.49
621.39	2131.37
621.746	2091.37
622.101	2133.18
622.457	2136.12
622.812	2112.39
623.168	2132.5
623.523	2143.12
623.879	2162.1
624.234	2146.74
624.589	2133.63
624.945	2154.87
625.3	2167.3
625.655	2167.3
626.01	2175.89
626.365	2155.55
626.72	2147.42
627.075	2168.88
627.43	2184.7
627.785	2175.44
628.14	2156.91
628.495	2195.55
628.85	2181.54
629.205	2161.65
629.559	2214.98
629.914	2195.55
630.269	2210.01
630.623	2207.3
630.978	2202.78
631.332	2214.08
631.687	2219.73
632.041	2245.72
632.396	2228.77
632.75	2205.72
633.104	2217.7
633.459	2238.94
633.813	2231.71
634.167	2213.85
634.521	2240.97
634.875	2260.63
635.229	2267.41
635.583	2248.2
635.937	2252.5
636.291	2250.92
636.645	2261.54
636.999	2285.94
637.352	2275.32
637.706	2299.28
638.06	2306.51
638.413	2292.95
638.767	2275.77
639.121	2291.59
639.474	2266.06
639.828	2312.83
640.181	2291.37
640.534	2310.12
640.888	2312.83
641.241	2291.37
641.594	2338.82
641.947	2332.95
642.301	2315.77
642.654	2340.4
643.007	2317.13
643.36	2351.25
643.713	2336.34
644.066	2391.25
644.419	2363.68
644.771	2358.03
645.124	2349.9
645.477	2348.77
645.83	2352.83
646.182	2347.64
646.535	2315.55
646.888	2369.33
647.24	2388.09
647.593	2368.43
647.945	2371.36
648.298	2345.15
648.65	2398.71
649.002	2402.78
649.355	2419.72
649.707	2395.32
650.059	2439.84
650.411	2440.06
650.763	2466.95
651.115	2505.15
651.467	2479.16
651.819	2509.89
652.171	2507.41
652.523	2547.86
652.875	2513.73
653.227	2577.69
653.578	2582.88
653.93	2574.07
654.282	2586.05
654.633	2572.94
654.985	2581.98
655.337	2579.04
655.688	2635.76
656.039	2629.21
656.391	2601.19
656.742	2638.02
657.094	2655.42
657.445	2659.27
657.796	2686.16
658.147	2664.46
658.498	2704.46
658.849	2709.43
659.2	2719.83
659.551	2720.51
659.902	2730.45
660.253	2788.75
660.604	2746.5
660.955	2767.74
661.306	2775.87
661.656	2806.61
662.007	2825.14
662.358	2827.17
662.708	2810.22
663.059	2836.44
663.409	2828.53
663.76	2850
664.11	2894.06
664.461	2913.04
664.811	2903.55
665.161	2945.81
665.511	2957.11
665.862	2945.13
666.212	2946.04
666.562	3010.9
666.912	3007.28
667.262	3005.92
667.612	3011.35
667.962	3013.61
668.312	3039.82
668.662	3062.42
669.011	3071.01
669.361	3091.57
669.711	3078.46
670.06	3124.34
670.41	3115.07
670.76	3133.15
671.109	3145.81
671.459	3172.47
671.808	3193.94
672.157	3193.72
672.507	3189.87
672.856	3179.03
673.205	3237.78
673.554	3210.89
673.904	3249.99
674.253	3287.27
674.602	3275.75
674.951	3246.82
675.3	3278.23
675.649	3310.32
675.998	3281.85
676.346	3345.58
676.695	3334.73
677.044	3339.02
677.393	3384.67
677.741	3420.15
678.09	3386.7
678.438	3398.46
678.787	3402.3
679.135	3412.01
679.484	3395.07
679.832	3421.96
680.181	3405.01
680.529	3487.95
680.877	3446.59
681.225	3488.17
681.573	3477.55
681.922	3502.18
682.27	3492.24
682.618	3527.72
682.966	3526.36
683.314	3530.66
683.661	3542.41
684.009	3522.29
684.357	3502.41
684.705	3501.28
685.053	3567.72
685.4	3531.79
685.748	3576.3
686.095	3623.76
686.443	3574.5
686.79	3561.16
687.138	3606.59
687.485	3585.8
687.832	3638.22
688.18	3673.93
688.527	3587.6
688.874	3610.88
689.221	3614.04
689.568	3608.17
689.915	3638.9
690.262	3623.53
690.609	3646.36
690.956	3701.72
691.303	3639.58
691.65	3624.44
691.997	3641.39
692.344	3679.13
692.69	3645.45
693.037	3640.71
693.383	3689.07
693.73	3655.17
694.077	3673.48
694.423	3676.19
694.769	3686.81
695.116	3710.31
695.462	3663.99
695.808	3675.06
696.155	3658.34
696.501	3673.48
696.847	3679.8
697.193	3666.25
697.539	3708.96
697.885	3649.3
698.231	3664.44
698.577	3665.57
698.923	3678.45
699.269	3647.71
699.614	3640.48
699.96	3672.12
700.306	3664.44
700.651	3648.17
700.997	3620.37
701.342	3639.58
701.688	3627.83
702.033	3630.99
702.379	3687.26
702.724	3630.99
703.069	3652.01
703.415	3628.96
703.76	3623.08
704.105	3605
704.45	3607.94
704.795	3599.35
705.14	3589.41
705.485	3598.45
705.83	3581.5
706.175	3589.64
706.52	3588.51
706.865	3572.91
707.209	3585.8
707.554	3615.4
707.899	3578.79
708.243	3572.46
708.588	3564.1
708.932	3579.24
709.277	3571.11
709.621	3552.35
709.966	3546.93
710.31	3561.62
710.654	3546.02
710.998	3550.77
711.342	3541.05
711.687	3556.64
712.031	3550.09
712.375	3527.94
712.719	3550.99
713.063	3538.11
713.407	3544.67
713.75	3565.46
714.094	3534.05
714.438	3525.46
714.782	3553.71
715.125	3540.6
715.469	3567.49
715.812	3532.92
716.156	3541.95
716.499	3511
716.843	3538.57
717.186	3492.01
717.53	3539.24
717.873	3548.51
718.216	3558.45
718.559	3591.22
718.902	3497.66
719.246	3524.33
719.589	3514.84
719.932	3486.59
720.275	3573.59
720.617	3472.35
720.96	3492.01
721.303	3523.65
721.646	3510.54
721.989	3524.78
722.331	3504.22
722.674	3514.84
723.016	3515.97
723.359	3536.31
723.701	3531.33
724.044	3531.79
724.386	3509.87
724.729	3535.63
725.071	3510.32
725.413	3527.27
725.755	3547.6
726.097	3529.53
726.439	3515.74
726.782	3521.16
727.124	3524.55
727.465	3530.66
727.807	3515.51
728.149	3530.43
728.491	3515.51
728.833	3561.39
729.175	3538.79
729.516	3512.13
729.858	3547.15
730.199	3513.93
730.541	3502.63
730.882	3521.39
731.224	3538.79
731.565	3545.34
731.906	3548.73
732.248	3544.67
732.589	3518.45
732.93	3526.59
733.271	3541.5
733.612	3568.62
733.953	3544.21
734.294	3549.64
734.635	3494.72
734.976	3553.93
735.317	3539.24
735.658	3574.27
735.999	3597.55
736.339	3591.22
736.68	3604.33
737.021	3607.04
737.361	3630.09
737.702	3616.3
738.042	3620.82
738.383	3587.38
738.723	3591.45
739.063	3607.49
739.404	3601.61
739.744	3675.96
740.084	3639.58
740.424	3670.09
740.764	3595.51
741.104	3659.69
741.444	3631.67
741.784	3693.59
742.124	3636.87
742.464	3675.28
742.804	3640.26
743.143	3720.71
743.483	3701.95
743.823	3702.63
744.162	3682.06
744.502	3742.85
744.841	3721.16
745.181	3782.4
745.52	3743.53
745.86	3790.08
746.199	3789.41
746.538	3779.69
746.877	3828.95
747.216	3828.73
747.556	3882.51
747.895	3863.75
748.234	3850.42
748.573	3876.86
748.911	3858.56
749.25	3914.6
749.589	3883.19
749.928	3918.89
750.267	3919.12
750.605	3997.54
750.944	3979.68
751.283	3986.46
751.621	4021.49
751.96	4016.07
752.298	4040.7
752.636	4058.33
752.975	4025.11
753.313	4097.42
753.651	4087.48
753.989	4186.23
754.327	4144.2
754.666	4160.47
755.004	4217.19
755.342	4211.54
755.679	4207.02
756.017	4228.94
756.355	4257.42
756.693	4296.51
757.031	4285.66
757.368	4313.46
757.706	4296.06
758.044	4304.65
758.381	4331.54
758.719	4356.62
759.056	4387.36
759.394	4359.11
759.731	4372.89
760.068	4377.19
760.405	4421.71
760.743	4465.32
761.08	4413.8
761.417	4463.06
761.754	4468.94
762.091	4510.52
762.428	4461.25
762.765	4479.56
763.102	4505.32
763.438	4537.86
763.775	4488.37
764.112	4512.1
764.449	4530.86
764.785	4536.96
765.122	4489.05
765.458	4505.32
765.795	4504.42
766.131	4555.49
766.467	4486.79
766.804	4526.11
767.14	4535.15
767.476	4493.79
767.812	4485.66
768.148	4529.5
768.485	4518.43
768.821	4485.66
769.157	4523.85
769.492	4555.94
769.828	4554.58
770.164	4511.87
770.5	4502.38
770.836	4474.36
771.171	4470.74
771.507	4491.31
771.842	4486.11
772.178	4476.17
772.513	4495.83
772.849	4538.09
773.184	4468.26
773.519	4497.18
773.855	4475.49
774.19	4452.89
774.525	4405.89
774.86	4438.65
775.195	4449.05
775.53	4414.25
775.865	4413.34
776.2	4393.68
776.535	4343.74
776.87	4383.74
777.205	4364.53
777.539	4350.52
777.874	4349.62
778.209	4315.27
778.543	4309.17
778.878	4347.36
779.212	4310.97
779.547	4286.12
779.881	4294.7
780.215	4253.57
780.55	4307.58
780.884	4255.83
781.218	4242.5
781.552	4263.97
781.886	4211.09
782.22	4193.69
782.554	4219.45
782.888	4140.81
783.222	4201.6
783.556	4127.25
783.889	4113.47
784.223	4130.87
784.557	4079.79
784.89	4124.31
785.224	4131.77
785.557	4104.88
785.891	4140.36
786.224	4138.32
786.558	4083.41
786.891	4042.51
787.224	4020.59
787.557	4023.52
787.891	3967.25
788.224	4015.84
788.557	4005.67
788.89	4007.03
789.223	3963.86
789.556	3967.03
789.888	3966.35
790.221	3969.97
790.554	3894.04
790.887	3951.66
791.219	3917.54
791.552	3875.05
791.884	3896.97
792.217	3858.1
792.549	3843.19
792.882	3828.05
793.214	3818.11
793.546	3849.74
793.879	3834.83
794.211	3808.16
794.543	3818.11
794.875	3802.29
795.207	3773.81
795.539	3777.43
795.871	3810.87
796.203	3751.44
796.535	3725.23
796.867	3737.66
797.198	3747.37
797.53	3757.54
797.862	3659.92
798.193	3668.05
798.525	3662.4
798.856	3687.26
799.188	3629.86
799.519	3658.11
799.85	3613.82
800.182	3636.87
800.513	3638.68
800.844	3585.34
801.175	3580.15
801.506	3562.52
801.837	3605.91
802.168	3559.81
802.499	3543.99
802.83	3559.81
803.161	3502.86
803.491	3532.46
803.822	3560.94
804.153	3531.79
804.483	3469.87
804.814	3497.66
805.145	3501.05
805.475	3475.97
805.805	3450.21
806.136	3482.3
806.466	3455.63
806.796	3489.53
807.126	3441.62
807.457	3421.28
807.787	3427.38
808.117	3436.42
808.447	3361.17
808.777	3400.04
809.107	3407.27
809.436	3407.5
809.766	3375.41
810.096	3387.61
810.426	3389.87
810.755	3318.68
811.085	3367.04
811.414	3355.07
811.744	3320.49
812.073	3367.27
812.403	3371.34
812.732	3298.8
813.061	3294.96
813.39	3287.05
813.719	3294.05
814.049	3320.72
814.378	3264.22
814.707	3277.33
815.036	3244.11
815.365	3268.97
815.693	3245.24
816.022	3238.23
816.351	3244.11
816.68	3198.46
817.008	3271.23
817.337	3188.52
817.665	3178.35
817.994	3215.64
818.322	3225.13
818.651	3193.26
818.979	3182.87
819.307	3188.07
819.636	3181.96
819.964	3123.21
820.292	3204.56
820.62	3143.77
820.948	3131.57
821.276	3175.64
821.604	3187.16
821.932	3202.75
822.259	3160.5
822.587	3149.65
822.915	3150.78
823.243	3142.64
823.57	3147.16
823.898	3128.86
824.225	3151.23
824.553	3162.98
824.88	3115.3
825.207	3133.6
825.535	3160.72
825.862	3119.14
826.189	3165.92
826.516	3160.72
826.843	3149.87
827.17	3158.46
827.497	3177.67
827.824	3144.23
828.151	3142.87
828.478	3132.25
828.805	3160.72
829.131	3113.49
829.458	3157.78
829.785	3136.77
830.111	3162.98
830.438	3150.1
830.764	3170.44
831.09	3138.8
831.417	3107.84
831.743	3136.77
832.069	3093.83
832.395	3127.28
832.722	3143.55
833.048	3143.77
833.374	3155.07
833.7	3095.19
834.026	3112.81
834.351	3126.6
834.677	3115.75
835.003	3112.14
835.329	3145.58
835.654	3077.79
835.98	3107.16
836.306	3084.34
836.631	3080.95
836.956	3119.59
837.282	3119.82
837.607	3059.48
837.932	3100.38
838.258	3061.97
838.583	3038.47
838.908	3089.99
839.233	3038.01
839.558	3031.01
839.883	3046.83
840.208	3044.79
840.533	3071.46
840.858	3059.03
841.182	3056.54
841.507	3016.09
841.832	3040.27
842.156	3035.3
842.481	3016.54
842.805	2984.46
843.13	3016.09
843.454	3011.35
843.778	2965.02
844.103	2981.07
844.427	2967.96
844.751	3010.9
845.075	2961.63
845.399	2966.83
845.723	2942.65
846.047	2918.92
846.371	2976.32
846.695	2906.49
847.019	2927.28
847.343	2940.16
847.666	2878.02
847.99	2910.79
848.313	2872.82
848.637	2841.41
848.96	2856.32
849.284	2820.84
849.607	2821.75
849.931	2816.1
850.254	2801.64
850.577	2817.45
850.9	2764.35
851.223	2777.23
851.546	2752.6
851.869	2745.59
852.192	2781.52
852.515	2751.47
852.838	2746.27
853.161	2734.29
853.483	2715.99
853.806	2719.15
854.129	2703.11
854.451	2728.64
854.774	2701.07
855.096	2658.81
855.419	2704.69
855.741	2653.16
856.063	2641.19
856.385	2663.11
856.708	2640.74
857.03	2605.71
857.352	2648.87
857.674	2628.98
857.996	2610.45
858.318	2586.27
858.64	2608.19
858.961	2604.58
859.283	2563
859.605	2575.65
859.926	2583.34
860.248	2558.93
860.57	2547.63
860.891	2564.58
861.212	2537.01
861.534	2559.61
861.855	2571.81
862.176	2586.27
862.498	2555.99
862.819	2518.48
863.14	2532.04
863.461	2505.82
863.782	2530
864.103	2530.91
864.424	2490.68
864.745	2525.71
865.065	2491.59
865.386	2491.59
865.707	2516.67
866.027	2506.73
866.348	2504.69
866.668	2462.89
866.989	2468.76
867.309	2459.72
867.63	2494.98
867.95	2467.18
868.27	2428.76
868.59	2458.14
868.91	2458.82
869.23	2481.87
869.55	2489.55
869.87	2462.89
870.19	2463.79
870.51	2451.59
870.83	2472.6
871.15	2431.48
871.469	2438.26
871.789	2427.86
872.109	2461.98
872.428	2392.38
872.748	2430.35
873.067	2419.27
873.386	2406.84
873.706	2384.25
874.025	2416.33
874.344	2407.52
874.663	2398.26
874.982	2372.27
875.301	2397.58
875.62	2430.12
875.939	2403.91
876.258	2397.13
876.577	2365.49
876.896	2382.89
877.214	2355.32
877.533	2366.62
877.852	2391.25
878.17	2415.66
878.489	2401.19
878.807	2372.04
879.125	2375.88
879.444	2372.27
879.762	2345.15
880.08	2348.77
880.398	2322.78
880.716	2351.7
881.034	2336.56
881.352	2341.99
881.67	2321.87
881.988	2349.22
882.306	2342.21
882.624	2318.03
882.941	2323.23
883.259	2268.99
883.577	2293.85
883.894	2325.26
884.212	2302.67
884.529	2312.16
884.846	2290.01
885.164	2268.77
885.481	2281.42
885.798	2263.8
886.115	2270.8
886.432	2227.87
886.75	2267.41
887.067	2252.72
887.383	2218.6
887.7	2258.37
888.017	2243.23
888.334	2230.35
888.651	2236.45
888.967	2242.78
889.284	2213.63
889.6	2186.51
889.917	2211.37
890.233	2219.73
890.55	2231.25
890.866	2190.13
891.182	2198.26
891.498	2163.91
891.815	2174.08
892.131	2199.39
892.447	2165.95
892.763	2158.71
893.079	2168.43
893.395	2115.55
893.71	2120.3
894.026	2114.87
894.342	2138.15
894.657	2136.57
894.973	2102.22
895.289	2104.93
895.604	2104.25
895.92	2131.6
896.235	2109.9
896.55	2089.34
896.865	2078.94
897.181	2071.26
897.496	2083.69
897.811	2097.7
898.126	2051.37
898.441	2052.95
898.756	2059.96
899.071	2081.65
899.386	2029.23
899.7	2016.8
900.015	2028.32
900.33	2016.57
900.644	2036.23
900.959	2026.06
901.273	2014.99
901.588	2020.86
901.902	1995.1
902.216	1981.77
902.531	1990.36
902.845	1982
903.159	1962.11
903.473	1969.34
903.787	1940.19
904.101	1939.29
904.415	1918.49
904.729	1923.92
905.042	1918.27
905.356	1940.87
905.67	1951.04
905.984	1926.4
906.297	1941.09
906.611	1889.57
906.924	1927.31
907.237	1893.41
907.551	1879.85
907.864	1864.03
908.177	1880.08
908.491	1883.47
908.804	1862.45
909.117	1871.94
909.43	1847.54
909.743	1851.38
910.056	1855.67
910.368	1850.25
910.681	1809.57
910.994	1836.24
911.307	1823.13
911.619	1803.02
911.932	1838.5
912.244	1804.15
912.557	1805.28
912.869	1785.39
913.181	1804.6
913.494	1785.84
913.806	1776.35
914.118	1767.09
914.43	1767.09
914.742	1746.52
915.054	1769.35
915.366	1752.85
915.678	1744.04
915.99	1751.04
916.302	1721.89
916.613	1711.04
916.925	1728.9
917.236	1706.75
917.548	1709.23
917.859	1718.95
918.171	1680.53
918.482	1702
918.794	1666.98
919.105	1694.55
919.416	1653.42
919.727	1685.28
920.038	1648.9
920.349	1644.38
920.66	1650.25
920.971	1645.73
921.282	1646.86
921.593	1649.35
921.903	1627.2
922.214	1595.34
922.525	1621.1
922.835	1617.94
923.146	1585.4
923.456	1584.27
923.767	1582.91
924.077	1604.38
924.387	1545.85
924.697	1559.86
925.008	1544.04
925.318	1540.43
925.628	1539.52
925.938	1572.06
926.248	1553.31
926.558	1513.08
926.867	1520.54
927.177	1530.93
927.487	1514.89
927.796	1527.32
928.106	1520.77
928.416	1496.13
928.725	1525.06
929.034	1492.52
929.344	1517.6
929.653	1499.52
929.962	1516.47
930.271	1466.08
930.581	1503.59
930.89	1464.04
931.199	1483.93
931.508	1476.7
931.817	1460.2
932.125	1465.85
932.434	1449.58
932.743	1447.77
933.051	1433.99
933.36	1452.07
933.669	1428.34
933.977	1436.7
934.286	1397.15
934.594	1411.16
934.902	1418.62
935.21	1417.26
935.519	1370.49
935.827	1389.7
936.135	1371.62
936.443	1396.47
936.751	1363.26
937.059	1389.47
937.367	1357.83
937.674	1371.84
937.982	1356.25
938.29	1367.1
938.597	1351.28
938.905	1337.49
939.213	1328
939.52	1335.01
939.827	1317.38
940.135	1331.39
940.442	1321.22
940.749	1355.12
941.056	1334.1
941.363	1308.57
941.67	1318.51
941.977	1333.65
942.284	1305.4
942.591	1300.88
942.898	1271.05
943.205	1278.96
943.511	1291.17
943.818	1272.64
944.125	1292.52
944.431	1271.05
944.738	1271.73
945.044	1277.16
945.35	1264.95
945.657	1269.47
945.963	1242.81
946.269	1240.32
946.575	1247.78
946.881	1275.8
947.187	1234.67
947.493	1201.23
947.799	1215.01
948.105	1215.46
948.41	1206.42
948.716	1237.16
949.022	1173.88
949.327	1224.5
949.633	1194.45
949.938	1197.61
950.244	1188.57
950.549	1211.62
950.854	1201.45
951.16	1194.9
951.465	1180.66
951.77	1168.01
952.075	1145.18
952.38	1170.72
952.685	1158.97
952.99	1137.5
953.294	1161.68
953.599	1132.3
953.904	1135.24
954.209	1108.35
954.513	1152.41
954.818	1129.81
955.122	1118.06
955.426	1130.04
955.731	1132.75
956.035	1119.19
956.339	1093.66
956.643	1091.4
956.948	1081.91
957.252	1092.98
957.556	1093.66
957.86	1075.81
958.163	1110.83
958.467	1101.12
958.771	1092.53
959.075	1091.17
959.378	1075.81
959.682	1066.31
959.985	1091.62
960.289	1043.26
960.592	1059.53
960.896	1055.92
961.199	1066.54
961.502	1056.82
961.805	1030.38
962.108	1052.98
962.411	1052.98
962.714	1044.39
963.017	1075.13
963.32	1040.78
963.623	1023.6
963.926	1040.33
964.228	1024.28
964.531	1011.4
964.833	1029.48
965.136	1016.37
965.438	1026.54
965.741	1001
966.043	1011.17
966.345	987.67
966.648	988.58
966.95	1006.65
967.252	974.56
967.554	988.12
967.856	987.9
968.158	984.96
968.46	965.3
968.761	970.05
969.063	986.54
969.365	995.36
969.666	963.72
969.968	979.54
970.269	956.49
970.571	950.61
970.872	975.24
971.174	953.77
971.475	964.17
971.776	951.74
972.077	959.88
972.378	945.19
972.679	951.74
972.98	958.75
973.281	942.25
973.582	928.46
973.883	934.79
974.183	904.51
974.484	890.73
974.785	904.06
975.085	889.37
975.386	925.53
975.686	902.48
975.986	945.86
976.287	890.95
976.587	896.6
976.887	904.96
977.187	886.88
977.487	883.49
977.787	901.35
978.087	891.86
978.387	884.17
978.687	887.11
978.987	874.68
979.286	888.24
979.586	897.5
979.885	873.1
980.185	851.4
980.484	855.25
980.784	875.81
981.083	844.62
981.382	880.56
981.682	874.91
981.981	847.56
982.28	861.8
982.579	843.49
982.878	842.36
983.177	848.47
983.475	865.42
983.774	862.93
984.073	829.94
984.372	845.75
984.67	834.46
984.969	831.97
985.267	837.85
985.566	834
985.864	819.54
986.162	816.83
986.461	810.73
986.759	805.76
987.057	816.15
987.355	826.32
987.653	829.94
987.951	835.81
988.249	784.29
988.547	831.97
988.844	789.94
989.142	781.35
989.44	784.97
989.737	801.69
990.035	795.81
990.332	787.68
990.63	781.12
990.927	765.08
991.224	748.58
991.521	791.74
991.819	776.83
992.116	739.09
992.413	767.34
992.71	800.78
993.006	741.12
993.303	774.57
993.6	770.5
993.897	751.97
994.193	759.2
994.49	765.98
994.787	755.36
995.083	735.7
995.379	761.01
995.676	723.05
995.972	740.45
996.268	716.94
996.565	743.61
996.861	729.6
997.157	714.91
997.453	734.57
997.749	713.55
998.044	722.59
998.34	725.98
998.636	713.33
998.932	725.98
999.227	714.23
999.523	723.05
999.818	703.39
1000.114	716.49
1000.409	699.77
1000.704	718.3
1001	697.96
1001.295	700.9
1001.59	700.22
1001.885	695.7
1002.18	704.06
1002.475	685.53
1002.77	732.54
1003.065	691.86
1003.359	670.84
1003.654	698.64
1003.949	703.84
1004.243	683.72
1004.538	650.96
1004.832	662.26
1005.127	672.43
1005.421	689.15
1005.715	670.84
1006.009	659.77
1006.304	667.68
1006.598	655.93
1006.892	646.66
1007.186	652.77
1007.48	642.37
1007.773	652.99
1008.067	659.09
1008.361	637.4
1008.655	649.6
1008.948	648.47
1009.242	625.87
1009.535	632.43
1009.829	632.65
1010.122	654.12
1010.415	641.69
1010.708	617.74
1011.001	627.23
1011.295	635.14
1011.588	648.7
1011.881	600.56
1012.173	621.13
1012.466	620.68
1012.759	612.31
1013.052	622.48
1013.344	599.89
1013.637	611.18
1013.93	620.68
1014.222	591.75
1014.514	633.78
1014.807	615.25
1015.099	594.69
1015.391	596.5
1015.683	589.72
1015.976	586.33
1016.268	576.84
1016.56	595.14
1016.851	592.88
1017.143	544.29
1017.435	571.19
1017.727	578.87
1018.018	589.26
1018.31	567.8
1018.602	602.15
1018.893	580
1019.185	556.5
1019.476	565.08
1019.767	560.56
1020.058	591.98
1020.35	561.47
1020.641	574.58
1020.932	549.72
1021.223	541.13
1021.514	564.41
1021.804	556.72
1022.095	560.79
1022.386	546.78
1022.677	542.26
1022.967	548.36
1023.258	563.95
1023.548	537.06
1023.839	546.55
1024.129	535.71
1024.419	528.25
1024.709	536.38
1025	520.11
1025.29	533.22
1025.58	506.78
1025.87	512.66
1026.16	513.56
1026.449	509.27
1026.739	531.19
1027.029	508.14
1027.319	519.66
1027.608	503.16
1027.898	519.21
1028.187	513.33
1028.477	513.79
1028.766	503.62
1029.055	504.97
1029.344	512.43
1029.634	498.65
1029.923	488.48
1030.212	514.01
1030.501	499.77
1030.79	506.55
1031.078	500.68
1031.367	504.75
1031.656	487.8
1031.945	471.75
1032.233	480.79
1032.522	478.98
1032.81	485.76
1033.099	474.24
1033.387	458.42
1033.675	470.17
1033.963	502.26
1034.251	478.08
1034.54	475.59
1034.828	484.86
1035.116	459.1
1035.403	464.52
1035.691	492.77
1035.979	457.97
1036.267	437.4
1036.554	453.67
1036.842	440.12
1037.129	460.23
1037.417	449.61
1037.704	460.68
1037.992	451.41
1038.279	454.35
1038.566	452.09
1038.853	452.09
1039.14	452.09
