Data from blue_clamp_base_FLMS001491_00036.txt Node
Date: Wed Feb 08 15:15:55 GMT 2017
User: dcchb
Spectrometer: FLMS00149
Trigger mode: 0
Integration Time (sec): 2.000000E-2
Scans to average: 10
Electric dark correction enabled: true
Nonlinearity correction enabled: false
Boxcar width: 0
XAxis mode: Wavelengths
Number of Pixels in Spectrum: 2048
>>>>>Begin Spectral Data<<<<<
341.393	-0.45
341.776	-0.45
342.16	-0.45
342.543	-52.43
342.927	-63.95
343.31	-61.92
343.693	-70.51
344.077	-65.76
344.46	-47.46
344.843	-42.03
345.226	-39.77
345.61	-37.51
345.993	-19.66
346.376	-10.62
346.759	9.27
347.142	7.46
347.525	38.19
347.908	44.74
348.291	63.95
348.674	113.9
349.057	117.74
349.44	119.77
349.823	145.98
350.206	155.25
350.588	214.01
350.971	194.12
351.354	228.47
351.737	234.57
352.119	228.92
352.502	275.47
352.884	261.46
353.267	277.73
353.65	293.33
354.032	291.29
354.414	313.66
354.797	318.18
355.179	315.92
355.562	333.78
355.944	339.2
356.326	341.69
356.709	326.09
357.091	334.45
357.473	366.09
357.855	353.89
358.238	364.06
358.62	344.62
359.002	331.74
359.384	333.1
359.766	341.01
360.148	340.78
360.53	324.74
360.912	334.68
361.294	359.31
361.676	357.73
362.057	330.84
362.439	318.41
362.821	328.58
363.203	322.48
363.584	334.45
363.966	330.39
364.348	341.23
364.729	346.43
365.111	308.47
365.493	342.14
365.874	340.1
366.256	329.93
366.637	330.39
367.019	328.13
367.4	313.89
367.781	310.95
368.163	321.12
368.544	330.61
368.925	318.18
369.306	318.86
369.688	335.58
370.069	336.04
370.45	311.86
370.831	326.32
371.212	327.22
371.593	334.91
371.974	314.12
372.355	331.52
372.736	306.43
373.117	314.57
373.498	324.96
373.879	322.93
374.26	331.52
374.641	313.21
375.021	339.65
375.402	332.65
375.783	329.93
376.163	350.5
376.544	346.66
376.925	355.47
377.305	344.62
377.686	336.94
378.066	326.55
378.447	350.27
378.827	347.11
379.208	359.31
379.588	354.79
379.968	355.92
380.349	369.93
380.729	361.12
381.109	382.14
381.489	349.14
381.87	351.63
382.25	338.52
382.63	368.35
383.01	336.04
383.39	369.93
383.77	377.39
384.15	357.73
384.53	368.58
384.91	359.09
385.29	385.98
385.67	382.59
386.049	403.15
386.429	405.19
386.809	363.83
387.189	398.63
387.568	409.48
387.948	370.39
388.328	403.61
388.707	398.18
389.087	385.3
389.466	376.71
389.846	397.96
390.225	411.06
390.605	399.54
390.984	410.84
391.363	422.59
391.743	404.06
392.122	421.46
392.501	427.33
392.881	426.88
393.26	423.94
393.639	432.53
394.018	445.86
394.397	429.82
394.776	429.82
395.155	450.61
395.534	449.48
395.913	464.62
396.292	475.47
396.671	482.47
397.05	461.68
397.429	482.93
397.808	461.46
398.186	489.48
398.565	478.41
398.944	472.3
399.323	482.25
399.701	494.45
400.08	488.8
400.458	512.53
400.837	510.72
401.215	527.44
401.594	543.71
401.972	537.39
402.351	499.2
402.729	536.26
403.107	535.35
403.486	549.59
403.864	526.54
404.242	547.1
404.62	569.7
404.999	551.62
405.377	574
405.755	602.47
406.133	583.04
406.511	584.39
406.889	596.82
407.267	623.49
407.645	615.35
408.023	623.26
408.401	622.36
408.779	632.53
409.156	636.14
409.534	631.4
409.912	642.47
410.29	680.89
410.667	686.54
411.045	682.47
411.422	696.03
411.8	693.77
412.178	677.04
412.555	714.33
412.933	708.68
413.31	731.28
413.687	722.69
414.065	713.2
414.442	766.99
414.819	753.2
415.197	766.53
415.574	766.08
415.951	773.31
416.328	782.35
416.705	772.86
417.082	799.75
417.46	826.19
417.837	816.48
418.214	810.6
418.591	812.86
418.967	818.28
419.344	847.89
419.721	847.89
420.098	856.25
420.475	850.83
420.852	865.97
421.228	902.35
421.605	892.41
421.982	897.15
422.358	900.54
422.735	927.21
423.111	916.59
423.488	944.83
423.864	956.59
424.241	956.36
424.617	957.04
424.994	984.15
425.37	991.61
425.746	984.61
426.123	1015.57
426.499	1006.3
426.875	1018.28
427.251	1032.97
427.627	1075.68
428.003	1074.32
428.379	1076.36
428.756	1096.02
429.132	1077.71
429.507	1120.2
429.883	1133.76
430.259	1117.03
430.635	1156.35
431.011	1158.16
431.387	1191.16
431.763	1193.41
432.138	1238.61
432.514	1223.7
432.89	1233.19
433.265	1220.08
433.641	1286.07
434.016	1289.68
434.392	1301.66
434.767	1333.3
435.143	1322.45
435.518	1332.39
435.894	1344.6
436.269	1374.2
436.644	1391.83
437.02	1392.73
437.395	1437.7
437.77	1453.75
438.145	1442.22
438.52	1456.01
438.895	1488.55
439.271	1517.47
439.646	1519.73
440.021	1529.68
440.395	1569
440.77	1533.74
441.145	1562.67
441.52	1582.11
441.895	1577.59
442.27	1620.07
442.645	1596.79
443.019	1615.32
443.394	1638.83
443.769	1662.56
444.143	1668.43
444.518	1696.23
444.892	1681.76
445.267	1719.28
445.641	1721.08
446.016	1732.61
446.39	1754.53
446.764	1770.8
447.139	1777.35
447.513	1814.64
447.887	1802.66
448.262	1808.54
448.636	1807.18
449.01	1846.51
449.384	1847.41
449.758	1854.64
450.132	1893.51
450.506	1888.54
450.88	1877.01
451.254	1915.43
451.628	1949.78
452.002	1949.33
452.376	1990.46
452.75	1975.32
453.123	1973.73
453.497	2059.61
453.871	2067.06
454.244	2094.41
454.618	2101.87
454.992	2158.36
455.365	2133.96
455.739	2208.53
456.112	2174.86
456.486	2204.01
456.859	2240.85
457.232	2288.08
457.606	2252.82
457.979	2304.35
458.352	2338.7
458.725	2331.46
459.099	2391.8
459.472	2422.54
459.845	2479.48
460.218	2489.2
460.591	2489.65
460.964	2483.1
461.337	2539.82
461.71	2584.56
462.083	2585.47
462.456	2626.15
462.829	2635.86
463.201	2681.29
463.574	2710.44
463.947	2709.76
464.32	2739.36
464.692	2764.45
465.065	2805.35
465.438	2854.61
465.81	2904.1
466.183	2894.84
466.555	2990.43
466.928	2975.06
467.3	2995.18
467.672	2984.33
468.045	3102.29
468.417	3084.21
468.789	3108.62
469.161	3171.22
469.534	3215.06
469.906	3254.38
470.278	3297.99
470.65	3323.98
471.022	3368.95
471.394	3391.32
471.766	3469.29
472.138	3467.48
472.51	3519.91
472.882	3563.75
473.253	3613.01
473.625	3648.04
473.997	3694.14
474.369	3737.08
474.74	3752.67
475.112	3847.81
475.484	3892.55
475.855	3915.38
476.227	3965.55
476.598	4061.59
476.97	4073.79
477.341	4197.4
477.713	4234.92
478.084	4272.88
478.455	4330.73
478.827	4400.56
479.198	4494.35
479.569	4459.09
479.94	4550.39
480.311	4579.09
480.682	4694.57
481.053	4780.67
481.424	4864.73
481.795	4878.06
482.166	4931.85
482.537	4940.89
482.908	5066.99
483.279	5097.95
483.65	5157.6
484.021	5251.16
484.391	5261.78
484.762	5330.26
485.133	5370.71
485.503	5394.43
485.874	5489.57
486.244	5558.72
486.615	5596.01
486.985	5625.61
487.356	5709
487.726	5718.04
488.097	5853.41
488.467	5900.86
488.837	5933.18
489.207	5954.65
489.578	6059.73
489.948	6095.88
490.318	6179.72
490.688	6155.32
491.058	6268.08
491.428	6254.75
491.798	6308.99
492.168	6427.85
492.538	6425.59
492.908	6484.12
493.278	6498.36
493.648	6578.81
494.017	6654.74
494.387	6659.94
494.757	6655.42
495.126	6704.23
495.496	6720.28
495.866	6781.06
496.235	6799.6
496.605	6807.5
496.974	6865.13
497.344	6921.63
497.713	6900.16
498.082	6972.25
498.452	6956.43
498.821	7061.06
499.19	7055.41
499.559	7080.27
499.928	7143.09
500.298	7110.32
500.667	7120.94
501.036	7132.47
501.405	7200.94
501.774	7210.88
502.143	7275.29
502.512	7276.19
502.88	7319.13
503.249	7316.42
503.618	7367.49
503.987	7377.21
504.356	7363.2
504.724	7401.16
505.093	7379.47
505.462	7448.62
505.83	7469.86
506.199	7576.52
506.567	7596.41
506.936	7578.78
507.304	7637.99
507.672	7628.95
508.041	7663.08
508.409	7696.07
508.777	7743.75
509.145	7782.39
509.514	7785.11
509.882	7816.97
510.25	7823.75
510.618	7863.3
510.986	7875.95
511.354	7909.62
511.722	8009.96
512.09	8046.34
512.458	8023.29
512.826	8076.17
513.193	8088.6
513.561	8103.06
513.929	8155.49
514.297	8225.09
514.664	8220.57
515.032	8231.42
515.4	8276.62
515.767	8307.35
516.135	8371.31
516.502	8290.4
516.869	8405.43
517.237	8454.24
517.604	8358.42
517.972	8501.7
518.339	8494.69
518.706	8457.4
519.073	8546.22
519.44	8518.42
519.808	8613.56
520.175	8626.89
520.542	8653.33
520.909	8781.24
521.276	8736.04
521.643	8767.23
522.009	8813.78
522.376	8829.37
522.743	8877.28
523.11	8915.7
523.477	8970.39
523.843	9038.18
524.21	9037.95
524.577	9151.4
524.943	9148.91
525.31	9188.46
525.676	9235.92
526.043	9335.57
526.409	9317.72
526.776	9469.81
527.142	9413.54
527.508	9424.38
527.874	9471.39
528.241	9571.27
528.607	9544.61
528.973	9603.59
529.339	9594.32
529.705	9700.76
530.071	9759.07
530.437	9792.28
530.803	9823.02
531.169	9883.13
531.535	9895.11
531.901	9897.82
532.267	9948.21
532.632	10027.76
532.998	10053.75
533.364	10080.86
533.73	10112.5
534.095	10154.54
534.461	10169.45
534.826	10263.68
535.192	10232.95
535.557	10272.05
535.923	10335.1
536.288	10272.5
536.653	10370.12
537.019	10362.67
537.384	10466.84
537.749	10446.73
538.114	10516.56
538.479	10516.56
538.845	10526.28
539.21	10514.98
539.575	10550.23
539.94	10551.13
540.305	10625.94
540.67	10602.21
541.034	10676.1
541.399	10706.16
541.764	10806.04
542.129	10771.92
542.494	10839.71
542.858	10782.99
543.223	10821.41
543.587	10917.91
543.952	10922.42
544.316	10905.93
544.681	10882.2
545.045	11008.3
545.41	11063.89
545.774	11018.02
546.138	11012.14
546.503	11065.25
546.867	11153.83
547.231	11179.37
547.595	11168.07
547.959	11176.88
548.324	11206.48
548.688	11241.06
549.052	11292.81
549.416	11303.21
549.779	11388.4
550.143	11351.79
550.507	11454.61
550.871	11475.18
551.235	11463.65
551.599	11523.54
551.962	11544.1
552.326	11594.5
552.689	11622.52
553.053	11591.33
553.417	11591.11
553.78	11719.47
554.143	11651.22
554.507	11692.57
554.87	11769.63
555.234	11777.09
555.597	11774.15
555.96	11815.96
556.323	11892.34
556.686	11880.82
557.05	11899.8
557.413	11888.27
557.776	11915.84
558.139	11988.39
558.502	12021.15
558.865	12094.82
559.228	12094.6
559.59	12217.98
559.953	12128.04
560.316	12328.72
560.679	12361.48
561.041	12359
561.404	12418.2
561.767	12488.26
562.129	12438.54
562.492	12551.08
562.854	12568.03
563.217	12551.53
563.579	12572.32
563.941	12656.39
564.304	12833.79
564.666	12789.04
565.028	12775.26
565.39	12831.98
565.753	12863.84
566.115	12910.17
566.477	13042.14
566.839	13043.5
567.201	13128.47
567.563	13100.22
567.925	13144.06
568.287	13131.63
568.648	13202.82
569.01	13273.1
569.372	13386.09
569.734	13327.11
570.095	13414.56
570.457	13437.16
570.819	13583.37
571.18	13528.91
571.542	13608
571.903	13530.04
572.265	13704.95
572.626	13681.9
572.987	13733.2
573.349	13731.39
573.71	13746.53
574.071	13830.14
574.432	13889.13
574.794	14000.54
575.155	13914.44
575.516	13875.34
575.877	14052.96
576.238	13991.72
576.599	14070.36
576.96	14057.48
577.32	14081.66
577.681	14167.09
578.042	14251.6
578.403	14176.58
578.763	14188.33
579.124	14219.06
579.485	14323.92
579.845	14436
580.206	14335.89
580.566	14302.45
580.927	14405.95
581.287	14469.22
581.648	14342.9
582.008	14487.75
582.368	14505.16
582.728	14534.08
583.089	14461.09
583.449	14504.48
583.809	14487.53
584.169	14553.52
584.529	14473.29
584.889	14648.43
585.249	14486.17
585.609	14451.37
585.969	14559.17
586.329	14542.22
586.688	14611.82
587.048	14582.89
587.408	14616.79
587.768	14540.41
588.127	14624.7
588.487	14560.52
588.846	14732.72
589.206	14597.81
589.565	14676.68
589.925	14667.41
590.284	14716
590.643	14698.14
591.003	14722.55
591.362	14716.9
591.721	14731.59
592.08	14718.71
592.44	14850.46
592.799	14758.71
593.158	14797.58
593.517	14736.34
593.876	14808.2
594.235	14758.26
594.593	14785.37
594.952	14842.55
595.311	14810.23
595.67	14762.78
596.029	14919.83
596.387	14852.94
596.746	14834.41
597.104	14805.03
597.463	14799.84
597.822	14845.26
598.18	14874.64
598.538	14770.23
598.897	14898.37
599.255	14793.96
599.613	14957.57
599.972	14935.2
600.33	14919.83
600.688	14825.15
601.046	14937.01
601.404	15040.96
601.762	14880.96
602.12	15032.6
602.478	14987.63
602.836	14971.58
603.194	14966.61
603.552	14922.77
603.91	14937.69
604.268	14986.72
604.625	14927.52
604.983	15050.68
605.341	14999.83
605.698	15113.05
606.056	15039.83
606.413	15106.5
606.771	15100.17
607.128	15159.83
607.485	15118.25
607.843	15030.11
608.2	15258.36
608.557	15304.23
608.914	15141.97
609.272	15254.06
609.629	15211.8
609.986	15310.33
610.343	15198.47
610.7	15411.57
611.057	15391.46
611.414	15354.62
611.771	15284.8
612.127	15352.36
612.484	15379.48
612.841	15503.1
613.198	15386.94
613.554	15398.92
613.911	15574.05
614.267	15391.01
614.624	15487.05
614.98	15488.41
615.337	15593.94
615.693	15545.58
616.05	15562.3
616.406	15703.54
616.762	15580.16
617.118	15572.02
617.475	15525.02
617.831	15685.46
618.187	15630.1
618.543	15739.47
618.899	15765.01
619.255	15727.5
619.611	15779.92
619.967	15745.12
620.323	15853.37
620.678	15846.59
621.034	15747.83
621.39	15692.47
621.746	15706.03
622.101	16022.4
622.457	15799.58
622.812	15834.61
623.168	15878.23
623.523	15863.09
623.879	15926.36
624.234	15909.64
624.589	15857.21
624.945	15942.18
625.3	15945.12
625.655	15961.39
626.01	15962.52
626.365	16028.05
626.72	15998.45
627.075	15917.77
627.43	15930.43
627.785	15922.97
628.14	16020.82
628.495	16090.42
628.85	16081.61
629.205	15959.13
629.559	16094.27
629.914	15953.93
630.269	16139.01
630.623	15964.33
630.978	16022.86
631.332	16094.04
631.687	16103.76
632.041	16068.73
632.396	16159.35
632.75	16162.96
633.104	16158.67
633.459	16028.05
633.813	16172
634.167	16076.41
634.521	16089.75
634.875	16167.03
635.229	16092.01
635.583	16036.87
635.937	16114.15
636.291	16101.5
636.645	16023.76
636.999	16076.87
637.352	16192.12
637.706	16079.13
638.06	16200.03
638.413	16106.24
638.767	16094.49
639.121	16171.33
639.474	16038.45
639.828	16055.62
640.181	16197.09
640.534	16185.11
640.888	16175.62
641.241	16146.92
641.594	16083.87
641.947	16214.04
642.301	16179.91
642.654	16096.07
643.007	16213.81
643.36	16197.31
643.713	16191.44
644.066	16267.82
644.419	16186.02
644.771	16112.12
645.124	15927.72
645.477	15932.24
645.83	15808.85
646.182	15890.88
646.535	15780.6
646.888	15893.37
647.24	15805.46
647.593	15987.6
647.945	15934.72
648.298	15901.95
648.65	15838.23
649.002	15867.38
649.355	15887.72
649.707	15864.22
650.059	15996.19
650.411	16102.85
650.763	16188.5
651.115	16348.5
651.467	16360.47
651.819	16339.91
652.171	16401.6
652.523	16339.91
652.875	16331.32
653.227	16269.85
653.578	16430.98
653.93	16467.36
654.282	16353.47
654.633	16288.61
654.985	16345.56
655.337	16411.09
655.688	16408.16
656.039	16538.32
656.391	16362.06
656.742	16435.05
657.094	16376.97
657.445	16552.79
657.796	16450.41
658.147	16431.88
658.498	16432.56
658.849	16601.6
659.2	16535.38
659.551	16463.07
659.902	16559.11
660.253	16496.29
660.604	16519.57
660.955	16518.89
661.306	16578.1
661.656	16537.19
662.007	16562.05
662.358	16508.72
662.708	16548.27
663.059	16624.2
663.409	16486.35
663.76	16545.1
664.11	16505.78
664.461	16504.42
664.811	16622.16
665.161	16517.76
665.511	16514.59
665.862	16515.27
666.212	16636.62
666.562	16555.95
666.912	16589.17
667.262	16568.15
667.612	16429.62
667.962	16512.56
668.312	16392.11
668.662	16576.51
669.011	16523.18
669.361	16501.04
669.711	16458.78
670.06	16434.37
670.41	16403.64
670.76	16371.09
671.109	16395.95
671.459	16311.66
671.808	16256.07
672.157	16368.16
672.507	16262.17
672.856	16217.43
673.205	16306.01
673.554	16291.1
673.904	16223.08
674.253	16240.93
674.602	16148.28
674.951	15841.84
675.3	15849.07
675.649	16005.45
675.998	16141.04
676.346	16070.31
676.695	16049.75
677.044	15979.92
677.393	16080.48
677.741	16003.2
678.09	15974.72
678.438	15869.64
678.787	15884.1
679.135	15877.55
679.484	15829.19
679.832	15826.02
680.181	15702.64
680.529	15863.09
680.877	15728.4
681.225	15715.97
681.573	15761.85
681.922	15632.81
682.27	15626.03
682.618	15581.96
682.966	15579.48
683.314	15587.16
683.661	15498.12
684.009	15487.95
684.357	15419.03
684.705	15382.19
685.053	15361.86
685.4	15412.7
685.748	15303.1
686.095	15332.03
686.443	15243.89
686.79	15263.55
687.138	15298.58
687.485	15303.55
687.832	15157.79
688.18	15137.46
688.527	15115.76
688.874	15116.89
689.221	15090.9
689.568	15045.48
689.915	14967.06
690.262	15081.41
690.609	14917.8
690.956	14925.48
691.303	14887.74
691.65	14847.07
691.997	14882.55
692.344	14792.83
692.69	14798.48
693.037	14896.11
693.383	14706.28
693.73	14827.41
694.077	14645.94
694.423	14597.13
694.769	14683.68
695.116	14546.74
695.462	14551.26
695.808	14564.14
696.155	14608.88
696.501	14462.9
696.847	14508.32
697.193	14445.27
697.539	14536.11
697.885	14452.73
698.231	14355.78
698.577	14406.63
698.923	14442.11
699.269	14291.6
699.614	14327.98
699.96	14301.32
700.306	14293.86
700.651	14188.78
700.997	14168.22
701.342	14110.59
701.688	14181.77
702.033	14163.24
702.379	14192.85
702.724	14110.36
703.069	14154.2
703.415	14050.25
703.76	14102.23
704.105	14059.74
704.45	13981.55
704.795	13939.75
705.14	13910.82
705.485	13954.21
705.83	13947.43
706.175	13949.46
706.52	13885.28
706.865	13862.91
707.209	13893.19
707.554	13806.64
707.899	13848.45
708.243	13795.12
708.588	13824.72
708.932	13752.86
709.277	13721.67
709.621	13835.34
709.966	13687.1
710.31	13776.59
710.654	13696.59
710.998	13634.9
711.342	13676.25
711.687	13705.63
712.031	13722.35
712.375	13597.38
712.719	13650.26
713.063	13624.95
713.407	13679.87
713.75	13563.49
714.094	13656.59
714.438	13599.87
714.782	13498.4
715.125	13503.6
715.469	13623.82
715.812	13515.8
716.156	13494.11
716.499	13522.36
716.843	13523.71
717.186	13450.95
717.53	13580.66
717.873	13495.69
718.216	13517.16
718.559	13320.33
718.902	13388.8
719.246	13426.31
719.589	13356.48
719.932	13289.59
720.275	13317.62
720.617	13331.17
720.96	13290.5
721.303	13423.6
721.646	13335.92
721.989	13249.14
722.331	13335.02
722.674	13309.03
723.016	13364.85
723.359	13198.3
723.701	13343.15
724.044	13231.29
724.386	13200.56
724.729	13180.67
725.071	13264.96
725.413	13211.63
725.755	13238.07
726.097	13203.04
726.439	13127.79
726.782	13170.05
727.124	13202.59
727.465	13196.94
727.807	13133.21
728.149	13156.49
728.491	13164.63
728.833	13154.91
729.175	13116.49
729.516	13092.99
729.858	13185.42
730.199	13129.6
730.541	13171.86
730.882	13062.26
731.224	13163.04
731.565	13093.89
731.906	13184.51
732.248	13132.76
732.589	13016.15
732.93	13072.2
733.271	13064.29
733.612	13114.01
733.953	13177.96
734.294	13103.38
734.635	13058.87
734.976	13194.46
735.317	13127.79
735.658	13109.49
735.999	13250.27
736.339	13159.65
736.68	13251.18
737.021	13194.68
737.361	13111.07
737.702	13194.46
738.042	13287.79
738.383	13315.36
738.723	13346.77
739.063	13256.15
739.404	13373.21
739.744	13296.6
740.084	13307.45
740.424	13327.11
740.764	13279.2
741.104	13406.65
741.444	13401
741.784	13370.5
742.124	13393.77
742.464	13442.36
742.804	13436.26
743.143	13386.99
743.483	13506.54
743.823	13423.83
744.162	13501.11
744.502	13592.18
744.841	13515.12
745.181	13599.19
745.52	13559.19
745.86	13636.48
746.199	13664.05
746.538	13749.92
746.877	13713.31
747.216	13673.54
747.556	13729.81
747.895	13797.38
748.234	13753.76
748.573	13756.93
748.911	13739.75
749.25	13799.19
749.589	13778.17
749.928	13857.71
750.267	13864.95
750.605	13851.16
750.944	13920.31
751.283	13822.46
751.621	13949.46
751.96	13886.64
752.298	13839.86
752.636	13963.25
752.975	13937.03
753.313	13957.6
753.651	14121.21
753.989	13957.83
754.327	14065.39
754.666	13971.84
755.004	14032.63
755.342	14137.26
755.679	14234.65
756.017	14055
756.355	14243.69
756.693	14197.59
757.031	14199.17
757.368	14066.75
757.706	14222
758.044	14154.66
758.381	14302
758.719	14216.8
759.056	14246.41
759.394	14246.41
759.731	14297.03
760.068	14306.52
760.405	14278.49
760.743	14300.64
761.08	14317.36
761.417	14288.66
761.754	14359.4
762.091	14388.32
762.428	14300.64
762.765	14402.56
763.102	14435.33
763.438	14453.86
763.775	14376.57
764.112	14358.27
764.449	14429.23
764.785	14401.88
765.122	14232.17
765.458	14381.99
765.795	14332.28
766.131	14350.36
766.467	14403.92
766.804	14345.61
767.14	14303.35
767.476	14352.84
767.812	14294.99
768.148	14343.8
768.485	14344.71
768.821	14401.88
769.157	14342.45
769.492	14421.99
769.828	14405.95
770.164	14306.06
770.5	14320.3
770.836	14279.62
771.171	14324.14
771.507	14315.1
771.842	14263.58
772.178	14292.73
772.513	14366.4
772.849	14324.6
773.184	14276.01
773.519	14327.31
773.855	14238.72
774.19	14160.53
774.525	14202.79
774.86	14273.3
775.195	14245.73
775.53	14212.51
775.865	14200.98
776.2	14035.34
776.535	14078.95
776.87	14139.06
777.205	14016.58
777.539	14064.26
777.874	14120.53
778.209	13982.91
778.543	14053.64
778.878	14100.42
779.212	14021.78
779.547	13959.86
779.881	13999.63
780.215	13975.9
780.55	14021.55
780.884	13912.85
781.218	13912.18
781.552	13912.85
781.886	13874.89
782.22	13822.01
782.554	13890.26
782.888	13802.12
783.222	13763.48
783.556	13767.32
783.889	13787.21
784.223	13752.63
784.557	13773.65
784.89	13818.85
785.224	13705.63
785.557	13623.6
785.891	13612.3
786.224	13662.01
786.558	13686.65
786.891	13682.35
787.224	13634.22
787.557	13516.93
787.891	13517.38
788.224	13569.13
788.557	13617.04
788.89	13568.91
789.223	13598.96
789.556	13491.17
789.888	13483.71
790.221	13463.37
790.554	13416.6
790.887	13421.34
791.219	13410.49
791.552	13371.17
791.884	13349.48
792.217	13357.61
792.549	13366.2
792.882	13254.57
793.214	13178.18
793.546	13323.04
793.879	13223.16
794.211	13247.79
794.543	13255.7
794.875	13182.03
795.207	13209.37
795.539	13247.79
795.871	13272.87
796.203	13161.91
796.535	13081.46
796.867	13054.12
797.198	13102.48
797.53	13038.53
797.862	12906.1
798.193	12996.04
798.525	12925.54
798.856	12977.74
799.188	12829.27
799.519	12810.74
799.85	12825.65
800.182	12892.99
800.513	12777.29
800.844	12712.89
801.175	12777.97
801.506	12766.44
801.837	12800.79
802.168	12701.81
802.499	12702.26
802.83	12697.07
803.161	12625.88
803.491	12632.66
803.822	12554.47
804.153	12681.02
804.483	12452.55
804.814	12483.97
805.145	12533.46
805.475	12518.54
805.805	12422.5
806.136	12547.01
806.466	12497.52
806.796	12527.81
807.126	12480.58
807.457	12381.82
807.787	12387.7
808.117	12340.47
808.447	12310.18
808.777	12299.11
809.107	12269.96
809.436	12297.08
809.766	12240.36
810.096	12271.77
810.426	12156.74
810.755	12215.05
811.085	12206.68
811.414	12206.46
811.744	12093.69
812.073	12124.2
812.403	12094.6
812.732	12076.29
813.061	12083.07
813.39	11986.8
813.719	12017.31
814.049	12028.38
814.378	11980.02
814.707	11976.86
815.036	11926.24
815.365	11924.43
815.693	11780.48
816.022	11825.9
816.351	11755.4
816.68	11737.77
817.008	11760.82
817.337	11727.83
817.665	11713.14
817.994	11775.28
818.322	11722.4
818.651	11680.37
818.979	11731.67
819.307	11714.95
819.636	11643.08
819.964	11648.06
820.292	11654.61
820.62	11686.92
820.948	11678.34
821.276	11619.81
821.604	11534.39
821.932	11662.97
822.259	11595.85
822.587	11628.39
822.915	11578
823.243	11703.42
823.57	11632.01
823.898	11699.58
824.225	11595.85
824.553	11626.59
824.88	11697.77
825.207	11688.51
825.535	11703.87
825.862	11708.62
826.189	11651.67
826.516	11727.15
826.843	11823.42
827.17	11701.16
827.497	11678.34
827.824	11763.98
828.151	11716.53
828.478	11693.93
828.805	11761.05
829.131	11752.23
829.458	11757.66
829.785	11705.23
830.111	11679.01
830.438	11801.05
830.764	11807.37
831.09	11744.55
831.417	11738.22
831.743	11733.7
832.069	11747.71
832.395	11704.78
832.722	11774.83
833.048	11683.53
833.374	11715.85
833.7	11626.36
834.026	11662.74
834.351	11658.9
834.677	11706.13
835.003	11686.92
835.329	11758.11
835.654	11683.31
835.98	11579.36
836.306	11585.01
836.631	11611.67
836.956	11723.99
837.282	11681.73
837.607	11702.07
837.932	11595.85
838.258	11633.82
838.583	11635.63
838.908	11569.64
839.233	11567.38
839.558	11627.49
839.883	11455.74
840.208	11430.89
840.533	11425.69
840.858	11493.48
841.182	11535.29
841.507	11491.9
841.832	11372.81
842.156	11418
842.481	11349.76
842.805	11447.83
843.13	11311.57
843.454	11305.69
843.778	11319.48
844.103	11305.24
844.427	11270.89
844.751	11226.15
845.075	11187.95
845.399	11138.01
845.723	11178.24
846.047	11180.5
846.371	11069.77
846.695	11109.99
847.019	11008.75
847.343	11001.52
847.666	10903.22
847.99	10952.48
848.313	10917
848.637	10813.27
848.96	10840.62
849.284	10839.94
849.607	10712.94
849.931	10746.16
850.254	10615.31
850.577	10515.88
850.9	10567.63
851.223	10502.55
851.546	10532.83
851.869	10374.87
852.192	10471.14
852.515	10320.86
852.838	10310.92
853.161	10339.16
853.483	10280.18
853.806	10217.81
854.129	10197.47
854.451	10097.59
854.774	10124.48
855.096	10120.41
855.419	10052.39
855.741	10039.28
856.063	10015.56
856.385	10002
856.708	9965.61
857.03	9960.19
857.352	9899.17
857.674	9892.4
857.996	9776.69
858.318	9757.48
858.64	9839.74
858.961	9787.77
859.283	9760.65
859.605	9680.88
859.926	9724.94
860.248	9698.05
860.57	9650.59
860.891	9704.83
861.212	9666.64
861.534	9622.12
861.855	9578.96
862.176	9590.26
862.498	9647.88
862.819	9543.25
863.14	9543.48
863.461	9495.34
863.782	9505.96
864.103	9456.47
864.424	9414.44
864.745	9464.84
865.065	9373.09
865.386	9393.65
865.707	9376.93
866.027	9381.45
866.348	9434.1
866.668	9308.68
866.989	9296.25
867.309	9262.13
867.63	9285.86
867.95	9217.38
868.27	9265.75
868.59	9242.47
868.91	9267.55
869.23	9237.95
869.55	9157.5
869.87	9272.75
870.19	9140.55
870.51	9197.05
870.83	9185.3
871.15	9133.32
871.469	9178.29
871.789	9134
872.109	9109.37
872.428	9086.99
872.748	9084.05
873.067	9050.16
873.386	9033.43
873.706	9078.41
874.025	9017.62
874.344	8997.73
874.663	9014.45
874.982	9034.34
875.301	8983.04
875.62	8918.86
875.939	8939.2
876.258	8993.66
876.577	8926.09
876.896	8892.87
877.214	8942.59
877.533	8905.98
877.852	8832.31
878.17	8941.46
878.489	8900.56
878.807	8891.07
879.125	8830.73
879.444	8883.16
879.762	8800.67
880.08	8834.8
880.398	8769.94
880.716	8788.92
881.034	8777.4
881.352	8726.32
881.67	8736.95
881.988	8744.4
882.306	8661.92
882.624	8626.21
882.941	8677.29
883.259	8642.03
883.577	8583.96
883.894	8607.68
884.212	8593.9
884.529	8533.11
884.846	8521.58
885.164	8529.95
885.481	8466.9
885.798	8544.18
886.115	8462.38
886.432	8356.39
886.75	8457.4
887.067	8435.26
887.383	8399.33
887.7	8372.44
888.017	8324.53
888.334	8337.41
888.651	8292.89
888.967	8308.26
889.284	8251.08
889.6	8285.66
889.917	8233.46
890.233	8214.7
890.55	8151.65
890.866	8194.81
891.182	8166.56
891.498	8157.07
891.815	8144.87
892.131	8129.96
892.447	8064.42
892.763	8035.27
893.079	8015.61
893.395	7903.97
893.71	7957.98
894.026	7920.47
894.342	7827.36
894.657	7895.61
894.973	7824.2
895.289	7802.96
895.604	7820.59
895.92	7771.32
896.235	7777.2
896.55	7729.29
896.865	7732.68
897.181	7640.93
897.496	7630.99
897.811	7664.88
898.126	7633.25
898.441	7574.72
898.756	7616.97
899.071	7514.15
899.386	7564.32
899.7	7469.18
900.015	7466.24
900.33	7410.65
900.644	7388.51
900.959	7416.3
901.273	7367.49
901.588	7325.23
901.902	7291.79
902.216	7266.93
902.531	7256.53
902.845	7258.34
903.159	7152.13
903.473	7203.2
903.787	7141.51
904.101	7112.13
904.415	7077.78
904.729	7131.34
905.042	7052.7
905.356	7046.14
905.67	6992.13
905.984	7013.6
906.297	6922.98
906.611	6904.45
906.924	6893.15
907.237	6877.33
907.551	6901.06
907.864	6802.53
908.177	6807.05
908.491	6800.95
908.804	6785.81
909.117	6743.78
909.43	6686.6
909.743	6639.15
910.056	6678.92
910.368	6623.33
910.681	6610.9
910.994	6555.76
911.307	6565.7
911.619	6534.52
911.932	6500.62
912.244	6447.51
912.557	6482.77
912.869	6454.97
913.181	6384.46
913.494	6360.74
913.806	6320.74
914.118	6307.4
914.43	6287.29
914.742	6230.8
915.054	6272.38
915.366	6176.56
915.678	6197.13
915.99	6165.94
916.302	6119.84
916.613	6102.89
916.925	6093.4
917.236	6120.74
917.548	6027.41
917.859	6060.86
918.171	6012.5
918.482	5986.51
918.794	5972.95
919.105	5931.6
919.416	5907.19
919.727	5904.25
920.038	5834.42
920.349	5796.23
920.66	5865.38
920.971	5803.69
921.282	5759.85
921.593	5772.73
921.903	5728.21
922.214	5735.22
922.525	5698.38
922.835	5653.64
923.146	5610.25
923.456	5612.96
923.767	5537.03
924.077	5535.45
924.387	5527.76
924.697	5489.8
925.008	5498.61
925.318	5455.22
925.628	5470.14
925.938	5442.34
926.248	5376.13
926.558	5355.57
926.867	5374.1
927.177	5357.15
927.487	5324.38
927.796	5296.36
928.106	5278.96
928.416	5264.72
928.725	5244.83
929.034	5215.68
929.344	5228.79
929.653	5208.22
929.962	5149.24
930.271	5124.16
930.581	5092.97
930.89	5111.73
931.199	4997.83
931.508	5044.39
931.817	5036.7
932.125	5016.82
932.434	5001.9
932.743	4967.55
933.051	4905.41
933.36	4873.54
933.669	4860.21
933.977	4866.54
934.286	4881
934.594	4853.43
934.902	4770.27
935.21	4797.84
935.519	4736.37
935.827	4807.33
936.135	4767.78
936.443	4650.05
936.751	4744.96
937.059	4651.18
937.367	4626.09
937.674	4658.18
937.982	4626.77
938.29	4600.11
938.597	4596.72
938.905	4522.14
939.213	4505.42
939.52	4495.93
939.827	4501.58
940.135	4495.02
940.442	4388.59
940.749	4443.95
941.056	4442.37
941.363	4432.65
941.67	4390.17
941.977	4356.72
942.284	4368.47
942.591	4320.56
942.898	4293.22
943.205	4324.63
943.511	4257.29
943.818	4287.12
944.125	4207.57
944.431	4231.98
944.738	4212.54
945.044	4168.48
945.35	4174.13
945.657	4129.16
945.963	4110.63
946.269	4142.04
946.575	4121.93
946.881	4054.36
947.187	4056.84
947.493	4100.68
947.799	4046.45
948.105	3999.44
948.41	4008.26
948.716	3997.64
949.022	3938.65
949.327	3957.64
949.633	3917.64
949.938	3914.7
950.244	3912.89
950.549	3874.7
950.854	3863.63
951.16	3890.29
951.465	3825.21
951.77	3805.1
952.075	3858.2
952.38	3791.99
952.685	3774.14
952.99	3745.21
953.294	3731.2
953.599	3717.87
953.904	3729.62
954.209	3664.76
954.513	3706.57
954.818	3650.75
955.122	3640.13
955.426	3656.18
955.731	3617.98
956.035	3592.9
956.339	3601.94
956.643	3549.96
956.948	3568.49
957.252	3568.04
957.556	3546.35
957.86	3464.09
958.163	3504.99
958.467	3511.32
958.771	3498.44
959.075	3441.27
959.378	3438.55
959.682	3449.63
959.985	3457.08
960.289	3410.08
960.592	3373.92
960.896	3363.3
961.199	3338.44
961.502	3358.1
961.805	3305.22
962.108	3294.38
962.411	3335.51
962.714	3266.81
963.017	3276.98
963.32	3265.45
963.623	3249.86
963.926	3264.77
964.228	3251.21
964.531	3227.71
964.833	3166.02
965.136	3175.51
965.438	3145.45
965.741	3159.92
966.043	3132.35
966.345	3144.1
966.648	3102.52
966.95	3071.33
967.252	3046.25
967.554	3062.07
967.856	3006.47
968.158	3024.33
968.46	3008.73
968.761	2984.33
969.063	3004.89
969.365	2973.71
969.666	2954.95
969.968	2974.16
970.269	2933.26
970.571	2956.08
970.872	2943.2
971.174	2924.89
971.475	2906.59
971.776	2902.07
972.077	2869.76
972.378	2885.8
972.679	2866.37
972.98	2839.47
973.281	2803.77
973.582	2821.85
973.883	2829.76
974.183	2821.17
974.484	2782.75
974.785	2748.4
975.085	2749.98
975.386	2832.24
975.686	2790.66
975.986	2717.67
976.287	2705.24
976.587	2681.74
976.887	2708.18
977.187	2688.74
977.487	2683.32
977.787	2678.8
978.087	2685.58
978.387	2658.69
978.687	2622.98
978.987	2639.25
979.286	2626.6
979.586	2614.39
979.885	2609.2
980.185	2586.6
980.484	2559.93
980.784	2540.5
981.083	2552.7
981.382	2486.04
981.682	2523.78
981.981	2496.21
982.28	2517
982.579	2483.1
982.878	2475.19
983.177	2474.29
983.475	2507.73
983.774	2443.78
984.073	2448.75
984.372	2419.6
984.67	2406.49
984.969	2429.77
985.267	2369.2
985.566	2373.72
985.864	2374.85
986.162	2359.03
986.461	2326.27
986.759	2346.15
987.057	2301.41
987.355	2304.35
987.653	2295.76
987.951	2305.02
988.249	2300.73
988.547	2286.27
988.844	2267.96
989.142	2252.37
989.44	2249.43
989.737	2263.9
990.035	2230.45
990.332	2253.5
990.63	2201.07
990.927	2201.3
991.224	2215.53
991.521	2211.24
991.819	2181.19
992.116	2146.38
992.413	2153.16
992.71	2156.33
993.006	2103.22
993.303	2112.49
993.6	2108.87
993.897	2127.4
994.193	2074.52
994.49	2119.04
994.787	2058.93
995.083	2056.22
995.379	2066.16
995.676	2034.97
995.972	2014.41
996.268	2015.54
996.565	2010.79
996.861	1975.77
997.157	1976.67
997.453	1994.52
997.749	1967.63
998.044	1985.03
998.34	1959.27
998.636	1940.06
998.932	1942.1
999.227	1906.62
999.523	1926.28
999.818	1931.93
1000.114	1881.76
1000.409	1932.6
1000.704	1868.2
1001	1853.96
1001.295	1866.62
1001.59	1856.67
1001.885	1844.7
1002.18	1847.41
1002.475	1828.2
1002.77	1808.99
1003.065	1800.18
1003.359	1792.04
1003.654	1794.53
1003.949	1761.99
1004.243	1780.52
1004.538	1782.55
1004.832	1760.63
1005.127	1726.28
1005.421	1743.46
1005.715	1744.59
1006.009	1717.92
1006.304	1697.13
1006.598	1706.85
1006.892	1681.54
1007.186	1681.09
1007.48	1656
1007.773	1662.1
1008.067	1623.46
1008.361	1626.62
1008.655	1627.08
1008.948	1620.07
1009.242	1632.73
1009.535	1602.22
1009.829	1595.66
1010.122	1585.72
1010.415	1585.5
1010.708	1603.12
1011.001	1546.63
1011.295	1579.85
1011.588	1563.57
1011.881	1539.39
1012.173	1537.59
1012.466	1527.19
1012.759	1535.78
1013.052	1494.2
1013.344	1505.05
1013.637	1485.61
1013.93	1468.44
1014.222	1500.3
1014.514	1466.63
1014.807	1438.38
1015.099	1442.67
1015.391	1417.82
1015.683	1440.41
1015.976	1430.7
1016.268	1437.02
1016.56	1432.05
1016.851	1414.88
1017.143	1361.32
1017.435	1390.25
1017.727	1332.39
1018.018	1374.88
1018.31	1303.24
1018.602	1331.04
1018.893	1309.8
1019.185	1321.32
1019.476	1333.98
1019.767	1333.52
1020.058	1314.54
1020.35	1253.53
1020.641	1282.23
1020.932	1267.09
1021.223	1263.7
1021.514	1296.24
1021.804	1261.21
1022.095	1262.34
1022.386	1224.83
1022.677	1219.85
1022.967	1242.45
1023.258	1238.16
1023.548	1203.13
1023.839	1189.12
1024.129	1198.61
1024.419	1183.02
1024.709	1168.33
1025	1170.82
1025.29	1146.86
1025.58	1140.99
1025.87	1153.87
1026.16	1151.61
1026.449	1155
1026.739	1119.74
1027.029	1130.82
1027.319	1125.17
1027.608	1120.42
1027.898	1092.17
1028.187	1073.64
1028.477	1091.27
1028.766	1073.64
1029.055	1087.43
1029.344	1073.64
1029.634	1063.47
1029.923	1059.18
1030.212	1055.57
1030.501	1062.57
1030.79	1034.55
1031.078	1050.59
1031.367	1016.47
1031.656	1006.3
1031.945	1003.36
1032.233	1025.51
1032.522	985.74
1032.81	981.9
1033.099	984.38
1033.387	1025.74
1033.675	960.65
1033.963	964.04
1034.251	978.05
1034.54	959.3
1034.828	939.64
1035.116	938.51
1035.403	921.11
1035.691	951.61
1035.979	900.77
1036.267	928.34
1036.554	904.16
1036.842	943.48
1037.129	909.81
1037.417	890.6
1037.704	891.95
1037.992	897.6
1038.279	873.65
1038.566	871.16
1038.853	871.16
1039.14	871.16
