Data from blue_surface_keyboard_FLMS001491_097.txt Node
Date: Tue Feb 07 11:13:55 GMT 2017
User: dcchb
Spectrometer: FLMS00149
Trigger mode: 0
Integration Time (sec): 2.000000E-2
Scans to average: 10
Electric dark correction enabled: true
Nonlinearity correction enabled: false
Boxcar width: 0
XAxis mode: Wavelengths
Number of Pixels in Spectrum: 2048
>>>>>Begin Spectral Data<<<<<
341.393	-3.69
341.776	-3.69
342.16	-3.69
342.543	-70.13
342.927	-63.57
343.31	-62.89
343.693	-81.2
344.077	-75.55
344.46	-60.41
344.843	-52.27
345.226	-53.18
345.61	-42.33
345.993	-3.01
346.376	3.32
346.759	18.91
347.142	31.57
347.525	30.66
347.908	69.98
348.291	83.09
348.674	77.89
349.057	115.41
349.44	124.45
349.823	138.46
350.206	155.63
350.588	168.06
350.971	187.95
351.354	187.04
351.737	227.27
352.119	227.04
352.502	236.99
352.884	255.97
353.267	274.27
353.65	266.82
354.032	305.91
354.414	300.03
354.797	295.06
355.179	288.06
355.562	324.21
355.944	282.63
356.326	306.81
356.709	313.59
357.091	299.36
357.473	336.87
357.855	307.94
358.238	316.31
358.62	327.15
359.002	323.76
359.384	296.19
359.766	338.23
360.148	324.89
360.53	315.63
360.912	307.04
361.294	308.85
361.676	301.16
362.057	302.75
362.439	303.88
362.821	320.37
363.203	305.68
363.584	308.4
363.966	296.19
364.348	298.45
364.729	288.51
365.111	287.61
365.493	285.57
365.874	298.45
366.256	294.38
366.637	292.58
367.019	287.61
367.4	289.64
367.781	283.09
368.163	293.48
368.544	275.85
368.925	305.46
369.306	285.12
369.688	279.02
370.069	280.6
370.45	292.58
370.831	272.46
371.212	306.59
371.593	268.62
371.974	291.45
372.355	261.39
372.736	289.64
373.117	287.38
373.498	302.29
373.879	273.14
374.26	288.28
374.641	283.76
375.021	284.44
375.402	314.5
375.783	293.48
376.163	282.41
376.544	282.41
376.925	294.84
377.305	298.9
377.686	300.26
378.066	310.88
378.447	294.61
378.827	282.18
379.208	294.84
379.588	304.78
379.968	309.98
380.349	287.38
380.729	279.24
381.109	280.37
381.489	287.38
381.87	300.71
382.25	289.87
382.63	303.65
383.01	304.55
383.39	276.08
383.77	307.27
384.15	313.37
384.53	297.55
384.91	311.33
385.29	307.27
385.67	315.18
386.049	318.34
386.429	288.51
386.809	310.66
387.189	306.36
387.568	298.45
387.948	312.46
388.328	313.82
388.707	312.46
389.087	315.63
389.466	312.92
389.846	312.24
390.225	321.05
390.605	319.92
390.984	307.27
391.363	321.5
391.743	304.33
392.122	298.68
392.501	316.53
392.881	309.3
393.26	347.04
393.639	318.34
394.018	333.48
394.397	323.76
394.776	340.94
395.155	332.58
395.534	331.9
395.913	316.76
396.292	329.86
396.671	340.94
397.05	330.77
397.429	330.32
397.808	329.86
398.186	331.9
398.565	336.19
398.944	347.72
399.323	321.28
399.701	333.48
400.08	322.41
400.458	335.29
400.837	333.48
401.215	350.2
401.594	323.08
401.972	347.94
402.351	324.67
402.729	342.75
403.107	342.52
403.486	345.68
403.864	345.68
404.242	345.46
404.62	344.33
404.999	337.55
405.377	336.64
405.755	357.43
406.133	346.36
406.511	352.24
406.889	371.9
407.267	348.62
407.645	338.23
408.023	349.75
408.401	347.49
408.779	362.41
409.156	359.24
409.534	352.24
409.912	367.38
410.29	374.61
410.667	384.33
411.045	359.47
411.422	372.8
411.8	362.18
412.178	379.81
412.555	372.12
412.933	370.54
413.31	356.98
413.687	377.55
414.065	392.69
414.442	372.57
414.819	379.81
415.197	391.78
415.574	405.79
415.951	378.68
416.328	395.4
416.705	374.38
417.082	393.37
417.46	390.88
417.837	382.07
418.214	407.6
418.591	389.52
418.967	400.82
419.344	410.09
419.721	401.27
420.098	382.29
420.475	403.08
420.852	420.03
421.228	412.8
421.605	397.43
421.982	402.18
422.358	419.35
422.735	405.57
423.111	403.99
423.488	401.73
423.864	416.42
424.241	430.43
424.617	418.9
424.994	410.99
425.37	408.28
425.746	421.61
426.123	396.76
426.499	412.8
426.875	419.81
427.251	449.86
427.627	439.01
428.003	439.69
428.379	429.75
428.756	418.68
429.132	438.11
429.507	408.28
429.883	446.7
430.259	430.43
430.635	432.23
431.011	441.5
431.387	464.1
431.763	451.44
432.138	456.41
432.514	448.05
432.89	477.66
433.265	478.11
433.641	470.43
434.016	477.66
434.392	476.98
434.767	449.18
435.143	468.62
435.518	472.01
435.894	468.62
436.269	449.64
436.644	473.36
437.02	495.28
437.395	508.16
437.77	509.52
438.145	493.48
438.52	495.28
438.895	499.8
439.271	494.15
439.646	490.09
440.021	519.46
440.395	528.73
440.77	497.77
441.145	517.43
441.52	502.06
441.895	507.71
442.27	518.33
442.645	501.39
443.019	512.01
443.394	511.1
443.769	516.98
444.143	510.2
444.518	564.43
444.892	535.06
445.267	541.38
445.641	519.92
446.016	550.42
446.39	528.28
446.764	533.47
447.139	546.58
447.513	567.82
447.887	543.42
448.262	541.61
448.636	536.64
449.01	572.57
449.384	564.66
449.758	544.55
450.132	563.53
450.506	552.68
450.88	555.17
451.254	579.58
451.628	577.99
452.002	564.66
452.376	572.12
452.75	569.41
453.123	591.1
453.497	601.5
453.871	573.25
454.244	568.95
454.618	584.77
454.992	573.93
455.365	583.64
455.739	581.83
456.112	606.92
456.486	601.95
456.859	634.94
457.232	604.89
457.606	621.38
457.979	625.22
458.352	631.78
458.725	640.59
459.099	636.97
459.472	618.44
459.845	656.18
460.218	629.97
460.591	652.79
460.964	664.77
461.337	653.25
461.71	681.04
462.083	656.86
462.456	681.49
462.829	657.99
463.201	681.27
463.574	669.97
463.947	686.69
464.32	676.07
464.692	686.24
465.065	693.02
465.438	701.61
465.81	693.24
466.183	722.4
466.555	707.48
466.928	706.58
467.3	719.91
467.672	718.78
468.045	747.25
468.417	740.02
468.789	734.83
469.161	770.98
469.534	761.72
469.906	763.07
470.278	759.01
470.65	771.66
471.022	766.01
471.394	761.04
471.766	795.61
472.138	785.22
472.51	797.42
472.882	799
473.253	810.3
473.625	835.84
473.997	854.37
474.369	826.12
474.74	829.29
475.112	838.1
475.484	865.67
475.855	858.21
476.227	888.95
476.598	880.13
476.97	890.08
477.341	902.28
477.713	921.94
478.084	886.46
478.455	914.48
478.827	927.81
479.198	930.3
479.569	927.14
479.94	947.25
480.311	966.46
480.682	962.39
481.053	978.21
481.424	968.27
481.795	1024.99
482.166	1015.72
482.537	1009.62
482.908	1016.63
483.279	1013.24
483.65	1033.8
484.021	1048.04
484.391	1065.89
484.762	1070.64
485.133	1073.12
485.503	1092.1
485.874	1097.98
486.244	1117.19
486.615	1113.57
486.985	1116.74
487.356	1097.3
487.726	1118.09
488.097	1123.97
488.467	1146.11
488.837	1163.74
489.207	1191.54
489.578	1174.14
489.948	1206
490.318	1175.04
490.688	1222.27
491.058	1203.29
491.428	1212.33
491.798	1224.53
492.168	1206
492.538	1247.13
492.908	1227.69
493.278	1251.65
493.648	1241.48
494.017	1231.76
494.387	1248.03
494.757	1256.17
495.126	1280.12
495.496	1272.66
495.866	1272.21
496.235	1272.66
496.605	1296.17
496.974	1260.46
497.344	1314.47
497.713	1302.04
498.082	1292.32
498.452	1331.19
498.821	1309.5
499.19	1295.71
499.559	1321.7
499.928	1311.99
500.298	1318.76
500.667	1343.17
501.036	1339.1
501.405	1332.78
501.774	1347.46
502.143	1347.24
502.512	1340.91
502.88	1373.23
503.249	1349.5
503.618	1374.58
503.987	1361.93
504.356	1364.64
504.724	1354.47
505.093	1374.81
505.462	1366
505.83	1372.1
506.199	1370.06
506.567	1373
506.936	1400.34
507.304	1414.81
507.672	1393.79
508.041	1409.38
508.409	1418.2
508.777	1401.25
509.145	1393.79
509.514	1352.66
509.882	1417.07
510.25	1410.97
510.618	1443.96
510.986	1399.21
511.354	1422.72
511.722	1421.59
512.09	1401.47
512.458	1427.01
512.826	1415.71
513.193	1417.97
513.561	1441.7
513.929	1424.98
514.297	1456.84
514.664	1442.83
515.032	1437.86
515.4	1451.64
515.767	1467.46
516.135	1464.75
516.502	1470.4
516.869	1462.72
517.237	1469.5
517.604	1449.83
517.972	1477.4
518.339	1464.3
518.706	1476.95
519.073	1483.96
519.44	1468.82
519.808	1483.96
520.175	1482.38
520.542	1490.74
520.909	1492.32
521.276	1504.75
521.643	1497.07
522.009	1478.53
522.376	1484.64
522.743	1502.49
523.11	1486.67
523.477	1521.02
523.843	1511.08
524.21	1508.36
524.577	1534.58
524.943	1511.98
525.31	1510.17
525.676	1533.22
526.043	1524.18
526.409	1530.51
526.776	1572.32
527.142	1550.4
527.508	1551.53
527.874	1551.3
528.241	1575.26
528.607	1536.39
528.973	1569.38
529.339	1547.69
529.705	1542.49
530.071	1573.45
530.437	1615.03
530.803	1568.25
531.169	1591.75
531.535	1607.34
531.901	1597.18
532.267	1586.78
532.632	1583.16
532.998	1573.22
533.364	1608.47
533.73	1605.31
534.095	1614.35
534.461	1611.19
534.826	1601.47
535.192	1623.84
535.557	1609.6
535.923	1606.89
536.288	1578.19
536.653	1610.96
537.019	1594.46
537.384	1623.39
537.749	1619.55
538.114	1627.01
538.479	1601.24
538.845	1597.63
539.21	1618.64
539.575	1610.73
539.94	1599.89
540.305	1606.67
540.67	1611.86
541.034	1565.99
541.399	1624.75
541.764	1604.41
542.129	1634.69
542.494	1629.72
542.858	1638.08
543.223	1599.89
543.587	1641.69
543.952	1640.11
544.316	1621.58
544.681	1619.77
545.045	1629.04
545.41	1637.4
545.774	1620.68
546.138	1647.8
546.503	1649.15
546.867	1635.37
547.231	1662.94
547.595	1623.39
547.959	1622.94
548.324	1623.62
548.688	1631.75
549.052	1635.14
549.416	1642.37
549.779	1644.86
550.143	1644.18
550.507	1624.29
550.871	1620
551.235	1615.71
551.599	1655.71
551.962	1640.79
552.326	1645.54
552.689	1640.34
553.053	1657.51
553.417	1615.25
553.78	1666.33
554.143	1660.68
554.507	1649.15
554.87	1677.4
555.234	1691.86
555.597	1664.97
555.96	1630.39
556.323	1670.85
556.686	1641.69
557.05	1641.02
557.413	1628.59
557.776	1635.59
558.139	1655.03
558.502	1672.65
558.865	1661.81
559.228	1675.37
559.59	1649.83
559.953	1652.77
560.316	1672.2
560.679	1670.39
561.041	1705.2
561.404	1663.61
561.767	1713.56
562.129	1677.17
562.492	1681.24
562.854	1696.38
563.217	1685.31
563.579	1723.27
563.941	1660
564.304	1721.24
564.666	1721.69
565.028	1717.62
565.39	1702.26
565.753	1740.22
566.115	1704.29
566.477	1723.95
566.839	1715.14
567.201	1693.9
567.563	1723.5
567.925	1756.27
568.287	1739.09
568.648	1758.3
569.01	1728.7
569.372	1765.76
569.734	1741.58
570.095	1766.66
570.457	1743.16
570.819	1768.47
571.18	1743.16
571.542	1742.71
571.903	1779.54
572.265	1751.97
572.626	1756.49
572.987	1783.16
573.349	1775.25
573.71	1736.38
574.071	1748.81
574.432	1725.08
574.794	1769.6
575.155	1773.44
575.516	1758.08
575.877	1757.17
576.238	1770.73
576.599	1782.93
576.96	1787
577.32	1792.88
577.681	1794.68
578.042	1764.85
578.403	1800.56
578.763	1777.74
579.124	1816.38
579.485	1821.8
579.845	1807.11
580.206	1831.52
580.566	1807.11
580.927	1820.9
581.287	1802.14
581.648	1805.31
582.008	1828.58
582.368	1810.05
582.728	1829.26
583.089	1781.35
583.449	1774.35
583.809	1809.37
584.169	1829.94
584.529	1810.05
584.889	1843.04
585.249	1801.01
585.609	1845.3
585.969	1824.06
586.329	1816.83
586.688	1860.45
587.048	1832.2
587.408	1828.58
587.768	1835.36
588.127	1803.95
588.487	1844.63
588.846	1839.66
589.206	1872.42
589.565	1805.08
589.925	1818.64
590.284	1819.77
590.643	1857.06
591.003	1848.24
591.362	1859.77
591.721	1821.35
592.08	1847.34
592.44	1817.73
592.799	1852.31
593.158	1863.84
593.517	1829.03
593.876	1848.92
594.235	1857.51
594.593	1846.89
594.952	1880.11
595.311	1881.91
595.67	1852.76
596.029	1864.51
596.387	1873.55
596.746	1866.32
597.104	1891.18
597.463	1865.87
597.822	1861.8
598.18	1895.7
598.538	1854.8
598.897	1890.28
599.255	1858.64
599.613	1855.7
599.972	1892.76
600.33	1855.7
600.688	1865.42
601.046	1889.37
601.404	1885.53
601.762	1888.47
602.12	1893.66
602.478	1865.87
602.836	1911.29
603.194	1892.76
603.552	1898.18
603.91	1909.71
604.268	1890.28
604.625	1873.33
604.983	1890.95
605.341	1899.09
605.698	1869.71
606.056	1893.66
606.413	1900.67
606.771	1926.21
607.128	1923.49
607.485	1904.96
607.843	1935.02
608.2	1948.13
608.557	1952.19
608.914	1964.85
609.272	1921.23
609.629	1929.82
609.986	1933.21
610.343	1893.44
610.7	1926.88
611.057	1948.35
611.414	1902.03
611.771	1953.55
612.127	1944.51
612.484	1922.14
612.841	1949.48
613.198	1960.78
613.554	2013.44
613.911	1976.37
614.267	1952.19
614.624	1950.16
614.98	1984.06
615.337	1942.25
615.693	1980.22
616.05	1996.04
616.406	1948.58
616.762	1992.19
617.118	1955.36
617.475	1977.96
617.831	1989.93
618.187	2006.88
618.543	1984.74
618.899	2006.88
619.255	1974.11
619.611	1989.03
619.967	2006.88
620.323	2038.97
620.678	2025.19
621.034	2030.61
621.39	2027.9
621.746	2006.43
622.101	2017.05
622.457	2008.92
622.812	2033.77
623.168	2004.85
623.523	2046.66
623.879	2050.27
624.234	2020.67
624.589	2007.79
624.945	2047.33
625.3	2047.79
625.655	2078.97
626.01	2065.86
626.365	2068.12
626.72	2060.67
627.075	2068.8
627.43	2043.04
627.785	2054.56
628.14	2066.09
628.495	2089.82
628.85	2076.94
629.205	2106.31
629.559	2048.46
629.914	2106.54
630.269	2088.46
630.623	2086.88
630.978	2087.56
631.332	2091.85
631.687	2123.04
632.041	2078.52
632.396	2097.95
632.75	2114.9
633.104	2107.44
633.459	2129.36
633.813	2094.34
634.167	2115.13
634.521	2161.45
634.875	2132.98
635.229	2134.34
635.583	2137.05
635.937	2132.75
636.291	2141.12
636.645	2134.34
636.999	2147.22
637.352	2170.95
637.706	2118.07
638.06	2130.27
638.413	2144.51
638.767	2107.9
639.121	2188.12
639.474	2174.79
639.828	2191.06
640.181	2164.62
640.534	2184.73
640.888	2201.91
641.241	2196.26
641.594	2218.4
641.947	2200.55
642.301	2198.74
642.654	2215.69
643.007	2203.94
643.36	2220.44
643.713	2215.69
644.066	2282.81
644.419	2265.63
644.771	2249.81
645.124	2237.61
645.477	2195.13
645.83	2229.25
646.182	2203.04
646.535	2229.7
646.888	2245.29
647.24	2241.23
647.593	2285.52
647.945	2275.58
648.298	2266.99
648.65	2280.1
649.002	2304.95
649.355	2298.4
649.707	2312.18
650.059	2283.94
650.411	2331.17
650.763	2365.74
651.115	2377.27
651.467	2362.35
651.819	2390.15
652.171	2396.25
652.523	2444.84
652.875	2426.08
653.227	2412.52
653.578	2450.26
653.93	2489.13
654.282	2440.77
654.633	2430.37
654.985	2484.16
655.337	2458.4
655.688	2490.71
656.039	2499.75
656.391	2480.32
656.742	2511.05
657.094	2541.11
657.445	2543.14
657.796	2554.66
658.147	2574.1
658.498	2575
658.849	2589.92
659.2	2586.53
659.551	2572.52
659.902	2604.61
660.253	2641.89
660.604	2656.81
660.955	2634.89
661.306	2625.4
661.656	2685.73
662.007	2651.84
662.358	2688.67
662.708	2729.8
663.059	2712.17
663.409	2732.74
663.76	2746.75
664.11	2768.44
664.461	2761.89
664.811	2751.27
665.161	2763.7
665.511	2790.14
665.862	2845.05
666.212	2846.63
666.562	2872.17
666.912	2888.22
667.262	2883.24
667.612	2884.6
667.962	2882.79
668.312	2945.16
668.662	2983.35
669.011	2936.12
669.361	2956.69
669.711	2954.65
670.06	2973.86
670.41	2993.97
670.76	2985.84
671.109	2998.04
671.459	3026.97
671.808	3043.24
672.157	3057.7
672.507	3052.05
672.856	3069.45
673.205	3077.14
673.554	3134.99
673.904	3081.2
674.253	3143.58
674.602	3196
674.951	3140.64
675.3	3127.3
675.649	3188.09
675.998	3166.4
676.346	3196
676.695	3225.16
677.044	3228.55
677.393	3208.21
677.741	3238.94
678.09	3246.17
678.438	3252.73
678.787	3287.3
679.135	3292.5
679.484	3283.01
679.832	3318.71
680.181	3276.45
680.529	3306.06
680.877	3303.8
681.225	3284.14
681.573	3370.69
681.922	3353.06
682.27	3348.09
682.618	3388.99
682.966	3373.4
683.314	3401.65
683.661	3372.95
684.009	3385.6
684.357	3392.38
684.705	3452.27
685.053	3397.35
685.4	3438.71
685.748	3421.31
686.095	3426.96
686.443	3458.37
686.79	3443.23
687.138	3473.74
687.485	3460.86
687.832	3460.4
688.18	3463.34
688.527	3472.83
688.874	3495.88
689.221	3487.75
689.568	3492.27
689.915	3503.34
690.262	3482.55
690.609	3479.61
690.956	3477.13
691.303	3491.14
691.65	3506.28
691.997	3509.67
692.344	3517.8
692.69	3537.46
693.037	3487.52
693.383	3536.79
693.73	3567.97
694.077	3516
694.423	3540.85
694.769	3528.65
695.116	3524.58
695.462	3471.93
695.808	3548.76
696.155	3533.17
696.501	3480.29
696.847	3546.05
697.193	3493.17
697.539	3486.17
697.885	3503.79
698.231	3509.89
698.577	3527.52
698.923	3485.04
699.269	3502.66
699.614	3496.79
699.96	3467.41
700.306	3520.74
700.651	3494.07
700.997	3480.97
701.342	3498.82
701.688	3503.11
702.033	3493.62
702.379	3478.26
702.724	3489.1
703.069	3492.04
703.415	3517.35
703.76	3479.61
704.105	3437.35
704.45	3544.24
704.795	3468.09
705.14	3430.8
705.485	3489.33
705.83	3464.25
706.175	3470.8
706.52	3465.83
706.865	3461.53
707.209	3441.19
707.554	3438.94
707.899	3399.16
708.243	3418.14
708.588	3413.62
708.932	3403.91
709.277	3408.65
709.621	3433.06
709.966	3413.4
710.31	3372.04
710.654	3417.01
710.998	3397.13
711.342	3411.82
711.687	3398.71
712.031	3371.37
712.375	3405.26
712.719	3382.21
713.063	3386.73
713.407	3410.69
713.75	3374.08
714.094	3360.74
714.438	3386.51
714.782	3417.92
715.125	3422.89
715.469	3404.13
715.812	3429.9
716.156	3367.07
716.499	3351.03
716.843	3405.94
717.186	3377.02
717.53	3434.87
717.873	3410.91
718.216	3395.32
718.559	3409.56
718.902	3373.4
719.246	3383.12
719.589	3407.75
719.932	3397.58
720.275	3397.13
720.617	3413.17
720.96	3403.23
721.303	3397.81
721.646	3421.08
721.989	3411.59
722.331	3413.62
722.674	3368.65
723.016	3369.78
723.359	3379.5
723.701	3376.34
724.044	3352.84
724.386	3353.51
724.729	3400.07
725.071	3321.2
725.413	3384.7
725.755	3418.37
726.097	3346.73
726.439	3368.88
726.782	3379.28
727.124	3387.86
727.465	3412.95
727.807	3386.06
728.149	3342.21
728.491	3373.63
728.833	3356
729.175	3377.69
729.516	3393.51
729.858	3406.85
730.199	3367.98
730.541	3397.58
730.882	3406.17
731.224	3433.51
731.565	3364.59
731.906	3450.91
732.248	3378.6
732.589	3387.41
732.93	3408.65
733.271	3392.16
733.612	3436.45
733.953	3417.24
734.294	3408.88
734.635	3422.66
734.976	3420.18
735.317	3420.86
735.658	3421.31
735.999	3447.52
736.339	3450.01
736.68	3468.99
737.021	3443.45
737.361	3456.34
737.702	3500.18
738.042	3463.79
738.383	3400.74
738.723	3491.36
739.063	3474.19
739.404	3504.92
739.744	3494.3
740.084	3493.85
740.424	3488.88
740.764	3505.83
741.104	3560.74
741.444	3495.43
741.784	3498.14
742.124	3530.91
742.464	3542.21
742.804	3543.11
743.143	3578.14
743.483	3588.31
743.823	3574.3
744.162	3588.76
744.502	3614.75
744.841	3568.65
745.181	3646.84
745.52	3642.32
745.86	3684.8
746.199	3654.3
746.538	3661.3
746.877	3684.13
747.216	3685.48
747.556	3727.97
747.895	3743.33
748.234	3710.79
748.573	3783.33
748.911	3791.69
749.25	3796.89
749.589	3798.7
749.928	3847.74
750.267	3845.03
750.605	3888.41
750.944	3865.14
751.283	3827.17
751.621	3878.92
751.96	3923.67
752.298	3937.23
752.636	3980.16
752.975	3972.71
753.313	3922.09
753.651	4018.58
753.989	3987.62
754.327	4034.85
754.666	4092.93
755.004	4094.06
755.342	4142.19
755.679	4104.68
756.017	4146.94
756.355	4180.61
756.693	4157.79
757.031	4199.59
757.368	4184.23
757.706	4212.47
758.044	4216.54
758.381	4303.77
758.719	4282.98
759.056	4337.89
759.394	4312.36
759.731	4340.38
760.068	4293.6
760.405	4344.45
760.743	4347.61
761.08	4430.1
761.417	4371.79
761.754	4395.52
762.091	4400.49
762.428	4421.73
762.765	4405.92
763.102	4443.2
763.438	4448.17
763.775	4420.15
764.112	4476.42
764.449	4475.52
764.785	4436.87
765.122	4442.75
765.458	4423.99
765.795	4474.16
766.131	4471.22
766.467	4500.83
766.804	4459.02
767.14	4459.02
767.476	4523.2
767.812	4454.05
768.148	4463.54
768.485	4473.48
768.821	4473.71
769.157	4478.91
769.492	4472.35
769.828	4469.19
770.164	4461.73
770.5	4502.64
770.836	4496.76
771.171	4467.38
771.507	4466.48
771.842	4442.52
772.178	4466.7
772.513	4472.81
772.849	4468.51
773.184	4427.16
773.519	4422.86
773.855	4412.92
774.19	4434.84
774.525	4375.41
774.86	4389.19
775.195	4343.32
775.53	4379.93
775.865	4349.19
776.2	4319.14
776.535	4320.27
776.87	4336.76
777.205	4312.58
777.539	4291.34
777.874	4352.36
778.209	4322.53
778.543	4303.77
778.878	4264.68
779.212	4268.29
779.547	4242.76
779.881	4241.63
780.215	4221.51
780.55	4244.11
780.884	4179.48
781.218	4203.66
781.552	4205.92
781.886	4179.71
782.22	4195.75
782.554	4180.84
782.888	4163.89
783.222	4146.04
783.556	4147.84
783.889	4101.97
784.223	4052.93
784.557	4077.79
784.89	4109.2
785.224	4012.71
785.557	4090.67
785.891	4031.24
786.224	4051.35
786.558	4046.38
786.891	3961.86
787.224	3988.07
787.557	3979.71
787.891	3996.66
788.224	3991.46
788.557	3999.6
788.89	3941.75
789.223	3962.54
789.556	3940.39
789.888	3912.82
790.221	3915.31
790.554	3921.63
790.887	3890.45
791.219	3877.79
791.552	3882.31
791.884	3866.04
792.217	3854.74
792.549	3800.06
792.882	3854.52
793.214	3809.32
793.546	3746.95
793.879	3805.03
794.211	3756.89
794.543	3787.4
794.875	3772.71
795.207	3759.83
795.539	3773.16
795.871	3770.23
796.203	3750.57
796.535	3718.25
796.867	3687.97
797.198	3699.27
797.53	3724.35
797.862	3672.38
798.193	3698.59
798.525	3664.01
798.856	3668.99
799.188	3657.23
799.519	3626.95
799.85	3596.67
800.182	3633.05
800.513	3595.99
800.844	3606.39
801.175	3561.64
801.506	3566.39
801.837	3546.28
802.168	3580.17
802.499	3540.85
802.83	3527.29
803.161	3544.47
803.491	3532.72
803.822	3527.29
804.153	3555.54
804.483	3503.34
804.814	3460.86
805.145	3436
805.475	3463.57
805.805	3449.56
806.136	3425.6
806.466	3456.34
806.796	3459.73
807.126	3438.48
807.457	3415.66
807.787	3415.21
808.117	3379.05
808.447	3381.99
808.777	3387.18
809.107	3388.31
809.436	3391.48
809.766	3385.83
810.096	3362.55
810.426	3366.17
810.755	3358.94
811.085	3338.15
811.414	3308.99
811.744	3307.41
812.073	3289.79
812.403	3297.24
812.732	3351.71
813.061	3294.31
813.39	3276.68
813.719	3283.46
814.049	3275.55
814.378	3261.99
814.707	3266.28
815.036	3240.3
815.365	3219.05
815.693	3191.94
816.022	3234.19
816.351	3206.4
816.68	3202.56
817.008	3186.74
817.337	3186.29
817.665	3179.51
817.994	3195.1
818.322	3171.37
818.651	3113.75
818.979	3140.64
819.307	3166.85
819.636	3150.58
819.964	3169.56
820.292	3147.42
820.62	3132.28
820.948	3151.03
821.276	3114.65
821.604	3167.98
821.932	3127.98
822.259	3100.86
822.587	3139.28
822.915	3135.89
823.243	3156.23
823.57	3123.92
823.898	3135.44
824.225	3135.21
824.553	3175.67
824.88	3090.02
825.207	3140.41
825.535	3113.52
825.862	3108.32
826.189	3130.02
826.516	3152.84
826.843	3092.5
827.17	3151.94
827.497	3098.6
827.824	3145.38
828.151	3117.59
828.478	3127.76
828.805	3117.14
829.131	3115.78
829.458	3068.1
829.785	3113.29
830.111	3136.8
830.438	3154.87
830.764	3107.19
831.09	3108.1
831.417	3106.51
831.743	3148.55
832.069	3137.7
832.395	3096.12
832.722	3115.55
833.048	3118.27
833.374	3109.9
833.7	3100.86
834.026	3122.11
834.351	3082.11
834.677	3065.61
835.003	3110.36
835.329	3132.5
835.654	3123.69
835.98	3080.3
836.306	3072.84
836.631	3034.88
836.956	3107.87
837.282	3045.95
837.607	3040.3
837.932	3034.65
838.258	3076.23
838.583	3076.01
838.908	3041.43
839.233	3078.94
839.558	3030.81
839.883	3023.58
840.208	3054.31
840.533	3031.49
840.858	3023.35
841.182	3018.83
841.507	3048.66
841.832	3014.99
842.156	3000.08
842.481	2973.18
842.805	3004.37
843.13	2979.06
843.454	3000.08
843.778	2932.06
844.103	2995.56
844.427	2985.39
844.751	2935.9
845.075	2965.73
845.399	2940.87
845.723	2937.25
846.047	2946.29
846.371	2897.48
846.695	2918.72
847.019	2924.82
847.343	2879.63
847.666	2884.15
847.99	2850.25
848.313	2862
848.637	2848.22
848.96	2819.97
849.284	2820.87
849.607	2808.44
849.931	2820.87
850.254	2799.63
850.577	2792.4
850.9	2719.86
851.223	2758.05
851.546	2757.6
851.869	2735.9
852.192	2773.19
852.515	2718.73
852.838	2719.41
853.161	2691.84
853.483	2690.03
853.806	2661.1
854.129	2677.15
854.451	2678.5
854.774	2664.04
855.096	2676.47
855.419	2651.61
855.741	2667.66
856.063	2633.08
856.385	2648.45
856.708	2659.29
857.03	2617.26
857.352	2641.22
857.674	2589.01
857.996	2588.11
858.318	2600.09
858.64	2580.2
858.961	2601.22
859.283	2565.51
859.605	2559.86
859.926	2551.5
860.248	2571.61
860.57	2553.31
860.891	2544.95
861.212	2581.33
861.534	2550.14
861.855	2531.61
862.176	2538.39
862.498	2528.9
862.819	2517.83
863.14	2511.95
863.461	2494.78
863.782	2492.29
864.103	2510.15
864.424	2492.07
864.745	2542.01
865.065	2462.01
865.386	2471.73
865.707	2477.38
866.027	2478.96
866.348	2462.46
866.668	2496.13
866.989	2461.33
867.309	2433.99
867.63	2464.27
867.95	2443.93
868.27	2457.49
868.59	2441
868.91	2471.95
869.23	2491.62
869.55	2435.57
869.87	2462.46
870.19	2429.92
870.51	2436.7
870.83	2456.14
871.15	2460.88
871.469	2423.82
871.789	2450.49
872.109	2438.96
872.428	2371.39
872.748	2395.8
873.067	2441.22
873.386	2394.67
873.706	2400.09
874.025	2382.24
874.344	2400.32
874.663	2376.14
874.982	2386.99
875.301	2371.84
875.62	2374.33
875.939	2350.6
876.258	2355.8
876.577	2371.84
876.896	2377.27
877.214	2352.18
877.533	2387.44
877.852	2352.41
878.17	2366.19
878.489	2344.95
878.807	2368.91
879.125	2360.77
879.444	2352.41
879.762	2318.06
880.08	2344.73
880.398	2372.97
880.716	2325.52
881.034	2326.87
881.352	2311.96
881.67	2313.54
881.988	2320.55
882.306	2332.98
882.624	2310.83
882.941	2333.2
883.259	2290.26
883.577	2303.82
883.894	2290.04
884.212	2274.22
884.529	2259.08
884.846	2272.86
885.164	2296.37
885.481	2280.1
885.798	2264.5
886.115	2247.55
886.432	2250.49
886.75	2242.36
887.067	2242.81
887.383	2234.67
887.7	2226.99
888.017	2199.87
888.334	2250.27
888.651	2263.15
888.967	2217.72
889.284	2196.26
889.6	2180.21
889.917	2191.06
890.233	2180.89
890.55	2169.59
890.866	2207.1
891.182	2186.31
891.498	2166.65
891.815	2165.75
892.131	2163.94
892.447	2179.53
892.763	2141.12
893.079	2133.66
893.395	2139.76
893.71	2126.88
894.026	2138.86
894.342	2110.61
894.657	2117.84
894.973	2125.52
895.289	2109.48
895.604	2086.2
895.92	2085.07
896.235	2042.59
896.55	2076.48
896.865	2097.5
897.181	2048.69
897.496	2102.25
897.811	2056.6
898.126	2087.11
898.441	2016.37
898.756	2043.04
899.071	2048.46
899.386	2028.12
899.7	2043.49
900.015	2023.38
900.33	1986.32
900.644	2005.53
900.959	2018.18
901.273	2000.55
901.588	1983.61
901.902	1981.57
902.216	1948.13
902.531	1971.85
902.845	1957.17
903.159	1983.15
903.473	1975.7
903.787	1950.84
904.101	1939.54
904.415	1951.52
904.729	1907.45
905.042	1913.55
905.356	1927.56
905.67	1935.25
905.984	1909.71
906.297	1918.52
906.611	1871.07
906.924	1886.21
907.237	1886.21
907.551	1862.03
907.864	1871.29
908.177	1857.73
908.491	1871.29
908.804	1844.4
909.117	1838.07
909.43	1821.8
909.743	1816.38
910.056	1804.85
910.368	1803.5
910.681	1815.47
910.994	1804.85
911.307	1805.76
911.619	1778.41
911.932	1806.66
912.244	1803.72
912.557	1785.87
912.869	1793.55
913.181	1767.57
913.494	1763.05
913.806	1754.01
914.118	1765.53
914.43	1742.71
914.742	1756.27
915.054	1740.45
915.366	1726.21
915.678	1724.4
915.99	1714.46
916.302	1736.15
916.613	1686.21
916.925	1690.05
917.236	1714.01
917.548	1669.49
917.859	1664.52
918.171	1692.99
918.482	1653.22
918.794	1664.52
919.105	1636.27
919.416	1644.86
919.727	1657.74
920.038	1653.67
920.349	1638.53
920.66	1652.54
920.971	1666.1
921.282	1625.65
921.593	1620.68
921.903	1625.42
922.214	1597.85
922.525	1605.54
922.835	1607.34
923.146	1598.98
923.456	1568.93
923.767	1619.32
924.077	1594.92
924.387	1592.2
924.697	1556.27
925.008	1553.56
925.318	1542.94
925.628	1573.22
925.938	1554.01
926.248	1512.88
926.558	1518.53
926.867	1494.81
927.177	1520.79
927.487	1507.91
927.796	1501.58
928.106	1517.86
928.416	1520.57
928.725	1517.18
929.034	1499.32
929.344	1467.24
929.653	1493.22
929.962	1475.82
930.271	1490.06
930.581	1473.11
930.89	1470.17
931.199	1437.86
931.508	1453.22
931.817	1464.52
932.125	1447.57
932.434	1431.53
932.743	1431.3
933.051	1409.38
933.36	1454.81
933.669	1420.46
933.977	1380.46
934.286	1420.23
934.594	1408.71
934.902	1399.89
935.21	1386.56
935.519	1368.25
935.827	1391.08
936.135	1409.61
936.443	1333.68
936.751	1340.01
937.059	1340.23
937.367	1380.91
937.674	1367.35
937.982	1361.02
938.29	1338.65
938.597	1349.27
938.905	1349.27
939.213	1331.42
939.52	1328.48
939.827	1321.7
940.135	1327.13
940.442	1342.27
940.749	1317.41
941.056	1337.07
941.363	1324.64
941.67	1305.21
941.977	1309.5
942.284	1296.84
942.591	1305.43
942.898	1322.38
943.205	1264.3
943.511	1283.51
943.818	1249.84
944.125	1252.55
944.431	1287.81
944.738	1278.99
945.044	1281.03
945.35	1244.64
945.657	1239.67
945.963	1232.44
946.269	1232.89
946.575	1237.41
946.881	1243.96
947.187	1248.94
947.493	1227.69
947.799	1210.75
948.105	1234.25
948.41	1215.72
948.716	1231.54
949.022	1193.34
949.327	1167.58
949.633	1187.92
949.938	1203.51
950.244	1176.17
950.549	1173.01
950.854	1177.75
951.16	1181.59
951.465	1187.02
951.77	1154.7
952.075	1152.67
952.38	1150.63
952.685	1174.36
952.99	1154.25
953.294	1142.05
953.599	1127.81
953.904	1153.57
954.209	1141.82
954.513	1122.84
954.818	1109.28
955.122	1144.08
955.426	1117.64
955.731	1115.15
956.035	1121.03
956.339	1089.39
956.643	1121.93
956.948	1115.83
957.252	1100.01
957.556	1077.87
957.86	1079.22
958.163	1080.58
958.467	1105.89
958.771	1070.64
959.075	1089.84
959.378	1053.24
959.682	1075.38
959.985	1044.87
960.289	1057.53
960.592	1049.62
960.896	1041.03
961.199	1056.62
961.502	1058.88
961.805	1073.35
962.108	1041.48
962.411	1029.05
962.714	1021.82
963.017	1036.51
963.32	1039
963.623	1029.73
963.926	1027.92
964.228	1034.25
964.531	1018.21
964.833	1019.56
965.136	1015.04
965.438	984.76
965.741	1023.86
966.043	986.8
966.345	990.41
966.648	1032.9
966.95	995.84
967.252	988.38
967.554	974.14
967.856	971.2
968.158	981.82
968.46	996.29
968.761	996.74
969.063	963.52
969.365	943.18
969.666	962.62
969.968	967.59
970.269	979.11
970.571	942.73
970.872	964.65
971.174	951.99
971.475	920.36
971.776	960.58
972.077	957.19
972.378	953.35
972.679	930.3
972.98	924.42
973.281	947.25
973.582	927.81
973.883	926.23
974.183	927.36
974.484	933.01
974.785	917.65
975.085	902.05
975.386	911.32
975.686	911.32
975.986	905.89
976.287	910.87
976.587	919.68
976.887	897.76
977.187	888.95
977.487	892.34
977.787	894.82
978.087	893.69
978.387	886.69
978.687	877.87
978.987	893.92
979.286	897.98
979.586	871.09
979.885	873.8
980.185	867.48
980.484	862.28
980.784	858.66
981.083	862.96
981.382	849.17
981.682	874.48
981.981	835.16
982.28	855.95
982.579	841.72
982.878	827.93
983.177	819.12
983.475	860.47
983.774	826.8
984.073	827.7
984.372	817.76
984.67	815.5
984.969	820.92
985.267	810.53
985.566	831.32
985.864	825.22
986.162	826.12
986.461	820.02
986.759	806.01
987.057	812.79
987.355	804.65
987.653	815.28
987.951	797.65
988.249	799.91
988.547	792.9
988.844	803.98
989.142	812.79
989.44	793.58
989.737	778.44
990.035	789.29
990.332	778.44
990.63	752.9
990.927	762.62
991.224	764.66
991.521	773.24
991.819	765.56
992.116	760.14
992.413	763.98
992.71	767.59
993.006	756.52
993.303	769.85
993.6	774.82
993.897	755.62
994.193	738.67
994.49	754.94
994.787	740.02
995.083	763.53
995.379	735.73
995.676	728.72
995.972	751.77
996.268	728.72
996.565	728.05
996.861	723.75
997.157	726.92
997.453	739.8
997.749	722.85
998.044	725.33
998.34	734.15
998.636	698.22
998.932	716.52
999.227	716.52
999.523	717.2
999.818	718.55
1000.114	696.86
1000.409	709.06
1000.704	712.23
1001	714.49
1001.295	700.25
1001.59	689.63
1001.885	688.5
1002.18	685.56
1002.475	689.18
1002.77	697.99
1003.065	687.59
1003.359	696.41
1003.654	701.83
1003.949	672.91
1004.243	663.41
1004.538	666.8
1004.832	659.57
1005.127	674.94
1005.421	659.57
1005.715	675.17
1006.009	649.4
1006.304	657.77
1006.598	661.38
1006.892	642.17
1007.186	640.36
1007.48	648.05
1007.773	636.52
1008.067	662.06
1008.361	628.39
1008.655	632
1008.948	648.95
1009.242	632.68
1009.535	648.73
1009.829	640.36
1010.122	604.89
1010.415	627.94
1010.708	624.09
1011.001	617.09
1011.295	641.04
1011.588	622.06
1011.881	620.03
1012.173	615.73
1012.466	607.15
1012.759	589.74
1013.052	602.17
1013.344	617.31
1013.637	614.83
1013.93	600.37
1014.222	588.16
1014.514	591.1
1014.807	607.6
1015.099	607.82
1015.391	593.36
1015.683	606.24
1015.976	596.98
1016.268	570.31
1016.56	590.87
1016.851	605.11
1017.143	589.74
1017.435	570.31
1017.727	570.31
1018.018	560.14
1018.31	556.52
1018.602	580.71
1018.893	578.45
1019.185	552.68
1019.476	574.83
1019.767	570.08
1020.058	548.39
1020.35	533.7
1020.641	557.88
1020.932	569.63
1021.223	545.45
1021.514	540.71
1021.804	540.03
1022.095	534.6
1022.386	534.15
1022.677	533.25
1022.967	521.95
1023.258	540.93
1023.548	534.6
1023.839	550.2
1024.129	550.88
1024.419	523.53
1024.709	516.3
1025	506.58
1025.29	534.38
1025.58	524.44
1025.87	529.18
1026.16	515.85
1026.449	514.04
1026.739	536.41
1027.029	507.49
1027.319	516.98
1027.608	530.54
1027.898	516.98
1028.187	506.81
1028.477	508.39
1028.766	505
1029.055	492.12
1029.344	490.76
1029.634	508.39
1029.923	497.54
1030.212	499.13
1030.501	502.97
1030.79	463.87
1031.078	501.16
1031.367	486.24
1031.656	502.97
1031.945	469.97
1032.233	480.82
1032.522	498.45
1032.81	509.75
1033.099	463.19
1033.387	489.18
1033.675	472.46
1033.963	470.88
1034.251	469.97
1034.54	467.49
1034.828	482.18
1035.116	471.56
1035.403	469.3
1035.691	464.55
1035.979	469.3
1036.267	459.58
1036.554	473.36
1036.842	464.1
1037.129	455.28
1037.417	453.02
1037.704	454.61
1037.992	447.6
1038.279	452.8
1038.566	458.67
1038.853	458.67
1039.14	458.67
