Data from blue_chair_FLMS001491_00036.txt Node
Date: Wed Feb 08 10:30:36 GMT 2017
User: dcchb
Spectrometer: FLMS00149
Trigger mode: 0
Integration Time (sec): 2.000000E-2
Scans to average: 10
Electric dark correction enabled: true
Nonlinearity correction enabled: false
Boxcar width: 0
XAxis mode: Wavelengths
Number of Pixels in Spectrum: 2048
>>>>>Begin Spectral Data<<<<<
341.393	7.25
341.776	7.25
342.16	7.25
342.543	-72.98
342.927	-86.31
343.31	-60.32
343.693	-72.98
344.077	-52.87
344.46	-53.09
344.843	-55.58
345.226	-54.22
345.61	-16.48
345.993	-16.48
346.376	-5.86
346.759	-2.25
347.142	13.12
347.525	42.5
347.908	55.15
348.291	68.26
348.674	107.13
349.057	103.97
349.44	107.13
349.823	125.89
350.206	128.82
350.588	151.65
350.971	182.38
351.354	211.31
351.737	187.58
352.119	235.49
352.502	222.83
352.884	250.4
353.267	247.01
353.65	262.61
354.032	282.04
354.414	269.16
354.797	295.15
355.179	289.05
355.562	300.8
355.944	295.6
356.326	294.24
356.709	315.49
357.091	308.71
357.473	305.54
357.855	307.35
358.238	338.31
358.62	322.27
359.002	314.36
359.384	307.8
359.766	324.3
360.148	313
360.53	312.55
360.912	305.77
361.294	308.25
361.676	306.67
362.057	306.9
362.439	294.24
362.821	303.28
363.203	306.9
363.584	297.18
363.966	296.05
364.348	284.75
364.729	312.55
365.111	300.35
365.493	291.98
365.874	300.12
366.256	285.66
366.637	308.93
367.019	282.04
367.4	276.39
367.781	268.71
368.163	289.5
368.544	275.71
368.925	280.91
369.306	291.53
369.688	284.07
370.069	293.34
370.45	301.25
370.831	288.37
371.212	279.55
371.593	284.75
371.974	310.29
372.355	291.08
372.736	287.46
373.117	283.4
373.498	298.54
373.879	296.96
374.26	268.26
374.641	300.8
375.021	260.57
375.402	291.08
375.783	278.2
376.163	299.22
376.544	309.38
376.925	262.83
377.305	284.75
377.686	296.28
378.066	296.73
378.447	291.31
378.827	282.72
379.208	293.11
379.588	286.79
379.968	275.49
380.349	292.66
380.729	288.14
381.109	297.41
381.489	279.55
381.87	305.77
382.25	284.3
382.63	277.29
383.01	307.35
383.39	287.69
383.77	300.35
384.15	303.28
384.53	296.73
384.91	301.25
385.29	316.39
385.67	290.63
386.049	315.94
386.429	302.38
386.809	306.67
387.189	294.24
387.568	306.45
387.948	297.86
388.328	300.12
388.707	312.77
389.087	319.55
389.466	298.54
389.846	300.12
390.225	274.81
390.605	312.77
390.984	309.61
391.363	286.79
391.743	320.68
392.122	294.24
392.501	313.23
392.881	310.97
393.26	336.28
393.639	302.38
394.018	305.32
394.397	317.97
394.776	313.23
395.155	308.93
395.534	308.71
395.913	333.11
396.292	305.77
396.671	307.35
397.05	328.14
397.429	314.13
397.808	336.95
398.186	340.34
398.565	330.4
398.944	324.75
399.323	305.09
399.701	325.2
400.08	315.26
400.458	337.63
400.837	341.93
401.215	325.66
401.594	327.69
401.972	339.89
402.351	313.45
402.729	339.21
403.107	343.06
403.486	330.4
403.864	320.23
404.242	320.46
404.62	354.81
404.999	340.8
405.377	340.8
405.755	331.53
406.133	334.24
406.511	349.84
406.889	363.85
407.267	344.41
407.645	348.93
408.023	354.13
408.401	354.36
408.779	347.12
409.156	361.59
409.534	352.55
409.912	366.56
410.29	351.87
410.667	373.79
411.045	367.69
411.422	394.58
411.8	364.52
412.178	359.33
412.555	402.26
412.933	375.6
413.31	374.47
413.687	388.25
414.065	370.4
414.442	394.35
414.819	372.43
415.197	370.4
415.574	393
415.951	378.76
416.328	389.38
416.705	377.86
417.082	390.51
417.46	392.55
417.837	404.98
418.214	411.3
418.591	388.93
418.967	387.8
419.344	392.55
419.721	395.71
420.098	369.5
420.475	415.14
420.852	396.39
421.228	419.21
421.605	419.66
421.982	424.86
422.358	400.68
422.735	432.09
423.111	413.11
423.488	417.18
423.864	432.55
424.241	420.79
424.617	432.09
424.994	419.66
425.37	437.52
425.746	413.56
426.123	438.87
426.499	452.88
426.875	453.79
427.251	429.38
427.627	457.18
428.003	435.26
428.379	453.56
428.756	455.14
429.132	449.95
429.507	452.43
429.883	451.08
430.259	472.77
430.635	452.88
431.011	485.2
431.387	466.89
431.763	486.1
432.138	483.17
432.514	480.45
432.89	467.8
433.265	502.37
433.641	494.46
434.016	498.08
434.392	503.28
434.767	511.19
435.143	512.09
435.518	489.49
435.894	517.29
436.269	513.9
436.644	530.85
437.02	541.69
437.395	529.49
437.77	537.63
438.145	551.41
438.52	555.71
438.895	566.78
439.271	571.52
439.646	571.75
440.021	564.29
440.395	584.18
440.77	571.75
441.145	571.52
441.52	585.54
441.895	588.47
442.27	607.46
442.645	580.34
443.019	610.62
443.394	600.22
443.769	601.35
444.143	586.89
444.518	605.2
444.892	609.94
445.267	609.26
445.641	628.02
446.016	643.61
446.39	624.86
446.764	619.21
447.139	634.8
447.513	636.16
447.887	600.45
448.262	663.27
448.636	638.64
449.01	650.39
449.384	657.17
449.758	627.34
450.132	673.89
450.506	656.95
450.88	637.96
451.254	682.03
451.628	668.02
452.002	662.37
452.376	671.86
452.75	703.72
453.123	700.11
453.497	716.15
453.871	685.42
454.244	704.85
454.618	718.41
454.992	702.14
455.365	713.44
455.739	748.47
456.112	755.02
456.486	734.01
456.859	740.11
457.232	741.01
457.606	775.81
457.979	756.6
458.352	771.52
458.725	773.1
459.099	769.49
459.472	800.45
459.845	812.42
460.218	755.7
460.591	786.21
460.964	789.6
461.337	809.71
461.71	803.61
462.083	848.13
462.456	824.63
462.829	842.48
463.201	838.86
463.574	859.65
463.947	881.12
464.32	892.19
464.692	854.45
465.065	854.45
465.438	869.14
465.81	881.57
466.183	904.17
466.555	893.32
466.928	908.46
467.3	908.24
467.672	912.98
468.045	916.15
468.417	914.11
468.789	929.48
469.161	938.07
469.534	943.04
469.906	964.73
470.278	973.32
470.65	958.63
471.022	973.1
471.394	984.17
471.766	990.04
472.138	998.18
472.51	1006.54
472.882	1022.13
473.253	1043.6
473.625	1057.16
473.997	1050.83
474.369	1062.59
474.74	1054.68
475.112	1083.6
475.484	1073.43
475.855	1112.53
476.227	1094.22
476.598	1143.49
476.97	1146.42
477.341	1146.42
477.713	1178.74
478.084	1160.21
478.455	1168.34
478.827	1177.61
479.198	1161.79
479.569	1208.12
479.94	1238.17
480.311	1247.21
480.682	1242.69
481.053	1288.12
481.424	1283.37
481.795	1295.35
482.166	1305.06
482.537	1326.53
482.908	1351.17
483.279	1314.56
483.65	1355.01
484.021	1355.46
484.391	1363.82
484.762	1395.68
485.133	1378.06
485.503	1393.65
485.874	1425.51
486.244	1402.24
486.615	1423.48
486.985	1445.17
487.356	1471.39
487.726	1455.8
488.097	1470.71
488.467	1506.42
488.837	1519.75
489.207	1526.98
489.578	1541.67
489.948	1520.65
490.318	1529.24
490.688	1569.46
491.058	1550.48
491.428	1577.83
491.798	1581.89
492.168	1590.71
492.538	1589.12
492.908	1590.03
493.278	1626.64
493.648	1626.64
494.017	1654.21
494.387	1649.01
494.757	1640.2
495.126	1637.71
495.496	1647.43
495.866	1645.39
496.235	1648.56
496.605	1664.38
496.974	1657.6
497.344	1665.73
497.713	1682.68
498.082	1679.07
498.452	1685.39
498.821	1707.31
499.19	1688.11
499.559	1700.99
499.928	1685.62
500.298	1688.11
500.667	1718.84
501.036	1706.64
501.405	1705.96
501.774	1736.47
502.143	1702.12
502.512	1719.06
502.88	1714.77
503.249	1708.67
503.618	1715
503.987	1721.78
504.356	1725.62
504.724	1735.79
505.093	1709.8
505.462	1705.28
505.83	1728.1
506.199	1713.19
506.567	1705.51
506.936	1730.82
507.304	1774.43
507.672	1758.84
508.041	1743.7
508.409	1735.11
508.777	1741.21
509.145	1731.72
509.514	1720.42
509.882	1733.75
510.25	1726.52
510.618	1719.29
510.986	1740.08
511.354	1717.26
511.722	1760.87
512.09	1759.74
512.458	1740.31
512.826	1761.78
513.193	1743.47
513.561	1749.57
513.929	1725.62
514.297	1764.26
514.664	1758.39
515.032	1747.31
515.4	1776.01
515.767	1734.21
516.135	1749.8
516.502	1728.78
516.869	1752.74
517.237	1729.46
517.604	1735.34
517.972	1760.19
518.339	1754.77
518.706	1742.12
519.073	1748.22
519.44	1771.49
519.808	1734.66
520.175	1739.86
520.542	1762.23
520.909	1766.75
521.276	1764.04
521.643	1742.57
522.009	1739.18
522.376	1760.42
522.743	1752.51
523.11	1740.08
523.477	1774.88
523.843	1783.24
524.21	1754.77
524.577	1769.69
524.943	1754.54
525.31	1759.06
525.676	1790.93
526.043	1757.48
526.409	1776.24
526.776	1754.54
527.142	1775.56
527.508	1809.23
527.874	1777.37
528.241	1772.85
528.607	1742.57
528.973	1754.09
529.339	1756.58
529.705	1758.84
530.071	1764.04
530.437	1783.02
530.803	1759.97
531.169	1805.16
531.535	1780.76
531.901	1774.88
532.267	1763.81
532.632	1768.33
532.998	1771.49
533.364	1741.21
533.73	1767.2
534.095	1752.06
534.461	1784.83
534.826	1774.66
535.192	1787.09
535.557	1777.14
535.923	1765.62
536.288	1758.61
536.653	1756.58
537.019	1755.22
537.384	1771.72
537.749	1761.78
538.114	1771.72
538.479	1766.52
538.845	1733.98
539.21	1754.09
539.575	1718.39
539.94	1739.18
540.305	1733.98
540.67	1763.81
541.034	1757.03
541.399	1735.56
541.764	1700.08
542.129	1715.22
542.494	1732.62
542.858	1729.01
543.223	1747.54
543.587	1740.99
543.952	1722.45
544.316	1736.47
544.681	1713.19
545.045	1694.88
545.41	1733.75
545.774	1685.17
546.138	1682.46
546.503	1684.72
546.867	1682
547.231	1699.4
547.595	1703.25
547.959	1675.68
548.324	1680.2
548.688	1672.96
549.052	1685.17
549.416	1666.64
549.779	1651.95
550.143	1631.84
550.507	1658.95
550.871	1663.7
551.235	1636.81
551.599	1657.15
551.962	1645.39
552.326	1654.89
552.689	1639.97
553.053	1629.8
553.417	1649.24
553.78	1637.03
554.143	1642.23
554.507	1650.82
554.87	1628.9
555.234	1662.57
555.597	1618.5
555.96	1631.16
556.323	1620.54
556.686	1628.45
557.05	1627.54
557.413	1641.1
557.776	1633.19
558.139	1627.54
558.502	1628.45
558.865	1635.68
559.228	1625.28
559.59	1626.19
559.953	1628.67
560.316	1632.97
560.679	1631.61
561.041	1619.18
561.404	1620.54
561.767	1655.79
562.129	1665.73
562.492	1647.65
562.854	1625.73
563.217	1661.89
563.579	1636.36
563.941	1665.51
564.304	1655.56
564.666	1678.16
565.028	1648.78
565.39	1629.58
565.753	1646.3
566.115	1685.85
566.477	1654.66
566.839	1684.26
567.201	1665.96
567.563	1649.69
567.925	1660.31
568.287	1712.06
568.648	1706.18
569.01	1685.85
569.372	1688.78
569.734	1674.32
570.095	1700.76
570.457	1675.9
570.819	1689.24
571.18	1679.74
571.542	1703.47
571.903	1731.95
572.265	1724.71
572.626	1722.68
572.987	1722
573.349	1712.29
573.71	1738.5
574.071	1738.27
574.432	1749.35
574.794	1728.78
575.155	1729.23
575.516	1737.82
575.877	1713.87
576.238	1770.82
576.599	1755.9
576.96	1763.36
577.32	1747.99
577.681	1795.45
578.042	1738.73
578.403	1767.43
578.763	1759.06
579.124	1766.07
579.485	1772.62
579.845	1755.67
580.206	1761.1
580.566	1776.46
580.927	1768.1
581.287	1805.84
581.648	1779.85
582.008	1760.87
582.368	1769.46
582.728	1787.31
583.089	1791.61
583.449	1795.9
583.809	1776.24
584.169	1802.9
584.529	1803.81
584.889	1809.46
585.249	1790.93
585.609	1804.94
585.969	1830.25
586.329	1796.13
586.688	1796.8
587.048	1799.51
587.408	1799.51
587.768	1796.35
588.127	1839.06
588.487	1785.5
588.846	1798.16
589.206	1800.64
589.565	1812.17
589.925	1794.32
590.284	1798.61
590.643	1798.16
591.003	1785.73
591.362	1798.61
591.721	1794.54
592.08	1763.13
592.44	1803.13
592.799	1780.53
593.158	1829.34
593.517	1794.54
593.876	1811.94
594.235	1781.89
594.593	1772.17
594.952	1792.51
595.311	1799.51
595.67	1786.18
596.029	1835.67
596.387	1773.07
596.746	1833.19
597.104	1822.79
597.463	1825.05
597.822	1798.16
598.18	1852.39
598.538	1788.44
598.897	1803.81
599.255	1792.96
599.613	1817.37
599.972	1790.25
600.33	1837.25
600.688	1797.93
601.046	1791.83
601.404	1828.67
601.762	1808.1
602.12	1791.15
602.478	1786.41
602.836	1769.01
603.194	1818.27
603.552	1828.21
603.91	1801.32
604.268	1804.94
604.625	1768.56
604.983	1791.83
605.341	1791.61
605.698	1812.62
606.056	1780.98
606.413	1823.24
606.771	1823.02
607.128	1821.66
607.485	1787.54
607.843	1799.74
608.2	1799.29
608.557	1814.66
608.914	1830.7
609.272	1813.3
609.629	1845.16
609.986	1827.99
610.343	1797.71
610.7	1814.88
611.057	1821.89
611.414	1836.58
611.771	1813.98
612.127	1824.37
612.484	1848.55
612.841	1825.95
613.198	1825.73
613.554	1827.99
613.911	1827.76
614.267	1824.15
614.624	1827.31
614.98	1828.67
615.337	1861.21
615.693	1865.5
616.05	1867.76
616.406	1853.98
616.762	1840.19
617.118	1858.5
617.475	1825.73
617.831	1849.01
618.187	1875.45
618.543	1869.8
618.899	1852.85
619.255	1821.44
619.611	1862.56
619.967	1861.43
620.323	1895.78
620.678	1874.09
621.034	1870.7
621.39	1860.98
621.746	1858.95
622.101	1875.45
622.457	1847.42
622.812	1839.51
623.168	1866.63
623.523	1854.2
623.879	1886.74
624.234	1853.52
624.589	1886.52
624.945	1851.49
625.3	1897.59
625.655	1874.09
626.01	1900.3
626.365	1886.29
626.72	1848.78
627.075	1865.05
627.43	1862.56
627.785	1845.84
628.14	1874.54
628.495	1890.36
628.85	1848.33
629.205	1852.62
629.559	1866.41
629.914	1848.33
630.269	1893.3
630.623	1888.78
630.978	1885.39
631.332	1889.68
631.687	1870.47
632.041	1851.72
632.396	1871.83
632.75	1853.52
633.104	1889.46
633.459	1846.97
633.813	1843.13
634.167	1846.75
634.521	1862.56
634.875	1852.62
635.229	1860.98
635.583	1852.39
635.937	1854.88
636.291	1860.53
636.645	1834.32
636.999	1865.05
637.352	1859.4
637.706	1833.64
638.06	1848.55
638.413	1866.41
638.767	1837.25
639.121	1879.29
639.474	1829.34
639.828	1862.34
640.181	1841.55
640.534	1820.76
640.888	1835.67
641.241	1857.59
641.594	1827.31
641.947	1843.81
642.301	1775.11
642.654	1838.61
643.007	1837.93
643.36	1821.21
643.713	1825.5
644.066	1872.06
644.419	1828.67
644.771	1824.82
645.124	1805.39
645.477	1809.01
645.83	1853.75
646.182	1803.13
646.535	1815.56
646.888	1789.8
647.24	1802.9
647.593	1815.79
647.945	1778.72
648.298	1778.5
648.65	1783.92
649.002	1778.27
649.355	1799.06
649.707	1811.49
650.059	1795.9
650.411	1839.06
650.763	1831.83
651.115	1865.28
651.467	1867.99
651.819	1874.09
652.171	1868.67
652.523	1849.68
652.875	1858.27
653.227	1849.23
653.578	1858.5
653.93	1861.66
654.282	1832.06
654.633	1817.14
654.985	1866.86
655.337	1860.98
655.688	1841.55
656.039	1852.62
656.391	1850.59
656.742	1849.91
657.094	1829.8
657.445	1868.44
657.796	1860.3
658.147	1873.64
658.498	1882.45
658.849	1860.53
659.2	1842.68
659.551	1882.68
659.902	1848.33
660.253	1856.01
660.604	1882.9
660.955	1845.39
661.306	1851.49
661.656	1854.2
662.007	1857.14
662.358	1867.76
662.708	1854.2
663.059	1866.18
663.409	1857.59
663.76	1871.38
664.11	1878.83
664.461	1860.98
664.811	1893.07
665.161	1881.77
665.511	1831.83
665.862	1871.6
666.212	1886.97
666.562	1871.38
666.912	1852.85
667.262	1833.41
667.612	1858.95
667.962	1847.42
668.312	1861.43
668.662	1876.8
669.011	1867.08
669.361	1856.01
669.711	1842.23
670.06	1883.81
670.41	1828.21
670.76	1856.24
671.109	1871.38
671.459	1843.13
671.808	1853.98
672.157	1842
672.507	1863.92
672.856	1836.58
673.205	1851.04
673.554	1838.84
673.904	1833.86
674.253	1838.84
674.602	1878.16
674.951	1790.93
675.3	1828.44
675.649	1849.91
675.998	1845.39
676.346	1799.06
676.695	1808.55
677.044	1824.6
677.393	1832.06
677.741	1824.15
678.09	1809.46
678.438	1778.05
678.787	1816.24
679.135	1817.37
679.484	1792.06
679.832	1775.33
680.181	1798.38
680.529	1765.17
680.877	1780.31
681.225	1786.41
681.573	1790.7
681.922	1773.98
682.27	1782.57
682.618	1772.62
682.966	1750.93
683.314	1775.56
683.661	1767.88
684.009	1778.95
684.357	1749.35
684.705	1734.21
685.053	1744.15
685.4	1745.73
685.748	1731.27
686.095	1729.91
686.443	1723.58
686.79	1733.98
687.138	1761.78
687.485	1724.94
687.832	1742.79
688.18	1729.46
688.527	1712.51
688.874	1710.93
689.221	1709.12
689.568	1695.34
689.915	1685.62
690.262	1719.74
690.609	1695.34
690.956	1694.21
691.303	1687.88
691.65	1682.23
691.997	1713.87
692.344	1669.35
692.69	1670.48
693.037	1667.31
693.383	1671.61
693.73	1671.16
694.077	1657.82
694.423	1647.88
694.769	1624.6
695.116	1641.55
695.462	1631.84
695.808	1620.08
696.155	1618.28
696.501	1652.17
696.847	1616.24
697.193	1609.01
697.539	1624.38
697.885	1599.75
698.231	1590.03
698.577	1582.35
698.923	1590.25
699.269	1600.88
699.614	1610.59
699.96	1561.55
700.306	1604.94
700.651	1585.51
700.997	1561.55
701.342	1583.48
701.688	1585.96
702.033	1584.38
702.379	1592.74
702.724	1553.42
703.069	1587.99
703.415	1566.53
703.76	1555.91
704.105	1527.66
704.45	1546.87
704.795	1595.23
705.14	1545.96
705.485	1547.77
705.83	1544.38
706.175	1553.42
706.52	1550.71
706.865	1562.01
707.209	1559.52
707.554	1554.1
707.899	1568.33
708.243	1528.34
708.588	1542.57
708.932	1540.99
709.277	1503.25
709.621	1515.23
709.966	1502.57
710.31	1552.97
710.654	1548
710.998	1544.83
711.342	1557.71
711.687	1524.72
712.031	1523.36
712.375	1538.96
712.719	1517.94
713.063	1542.57
713.407	1531.95
713.75	1564.04
714.094	1528.34
714.438	1519.52
714.782	1556.81
715.125	1555.45
715.469	1543.48
715.812	1543.93
716.156	1573.98
716.499	1533.76
716.843	1555.91
717.186	1575.79
717.53	1574.21
717.873	1594.55
718.216	1561.78
718.559	1550.03
718.902	1573.08
719.246	1543.25
719.589	1557.71
719.932	1598.84
720.275	1582.8
720.617	1550.93
720.96	1567.66
721.303	1608.56
721.646	1579.41
721.989	1578.5
722.331	1582.35
722.674	1586.87
723.016	1585.06
723.359	1573.08
723.701	1616.69
724.044	1585.74
724.386	1618.73
724.729	1627.09
725.071	1634.55
725.413	1623.7
725.755	1601.78
726.097	1618.28
726.439	1627.32
726.782	1623.02
727.124	1611.72
727.465	1620.31
727.807	1637.26
728.149	1644.72
728.491	1643.36
728.833	1637.03
729.175	1637.03
729.516	1643.81
729.858	1656.47
730.199	1679.29
730.541	1705.05
730.882	1680.65
731.224	1671.83
731.565	1696.01
731.906	1660.54
732.248	1708.9
732.589	1709.35
732.93	1694.88
733.271	1734.66
733.612	1727.43
733.953	1701.21
734.294	1710.25
734.635	1721.78
734.976	1752.96
735.317	1752.51
735.658	1751.38
735.999	1791.61
736.339	1763.36
736.68	1795.22
737.021	1787.99
737.361	1787.09
737.702	1803.58
738.042	1812.62
738.383	1781.89
738.723	1867.31
739.063	1858.95
739.404	1860.98
739.744	1869.8
740.084	1871.38
740.424	1858.04
740.764	1870.25
741.104	1875.67
741.444	1925.39
741.784	1923.58
742.124	1943.69
742.464	1979.4
742.804	1969
743.143	1975.33
743.483	2029.11
743.823	1992.28
744.162	2020.3
744.502	2046.51
744.841	2081.54
745.181	2044.03
745.52	2094.2
745.86	2112.27
746.199	2115.21
746.538	2145.72
746.877	2173.52
747.216	2190.01
747.556	2243.34
747.895	2230.24
748.234	2249.9
748.573	2289.45
748.911	2291.03
749.25	2306.39
749.589	2326.05
749.928	2370.35
750.267	2414.19
750.605	2429.33
750.944	2432.94
751.283	2496.9
751.621	2538.93
751.96	2531.25
752.298	2615.31
752.636	2609.89
752.975	2636.55
753.313	2683.33
753.651	2755.42
753.989	2784.12
754.327	2787.96
754.666	2812.82
755.004	2904.8
755.342	2905.02
755.679	2939.37
756.017	3008.3
756.355	3060.95
756.693	3090.55
757.031	3081.97
757.368	3140.04
757.706	3207.39
758.044	3238.57
758.381	3298.23
758.719	3330.1
759.056	3314.5
759.394	3379.13
759.731	3454.84
760.068	3453.48
760.405	3466.59
760.743	3519.7
761.08	3549.3
761.417	3605.12
761.754	3654.83
762.091	3688.05
762.428	3758.56
762.765	3748.62
763.102	3768.95
763.438	3833.13
763.775	3815.06
764.112	3917.88
764.449	3947.93
764.785	3979.57
765.122	3968.05
765.458	4031.32
765.795	4066.8
766.131	4112.67
766.467	4134.59
766.804	4145.89
767.14	4174.82
767.476	4163.75
767.812	4242.84
768.148	4253.24
768.485	4274.7
768.821	4271.77
769.157	4326.68
769.492	4356.96
769.828	4380.69
770.164	4391.09
770.5	4377.75
770.836	4461.37
771.171	4419.78
771.507	4482.38
771.842	4484.87
772.178	4506.11
772.513	4484.42
772.849	4483.29
773.184	4537.3
773.519	4544.08
773.855	4523.96
774.19	4547.24
774.525	4565.09
774.86	4542.95
775.195	4592.66
775.53	4600.8
775.865	4543.85
776.2	4609.61
776.535	4565.54
776.87	4587.92
777.205	4605.54
777.539	4555.15
777.874	4596.96
778.209	4602.6
778.543	4627.01
778.878	4596.73
779.212	4554.92
779.547	4638.08
779.881	4630.17
780.215	4593.11
780.55	4664.75
780.884	4589.72
781.218	4593.34
781.552	4628.59
781.886	4617.52
782.22	4582.49
782.554	4605.77
782.888	4577.07
783.222	4582.49
783.556	4557.41
783.889	4511.53
784.223	4566.9
784.557	4576.62
784.89	4593.34
785.224	4537.3
785.557	4543.4
785.891	4557.63
786.224	4518.09
786.558	4557.86
786.891	4526.67
787.224	4526
787.557	4548.37
787.891	4509.27
788.224	4523.96
788.557	4532.1
788.89	4496.62
789.223	4509.5
789.556	4515.6
789.888	4454.81
790.221	4461.14
790.554	4394.93
790.887	4471.31
791.219	4452.78
791.552	4384.31
791.884	4426.34
792.217	4420.24
792.549	4406.45
792.882	4361.26
793.214	4402.61
793.546	4362.61
793.879	4370.52
794.211	4405.1
794.543	4378.43
794.875	4379.11
795.207	4398.77
795.539	4377.53
795.871	4350.63
796.203	4337.98
796.535	4322.61
796.867	4343.18
797.198	4316.51
797.53	4308.6
797.862	4287.81
798.193	4279.9
798.525	4267.7
798.856	4271.31
799.188	4222.5
799.519	4227.7
799.85	4235.38
800.182	4236.74
800.513	4248.49
800.844	4163.52
801.175	4221.6
801.506	4184.99
801.837	4158.55
802.168	4171.66
802.499	4206.01
802.83	4173.46
803.161	4184.76
803.491	4151.54
803.822	4137.53
804.153	4147.02
804.483	4101.83
804.814	4070.87
805.145	4065.22
805.475	4096.63
805.805	4086.01
806.136	4077.42
806.466	4084.88
806.796	4081.04
807.126	4016.86
807.457	4057.53
807.787	4041.49
808.117	4011.66
808.447	3991.55
808.777	4055.27
809.107	4013.92
809.436	3985.67
809.766	4056.63
810.096	3967.82
810.426	3980.47
810.755	3978.89
811.085	3996.97
811.414	3996.97
811.744	3938.44
812.073	3929.63
812.403	3966.01
812.732	3926.92
813.061	3972.57
813.39	3905.9
813.719	3901.38
814.049	3926.69
814.378	3876.07
814.707	3875.39
815.036	3864.55
815.365	3833.81
815.693	3866.13
816.022	3874.49
816.351	3834.49
816.68	3834.94
817.008	3864.77
817.337	3821.38
817.665	3802.63
817.994	3789.29
818.322	3813.47
818.651	3776.41
818.979	3767.37
819.307	3814.6
819.636	3781.38
819.964	3737.09
820.292	3759.92
820.62	3802.85
820.948	3746.13
821.276	3811.67
821.604	3759.92
821.932	3781.84
822.259	3789.52
822.587	3817.99
822.915	3752.46
823.243	3750.88
823.57	3791.78
823.898	3745
824.225	3768.28
824.553	3759.46
824.88	3758.33
825.207	3749.07
825.535	3778.22
825.862	3777.54
826.189	3753.36
826.516	3793.59
826.843	3779.8
827.17	3785.68
827.497	3855.28
827.824	3745.23
828.151	3820.93
828.478	3787.26
828.805	3829.07
829.131	3792
829.458	3746.36
829.785	3787.71
830.111	3779.8
830.438	3815.28
830.764	3815.51
831.09	3832
831.417	3787.71
831.743	3726.24
832.069	3809.41
832.395	3790.42
832.722	3768.28
833.048	3748.84
833.374	3802.63
833.7	3781.61
834.026	3749.07
834.351	3791.33
834.677	3808.5
835.003	3719.92
835.329	3733.25
835.654	3740.25
835.98	3712.23
836.306	3744.55
836.631	3744.32
836.956	3775.51
837.282	3754.49
837.607	3753.36
837.932	3723.98
838.258	3728.96
838.583	3709.3
838.908	3708.62
839.233	3713.81
839.558	3666.81
839.883	3672.69
840.208	3708.84
840.533	3684.89
840.858	3681.95
841.182	3672.01
841.507	3664.1
841.832	3680.14
842.156	3667.49
842.481	3663.87
842.805	3664.1
843.13	3647.83
843.454	3668.62
843.778	3622.07
844.103	3600.82
844.427	3630.65
844.751	3588.62
845.075	3574.61
845.399	3549.98
845.723	3549.53
846.047	3552.46
846.371	3544.1
846.695	3513.14
847.019	3520.6
847.343	3469.3
847.666	3457.1
847.99	3473.6
848.313	3476.76
848.637	3472.92
848.96	3406.03
849.284	3424.1
849.607	3429.75
849.931	3387.27
850.254	3384.11
850.577	3374.61
850.9	3333.71
851.223	3370.32
851.546	3382.98
851.869	3338.68
852.192	3370.32
852.515	3343.88
852.838	3295.97
853.161	3288.06
853.483	3270.44
853.806	3289.65
854.129	3248.06
854.451	3249.87
854.774	3268.18
855.096	3230.21
855.419	3200.61
855.741	3223.88
856.063	3183.89
856.385	3187.5
856.708	3160.83
857.03	3130.1
857.352	3173.49
857.674	3179.14
857.996	3149.54
858.318	3158.12
858.64	3141.85
858.961	3141.17
859.283	3101.4
859.605	3154.06
859.926	3133.27
860.248	3134.85
860.57	3082.64
860.891	3117.67
861.212	3069.99
861.534	3093.04
861.855	3037.45
862.176	3063.66
862.498	3083.32
862.819	3084.23
863.14	3009.43
863.461	3007.84
863.782	3034.28
864.103	3064.34
864.424	3040.84
864.745	2995.87
865.065	3014.62
865.386	3035.41
865.707	2986.38
866.027	3019.37
866.348	2991.35
866.668	2962.65
866.989	2971.91
867.309	3015.08
867.63	3006.49
867.95	2968.75
868.27	2974.17
868.59	2962.2
868.91	2947.51
869.23	3000.16
869.55	2951.12
869.87	2959.71
870.19	2939.15
870.51	2954.06
870.83	2973.27
871.15	2924.01
871.469	2922.42
871.789	2905.7
872.109	2908.41
872.428	2919.26
872.748	2904.8
873.067	2905.47
873.386	2890.56
873.706	2914.97
874.025	2930.56
874.344	2894.18
874.663	2862.31
874.982	2894.85
875.301	2887.4
875.62	2910.67
875.939	2860.5
876.258	2862.09
876.577	2853.5
876.896	2854.18
877.214	2853.72
877.533	2848.98
877.852	2856.89
878.17	2843.56
878.489	2880.39
878.807	2824.57
879.125	2843.1
879.444	2812.6
879.762	2809.88
880.08	2821.41
880.398	2792.94
880.716	2812.82
881.034	2805.14
881.352	2810.79
881.67	2771.69
881.988	2768.75
882.306	2794.97
882.624	2763.78
882.941	2782.31
883.259	2765.59
883.577	2728.76
883.894	2765.59
884.212	2739.6
884.529	2714.97
884.846	2776.89
885.164	2747.29
885.481	2745.48
885.798	2759.94
886.115	2705.03
886.432	2706.84
886.75	2710.68
887.067	2706.38
887.383	2715.2
887.7	2729.66
888.017	2695.08
888.334	2674.07
888.651	2682.43
888.967	2659.61
889.284	2666.61
889.6	2632.49
889.917	2627.74
890.233	2626.84
890.55	2607.18
890.866	2583.9
891.182	2611.24
891.498	2582.77
891.815	2605.6
892.131	2569.44
892.447	2559.27
892.763	2557.01
893.079	2536.22
893.395	2561.53
893.71	2541.87
894.026	2560.85
894.342	2522.66
894.657	2545.94
894.973	2521.08
895.289	2542.32
895.604	2515.43
895.92	2524.92
896.235	2469.33
896.55	2510.46
896.865	2483.79
897.181	2427.07
897.496	2475.88
897.811	2446.96
898.126	2450.8
898.441	2451.02
898.756	2444.7
899.071	2419.61
899.386	2435.66
899.7	2412.83
900.015	2385.71
900.33	2385.04
900.644	2379.39
900.959	2391.14
901.273	2398.6
901.588	2352.49
901.902	2331.7
902.216	2354.08
902.531	2368.09
902.845	2301.65
903.159	2284.93
903.473	2284.7
903.787	2300.52
904.101	2290.35
904.415	2288.54
904.729	2274.98
905.042	2265.49
905.356	2286.06
905.67	2239.96
905.984	2257.13
906.297	2251.25
906.611	2263.23
906.924	2246.73
907.237	2230.92
907.551	2205.15
907.864	2185.72
908.177	2216.45
908.491	2211.71
908.804	2184.59
909.117	2157.02
909.43	2154.31
909.743	2140.3
910.056	2147.3
910.368	2155.66
910.681	2107.76
910.994	2150.92
911.307	2132.16
911.619	2127.19
911.932	2141.88
912.244	2110.92
912.557	2099.17
912.869	2116.79
913.181	2069.56
913.494	2057.59
913.806	2050.13
914.118	2056.01
914.43	2049.9
914.742	2068.66
915.054	2031.6
915.366	2027.31
915.678	2010.58
915.99	2026.4
916.302	2018.04
916.613	1995.89
916.925	2024.59
917.236	2022.11
917.548	1974.65
917.859	1979.17
918.171	1947.08
918.482	1961.54
918.794	1946.18
919.105	1970.58
919.416	1920.42
919.727	1965.39
920.038	1934.65
920.349	1961.09
920.66	1915.22
920.971	1903.24
921.282	1886.52
921.593	1879.29
921.903	1905.5
922.214	1872.06
922.525	1874.54
922.835	1896.69
923.146	1838.38
923.456	1826.18
923.767	1867.54
924.077	1846.75
924.387	1826.86
924.697	1833.86
925.008	1830.93
925.318	1800.64
925.628	1816.01
925.938	1847.2
926.248	1774.43
926.558	1784.6
926.867	1774.2
927.177	1751.38
927.487	1753.64
927.796	1769.23
928.106	1758.61
928.416	1780.53
928.725	1707.09
929.034	1736.01
929.344	1757.48
929.653	1739.86
929.962	1728.1
930.271	1701.21
930.581	1715
930.89	1707.31
931.199	1691.95
931.508	1712.74
931.817	1716.58
932.125	1693.53
932.434	1653.98
932.743	1701.21
933.051	1678.61
933.36	1649.91
933.669	1679.29
933.977	1680.42
934.286	1636.36
934.594	1617.6
934.902	1620.31
935.21	1596.13
935.519	1616.02
935.827	1606.75
936.135	1623.93
936.443	1599.75
936.751	1606.53
937.059	1587.09
937.367	1595.45
937.674	1583.25
937.982	1547.32
938.29	1564.72
938.597	1565.85
938.905	1536.02
939.213	1523.59
939.52	1536.7
939.827	1552.06
940.135	1540.76
940.442	1519.75
940.749	1538.05
941.056	1527.66
941.363	1488.11
941.67	1496.02
941.977	1513.19
942.284	1513.42
942.591	1508.68
942.898	1470.48
943.205	1492.4
943.511	1475
943.818	1475.91
944.125	1436.59
944.431	1449.69
944.738	1455.34
945.044	1445.4
945.35	1468.68
945.657	1427.77
945.963	1470.26
946.269	1422.58
946.575	1428.45
946.881	1425.97
947.187	1425.29
947.493	1430.03
947.799	1409.24
948.105	1373.54
948.41	1370.37
948.716	1376.25
949.022	1395.23
949.327	1416.47
949.633	1367.89
949.938	1372.41
950.244	1371.96
950.549	1368.57
950.854	1348
951.16	1368.11
951.465	1352.52
951.77	1356.59
952.075	1336.93
952.38	1321.56
952.685	1352.75
952.99	1328.34
953.294	1331.73
953.599	1293.09
953.904	1322.47
954.209	1299.64
954.513	1306.65
954.818	1318.17
955.122	1282.69
955.426	1308
955.731	1291.28
956.035	1274.1
956.339	1272.07
956.643	1266.2
956.948	1281.11
957.252	1274.33
957.556	1282.69
957.86	1280.21
958.163	1244.05
958.467	1268.23
958.771	1204.5
959.075	1244.95
959.378	1238.17
959.682	1228.91
959.985	1247.21
960.289	1230.26
960.592	1242.92
960.896	1210.38
961.199	1193.2
961.502	1190.27
961.805	1215.12
962.108	1177.38
962.411	1185.29
962.714	1195.01
963.017	1189.36
963.32	1178.51
963.623	1162.7
963.926	1180.1
964.228	1146.42
964.531	1173.32
964.833	1146.2
965.136	1135.35
965.438	1139.19
965.741	1152.53
966.043	1156.82
966.345	1150.27
966.648	1132.64
966.95	1131.06
967.252	1115.01
967.554	1140.55
967.856	1108.69
968.158	1104.84
968.46	1126.09
968.761	1113.66
969.063	1097.39
969.365	1140.55
969.666	1114.34
969.968	1116.37
970.269	1096.71
970.571	1079.53
970.872	1086.09
971.174	1077.27
971.475	1082.02
971.776	1081.79
972.077	1051.96
972.378	1068.01
972.679	1082.7
972.98	1042.47
973.281	1033.66
973.582	1059.87
973.883	1061.23
974.183	1038.4
974.484	1059.65
974.785	1001.34
975.085	1058.07
975.386	1052.19
975.686	1028.01
975.986	1044.96
976.287	1041.57
976.587	1013.32
976.887	1021.46
977.187	1039.53
977.487	1009.25
977.787	997.5
978.087	990.04
978.387	971.97
978.687	959.08
978.987	979.88
979.286	985.3
979.586	993.89
979.885	981.68
980.185	968.8
980.484	981.91
980.784	967.9
981.083	962.93
981.382	984.62
981.682	954.79
981.981	957.5
982.28	965.86
982.579	948.69
982.878	977.84
983.177	961.12
983.475	942.36
983.774	926.77
984.073	965.41
984.372	917.5
984.67	935.36
984.969	943.94
985.267	932.42
985.566	944.85
985.864	927.22
986.162	903.95
986.461	893.55
986.759	912.76
987.057	882.93
987.355	879.31
987.653	891.74
987.951	894
988.249	883.15
988.547	898.52
988.844	882.48
989.142	875.7
989.44	852.42
989.737	891.97
990.035	876.38
990.332	856.94
990.63	865.3
990.927	849.26
991.224	870.5
991.521	867.11
991.819	872.31
992.116	854.68
992.413	856.94
992.71	845.19
993.006	818.3
993.303	848.35
993.6	829.14
993.897	839.99
994.193	833.66
994.49	835.47
994.787	844.06
995.083	843.38
995.379	832.76
995.676	818.75
995.972	829.37
996.268	793.67
996.565	792.54
996.861	802.25
997.157	802.7
997.453	788.69
997.749	808.58
998.044	807.22
998.34	784.17
998.636	775.59
998.932	820.11
999.227	785.53
999.523	791.63
999.818	782.82
1000.114	798.41
1000.409	770.62
1000.704	767.68
1001	743.95
1001.295	773.78
1001.59	755.47
1001.885	758.86
1002.18	766.1
1002.475	743.05
1002.77	752.76
1003.065	749.82
1003.359	752.99
1003.654	731.29
1003.949	739.2
1004.243	728.13
1004.538	740.33
1004.832	727.23
1005.127	735.81
1005.421	741.92
1005.715	724.97
1006.009	725.64
1006.304	702.14
1006.598	685.87
1006.892	717.51
1007.186	703.95
1007.48	711.18
1007.773	683.84
1008.067	703.72
1008.361	704.18
1008.655	700.56
1008.948	677.28
1009.242	699.88
1009.535	702.37
1009.829	680.22
1010.122	689.04
1010.415	671.41
1010.708	691.97
1011.001	677.06
1011.295	676.83
1011.588	694.23
1011.881	664.18
1012.173	663.95
1012.466	642.48
1012.759	663.5
1013.052	646.1
1013.344	636.83
1013.637	655.36
1013.93	643.61
1014.222	639.77
1014.514	646.55
1014.807	618.53
1015.099	651.75
1015.391	626.66
1015.683	635.25
1015.976	631.41
1016.268	644.74
1016.56	625.08
1016.851	641.13
1017.143	621.92
1017.435	603.16
1017.727	642.71
1018.018	594.8
1018.31	618.08
1018.602	619.43
1018.893	612.65
1019.185	617.63
1019.476	607.23
1019.767	606.78
1020.058	581.69
1020.35	599.55
1020.641	588.7
1020.932	599.09
1021.223	604.07
1021.514	560.68
1021.804	599.32
1022.095	586.21
1022.386	583.95
1022.677	580.34
1022.967	592.77
1023.258	576.95
1023.548	547.57
1023.839	560.23
1024.129	576.04
1024.419	566.78
1024.709	569.49
1025	559.77
1025.29	581.02
1025.58	543.73
1025.87	551.86
1026.16	557.74
1026.449	543.95
1026.739	545.08
1027.029	547.34
1027.319	519.55
1027.608	520.68
1027.898	538.31
1028.187	535.37
1028.477	557.06
1028.766	544.41
1029.055	517.06
1029.344	532.66
1029.634	518.64
1029.923	530.85
1030.212	507.12
1030.501	550.96
1030.79	527.68
1031.078	532.66
1031.367	534.24
1031.656	515.93
1031.945	507.57
1032.233	495.14
1032.522	506.44
1032.81	498.31
1033.099	519.77
1033.387	522.49
1033.675	488.14
1033.963	506.67
1034.251	502.6
1034.54	511.19
1034.828	489.72
1035.116	487.91
1035.403	480.68
1035.691	506.22
1035.979	500.79
1036.267	477.97
1036.554	474.35
1036.842	474.35
1037.129	465.54
1037.417	481.13
1037.704	506.67
1037.992	472.32
1038.279	471.64
1038.566	450.4
1038.853	450.4
1039.14	450.4
