Data from blue_clamp_base_FLMS001491_00071.txt Node
Date: Wed Feb 08 15:16:29 GMT 2017
User: dcchb
Spectrometer: FLMS00149
Trigger mode: 0
Integration Time (sec): 2.000000E-2
Scans to average: 10
Electric dark correction enabled: true
Nonlinearity correction enabled: false
Boxcar width: 0
XAxis mode: Wavelengths
Number of Pixels in Spectrum: 2048
>>>>>Begin Spectral Data<<<<<
341.393	-11.61
341.776	-11.61
342.16	-11.61
342.543	-62.23
342.927	-51.38
343.31	-79.18
343.693	-64.94
344.077	-67.43
344.46	-49.12
344.843	-56.81
345.226	-53.19
345.61	-40.31
345.993	-15.9
346.376	-11.84
346.759	19.58
347.142	26.81
347.525	48.28
347.908	32.91
348.291	86.24
348.674	108.84
349.057	116.07
349.44	123.53
349.823	144.09
350.206	149.52
350.588	206.01
350.971	193.58
351.354	232.45
351.737	248.27
352.119	261.83
352.502	276.52
352.884	272.9
353.267	276.74
353.65	299.57
354.032	309.51
354.414	302.28
354.797	306.35
355.179	320.36
355.562	319.45
355.944	330.53
356.326	337.08
356.709	337.08
357.091	352.67
357.473	361.26
357.855	349.74
358.238	346.35
358.62	365.33
359.002	346.12
359.384	365.56
359.766	370.53
360.148	351.09
360.53	349.51
360.912	358.78
361.294	343.86
361.676	362.62
362.057	314.26
362.439	331.43
362.821	319.45
363.203	335.5
363.584	339.12
363.966	356.74
364.348	344.31
364.729	326.46
365.111	313.81
365.493	346.35
365.874	345.67
366.256	320.13
366.637	330.98
367.019	339.12
367.4	343.64
367.781	317.2
368.163	331.66
368.544	318.32
368.925	315.84
369.306	323.3
369.688	325.56
370.069	341.38
370.45	349.74
370.831	323.52
371.212	318.1
371.593	351.32
371.974	321.49
372.355	338.44
372.736	330.75
373.117	348.15
373.498	338.66
373.879	326.69
374.26	313.58
374.641	334.6
375.021	309.29
375.402	351.09
375.783	342.28
376.163	361.04
376.544	323.52
376.925	339.57
377.305	359.91
377.686	348.38
378.066	364.43
378.447	357.87
378.827	354.71
379.208	333.47
379.588	360.58
379.968	363.3
380.349	350.64
380.729	370.3
381.109	359.23
381.489	376.63
381.87	357.42
382.25	388.38
382.63	355.61
383.01	357.19
383.39	370.53
383.77	369.85
384.15	365.78
384.53	396.29
384.91	361.26
385.29	370.75
385.67	403.07
386.049	374.37
386.429	392.9
386.809	393.58
387.189	404.65
387.568	394.93
387.948	406.46
388.328	410.98
388.707	396.51
389.087	423.41
389.466	404.2
389.846	400.36
390.225	398.1
390.605	431.54
390.984	428.38
391.363	449.62
391.743	432.9
392.122	430.64
392.501	443.52
392.881	454.37
393.26	430.86
393.639	444.42
394.018	453.01
394.397	440.36
394.776	453.91
395.155	465.21
395.534	467.47
395.913	482.16
396.292	481.26
396.671	476.51
397.05	483.97
397.429	484.42
397.808	486
398.186	483.07
398.565	482.39
398.944	495.27
399.323	514.48
399.701	521.26
400.08	512.67
400.458	517.64
400.837	509.28
401.215	525.1
401.594	529.62
401.972	561.03
402.351	529.39
402.729	556.51
403.107	547.47
403.486	560.58
403.864	551.09
404.242	550.41
404.62	563.97
404.999	571.88
405.377	557.41
405.755	606.23
406.133	599.45
406.511	606.68
406.889	601.48
407.267	643.97
407.645	640.35
408.023	622.05
408.401	658.43
408.779	663.17
409.156	659.33
409.534	667.02
409.912	693.23
410.29	679.67
410.667	685.09
411.045	700.01
411.422	701.59
411.8	729.16
412.178	710.63
412.555	734.81
412.933	739.78
413.31	758.54
413.687	753.34
414.065	781.82
414.442	782.04
414.819	791.08
415.197	805.77
415.574	813.91
415.951	811.19
416.328	825.2
416.705	829.5
417.082	823.85
417.46	819.33
417.837	842.15
418.214	845.54
418.591	862.94
418.967	871.53
419.344	892.77
419.721	883.51
420.098	887.12
420.475	905.2
420.852	895.26
421.228	910.17
421.605	916.28
421.982	947.91
422.358	952.88
422.735	956.5
423.111	945.88
423.488	953.79
423.864	981.13
424.241	979.78
424.617	988.14
424.994	1007.8
425.37	1026.1
425.746	1020.68
426.123	1023.84
426.499	1054.12
426.875	1063.84
427.251	1081.69
427.627	1135.7
428.003	1093.67
428.379	1116.27
428.756	1112.2
429.132	1151.3
429.507	1149.94
429.883	1166.89
430.259	1188.58
430.635	1173.67
431.011	1218.19
431.387	1218.87
431.763	1240.33
432.138	1238.75
432.514	1265.64
432.89	1271.07
433.265	1281.92
433.641	1315.59
434.016	1350.61
434.392	1370.73
434.767	1372.76
435.143	1376.6
435.518	1401.23
435.894	1442.14
436.269	1447.79
436.644	1459.31
437.02	1476.26
437.395	1452.08
437.77	1477.39
438.145	1535.47
438.52	1512.19
438.895	1543.38
439.271	1522.59
439.646	1572.53
440.021	1584.96
440.395	1596.71
440.77	1597.16
441.145	1602.36
441.52	1659.53
441.895	1657.27
442.27	1673.77
442.645	1668.57
443.019	1710.6
443.394	1699.76
443.769	1692.53
444.143	1708.8
444.518	1741.79
444.892	1757.16
445.267	1761.22
445.641	1792.86
446.016	1779.98
446.39	1791.28
446.764	1791.73
447.139	1817.95
447.513	1836.7
447.887	1869.7
448.262	1867.66
448.636	1871.28
449.01	1902.69
449.384	1899.98
449.758	1925.06
450.132	1943.59
450.506	1934.55
450.88	1971.16
451.254	1999.18
451.628	2004.38
452.002	2057.04
452.376	2046.19
452.75	2072.86
453.123	2056.58
453.497	2121.22
453.871	2082.8
454.244	2166.64
454.618	2178.84
454.992	2209.12
455.365	2179.97
455.739	2282.79
456.112	2280.99
456.486	2311.49
456.859	2335.22
457.232	2353.53
457.606	2332.06
457.979	2381.1
458.352	2466.29
458.725	2442.34
459.099	2472.84
459.472	2496.8
459.845	2533.63
460.218	2541.54
460.591	2537.93
460.964	2554.88
461.337	2685.72
461.71	2685.72
462.083	2726.4
462.456	2677.36
462.829	2694.08
463.201	2736.11
463.574	2770.46
463.947	2798.26
464.32	2898.6
464.692	2902.21
465.065	2894.08
465.438	2964.36
465.81	2973.85
466.183	3034.86
466.555	3047.52
466.928	3098.36
467.3	3091.13
467.672	3135.2
468.045	3192.83
468.417	3175.2
468.789	3190.57
469.161	3242.09
469.534	3287.74
469.906	3348.3
470.278	3355.76
470.65	3421.75
471.022	3448.41
471.394	3491.35
471.766	3576.09
472.138	3567.73
472.51	3633.27
472.882	3718.24
473.253	3743.32
473.625	3805.46
473.997	3860.15
474.369	3850.21
474.74	3873.94
475.112	3970.43
475.484	4024.67
475.855	4082.29
476.227	4066.47
476.598	4190.77
476.97	4210.88
477.341	4275.74
477.713	4310.54
478.084	4320.03
478.455	4455.39
478.827	4489.74
479.198	4597.76
479.569	4573.13
479.94	4646.12
480.311	4769.73
480.682	4782.39
481.053	4869.39
481.424	4948.94
481.795	4928.83
482.166	5055.38
482.537	5084.98
482.908	5188.93
483.279	5194.58
483.65	5252.88
484.021	5361.36
484.391	5403.61
484.762	5439.32
485.133	5508.47
485.503	5521.35
485.874	5624.4
486.244	5627.34
486.615	5801.34
486.985	5768.35
487.356	5896.71
487.726	5914.79
488.097	5961.11
488.467	6013.32
488.837	6097.61
489.207	6131.96
489.578	6224.84
489.948	6242.24
490.318	6350.48
490.688	6293.31
491.058	6373.08
491.428	6421.22
491.798	6437.71
492.168	6579.63
492.538	6541.21
492.908	6608.56
493.278	6725.61
493.648	6708.89
494.017	6748.21
494.387	6759.74
494.757	6794.31
495.126	6856.23
495.496	6921.09
495.866	6904.37
496.235	6943.46
496.605	6966.74
496.974	7016.23
497.344	7054.42
497.713	7029.56
498.082	7113.17
498.452	7121.54
498.821	7155.43
499.19	7186.17
499.559	7159.95
499.928	7192.04
500.298	7251.02
500.667	7306.39
501.036	7324.24
501.405	7288.99
501.774	7272.72
502.143	7339.61
502.512	7392.72
502.88	7447.18
503.249	7416.9
503.618	7445.37
503.987	7446.5
504.356	7496.89
504.724	7576.89
505.093	7524.24
505.462	7598.36
505.83	7631.58
506.199	7661.18
506.567	7698.24
506.936	7687.85
507.304	7738.92
507.672	7749.99
508.041	7802.87
508.409	7771.91
508.777	7867.05
509.145	7912.93
509.514	7928.07
509.882	7918.35
510.25	7929.88
510.618	7939.59
510.986	7917.67
511.354	8045.13
511.722	8054.84
512.09	8147.05
512.458	8069.08
512.826	8126.93
513.193	8204.22
513.561	8174.62
513.929	8224.11
514.297	8290.54
514.664	8316.76
515.032	8340.94
515.4	8366.47
515.767	8352.69
516.135	8430.88
516.502	8285.12
516.869	8490.31
517.237	8465.23
517.604	8462.97
517.972	8524.44
518.339	8507.71
518.706	8509.97
519.073	8504.55
519.44	8617.77
519.808	8714.04
520.175	8633.81
520.542	8707.26
520.909	8747.26
521.276	8747.71
521.643	8871.09
522.009	8877.65
522.376	8831.1
522.743	8917.19
523.11	9021.6
523.477	9054.82
523.843	9053.24
524.21	9149.28
524.577	9145.21
524.943	9253.46
525.31	9253.68
525.676	9271.54
526.043	9346.11
526.409	9374.36
526.776	9488.25
527.142	9494.58
527.508	9470.85
527.874	9544.07
528.241	9619.78
528.607	9604.86
528.973	9691.41
529.339	9619.78
529.705	9697.74
530.071	9763.27
530.437	9769.15
530.803	9876.94
531.169	9931.41
531.535	9910.84
531.901	9960.56
532.267	9970.73
532.632	10087.11
532.998	10031.97
533.364	10111.06
533.73	10099.99
534.095	10183.83
534.461	10171.17
534.826	10287.1
535.192	10231.51
535.557	10310.6
535.923	10387.89
536.288	10320.77
536.653	10339.53
537.019	10403.48
537.384	10422.47
537.749	10488.23
538.114	10411.62
538.479	10457.95
538.845	10484.61
539.21	10459.98
539.575	10620.2
539.94	10651.61
540.305	10638.51
540.67	10577.49
541.034	10674.66
541.399	10740.42
541.764	10730.48
542.129	10764.6
542.494	10836.01
542.858	10804.38
543.223	10856.58
543.587	10922.57
543.952	10911.49
544.316	10946.07
544.681	10974.32
545.045	10989.46
545.41	11035.33
545.774	11052.51
546.138	11031.26
546.503	11131.83
546.867	11076.46
547.231	11208.89
547.595	11201.2
547.959	11185.16
548.324	11290.69
548.688	11250.69
549.052	11317.81
549.416	11340.18
549.779	11358.26
550.143	11340.41
550.507	11468.09
550.871	11471.7
551.235	11449.11
551.599	11460.4
551.962	11482.33
552.326	11610.68
552.689	11600.06
553.053	11539.5
553.417	11616.33
553.78	11786.5
554.143	11604.13
554.507	11712.6
554.87	11688.42
555.234	11829.89
555.597	11765.03
555.96	11779.04
556.323	11822.2
556.686	11889.77
557.05	11939.04
557.413	11961.63
557.776	11978.13
558.139	12043.21
558.502	12078.92
558.865	12171.57
559.228	12174.51
559.59	12296.77
559.953	12251.34
560.316	12384.67
560.679	12306.71
561.041	12429.42
561.404	12429.87
561.767	12578.12
562.129	12462.64
562.492	12647.04
562.854	12588.74
563.217	12570.88
563.579	12630.32
563.941	12736.3
564.304	12786.7
564.666	12822.4
565.028	12867.15
565.39	12922.06
565.753	12949.63
566.115	13005.67
566.477	13043.64
566.839	12975.62
567.201	13129.97
567.563	13140.13
567.925	13304.88
568.287	13292.9
568.648	13313.24
569.01	13331.77
569.372	13457.87
569.734	13389.39
570.095	13418.77
570.457	13602.72
570.819	13611.31
571.18	13661.02
571.542	13576.28
571.903	13659.22
572.265	13784.41
572.626	13850.62
572.987	13901.02
573.349	13916.84
573.71	13916.39
574.071	13914.58
574.432	14019.66
574.794	14136.04
575.155	14064.4
575.516	13968.36
575.877	14112.54
576.238	14204.74
576.599	14219.43
576.96	14153.22
577.32	14294.45
577.681	14325.41
578.042	14374.68
578.403	14419.88
578.763	14369.48
579.124	14405.19
579.485	14450.61
579.845	14514.11
580.206	14454
580.566	14552.07
580.927	14510.04
581.287	14648.8
581.648	14562.7
582.008	14599.98
582.368	14623.71
582.728	14741
583.089	14600.21
583.449	14752.97
583.809	14705.74
584.169	14650.38
584.529	14735.35
584.889	14821.45
585.249	14670.72
585.609	14629.14
585.969	14733.31
586.329	14721.79
586.688	14817.15
587.048	14722.69
587.408	14735.12
587.768	14779.41
588.127	14775.8
588.487	14841.11
588.846	14922.69
589.206	14793.42
589.565	14842.91
589.925	14916.81
590.284	14846.98
590.643	14953.19
591.003	14980.31
591.362	14967.88
591.721	14951.16
592.08	14876.13
592.44	15066.41
592.799	15049.69
593.158	14969.69
593.517	15019.86
593.876	15052.85
594.235	14975.57
594.593	15041.1
594.952	15030.48
595.311	15016.02
595.67	15067.54
596.029	15133.08
596.387	15145.73
596.746	15222.79
597.104	14996.81
597.463	15099.86
597.822	15214.66
598.18	15139.4
598.538	15114.77
598.897	15218.95
599.255	15132.17
599.613	15303.02
599.972	15253.3
600.33	15296.46
600.688	15205.17
601.046	15271.6
601.404	15298.27
601.762	15212.4
602.12	15364.71
602.478	15314.54
602.836	15317.03
603.194	15279.51
603.552	15352.73
603.91	15234.09
604.268	15309.12
604.625	15289.91
604.983	15351.38
605.341	15311.15
605.698	15363.35
606.056	15476.12
606.413	15409.91
606.771	15450.81
607.128	15477.7
607.485	15412.39
607.843	15378.72
608.2	15522.67
608.557	15625.27
608.914	15541.2
609.272	15521.09
609.629	15526.96
609.986	15601.99
610.343	15565.83
610.7	15688.99
611.057	15670.46
611.414	15721.08
611.771	15628.43
612.127	15710.69
612.484	15739.39
612.841	15838.14
613.198	15725.6
613.554	15769.9
613.911	15860.52
614.267	15863.45
614.624	15721.54
614.98	15865.71
615.337	15854.87
615.693	15918.14
616.05	15865.26
616.406	16021.87
616.762	15897.8
617.118	15924.02
617.475	16018.48
617.831	16040.62
618.187	16038.59
618.543	16103.9
618.899	16104.8
619.255	16065.03
619.611	16143.45
619.967	16039.04
620.323	16114.75
620.678	16207.62
621.034	16114.52
621.39	16123.33
621.746	16160.85
622.101	16266.38
622.457	16143.45
622.812	16140.51
623.168	16297.11
623.523	16189.55
623.879	16362.2
624.234	16241.3
624.589	16204.91
624.945	16300.28
625.3	16339.82
625.655	16382.54
626.01	16314.97
626.365	16356.32
626.72	16363.55
627.075	16366.94
627.43	16387.73
627.785	16297.79
628.14	16370.78
628.495	16449.43
628.85	16441.29
629.205	16389.77
629.559	16506.15
629.914	16433.16
630.269	16417.11
630.623	16341.41
630.978	16375.3
631.332	16544.34
631.687	16513.83
632.041	16423.44
632.396	16451.23
632.75	16447.62
633.104	16452.14
633.459	16470.22
633.813	16452.82
634.167	16485.36
634.521	16472.93
634.875	16609.42
635.229	16548.18
635.583	16456.88
635.937	16556.77
636.291	16600.16
636.645	16505.24
636.999	16517.22
637.352	16607.84
637.706	16520.84
638.06	16551.8
638.413	16624.56
638.767	16576.43
639.121	16525.13
639.474	16591.57
639.828	16608.74
640.181	16646.94
640.534	16625.01
640.888	16620.95
641.241	16595.86
641.594	16634.96
641.947	16660.72
642.301	16655.07
642.654	16664.79
643.007	16726.48
643.36	16766.03
643.713	16725.8
644.066	16795.63
644.419	16628.86
644.771	16548.18
645.124	16445.81
645.477	16432.93
645.83	16281.52
646.182	16266.83
646.535	16274.06
646.888	16440.39
647.24	16319.71
647.593	16471.8
647.945	16422.08
648.298	16466.15
648.65	16324.68
649.002	16339.6
649.355	16453.49
649.707	16354.51
650.059	16396.09
650.411	16653.71
650.763	16716.31
651.115	16927.38
651.467	16844.9
651.819	16877.89
652.171	16907.49
652.523	16854.39
652.875	16967.83
653.227	16808.51
653.578	17031.56
653.93	16886.93
654.282	16869.98
654.633	16872.24
654.985	16965.57
655.337	17011.45
655.688	16961.73
656.039	17106.58
656.391	17027.72
656.742	17016.42
657.094	16957.89
657.445	16991.78
657.796	17003.54
658.147	17012.12
658.498	16992.01
658.849	17100.48
659.2	17137.32
659.551	17109.07
659.902	17118.34
660.253	17096.64
660.604	17073.14
660.955	17012.12
661.306	17165.79
661.656	17132.35
662.007	17156.75
662.358	17110.88
662.708	17103.87
663.059	17142.74
663.409	17021.61
663.76	17235.39
664.11	17224.1
664.461	17099.8
664.811	17090.31
665.161	17143.42
665.511	17074.27
665.862	17128.73
666.212	17199.01
666.562	17166.47
666.912	17125.57
667.262	17063.2
667.612	17067.49
667.962	17125.11
668.312	17110.88
668.662	17151.78
669.011	16982.75
669.361	17073.59
669.711	17050.54
670.06	17051.67
670.41	16979.13
670.76	16912.69
671.109	17109.52
671.459	16938.9
671.808	16862.52
672.157	16951.56
672.507	16867.95
672.856	16864.1
673.205	16836.53
673.554	16788.4
673.904	16758.12
674.253	16844.44
674.602	16779.81
674.951	16580.72
675.3	16368.52
675.649	16681.28
675.998	16611.46
676.346	16647.16
676.695	16638.8
677.044	16517
677.393	16516.32
677.741	16607.84
678.09	16542.08
678.438	16468.41
678.787	16427.28
679.135	16543.44
679.484	16396.55
679.832	16423.44
680.181	16309.32
680.529	16304.12
680.877	16275.65
681.225	16173.73
681.573	16323.55
681.922	16153.16
682.27	16152.03
682.618	16224.57
682.966	16080.62
683.314	16157.46
683.661	16001.53
684.009	15941.64
684.357	16069.78
684.705	15959.04
685.053	15989.55
685.4	15971.47
685.748	15892.38
686.095	15899.38
686.443	15851.25
686.79	15704.14
687.138	15794.53
687.485	15820.52
687.832	15719.5
688.18	15730.12
688.527	15646.28
688.874	15682.89
689.221	15672.5
689.568	15596.12
689.915	15595.21
690.262	15559.51
690.609	15482.45
690.956	15460.53
691.303	15471.6
691.65	15443.13
691.997	15441.09
692.344	15315.44
692.69	15312.28
693.037	15322
693.383	15201.78
693.73	15204.94
694.077	15172.62
694.423	15305.73
694.769	15104.38
695.116	15126.07
695.462	15150.03
695.808	15098.73
696.155	15133.98
696.501	15048.33
696.847	15069.8
697.193	15013.53
697.539	15051.04
697.885	14961.1
698.231	14893.08
698.577	14905.06
698.923	14906.19
699.269	14880.2
699.614	14803.37
699.96	14740.32
700.306	14781
700.651	14695.12
700.997	14706.87
701.342	14713.65
701.688	14712.3
702.033	14642.92
702.379	14638.17
702.724	14607.67
703.069	14677.5
703.415	14449.25
703.76	14506.2
704.105	14487.9
704.45	14515.92
704.795	14446.54
705.14	14447.22
705.485	14489.93
705.83	14431.17
706.175	14415.13
706.52	14474.11
706.865	14343.49
707.209	14340.1
707.554	14355.47
707.899	14346.2
708.243	14241.35
708.588	14291.29
708.932	14246.55
709.277	14247.45
709.621	14221.91
709.966	14141.69
710.31	14241.35
710.654	14094.01
710.998	14180.56
711.342	14112.54
711.687	14154.12
712.031	14140.56
712.375	13998.42
712.719	14138.98
713.063	14115.25
713.407	14103.73
713.75	14097.85
714.094	14046.33
714.438	14025.54
714.782	14006.1
715.125	14045.65
715.469	14091.52
715.812	13983.73
716.156	13929.72
716.499	13933.11
716.843	13958.87
717.186	13958.87
717.53	14018.3
717.873	14021.69
718.216	13970.4
718.559	13927.46
718.902	13792.32
719.246	13910.74
719.589	13879.32
719.932	13764.07
720.275	13880.23
720.617	13822.6
720.96	13791.87
721.303	13745.32
721.646	13812.43
721.989	13748.93
722.331	13753.9
722.674	13724.75
723.016	13795.03
723.359	13718.42
723.701	13759.55
724.044	13764.53
724.386	13635.04
724.729	13693.11
725.071	13677.75
725.413	13680.69
725.755	13715.26
726.097	13660.35
726.439	13605.43
726.782	13721.81
727.124	13669.16
727.465	13675.49
727.807	13683.17
728.149	13680.01
728.491	13581.93
728.833	13704.87
729.175	13625.77
729.516	13693.34
729.858	13597.98
730.199	13593.46
730.541	13585.77
730.882	13581.48
731.224	13739.44
731.565	13575.15
731.906	13617.64
732.248	13624.19
732.589	13636.39
732.93	13619.22
733.271	13632.33
733.612	13690.4
733.953	13614.47
734.294	13642.04
734.635	13561.14
734.976	13636.84
735.317	13676.39
735.658	13592.1
735.999	13580.35
736.339	13677.52
736.68	13714.13
737.021	13699.44
737.361	13605.89
737.702	13786.22
738.042	13698.76
738.383	13832.32
738.723	13813.56
739.063	13710.74
739.404	13798.2
739.744	13805.43
740.084	13804.3
740.424	13817.86
740.764	13808.59
741.104	13861.25
741.444	13823.73
741.784	13938.53
742.124	13939.21
742.464	13888.82
742.804	13955.03
743.143	13988.25
743.483	14023.73
743.823	13995.48
744.162	14042.71
744.502	14067.79
744.841	14153.22
745.181	14118.41
745.52	14122.93
745.86	14137.17
746.199	14089.94
746.538	14147.34
746.877	14294.68
747.216	14219.43
747.556	14232.08
747.895	14279.77
748.234	14331.52
748.573	14309.82
748.911	14304.4
749.25	14277.05
749.589	14295.58
749.928	14388.92
750.267	14364.74
750.605	14417.16
750.944	14501.23
751.283	14507.1
751.621	14545.97
751.96	14428.91
752.298	14558.4
752.636	14571.28
752.975	14550.72
753.313	14583.94
753.651	14586.42
753.989	14626.2
754.327	14602.02
754.666	14646.31
755.004	14622.81
755.342	14734.22
755.679	14735.57
756.017	14728.34
756.355	14760.66
756.693	14733.09
757.031	14815.34
757.368	14704.84
757.706	14761.79
758.044	14770.83
758.381	14802.24
758.719	14805.63
759.056	14844.04
759.394	14888.79
759.731	14814.89
760.068	14905.96
760.405	14854.67
760.743	14827.55
761.08	14986.19
761.417	14909.13
761.754	14952.97
762.091	14850.6
762.428	15035.45
762.765	14913.87
763.102	14969.01
763.438	14867.77
763.775	14908.9
764.112	14928.34
764.449	15029.58
764.785	15058.05
765.122	14930.6
765.458	14878.17
765.795	14936.92
766.131	15037.94
766.467	14866.64
766.804	14905.29
767.14	14892.63
767.476	14863.93
767.812	14956.81
768.148	14931.27
768.485	14907.55
768.821	14895.34
769.157	14912.52
769.492	14912.74
769.828	14901.22
770.164	14843.82
770.5	14908.22
770.836	14911.39
771.171	14839.07
771.507	14895.57
771.842	14834.1
772.178	14877.04
772.513	14725.18
772.849	14879.3
773.184	14756.82
773.519	14804.95
773.855	14797.27
774.19	14764.05
774.525	14828.9
774.86	14811.5
775.195	14815.12
775.53	14718.17
775.865	14736.7
776.2	14573.32
776.535	14651.73
776.87	14651.73
777.205	14642.47
777.539	14562.92
777.874	14678.63
778.209	14570.38
778.543	14576.26
778.878	14603.6
779.212	14576.93
779.547	14479.76
779.881	14570.61
780.215	14464.39
780.55	14575.58
780.884	14557.72
781.218	14517.5
781.552	14511.85
781.886	14478.4
782.22	14390.05
782.554	14352.76
782.888	14305.75
783.222	14294.68
783.556	14335.58
783.889	14249.71
784.223	14189.6
784.557	14262.82
784.89	14293.32
785.224	14231.86
785.557	14148.7
785.891	14153.67
786.224	14054.91
786.558	14202.93
786.891	14088.13
787.224	14009.72
787.557	13983.5
787.891	13984.41
788.224	14036.61
788.557	14081.8
788.89	14064.86
789.223	13992.32
789.556	13978.08
789.888	13958.19
790.221	13965.42
790.554	13856.5
790.887	13911.64
791.219	13830.29
791.552	13765.88
791.884	13792.77
792.217	13750.97
792.549	13767.69
792.882	13768.14
793.214	13701.02
793.546	13709.84
793.879	13661.7
794.211	13577.64
794.543	13596.17
794.875	13686.79
795.207	13587.35
795.539	13543.51
795.871	13600.91
796.203	13514.36
796.535	13378.77
796.867	13489.28
797.198	13467.36
797.53	13463.06
797.862	13326.34
798.193	13406.79
798.525	13366.57
798.856	13400.69
799.188	13242.73
799.519	13304.88
799.85	13176.29
800.182	13237.08
800.513	13147.14
800.844	13150.08
801.175	13212.22
801.506	13257.65
801.837	13179.23
802.168	13133.13
802.499	13098.33
802.83	13150.76
803.161	13083.64
803.491	12983.53
803.822	13090.64
804.153	12976.98
804.483	12905.56
804.814	12888.16
805.145	12906.24
805.475	12869.41
805.805	12842.52
806.136	12851.1
806.466	12876.64
806.796	12891.33
807.126	12741.73
807.457	12733.59
807.787	12725.23
808.117	12713.93
808.447	12648.4
808.777	12711.45
809.107	12631.45
809.436	12642.52
809.766	12631
810.096	12608.17
810.426	12558.23
810.755	12577.89
811.085	12547.16
811.414	12520.94
811.744	12453.37
812.073	12500.15
812.403	12446.59
812.732	12416.54
813.061	12336.99
813.39	12369.08
813.719	12299.03
814.049	12364.56
814.378	12308.07
814.707	12308.74
815.036	12301.51
815.365	12267.62
815.693	12139.71
816.022	12160.05
816.351	12115.3
816.68	12043.67
817.008	12131.8
817.337	12098.13
817.665	12072.82
817.994	12094.06
818.322	12007.06
818.651	11960.28
818.979	11937.23
819.307	12031.92
819.636	12021.29
819.964	11925.93
820.292	11934.29
820.62	11923.22
820.948	11975.42
821.276	11974.06
821.604	11904.01
821.932	11915.99
822.259	11899.72
822.587	11919.15
822.915	11856.1
823.243	11904.91
823.57	11932.03
823.898	11965.25
824.225	11903.78
824.553	11921.64
824.88	11883.9
825.207	11964.35
825.535	11933.16
825.862	12022.88
826.189	11903.11
826.516	12070.33
826.843	11998.47
827.17	12045.02
827.497	12033.27
827.824	12020.62
828.151	11989.66
828.478	11974.52
828.805	12113.04
829.131	12005.93
829.458	12019.94
829.785	11905.59
830.111	11995.53
830.438	12050.67
830.764	12065.59
831.09	12038.02
831.417	11953.05
831.743	12044.12
832.069	12036.89
832.395	11960.05
832.722	12028.98
833.048	11973.84
833.374	12035.31
833.7	11873.5
834.026	11920.28
834.351	11967.28
834.677	11979.94
835.003	12016.1
835.329	11948.08
835.654	12021.52
835.98	11952.14
836.306	11884.57
836.631	11895.2
836.956	11951.92
837.282	11859.26
837.607	11886.83
837.932	11806.38
838.258	11795.09
838.583	11827.63
838.908	11773.17
839.233	11822.88
839.558	11821.98
839.883	11794.41
840.208	11722.54
840.533	11741.53
840.858	11730.45
841.182	11761.87
841.507	11676.9
841.832	11705.82
842.156	11615.2
842.481	11630.8
842.805	11638.25
843.13	11600.06
843.454	11613.62
843.778	11553.96
844.103	11521.87
844.427	11453.85
844.751	11461.31
845.075	11423.57
845.399	11465.15
845.723	11381.54
846.047	11432.83
846.371	11299.51
846.695	11316.23
847.019	11218.38
847.343	11216.57
847.666	11124.82
847.99	11097.02
848.313	11103.13
848.637	11024.48
848.96	11035.11
849.284	10978.61
849.607	10911.94
849.931	10903.13
850.254	10757.15
850.577	10809.8
850.9	10712.4
851.223	10687.77
851.546	10609.35
851.869	10549.47
852.192	10672.63
852.515	10514.67
852.838	10452.97
853.161	10544.27
853.483	10442.13
853.806	10377.5
854.129	10444.84
854.451	10396.93
854.774	10345.86
855.096	10274
855.419	10261.11
855.741	10243.94
856.063	10235.8
856.385	10137.05
856.708	10100.67
857.03	10051.4
857.352	10091.18
857.674	10074.45
857.996	9988.13
858.318	10006.88
858.64	9957.17
858.961	9921.01
859.283	9894.34
859.605	9866.77
859.926	9971.18
860.248	9854.8
860.57	9849.15
860.891	9859.32
861.212	9785.19
861.534	9761.69
861.855	9736.83
862.176	9778.42
862.498	9717.17
862.819	9766.44
863.14	9755.59
863.461	9687.8
863.782	9682.6
864.103	9740.45
864.424	9650.28
864.745	9668.59
865.065	9587.69
865.386	9554.92
865.707	9529.16
866.027	9593.34
866.348	9580.91
866.668	9575.48
866.989	9435.83
867.309	9482.15
867.63	9498.2
867.95	9469.04
868.27	9432.66
868.59	9460.46
868.91	9362.61
869.23	9455.26
869.55	9364.64
869.87	9445.99
870.19	9384.98
870.51	9340.01
870.83	9353.79
871.15	9230.41
871.469	9218.43
871.789	9317.86
872.109	9255.94
872.428	9301.14
872.748	9294.59
873.067	9227.24
873.386	9287.81
873.706	9182.95
874.025	9181.14
874.344	9162.16
874.663	9175.49
874.982	9164.87
875.301	9156.74
875.62	9062.28
875.939	9101.14
876.258	9130.3
876.577	9054.82
876.896	9074.93
877.214	8989.06
877.533	9076.74
877.852	9054.82
878.17	9033.12
878.489	9025.89
878.807	8983.18
879.125	8988.15
879.444	8927.82
879.762	8917.65
880.08	8922.17
880.398	8900.47
880.716	8921.04
881.034	8916.97
881.352	8875.39
881.67	8846.69
881.988	8897.08
882.306	8811.21
882.624	8808.27
882.941	8768.27
883.259	8747.26
883.577	8727.82
883.894	8690.99
884.212	8646.47
884.529	8633.81
884.846	8681.72
885.164	8618.9
885.481	8605.79
885.798	8588.16
886.115	8565.57
886.432	8516.98
886.75	8529.63
887.067	8498
887.383	8479.24
887.7	8446.7
888.017	8465.23
888.334	8475.17
888.651	8405.12
888.967	8406.7
889.284	8362.41
889.6	8335.29
889.917	8299.13
890.233	8308.85
890.55	8283.31
890.866	8229.53
891.182	8271.11
891.498	8269.75
891.815	8175.52
892.131	8173.94
892.447	8151.79
892.763	8106.14
893.079	8033.38
893.395	8068.4
893.71	8046.26
894.026	7995.19
894.342	8009.2
894.657	7971.23
894.973	7966.26
895.289	7960.16
895.604	7966.94
895.92	7911.12
896.235	7928.75
896.55	7874.96
896.865	7788.86
897.181	7756.1
897.496	7776.21
897.811	7718.81
898.126	7714.51
898.441	7676.32
898.756	7745.7
899.071	7698.02
899.386	7613.95
899.7	7602.43
900.015	7528.53
900.33	7507.97
900.644	7454.63
900.959	7416.22
901.273	7372.15
901.588	7326.95
901.902	7398.82
902.216	7340.29
902.531	7360.17
902.845	7351.81
903.159	7289.22
903.473	7220.97
903.787	7210.57
904.101	7171.93
904.415	7172.61
904.729	7179.16
905.042	7100.52
905.356	7107.3
905.67	7054.65
905.984	7064.14
906.297	7059.39
906.611	7012.39
906.924	6903.91
907.237	6907.76
907.551	6938.72
907.864	6924.48
908.177	6894.65
908.491	6820.53
908.804	6832.28
909.117	6809.68
909.43	6718.83
909.743	6762.45
910.056	6707.31
910.368	6662.56
910.681	6640.64
910.994	6636.12
911.307	6616.01
911.619	6570.14
911.932	6554.55
912.244	6491.5
912.557	6482.91
912.869	6416.92
913.181	6362.91
913.494	6370.82
913.806	6409.24
914.118	6358.62
914.43	6332.63
914.742	6339.18
915.054	6292.41
915.366	6245.17
915.678	6281.56
915.99	6207.44
916.302	6140.09
916.613	6210.83
916.925	6176.93
917.236	6101.45
917.548	6085.63
917.859	6073.88
918.171	6022.13
918.482	5975.58
918.794	6017.38
919.105	5978.52
919.416	5941.68
919.727	5931.51
920.038	5885.86
920.349	5869.37
920.66	5854.45
920.971	5836.6
921.282	5815.81
921.593	5775.36
921.903	5742.59
922.214	5689.71
922.525	5691.07
922.835	5671.86
923.146	5664.4
923.456	5634.12
923.767	5613.33
924.077	5600.22
924.387	5582.37
924.697	5557.06
925.008	5512.54
925.318	5531.52
925.628	5474.8
925.938	5429.83
926.248	5417.4
926.558	5397.97
926.867	5402.03
927.177	5371.75
927.487	5322.26
927.796	5280
928.106	5338.08
928.416	5300.79
928.725	5283.17
929.034	5233.45
929.344	5250.85
929.653	5172.21
929.962	5190.97
930.271	5145.32
930.581	5117.52
930.89	5073.45
931.199	5049.27
931.508	5056.51
931.817	5121.81
932.125	5042.95
932.434	4970.86
932.743	5002.04
933.051	4967.47
933.36	4926.11
933.669	4900.58
933.977	4872.78
934.286	4883.85
934.594	4877.75
934.902	4802.05
935.21	4821.94
935.519	4781.48
935.827	4726.12
936.135	4710.75
936.443	4733.35
936.751	4692
937.059	4666.01
937.367	4651.32
937.674	4684.76
937.982	4657.42
938.29	4645.44
938.597	4599.34
938.905	4528.84
939.213	4530.87
939.52	4536.52
939.827	4524.32
940.135	4521.6
940.442	4435.05
940.749	4456.3
941.056	4449.06
941.363	4388.5
941.67	4385.34
941.977	4376.07
942.284	4344.43
942.591	4303.76
942.898	4301.05
943.205	4346.02
943.511	4313.93
943.818	4302.85
944.125	4235.74
944.431	4224.66
944.738	4241.39
945.044	4214.72
945.35	4177.66
945.657	4158
945.963	4161.61
946.269	4161.84
946.575	4148.28
946.881	4110.99
947.187	4111.45
947.493	4068.06
947.799	4043.2
948.105	4038.91
948.41	4019.92
948.716	4002.52
949.022	3941.51
949.327	3948.74
949.633	3910.55
949.938	3931.11
950.244	3909.87
950.549	3852.7
950.854	3835.97
951.16	3912.13
951.465	3856.76
951.77	3809.08
952.075	3829.65
952.38	3822.64
952.685	3784.22
952.99	3715.75
953.294	3746.71
953.599	3738.8
953.904	3747.16
954.209	3679.37
954.513	3639.37
954.818	3678.01
955.122	3612.48
955.426	3611.35
955.731	3591.23
956.035	3621.97
956.339	3568.18
956.643	3582.42
956.948	3572.48
957.252	3558.47
957.556	3545.13
957.86	3543.1
958.163	3529.09
958.467	3516.66
958.771	3477.79
959.075	3448.86
959.378	3476.21
959.682	3464
959.985	3387.62
960.289	3424.01
960.592	3369.32
960.896	3393.05
961.199	3344.69
961.502	3308.98
961.805	3320.28
962.108	3304.01
962.411	3302.2
962.714	3266.95
963.017	3278.47
963.32	3262.2
963.623	3227.4
963.926	3223.33
964.228	3223.33
964.531	3191.92
964.833	3203.22
965.136	3164.35
965.438	3157.8
965.741	3121.64
966.043	3128.87
966.345	3120.29
966.648	3112.6
966.95	3095.88
967.252	3060.63
967.554	3066.28
967.856	3047.97
968.158	3020.85
968.46	3055.43
968.761	2999.38
969.063	3015.66
969.365	2993.96
969.666	2972.04
969.968	2962.55
970.269	2939.05
970.571	2936.56
970.872	2927.97
971.174	2909.67
971.475	2861.76
971.776	2897.92
972.077	2864.02
972.378	2864.92
972.679	2812.95
972.98	2823.12
973.281	2847.98
973.582	2850.69
973.883	2773.4
974.183	2802.1
974.484	2804.59
974.785	2788.32
975.085	2742.67
975.386	2766.85
975.686	2740.63
975.986	2689.79
976.287	2713.52
976.587	2704.48
976.887	2665.61
977.187	2692.73
977.487	2674.65
977.787	2667.64
978.087	2651.6
978.387	2655.66
978.687	2597.14
978.987	2607.98
979.286	2577.25
979.586	2569.34
979.885	2584.71
980.185	2555.78
980.484	2537.02
980.784	2538.15
981.083	2523.01
981.382	2536.12
981.682	2513.3
981.981	2483.92
982.28	2487.99
982.579	2492.28
982.878	2457.93
983.177	2449.79
983.475	2468.55
983.774	2432.17
984.073	2409.57
984.372	2400.76
984.67	2401.43
984.969	2428.55
985.267	2410.02
985.566	2381.77
985.864	2364.15
986.162	2358.72
986.461	2351.04
986.759	2316.69
987.057	2277.82
987.355	2275.79
987.653	2300.87
987.951	2295.22
988.249	2250.03
988.547	2302.68
988.844	2236.69
989.142	2221.78
989.44	2232.62
989.737	2216.81
990.035	2228.56
990.332	2205.73
990.63	2178.16
990.927	2184.94
991.224	2176.81
991.521	2127.99
991.819	2156.24
992.116	2148.56
992.413	2132.74
992.71	2097.49
993.006	2127.99
993.303	2100.42
993.6	2078.28
993.897	2103.36
994.193	2066.08
994.49	2097.04
994.787	2038.05
995.083	2035.34
995.379	2056.36
995.676	2031.5
995.972	2013.65
996.268	2015.91
996.565	2020.43
996.861	1987.21
997.157	1982.69
997.453	1981.33
997.749	1944.5
998.044	1959.41
998.34	1934.33
998.636	1946.08
998.932	1930.26
999.227	1909.7
999.523	1897.27
999.818	1895.91
1000.114	1865.18
1000.409	1852.07
1000.704	1875.35
1001	1856.59
1001.295	1869.7
1001.59	1844.61
1001.885	1837.38
1002.18	1818.62
1002.475	1813.43
1002.77	1800.55
1003.065	1788.79
1003.359	1751.28
1003.654	1738.63
1003.949	1752.19
1004.243	1760.32
1004.538	1736.37
1004.832	1726.2
1005.127	1701.11
1005.421	1721.9
1005.715	1683.03
1006.009	1695.92
1006.304	1712.64
1006.598	1681.23
1006.892	1651.17
1007.186	1674.9
1007.48	1652.08
1007.773	1653.43
1008.067	1622.7
1008.361	1617.05
1008.655	1602.36
1008.948	1630.83
1009.242	1616.14
1009.535	1584.73
1009.829	1575.92
1010.122	1561.23
1010.415	1546.32
1010.708	1540.44
1011.001	1539.08
1011.295	1534.34
1011.588	1522.36
1011.881	1529.14
1012.173	1485.07
1012.466	1507.67
1012.759	1472.42
1013.052	1485.3
1013.344	1482.14
1013.637	1473.77
1013.93	1481.46
1014.222	1417.51
1014.514	1429.93
1014.807	1438.52
1015.099	1411.18
1015.391	1408.92
1015.683	1405.75
1015.976	1437.39
1016.268	1410.5
1016.56	1393.32
1016.851	1406.66
1017.143	1368.92
1017.435	1342.93
1017.727	1370.27
1018.018	1348.35
1018.31	1337.96
1018.602	1349.26
1018.893	1321.46
1019.185	1332.31
1019.476	1289.37
1019.767	1328.69
1020.058	1291.41
1020.35	1282.59
1020.641	1275.59
1020.932	1249.37
1021.223	1258.87
1021.514	1269.71
1021.804	1261.8
1022.095	1235.59
1022.386	1213.67
1022.677	1221.58
1022.967	1207.12
1023.258	1179.32
1023.548	1192.88
1023.839	1189.94
1024.129	1183.61
1024.419	1183.16
1024.709	1177.51
1025	1148.81
1025.29	1149.26
1025.58	1132.54
1025.87	1146.55
1026.16	1102.94
1026.449	1109.04
1026.739	1105.2
1027.029	1103.62
1027.319	1097.06
1027.608	1100.9
1027.898	1088.47
1028.187	1086.44
1028.477	1078.76
1028.766	1049.61
1029.055	1050.06
1029.344	1051.41
1029.634	1046.89
1029.923	1031.3
1030.212	1035.14
1030.501	1038.08
1030.79	1008.25
1031.078	1007.35
1031.367	1010.74
1031.656	1014.35
1031.945	1004.18
1032.233	988.14
1032.522	967.57
1032.81	957.86
1033.099	958.99
1033.387	951.3
1033.675	966.67
1033.963	973.45
1034.251	943.17
1034.54	935.48
1034.828	944.3
1035.116	938.87
1035.403	934.58
1035.691	939.55
1035.979	909.5
1036.267	893
1036.554	900.46
1036.842	888.03
1037.129	898.65
1037.417	874.92
1037.704	875.37
1037.992	894.36
1038.279	854.81
1038.566	861.59
1038.853	861.59
1039.14	861.59
