Data from blue_shiny_book_FLMS001491_00056.txt Node
Date: Wed Feb 08 15:27:13 GMT 2017
User: dcchb
Spectrometer: FLMS00149
Trigger mode: 0
Integration Time (sec): 2.000000E-2
Scans to average: 10
Electric dark correction enabled: true
Nonlinearity correction enabled: false
Boxcar width: 0
XAxis mode: Wavelengths
Number of Pixels in Spectrum: 2048
>>>>>Begin Spectral Data<<<<<
341.393	-5.11
341.776	-5.11
342.16	-5.11
342.543	-69.52
342.927	-73.36
343.31	-77.43
343.693	-56.64
344.077	-77.2
344.46	-66.13
344.843	-45.11
345.226	-35.39
345.61	-36.52
345.993	-3.98
346.376	-12.34
346.759	13.64
347.142	43.25
347.525	35.11
347.908	62
348.291	74.43
348.674	75.79
349.057	106.52
349.44	125.51
349.823	146.52
350.206	167.76
350.588	213.19
350.971	202.57
351.354	244.82
351.737	246.18
352.119	267.65
352.502	269.91
352.884	299.06
353.267	294.77
353.65	301.09
354.032	305.16
354.414	339.28
354.797	336.12
355.179	355.1
355.562	328.21
355.944	333.86
356.326	358.72
356.709	346.97
357.091	370.92
357.473	349
357.855	370.02
358.238	356.69
358.62	386.06
359.002	363.24
359.384	376.35
359.766	364.82
360.148	365.95
360.53	374.09
360.912	364.82
361.294	371.37
361.676	365.05
362.057	371.83
362.439	358.04
362.821	367.53
363.203	364.82
363.584	339.06
363.966	365.27
364.348	351.94
364.729	365.05
365.111	355.33
365.493	348.32
365.874	336.35
366.256	344.26
366.637	344.03
367.019	363.69
367.4	364.14
367.781	331.83
368.163	358.27
368.544	365.5
368.925	374.09
369.306	356.91
369.688	364.59
370.069	341.09
370.45	333.18
370.831	377.48
371.212	348.1
371.593	357.14
371.974	353.75
372.355	390.81
372.736	369.34
373.117	360.75
373.498	378.15
373.879	364.14
374.26	379.28
374.641	389.68
375.021	358.49
375.402	377.02
375.783	367.31
376.163	390.36
376.544	396.23
376.925	400.3
377.305	385.61
377.686	394.42
378.066	405.72
378.447	389.91
378.827	408.21
379.208	404.14
379.588	408.66
379.968	426.06
380.349	418.6
380.729	414.54
381.109	421.54
381.489	428.55
381.87	421.09
382.25	443.46
382.63	453.63
383.01	460.19
383.39	445.72
383.77	462.22
384.15	439.85
384.53	471.94
384.91	466.97
385.29	482.56
385.67	466.06
386.049	505.61
386.429	478.49
386.809	494.54
387.189	498.6
387.568	490.47
387.948	503.12
388.328	481.43
388.707	496.57
389.087	525.95
389.466	533.63
389.846	514.2
390.225	531.14
390.605	550.58
390.984	551.48
391.363	532.5
391.743	574.76
392.122	544.48
392.501	551.26
392.881	571.6
393.26	557.81
393.639	591.26
394.018	582.44
394.397	600.75
394.776	595.55
395.155	610.92
395.534	623.8
395.913	629.67
396.292	638.94
396.671	640.29
397.05	654.08
397.429	623.8
397.808	639.16
398.186	662.89
398.565	674.87
398.944	681.2
399.323	661.31
399.701	648.88
400.08	683.91
400.458	708.77
400.837	717.81
401.215	725.26
401.594	711.03
401.972	744.47
402.351	716.22
402.729	754.64
403.107	760.74
403.486	753.74
403.864	758.26
404.242	771.59
404.62	792.15
404.999	778.82
405.377	788.99
405.755	788.31
406.133	826.73
406.511	830.35
406.889	863.11
407.267	850.91
407.645	875.54
408.023	902.21
408.401	879.38
408.779	897.91
409.156	921.19
409.534	912.15
409.912	934.07
410.29	957.57
410.667	958.03
411.045	982.21
411.422	1000.96
411.8	1015.43
412.178	1013.17
412.555	1074.63
412.933	1061.98
413.31	1090.23
413.687	1095.2
414.065	1090.68
414.442	1116.21
414.819	1107.4
415.197	1151.69
415.574	1171.13
415.951	1195.76
416.328	1203.22
416.705	1227.85
417.082	1214.52
417.46	1266.72
417.837	1286.83
418.214	1254.06
418.591	1266.04
418.967	1265.59
419.344	1279.15
419.721	1302.88
420.098	1331.8
420.475	1343.78
420.852	1359.37
421.228	1400.5
421.605	1386.71
421.982	1434.17
422.358	1421.52
422.735	1448.63
423.111	1466.94
423.488	1473.72
423.864	1493.83
424.241	1472.59
424.617	1531.57
424.994	1550.78
425.37	1583.77
425.746	1591
426.123	1614.51
426.499	1634.39
426.875	1653.37
427.251	1664.45
427.627	1708.06
428.003	1724.33
428.379	1724.79
428.756	1756.65
429.132	1778.8
429.507	1823.09
429.883	1861.96
430.259	1887.49
430.635	1915.51
431.011	1911.22
431.387	1974.72
431.763	2000.48
432.138	1979.02
432.514	2046.13
432.89	2049.97
433.265	2109.63
433.641	2161.61
434.016	2176.3
434.392	2217.65
434.767	2200.03
435.143	2219.46
435.518	2299.69
435.894	2326.13
436.269	2353.24
436.644	2381.04
437.02	2383.3
437.395	2425.78
437.77	2414.94
438.145	2487.93
438.52	2499
438.895	2530.64
439.271	2529.96
439.646	2624.42
440.021	2648.38
440.395	2661.48
440.77	2624.42
441.145	2695.16
441.52	2749.17
441.895	2739.45
442.27	2754.81
442.645	2802.04
443.019	2826.45
443.394	2816.28
443.769	2824.42
444.143	2828.71
444.518	2944.87
444.892	2966.56
445.267	2965.43
445.641	3020.57
446.016	3028.48
446.39	3041.81
446.764	3046.11
447.139	3070.06
447.513	3088.14
447.887	3146.22
448.262	3144.86
448.636	3132.43
449.01	3188.02
449.384	3214.46
449.758	3239.55
450.132	3290.39
450.506	3304.18
450.88	3371.52
451.254	3370.39
451.628	3451.07
452.002	3500.56
452.376	3497.62
452.75	3557.51
453.123	3569.26
453.497	3625.3
453.871	3653.77
454.244	3723.6
454.618	3761.12
454.992	3806.99
455.365	3810.38
455.739	3914.11
456.112	3991.84
456.486	4048.34
456.859	4072.52
457.232	4143.7
457.606	4164.27
457.979	4221.67
458.352	4263.93
458.725	4318.62
459.099	4359.97
459.472	4452.17
459.845	4472.96
460.218	4587.53
460.591	4576.69
460.964	4606.52
461.337	4735.55
461.71	4821.2
462.083	4865.27
462.456	4891.71
462.829	4934.64
463.201	5086.73
463.574	5078.14
463.947	5154.3
464.32	5247.18
464.692	5311.58
465.065	5333.28
465.438	5447.4
465.81	5533.95
466.183	5556.32
466.555	5684.23
466.928	5729.65
467.3	5735.75
467.672	5900.49
468.045	5973.26
468.417	6056.42
468.789	6099.36
469.161	6197.89
469.534	6286.93
469.906	6413.25
470.278	6418
470.65	6567.14
471.022	6662.73
471.394	6781.15
471.766	6838.32
472.138	6973.23
472.51	7085.32
472.882	7175.94
473.253	7264.3
473.625	7385.43
473.997	7521.47
474.369	7598.08
474.74	7752.42
475.112	7854.57
475.484	7968.91
475.855	8144.96
476.227	8189.47
476.598	8388.11
476.97	8561.89
477.341	8745.84
477.713	8838.04
478.084	8969.34
478.455	9215.44
478.827	9271.48
479.198	9502.89
479.569	9621.53
479.94	9788.53
480.311	9854.51
480.682	10137.45
481.053	10286.59
481.424	10494.05
481.795	10609.3
482.166	10846.81
482.537	10988.72
482.908	11204.99
483.279	11354.59
483.65	11541.48
484.021	11788.25
484.391	11896.04
484.762	12000.67
485.133	12239.76
485.503	12341.23
485.874	12642.92
486.244	12803.82
486.615	12957.26
486.985	13099.18
487.356	13399.05
487.726	13483.12
488.097	13783.45
488.467	13801.98
488.837	14112.26
489.207	14281.97
489.578	14644.9
489.948	14722.18
490.318	14958.79
490.688	15050.54
491.058	15294.82
491.428	15576.17
491.798	15659.56
492.168	15946.78
492.538	16005.31
492.908	16117.85
493.278	16419.77
493.648	16398.07
494.017	16666.99
494.387	16887.55
494.757	17159.18
495.126	17357.82
495.496	17438.95
495.866	17549.45
496.235	17697.47
496.605	17974.3
496.974	18174.3
497.344	18236.22
497.713	18346.04
498.082	18524.8
498.452	18686.6
498.821	18856.54
499.19	18831.91
499.559	19091.79
499.928	19058.57
500.298	19271.44
500.667	19501.49
501.036	19552.34
501.405	19744.65
501.774	19997.98
502.143	20079.33
502.512	20261.02
502.88	20410.62
503.249	20491.3
503.618	20612.65
503.987	20671.18
504.356	20807.67
504.724	21002.92
505.093	21138.51
505.462	21118.85
505.83	21228
506.199	21396.58
506.567	21651.49
506.936	21724.71
507.304	22012.16
507.672	22033.86
508.041	22276.34
508.409	22477.69
508.777	22633.16
509.145	23017.78
509.514	22970.1
509.882	23177.78
510.25	23345.23
510.618	23492.35
510.986	23522.4
511.354	23847.59
511.722	23807.59
512.09	24154.03
512.458	24006.91
512.826	24333
513.193	24558.31
513.561	24607.35
513.929	24828.58
514.297	25117.84
514.664	25201.68
515.032	25403.48
515.4	25789.01
515.767	25908.33
516.135	25943.81
516.502	25967.09
516.869	26560.97
517.237	26613.62
517.604	26638.48
517.972	26823.56
518.339	26993.73
518.706	27083.67
519.073	27143.78
519.44	27303.32
519.808	27514.39
520.175	27641.84
520.542	27872.8
520.909	28015.17
521.276	28101.49
521.643	28473.46
522.009	28680.46
522.376	28926.1
522.743	29270.05
523.11	29536.71
523.477	29907.32
523.843	30148.9
524.21	30413.3
524.577	30725.83
524.943	30723.57
525.31	30888.54
525.676	31153.62
526.043	31344.12
526.409	31457.11
526.776	31798.34
527.142	31853.26
527.508	31937.1
527.874	32165.34
528.241	32427.03
528.607	32526.46
528.973	32949.95
529.339	33122.15
529.705	33570.05
530.071	33793.77
530.437	34105.85
530.803	34260.43
531.169	34648.67
531.535	34618.16
531.901	34697.48
532.267	35017.02
532.632	35206.16
532.998	35223.57
533.364	35330.68
533.73	35411.13
534.095	35604.8
534.461	35669.43
534.826	35870.78
535.192	35993.71
535.557	36134.05
535.923	36121.85
536.288	36271.22
536.653	36509.18
537.019	36590.99
537.384	36987.36
537.749	37251.76
538.114	37266.22
538.479	37507.8
538.845	37638.87
539.21	37634.8
539.575	37929.03
539.94	37922.03
540.305	38245.18
540.67	38104.62
541.034	38025.53
541.399	38261.9
541.764	38300.55
542.129	38422.58
542.494	38506.64
542.858	38486.53
543.223	38578.05
543.587	38858.05
543.952	38876.8
544.316	39267.07
544.681	39207.42
545.045	39444.25
545.41	39851.24
545.774	39938.24
546.138	40207.16
546.503	40176.66
546.867	40319.93
547.231	40771.44
547.595	40719.69
547.959	40859.12
548.324	40955.39
548.688	40719.92
549.052	40916.75
549.416	41095.73
549.779	40997.88
550.143	40993.36
550.507	41143.41
550.871	41227.02
551.235	41050.98
551.599	41467.92
551.962	41462.95
552.326	41694.36
552.689	41910.17
553.053	41821.81
553.417	42118.3
553.78	42746.76
554.143	42516.71
554.507	42783.37
554.87	42949.46
555.234	43476.91
555.597	43191.27
555.96	43199.63
556.323	43476.23
556.686	43471.03
557.05	43669.9
557.413	43643.68
557.776	43743.79
558.139	43834.41
558.502	43765.26
558.865	43811.14
559.228	43998.93
559.59	44127.06
559.953	44236.89
560.316	44649.76
560.679	44754.61
561.041	45150.76
561.404	45290.42
561.767	45676.85
562.129	45623.29
562.492	46109.61
562.854	46272.31
563.217	46358.19
563.579	46512.31
563.941	46916.82
564.304	47015.8
564.666	47173.76
565.028	47150.94
565.39	47324.04
565.753	47523.81
566.115	47410.14
566.477	47598.16
566.839	47549.34
567.201	47833.18
567.563	47717.7
567.925	47938.03
568.287	47907.75
568.648	47987.07
569.01	48275.2
569.372	48559.26
569.734	48444.91
570.095	48726.04
570.457	48927.61
570.819	49043.31
571.18	49320.14
571.542	49511.78
571.903	49561.04
572.265	49789.74
572.626	49814.37
572.987	49976.85
573.349	49966.91
573.71	50157.41
574.071	50153.34
574.432	50306.11
574.794	50346.33
575.155	50179.78
575.516	49855.05
575.877	50082.16
576.238	50138.65
576.599	50234.92
576.96	50168.94
577.32	50233.79
577.681	50453.22
578.042	50565.99
578.403	50680.11
578.763	50641.69
579.124	50759.43
579.485	51045.07
579.845	51105.18
580.206	51142.92
580.566	51147.67
580.927	51370.71
581.287	51511.27
581.648	51446.64
582.008	51645.28
582.368	51461.33
582.728	51539.29
583.089	51590.14
583.449	51385.17
583.809	51524.61
584.169	51529.8
584.529	51425.17
584.889	51662.23
585.249	51361.9
585.609	51236.48
585.969	51445.51
586.329	51369.13
586.688	51397.38
587.048	51415.46
587.408	51436.02
587.768	51615
588.127	51629.46
588.487	51561.89
588.846	51875.78
589.206	51780.19
589.565	51873.52
589.925	52026.74
590.284	51902.45
590.643	52007.08
591.003	52137.24
591.362	52236.9
591.721	52145.61
592.08	52195.32
592.44	52132.05
592.799	52160.07
593.158	52100.41
593.517	51997.36
593.876	51955.78
594.235	51893.64
594.593	51912.62
594.952	51899.74
595.311	51843.02
595.67	51764.6
596.029	51974.76
596.387	51901.54
596.746	51911.71
597.104	51823.81
597.463	51873.52
597.822	52044.14
598.18	51951.71
598.538	52020.41
598.897	52286.17
599.255	51959.62
599.613	52520.29
599.972	52334.98
600.33	52413.4
600.688	52350.12
601.046	52570.23
601.404	52628.53
601.762	52519.16
602.12	52714.63
602.478	52555.54
602.836	52648.87
603.194	52459.95
603.552	52621.07
603.91	52370.01
604.268	52427.63
604.625	52367.07
604.983	52451.36
605.341	52196.9
605.698	52384.47
606.056	52429.67
606.413	52487.52
606.771	52520.74
607.128	52606.61
607.485	52514.64
607.843	52629.89
608.2	52794.4
608.557	52908.52
608.914	52959.14
609.272	53042.98
609.629	53209.31
609.986	53396.19
610.343	53318
610.7	53497.21
611.057	53418.34
611.414	53506.7
611.771	53454.72
612.127	53627.15
612.484	53567.72
612.841	53723.19
613.198	53594.61
613.554	53594.16
613.911	53624.66
614.267	53466.02
614.624	53450.43
614.98	53576.08
615.337	53651.78
615.693	53505.12
616.05	53400.26
616.406	53660.14
616.762	53510.54
617.118	53531.56
617.475	53510.09
617.831	53561.39
618.187	53584.21
618.543	53671.67
618.899	53799.57
619.255	53796.18
619.611	53700.14
619.967	53925.22
620.323	54047.25
620.678	53917.54
621.034	53965.9
621.39	54016.74
621.746	53935.62
622.101	54246.34
622.457	54070.75
622.812	54093.13
623.168	54118.66
623.523	54030.98
623.879	54219.45
624.234	53811.55
624.589	53938.33
624.945	53942.62
625.3	53942.4
625.655	53851.78
626.01	53816.52
626.365	53735.17
626.72	53710.99
627.075	53731.33
627.43	53752.12
627.785	53656.3
628.14	53643.42
628.495	53654.49
628.85	53686.58
629.205	53659.69
629.559	53869.63
629.914	53629.41
630.269	53830.53
630.623	53763.64
630.978	53770.87
631.332	53967.71
631.687	54043.86
632.041	53959.8
632.396	54115.5
632.75	53874.37
633.104	54056.06
633.459	53877.54
633.813	53977.65
634.167	53909.18
634.521	53835.05
634.875	53868.5
635.229	53753.7
635.583	53609.3
635.937	53587.38
636.291	53554.16
636.645	53489.98
636.999	53282.53
637.352	53394.61
637.706	53181.06
638.06	53230.1
638.413	53109.65
638.767	53000.95
639.121	52956.88
639.474	52774.06
639.828	52767.28
640.181	52788.08
640.534	52908.75
640.888	52891.58
641.241	52757.57
641.594	52782.88
641.947	52981.52
642.301	52853.61
642.654	52925.7
643.007	52962.99
643.36	52941.97
643.713	52876.21
644.066	52973.61
644.419	52898.81
644.771	52908.98
645.124	52723.9
645.477	52686.16
645.83	52367.75
646.182	52019.51
646.535	51727.99
646.888	51560.76
647.24	51452.29
647.593	51520.76
647.945	51322.58
648.298	51152.41
648.65	50934.11
649.002	50984.51
649.355	51115.58
649.707	51053.88
650.059	51115.12
650.411	51603.93
650.763	51675.79
651.115	51961.2
651.467	51674.66
651.819	51761.89
652.171	51704.49
652.523	51638.5
652.875	51712.62
653.227	51705.84
653.578	52016.8
653.93	51963.01
654.282	51819.97
654.633	51829.23
654.985	51866.97
655.337	51934.54
655.688	52005.27
656.039	52006.85
656.391	51946.97
656.742	52013.41
657.094	52053.86
657.445	52198.26
657.796	51941.09
658.147	51986.06
658.498	51892.28
658.849	51990.81
659.2	51914.65
659.551	51876.23
659.902	51778.84
660.253	51771.15
660.604	51703.81
660.955	51500.88
661.306	51609.35
661.656	51474.66
662.007	51399.41
662.358	51286.19
662.708	51364.16
663.059	51309.02
663.409	51066.76
663.76	51353.31
664.11	51292.75
664.461	51285.74
664.811	51279.41
665.161	51271.28
665.511	51283.93
665.862	51491.84
666.212	51528.9
666.562	51590.82
666.912	51555.11
667.262	51600.54
667.612	51576.36
667.962	51762.79
668.312	51731.15
668.662	51843.02
669.011	51750.81
669.361	51664.94
669.711	51668.33
670.06	51520.76
670.41	51352.86
670.76	51341.33
671.109	51436.47
671.459	51197.16
671.808	51161
672.157	51163.94
672.507	50894.57
672.856	50878.29
673.205	50922.81
673.554	50861.8
673.904	50581.13
674.253	50724.85
674.602	50660.22
674.951	50056.62
675.3	49912.67
675.649	50551.52
675.998	50326.67
676.346	50271.98
676.695	50340.46
677.044	50213
677.393	50498.19
677.741	50470.4
678.09	50348.59
678.438	50442.15
678.787	50497.74
679.135	50488.25
679.484	50313.56
679.832	50548.13
680.181	50444.41
680.529	50558.3
680.877	50414.58
681.225	50592.2
681.573	50714.23
681.922	50398.99
682.27	50410.74
682.618	50358.53
682.966	50221.36
683.314	50269.95
683.661	50119.9
684.009	49974.59
684.357	49820.47
684.705	49800.81
685.053	49693.24
685.4	49671.55
685.748	49453.02
686.095	49345.45
686.443	49131.9
686.79	48992.02
687.138	49046.93
687.485	49002.19
687.832	48759.25
688.18	48798.35
688.527	48621.18
688.874	48519.71
689.221	48522.42
689.568	48312.49
689.915	48250.12
690.262	48255.77
690.609	48257.57
690.956	48217.57
691.303	48182.55
691.65	48077.69
691.997	48096
692.344	47886.51
692.69	47908.43
693.037	47923.34
693.383	47742.56
693.73	47950.01
694.077	47741.43
694.423	47754.08
694.769	47585.73
695.116	47447.65
695.462	47317.94
695.808	47231.16
696.155	47280.88
696.501	47062.58
696.847	46905.97
697.193	46662.13
697.539	46708.46
697.885	46438.41
698.231	46099.21
698.577	46128.36
698.923	45915.04
699.269	45762.72
699.614	45517.76
699.96	45273.24
700.306	45216.97
700.651	44989.86
700.997	44768.17
701.342	44680.27
701.688	44638.01
702.033	44512.36
702.379	44432.14
702.724	44408.18
703.069	44395.08
703.415	43966.39
703.76	43968.42
704.105	44003.67
704.45	43831.25
704.795	43771.36
705.14	43738.6
705.485	43614.76
705.83	43552.84
706.175	43724.58
706.52	43630.8
706.865	43589.9
707.209	43619.95
707.554	43430.58
707.899	43520.75
708.243	43170.25
708.588	43341.77
708.932	43092.74
709.277	43114.43
709.621	43135
709.966	42811.84
710.31	42917.37
710.654	42471.28
710.998	42515.58
711.342	42477.39
711.687	42444.84
712.031	41907.91
712.375	41945.87
712.719	41885.09
713.063	41716.73
713.407	41949.72
713.75	41470.86
714.094	41438.54
714.438	41097.08
714.782	41143.86
715.125	41017.99
715.469	40982.74
715.812	40826.81
716.156	40660.26
716.499	40707.49
716.843	40551.79
717.186	40291.45
717.53	40559.02
717.873	40588.62
718.216	40417.1
718.559	40449.19
718.902	40364.22
719.246	40502.52
719.589	40541.84
719.932	40309.76
720.275	40516.99
720.617	40482.86
720.96	40463.65
721.303	40615.97
721.646	40512.01
721.989	40294.17
722.331	40582.07
722.674	40492.58
723.016	40388.4
723.359	40435.18
723.701	40477.21
724.044	40033.61
724.386	39919.04
724.729	40105.02
725.071	39805.14
725.413	40057.34
725.755	39974.4
726.097	39669.78
726.439	39476.11
726.782	39489.44
727.124	39470.46
727.465	39106.85
727.807	39012.62
728.149	38972.17
728.491	38832.06
728.833	38682.23
729.175	38538.28
729.516	38494.67
729.858	38423.71
730.199	38672.74
730.541	38362.01
730.882	38378.51
731.224	38599.07
731.565	38243.37
731.906	38304.84
732.248	38437.49
732.589	38153.66
732.93	38188.69
733.271	38160.66
733.612	38256.25
733.953	38528.11
734.294	38167.89
734.635	38208.57
734.976	38329.7
735.317	38241.11
735.658	38126.09
735.999	38204.05
736.339	38360.43
736.68	38528.11
737.021	38290.15
737.361	38247.89
737.702	38450.15
738.042	38265.75
738.383	38110.04
738.723	38120.44
739.063	38134.68
739.404	38211.28
739.744	38139.19
740.084	38022.14
740.424	38082.02
740.764	37902.36
741.104	38137.16
741.444	37796.83
741.784	37575.82
742.124	37576.5
742.464	37588.93
742.804	37597.51
743.143	37576.5
743.483	37599.32
743.823	37269.84
744.162	37157.07
744.502	37393.9
744.841	37061.03
745.181	37279.1
745.52	37278.43
745.86	37211.99
746.199	37120.46
746.538	37166.79
746.877	37309.61
747.216	37091.09
747.556	37221.93
747.895	37131.09
748.234	37150.52
748.573	37117.75
748.911	37128.83
749.25	37248.37
749.589	37253.79
749.928	37387.35
750.267	37491.75
750.605	37385.99
750.944	37531.08
751.283	37511.64
751.621	37642.26
751.96	37453.11
752.298	37509.38
752.636	37604.75
752.975	37532.66
753.313	37503.96
753.651	37664.86
753.989	37521.13
754.327	37565.42
754.666	37545.99
755.004	37572.2
755.342	37608.81
755.679	37565.65
756.017	37318.88
756.355	37418.99
756.693	37342.38
757.031	37451.98
757.368	37231.42
757.706	37116.85
758.044	37139
758.381	37161.82
758.719	36980.13
759.056	36959.34
759.394	36864.2
759.731	36784.88
760.068	36742.85
760.405	36512.8
760.743	36488.39
761.08	36743.3
761.417	36284.33
761.754	36348.28
762.091	36316.64
762.428	36227.61
762.765	36033.71
763.102	36351.67
763.438	36185.35
763.775	36036.88
764.112	36049.08
764.449	36105.8
764.785	36048.18
765.122	35951
765.458	35857.67
765.795	35833.04
766.131	35838.24
766.467	35702.2
766.804	35517.79
767.14	35500.39
767.476	35720.95
767.812	35572.03
768.148	35689.77
768.485	35382.43
768.821	35324.81
769.157	35261.76
769.492	35309.21
769.828	35259.27
770.164	35073.74
770.5	34999.84
770.836	34999.84
771.171	34793.07
771.507	34696.12
771.842	34508.78
772.178	34492.96
772.513	34378.16
772.849	34224.5
773.184	33989.93
773.519	34043.48
773.855	33763.04
774.19	33698.18
774.525	33470.39
774.86	33623.61
775.195	33399.66
775.53	33317.85
775.865	33249.61
776.2	32967.13
776.535	32891.65
776.87	32747.47
777.205	32678.77
777.539	32371.44
777.874	32482.85
778.209	31975.06
778.543	32101.16
778.878	31757.22
779.212	31837.89
779.547	31665.47
779.881	31826.59
780.215	31506.37
780.55	31490.56
780.884	31409.88
781.218	31375.3
781.552	31417.11
781.886	31196.78
782.22	30958.82
782.554	30872.49
782.888	30651.03
783.222	30678.6
783.556	30615.1
783.889	30587.08
784.223	30373.3
784.557	30239.06
784.89	30375.56
785.224	30202.68
785.557	30106.64
785.891	30099.41
786.224	30122.68
786.558	30047.2
786.891	29757.27
787.224	29773.31
787.557	29682.47
787.891	29736.48
788.224	29578.74
788.557	29570.15
788.89	29603.83
789.223	29476.82
789.556	29192.09
789.888	29269.6
790.221	29061.92
790.554	28935.14
790.887	28795.26
791.219	28853.11
791.552	28653.34
791.884	28447.92
792.217	28317.76
792.549	28192.79
792.882	27882.06
793.214	27977.88
793.546	28120.7
793.879	27894.49
794.211	27722.07
794.543	27755.51
794.875	27619.92
795.207	27638.91
795.539	27324.56
795.871	27240.5
796.203	26971.13
796.535	26780.4
796.867	26676.9
797.198	26638.48
797.53	26658.59
797.862	26585.6
798.193	26597.35
798.525	26529.33
798.856	26473.06
799.188	26262.9
799.519	26146.74
799.85	26103.13
800.182	26104.94
800.513	26050.7
800.844	25795.56
801.175	26087.53
801.506	26029.91
801.837	25891.61
802.168	25881.89
802.499	25770.03
802.83	25449.36
803.161	25500.88
803.491	25646.87
803.822	25475.8
804.153	25411.62
804.483	25306.31
804.814	25305.63
805.145	25417.04
805.475	25319.87
805.805	25106.54
806.136	25117.84
806.466	25205.98
806.796	25092.76
807.126	24917.4
807.457	24803.05
807.787	24803.05
808.117	24644.86
808.447	24605.09
808.777	24581.81
809.107	24393.12
809.436	24377.07
809.766	24272.67
810.096	24122.39
810.426	24075.16
810.755	24083.07
811.085	23910.42
811.414	23840.81
811.744	23610.76
812.073	23559.69
812.403	23665.23
812.732	23335.29
813.061	23442.18
813.39	23131.91
813.719	23209.19
814.049	23267.27
814.378	23099.59
814.707	22934.17
815.036	22851.24
815.365	22778.92
815.693	22535.31
816.022	22617.34
816.351	22628.42
816.68	22433.85
817.008	22570.11
817.337	22287.63
817.665	22333.73
817.994	22354.3
818.322	22221.2
818.651	22216.9
818.979	22104.14
819.307	22292.15
819.636	22243.57
819.964	22068.66
820.292	22230.23
820.62	22122.21
820.948	22142.1
821.276	22229.78
821.604	22098.49
821.932	22116.11
822.259	22101.65
822.587	22178.48
822.915	22097.13
823.243	22347.52
823.57	22106.85
823.898	22216
824.225	22226.84
824.553	22118.6
824.88	22465.93
825.207	22416.22
825.535	22383
825.862	22440.17
826.189	22249.9
826.516	22420.06
826.843	22375.32
827.17	22583.45
827.497	22484.24
827.824	22404.02
828.151	22468.65
828.478	22351.36
828.805	22403.11
829.131	22202.89
829.458	22239.05
829.785	22148.43
830.111	22256.45
830.438	22268.65
830.764	22142.33
831.09	22127.19
831.417	22006.96
831.743	22158.37
832.069	22121.76
832.395	21919.73
832.722	21927.87
833.048	21893.97
833.374	21868.66
833.7	21696.01
834.026	21837.7
834.351	21799.51
834.677	21662.11
835.003	21738.72
835.329	21728.55
835.654	21665.28
835.98	21538.73
836.306	21494.43
836.631	21547.54
836.956	21515.9
837.282	21520.87
837.607	21312.52
837.932	21372.18
838.258	21371.05
838.583	21408.56
838.908	21337.83
839.233	21355.23
839.558	21292.86
839.883	21208.79
840.208	21133.77
840.533	21183.93
840.858	21233.2
841.182	21303.93
841.507	21163.14
841.832	21093.99
842.156	21151.39
842.481	21168.12
842.805	21084.5
843.13	20942.36
843.454	20985.97
843.778	20963.15
844.103	21059.87
844.427	20968.12
844.751	20872.08
845.075	20695.36
845.399	20838.86
845.723	20642.25
846.047	20712.08
846.371	20477.96
846.695	20565.19
847.019	20382.83
847.343	20342.83
847.666	20162.04
847.99	20053.57
848.313	20046.11
848.637	19828.94
848.96	19739
849.284	19735.61
849.607	19612
849.931	19461.95
850.254	19253.82
850.577	19238.67
850.9	19064.89
851.223	19007.72
851.546	18922.98
851.869	18828.52
852.192	18843.43
852.515	18609.54
852.838	18544.68
853.161	18462.65
853.483	18350.34
853.806	18301.07
854.129	18281.64
854.451	18078.48
854.774	18082.55
855.096	18016.79
855.419	17994.64
855.741	18013.4
856.063	17723.23
856.385	17771.14
856.708	17645.5
857.03	17730.01
857.352	17694.31
857.674	17610.24
857.996	17642.11
858.318	17473.98
858.64	17503.35
858.961	17398.27
859.283	17451.38
859.605	17522.79
859.926	17390.59
860.248	17327.09
860.57	17238.5
860.891	17338.61
861.212	17289.12
861.534	17213.19
861.855	17267.43
862.176	17174.55
862.498	17315.79
862.819	17278.5
863.14	17157.6
863.461	17121.44
863.782	17116.24
864.103	17125.74
864.424	17086.42
864.745	17142.91
865.065	17152.18
865.386	17016.59
865.707	17008
866.027	16991.73
866.348	16976.14
866.668	17001.9
866.989	16944.95
867.309	16818.4
867.63	16844.16
867.95	16858.62
868.27	16804.84
868.59	16779.53
868.91	16707.89
869.23	16658.63
869.55	16576.6
869.87	16646.43
870.19	16536.15
870.51	16511.06
870.83	16485.3
871.15	16347.68
871.469	16317.85
871.789	16347.45
872.109	16288.02
872.428	16170.51
872.748	16241.92
873.067	16081.24
873.386	16144.74
873.706	16142.49
874.025	15989.27
874.344	15909.04
874.663	15980.91
874.982	15966.44
875.301	15916.28
875.62	15771.65
875.939	15794.47
876.258	15887.12
876.577	15698.88
876.896	15653.23
877.214	15586.34
877.533	15622.05
877.852	15626.79
878.17	15606.23
878.489	15579.34
878.807	15602.16
879.125	15595.83
879.444	15549.73
879.762	15556.29
880.08	15612.33
880.398	15391.54
880.716	15452.11
881.034	15366.91
881.352	15515.16
881.67	15411.66
881.988	15477.64
882.306	15419.11
882.624	15371.66
882.941	15368.72
883.259	15431.54
883.577	15282.62
883.894	15332.11
884.212	15310.87
884.529	15226.58
884.846	15150.42
885.164	15171.44
885.481	15240.81
885.798	15284.65
886.115	15114.94
886.432	15153.13
886.75	15088.05
887.067	15126.01
887.383	15074.26
887.7	15121.95
888.017	15003.31
888.334	14967.83
888.651	14979.58
888.967	14884.44
889.284	14864.78
889.6	14767.15
889.917	14618.68
890.233	14674.95
890.55	14676.08
890.866	14647.61
891.182	14485.35
891.498	14482.19
891.815	14372.81
892.131	14294.4
892.447	14299.82
892.763	14280.16
893.079	14159.03
893.395	14143.67
893.71	13972.82
894.026	14062.54
894.342	13950.45
894.657	13797.46
894.973	13860.51
895.289	13719.05
895.604	13721.53
895.92	13649.22
896.235	13482.44
896.55	13484.25
896.865	13450.8
897.181	13361.32
897.496	13322.22
897.811	13265.95
898.126	13175.33
898.441	13143.92
898.756	13069.35
899.071	13062.79
899.386	13095.79
899.7	12941.89
900.015	12955.68
900.33	12757.26
900.644	12831.61
900.959	12897.82
901.273	12830.03
901.588	12671.16
901.902	12643.14
902.216	12694.67
902.531	12627.78
902.845	12682.69
903.159	12571.51
903.473	12578.06
903.787	12517.04
904.101	12517.04
904.415	12518.17
904.729	12377.84
905.042	12339.2
905.356	12339.2
905.67	12334.9
905.984	12321.79
906.297	12263.72
906.611	12183.04
906.924	12159.09
907.237	12169.93
907.551	12073.21
907.864	12071.86
908.177	12002.71
908.491	12020.33
908.804	11903.05
909.117	11915.7
909.43	11773.56
909.743	11717.74
910.056	11731.3
910.368	11748.7
910.681	11739.44
910.994	11735.37
911.307	11651.3
911.619	11505.09
911.932	11499.44
912.244	11453.12
912.557	11441.82
912.869	11381.48
913.181	11302.16
913.494	11256.06
913.806	11189.62
914.118	11154.14
914.43	11092.9
914.742	11018.78
915.054	10972.68
915.366	10891.78
915.678	10845.45
915.99	10767.26
916.302	10634.16
916.613	10662.18
916.925	10606.59
917.236	10519.36
917.548	10431.22
917.859	10502.63
918.171	10398.91
918.482	10279.59
918.794	10288.85
919.105	10255.18
919.416	10174.96
919.727	10141.96
920.038	10022.19
920.349	9989.65
920.66	9954.17
920.971	9927.96
921.282	9870.33
921.593	9819.26
921.903	9787.85
922.214	9757.34
922.525	9694.29
922.835	9681.19
923.146	9667.85
923.456	9584.47
923.767	9544.69
924.077	9543.56
924.387	9534.52
924.697	9431.02
925.008	9424.92
925.318	9480.51
925.628	9451.81
925.938	9285.49
926.248	9264.93
926.558	9226.28
926.867	9273.97
927.177	9226.28
927.487	9238.26
927.796	9142.44
928.106	9141.77
928.416	9116.68
928.725	9113.74
929.034	9016.57
929.344	9033.52
929.653	8985.39
929.962	8873.3
930.271	8899.06
930.581	8879.63
930.89	8910.36
931.199	8838.72
931.508	8850.93
931.817	8832.39
932.125	8824.71
932.434	8724.6
932.743	8720.31
933.051	8672.63
933.36	8667.2
933.669	8634.89
933.977	8613.19
934.286	8564.83
934.594	8510.82
934.902	8390.6
935.21	8409.13
935.519	8416.13
935.827	8441.67
936.135	8388.34
936.443	8238.29
936.751	8252.75
937.059	8247.1
937.367	8224.73
937.674	8140.66
937.982	8081.68
938.29	8090.72
938.597	8024.28
938.905	7952.64
939.213	7942.02
939.52	7825.19
939.827	7844.85
940.135	7807.11
940.442	7751.97
940.749	7700.22
941.056	7611.64
941.363	7570.51
941.67	7560.11
941.977	7508.14
942.284	7491.41
942.591	7485.76
942.898	7405.31
943.205	7427.23
943.511	7351.08
943.818	7312.89
944.125	7223.62
944.431	7127.81
944.738	7220.91
945.044	7137.07
945.35	7074.25
945.657	7042.16
945.963	7041.48
946.269	7009.17
946.575	7069.28
946.881	7000.13
947.187	6928.49
947.493	6914.03
947.799	6856.85
948.105	6832
948.41	6799.68
948.716	6846.23
949.022	6716.97
949.327	6733.47
949.633	6638.1
949.938	6680.81
950.244	6674.49
950.549	6652.11
950.854	6609.63
951.16	6611.21
951.465	6560.36
951.77	6495.73
952.075	6532.34
952.38	6479.91
952.685	6486.69
952.99	6434.04
953.294	6418.22
953.599	6365.12
953.904	6347.49
954.209	6333.48
954.513	6407.83
954.818	6279.69
955.122	6334.61
955.426	6323.53
955.731	6260.26
956.035	6269.75
956.339	6253.03
956.643	6270.88
956.948	6226.36
957.252	6191.33
957.556	6139.58
957.86	6114.5
958.163	6098.23
958.467	6084.22
958.771	6064.11
959.075	6008.29
959.378	5975.75
959.682	5956.99
959.985	5918.57
960.289	5884.9
960.592	5848.52
960.896	5891.46
961.199	5852.13
961.502	5766.03
961.805	5740.95
962.108	5685.36
962.411	5733.49
962.714	5641.07
963.017	5614.63
963.32	5601.29
963.623	5548.19
963.926	5571.92
964.228	5473.84
964.531	5442.65
964.833	5437.46
965.136	5352.71
965.438	5353.16
965.741	5344.35
966.043	5314.52
966.345	5297.35
966.648	5235.65
966.95	5237.24
967.252	5169.44
967.554	5175.77
967.856	5169.67
968.158	5154.3
968.46	5139.16
968.761	5110.23
969.063	5043.34
969.365	5032.49
969.666	4970.35
969.968	4944.59
970.269	4931.93
970.571	4909.33
970.872	4882.89
971.174	4878.15
971.475	4851.03
971.776	4815.55
972.077	4848.09
972.378	4806.51
972.679	4786.85
972.98	4757.93
973.281	4694.2
973.582	4726.06
973.883	4674.09
974.183	4673.86
974.484	4616.91
974.785	4613.75
975.085	4637.02
975.386	4620.08
975.686	4573.52
975.986	4585.95
976.287	4579.4
976.587	4559.96
976.887	4517.93
977.187	4487.42
977.487	4503.92
977.787	4476.13
978.087	4457.14
978.387	4439.52
978.687	4461.44
978.987	4412.17
979.286	4405.84
979.586	4380.53
979.885	4397.71
980.185	4329.01
980.484	4329.91
980.784	4306.19
981.083	4328.11
981.382	4353.42
981.682	4305.96
981.981	4248.33
982.28	4213.08
982.579	4228.45
982.878	4217.6
983.177	4220.76
983.475	4226.87
983.774	4188
984.073	4165.17
984.372	4164.5
984.67	4117.26
984.969	4101.22
985.267	4153.2
985.566	4066.42
985.864	4121.11
986.162	4065.74
986.461	4043.14
986.759	4015.57
987.057	3959.98
987.355	3988.23
987.653	3980.32
987.951	3944.61
988.249	3909.59
988.547	3884.73
988.844	3822.81
989.142	3839.08
989.44	3800.89
989.737	3810.83
990.035	3772.19
990.332	3747.78
990.63	3738.52
990.927	3739.87
991.224	3699.42
991.521	3698.97
991.819	3644.51
992.116	3624.4
992.413	3595.7
992.71	3604.96
993.006	3576.49
993.303	3501.46
993.6	3543.72
993.897	3496.04
994.193	3498.07
994.49	3437.96
994.787	3428.92
995.083	3427.79
995.379	3402.03
995.676	3395.93
995.972	3357.28
996.268	3366.78
996.565	3322.26
996.861	3304.4
997.157	3293.78
997.453	3271.41
997.749	3244.97
998.044	3199.1
998.34	3182.6
998.636	3194.8
998.932	3171.07
999.227	3179.21
999.523	3145.99
999.818	3153
1000.114	3130.4
1000.409	3070.51
1000.704	3084.75
1001	3060.57
1001.295	3032.77
1001.59	3019.67
1001.885	3000.23
1002.18	3033.45
1002.475	2977.86
1002.77	2976.96
1003.065	2942.61
1003.359	2990.51
1003.654	2938.31
1003.949	2903.96
1004.243	2900.8
1004.538	2904.87
1004.832	2863.74
1005.127	2870.29
1005.421	2822.84
1005.715	2844.76
1006.009	2809.73
1006.304	2791.65
1006.598	2783.51
1006.892	2779.9
1007.186	2742.84
1007.48	2717.75
1007.773	2690.18
1008.067	2696.74
1008.361	2703.29
1008.655	2678.43
1008.948	2651.31
1009.242	2665.78
1009.535	2665.55
1009.829	2640.69
1010.122	2594.82
1010.415	2614.25
1010.708	2610.19
1011.001	2624.87
1011.295	2575.61
1011.588	2545.55
1011.881	2552.33
1012.173	2523.18
1012.466	2515.95
1012.759	2492.9
1013.052	2485.44
1013.344	2473.47
1013.637	2449.96
1013.93	2415.39
1014.222	2429.85
1014.514	2397.08
1014.807	2390.3
1015.099	2362.73
1015.391	2365.22
1015.683	2322.96
1015.976	2340.81
1016.268	2263.53
1016.56	2284.09
1016.851	2277.09
1017.143	2264.88
1017.435	2232.34
1017.727	2204.77
1018.018	2219.01
1018.31	2203.42
1018.602	2170.65
1018.893	2190.31
1019.185	2153.7
1019.476	2135.17
1019.767	2129.07
1020.058	2126.36
1020.35	2091.1
1020.641	2065.57
1020.932	2032.35
1021.223	2048.84
1021.514	2033.48
1021.804	2014.95
1022.095	1982.18
1022.386	1958
1022.677	1958.23
1022.967	1927.49
1023.258	1934.72
1023.548	1938.79
1023.839	1909.19
1024.129	1876.87
1024.419	1876.19
1024.709	1885.01
1025	1869.87
1025.29	1859.02
1025.58	1837.55
1025.87	1799.36
1026.16	1788.51
1026.449	1777.21
1026.739	1797.1
1027.029	1785.35
1027.319	1771.11
1027.608	1713.49
1027.898	1727.72
1028.187	1737.44
1028.477	1698.12
1028.766	1689.76
1029.055	1672.36
1029.344	1669.42
1029.634	1675.07
1029.923	1653.15
1030.212	1652.92
1030.501	1613.83
1030.79	1601.4
1031.078	1573.83
1031.367	1579.7
1031.656	1598.46
1031.945	1583.09
1032.233	1568.18
1032.522	1534.73
1032.81	1552.59
1033.099	1533.38
1033.387	1560.5
1033.675	1518.69
1033.963	1512.14
1034.251	1511.46
1034.54	1464.9
1034.828	1484.11
1035.116	1466.03
1035.403	1484.11
1035.691	1437.34
1035.979	1442.31
1036.267	1441.85
1036.554	1415.19
1036.842	1422.87
1037.129	1412.03
1037.417	1401.4
1037.704	1392.59
1037.992	1354.63
1038.279	1372.7
1038.566	1332.93
1038.853	1332.93
1039.14	1332.93
