Data from blue_clamp_base_FLMS001491_00030.txt Node
Date: Wed Feb 08 15:15:47 GMT 2017
User: dcchb
Spectrometer: FLMS00149
Trigger mode: 0
Integration Time (sec): 2.000000E-2
Scans to average: 10
Electric dark correction enabled: true
Nonlinearity correction enabled: false
Boxcar width: 0
XAxis mode: Wavelengths
Number of Pixels in Spectrum: 2048
>>>>>Begin Spectral Data<<<<<
341.393	-7.97
341.776	-7.97
342.16	-7.97
342.543	-53.39
342.927	-52.48
343.31	-66.72
343.693	-100.84
344.077	-69.66
344.46	-50.9
344.843	-57
345.226	-52.71
345.61	-27.63
345.993	-21.3
346.376	-7.51
346.759	8.08
347.142	40.39
347.525	53.73
347.908	74.07
348.291	81.3
348.674	89.21
349.057	107.51
349.44	147.06
349.823	143.22
350.206	184.8
350.588	176.21
350.971	216.21
351.354	220.5
351.737	228.41
352.119	253.95
352.502	257.56
352.884	261.63
353.267	272.03
353.65	301.63
354.032	295.75
354.414	305.92
354.797	309.09
355.179	318.58
355.562	304.79
355.944	317.45
356.326	306.38
356.709	338.69
357.091	323.32
357.473	338.92
357.855	319.71
358.238	329.65
358.62	340.73
359.002	322.87
359.384	340.5
359.766	318.13
360.148	336.43
360.53	322.87
360.912	339.37
361.294	326.94
361.676	308.64
362.057	312.03
362.439	305.25
362.821	322.65
363.203	320.61
363.584	324.23
363.966	298.47
364.348	333.27
364.729	314.51
365.111	310.9
365.493	321.29
365.874	309.99
366.256	321.74
366.637	311.35
367.019	298.24
367.4	311.8
367.781	295.98
368.163	301.4
368.544	309.09
368.925	311.8
369.306	309.54
369.688	305.02
370.069	308.41
370.45	299.82
370.831	295.08
371.212	312.25
371.593	302.76
371.974	282.87
372.355	298.92
372.736	308.18
373.117	301.18
373.498	297.56
373.879	310.67
374.26	308.64
374.641	305.92
375.021	314.96
375.402	308.18
375.783	322.19
376.163	314.51
376.544	307.73
376.925	316.77
377.305	300.05
377.686	321.29
378.066	345.7
378.447	337.34
378.827	312.03
379.208	314.96
379.588	332.36
379.968	339.6
380.349	338.01
380.729	315.19
381.109	316.77
381.489	329.2
381.87	347.5
382.25	326.94
382.63	336.88
383.01	366.71
383.39	329.2
383.77	337.56
384.15	344.34
384.53	328.52
384.91	357
385.29	355.64
385.67	327.62
386.049	356.09
386.429	350.67
386.809	350.89
387.189	338.69
387.568	350.67
387.948	341.18
388.328	370.56
388.707	361.52
389.087	376.43
389.466	376.66
389.846	356.77
390.225	363.55
390.605	371.69
390.984	372.82
391.363	386.15
391.743	371.46
392.122	378.46
392.501	379.37
392.881	366.71
393.26	377.79
393.639	384.57
394.018	389.99
394.397	409.42
394.776	398.58
395.155	395.19
395.534	403.32
395.913	384.57
396.292	404.68
396.671	403.77
397.05	402.64
397.429	403.1
397.808	425.02
398.186	436.32
398.565	408.75
398.944	439.25
399.323	426.82
399.701	432.93
400.08	432.25
400.458	432.25
400.837	444.68
401.215	464.79
401.594	430.89
401.972	441.29
402.351	447.62
402.729	442.87
403.107	449.2
403.486	464.79
403.864	477.45
404.242	472.25
404.62	482.19
404.999	506.6
405.377	482.64
405.755	505.47
406.133	487.16
406.511	496.43
406.889	512.7
407.267	531.23
407.645	535.52
408.023	524.45
408.401	516.77
408.779	541.85
409.156	547.27
409.534	533.71
409.912	552.25
410.29	552.02
410.667	541.85
411.045	567.39
411.422	583.66
411.8	579.82
412.178	585.01
412.555	583.43
412.933	613.03
413.31	596.31
413.687	609.64
414.065	648.29
414.442	626.37
414.819	646.03
415.197	639.93
415.574	674.05
415.951	671.79
416.328	650.77
416.705	666.14
417.082	669.76
417.46	675.86
417.837	684.9
418.214	681.51
418.591	697.55
418.967	699.59
419.344	703.43
419.721	684.67
420.098	729.42
420.475	704.11
420.852	707.5
421.228	725.57
421.605	724.9
421.982	749.75
422.358	770.09
422.735	779.36
423.111	775.74
423.488	780.26
423.864	778.91
424.241	769.64
424.617	812.13
424.994	791.11
425.37	825.01
425.746	823.2
426.123	846.25
426.499	810.77
426.875	860.03
427.251	862.97
427.627	868.85
428.003	900.03
428.379	893.93
428.756	885.57
429.132	877.89
429.507	916.76
429.883	935.06
430.259	939.35
430.635	948.85
431.011	961.95
431.387	990.43
431.763	1003.08
432.138	983.42
432.514	1008.5
432.89	1008.05
433.265	1064.77
433.641	1070.88
434.016	1062.74
434.392	1068.39
434.767	1099.8
435.143	1098.45
435.518	1109.07
435.894	1155.85
436.269	1154.49
436.644	1152.68
437.02	1161.04
437.395	1139.8
437.77	1170.31
438.145	1208.27
438.52	1190.42
438.895	1208.5
439.271	1226.8
439.646	1224.77
440.021	1257.76
440.395	1261.15
440.77	1245.11
441.145	1298.89
441.52	1322.39
441.895	1310.64
442.27	1346.8
442.645	1326.46
443.019	1359
443.394	1359
443.769	1346.35
444.143	1376.18
444.518	1407.82
444.892	1375.05
445.267	1400.81
445.641	1433.35
446.016	1434.93
446.39	1424.76
446.764	1444.43
447.139	1447.82
447.513	1504.54
447.887	1493.69
448.262	1488.27
448.636	1513.12
449.01	1540.69
449.384	1507.7
449.758	1559.45
450.132	1569.62
450.506	1566
450.88	1598.55
451.254	1576.4
451.628	1598.09
452.002	1591.31
452.376	1652.33
452.75	1669.5
453.123	1660.69
453.497	1685.1
453.871	1709.96
454.244	1715.83
454.618	1718.77
454.992	1778.65
455.365	1742.5
455.739	1796.73
456.112	1790.18
456.486	1849.16
456.859	1861.59
457.232	1909.05
457.606	1889.61
457.979	1901.14
458.352	1959.67
458.725	1936.62
459.099	1973.45
459.472	2005.77
459.845	2043.28
460.218	2086.67
460.591	2069.04
460.964	2074.47
461.337	2131.64
461.71	2158.3
462.083	2147.01
462.456	2167.12
462.829	2174.12
463.201	2227.68
463.574	2196.04
463.947	2218.87
464.32	2289.83
464.692	2302.26
465.065	2310.17
465.438	2318.98
465.81	2341.35
466.183	2385.19
466.555	2428.81
466.928	2459.54
467.3	2467.68
467.672	2453.66
468.045	2556.26
468.417	2546.09
468.789	2564.85
469.161	2585.19
469.534	2636.48
469.906	2694.79
470.278	2702.02
470.65	2732.3
471.022	2774.56
471.394	2833.09
471.766	2832.86
472.138	2882.58
472.51	2909.92
472.882	2944.5
473.253	2998.28
473.625	3002.12
473.997	3082.12
474.369	3080.54
474.74	3109.01
475.112	3169.35
475.484	3195.57
475.855	3272.63
476.227	3276.24
476.598	3346.97
476.97	3401.44
477.341	3459.74
477.713	3457.48
478.084	3448.67
478.455	3585.16
478.827	3560.08
479.198	3663.35
479.569	3687.98
479.94	3733.4
480.311	3749.45
480.682	3835.77
481.053	3873.74
481.424	3970.46
481.795	3995.32
482.166	4013.17
482.537	4064.02
482.908	4152.38
483.279	4138.59
483.65	4243.67
484.021	4315.31
484.391	4334.52
484.762	4317.12
485.133	4380.39
485.503	4453.61
485.874	4551.91
486.244	4531.12
486.615	4610.22
486.985	4629.88
487.356	4686.83
487.726	4682.53
488.097	4801.85
488.467	4822.64
488.837	4881.17
489.207	4897.67
489.578	5006.37
489.948	5005.46
490.318	5061.73
490.688	5068.74
491.058	5144.44
491.428	5194.61
491.798	5182.41
492.168	5272.8
492.538	5280.48
492.908	5380.82
493.278	5439.8
493.648	5415.17
494.017	5440.93
494.387	5475.73
494.757	5452.23
495.126	5467.14
495.496	5511.44
495.866	5546.92
496.235	5566.58
496.605	5628.04
496.974	5603.64
497.344	5686.57
497.713	5719.79
498.082	5744.88
498.452	5785.55
498.821	5786.91
499.19	5735.16
499.559	5831.65
499.928	5856.29
500.298	5846.57
500.667	5910.75
501.036	5884.08
501.405	5929.51
501.774	5935.15
502.143	5985.32
502.512	5986
502.88	5996.17
503.249	6013.8
503.618	6014.7
503.987	6058.77
504.356	6063.06
504.724	6039.11
505.093	6068.26
505.462	6066
505.83	6091.08
506.199	6245.43
506.567	6237.07
506.936	6176.28
507.304	6318.65
507.672	6278.65
508.041	6314.13
508.409	6336.27
508.777	6343.28
509.145	6360.68
509.514	6317.29
509.882	6411.98
510.25	6407.91
510.618	6454.92
510.986	6516.83
511.354	6492.88
511.722	6531.52
512.09	6575.36
512.458	6547.12
512.826	6618.07
513.193	6576.95
513.561	6628.24
513.929	6638.41
514.297	6703.95
514.664	6675.7
515.032	6691.97
515.4	6743.27
515.767	6770.84
516.135	6815.13
516.502	6755.47
516.869	6821.01
517.237	6816.49
517.604	6798.41
517.972	6866.2
518.339	6928.35
518.706	6903.04
519.073	6954.79
519.44	6959.31
519.808	6997.95
520.175	6956.37
520.542	7032.07
520.909	7044.5
521.276	7057.61
521.643	7047.67
522.009	7196.14
522.376	7138.29
522.743	7176.25
523.11	7230.26
523.477	7258.96
523.843	7319.75
524.21	7344.16
524.577	7375.12
524.943	7402.23
525.31	7451.05
525.676	7427.54
526.043	7473.19
526.409	7514.55
526.776	7566.52
527.142	7605.17
527.508	7580.54
527.874	7686.97
528.241	7748.67
528.607	7672.51
528.973	7690.59
529.339	7727.2
529.705	7776.69
530.071	7810.13
530.437	7863.92
530.803	7948.89
531.169	7920.41
531.535	7901.2
531.901	7914.09
532.267	7970.81
532.632	8026.4
532.998	8036.57
533.364	8067.3
533.73	8077.02
534.095	8091.03
534.461	8114.76
534.826	8134.64
535.192	8256.9
535.557	8254.19
535.923	8192.95
536.288	8172.16
536.653	8309.56
537.019	8289.44
537.384	8305.94
537.749	8328.09
538.114	8315.88
538.479	8317.69
538.845	8396.56
539.21	8335.54
539.575	8389.55
539.94	8383
540.305	8440.63
540.67	8434.07
541.034	8448.08
541.399	8466.84
541.764	8518.14
542.129	8492.15
542.494	8498.25
542.858	8554.52
543.223	8534.41
543.587	8592.49
543.952	8575.54
544.316	8618.7
544.681	8613.73
545.045	8665.25
545.41	8733.27
545.774	8724.23
546.138	8678.81
546.503	8671.81
546.867	8690.56
547.231	8761.52
547.595	8759.04
547.959	8787.51
548.324	8818.92
548.688	8761.07
549.052	8820.95
549.416	8791.12
549.779	8835.42
550.143	8868.64
550.507	8808.98
550.871	8888.52
551.235	8876.77
551.599	8910.22
551.962	8981.18
552.326	8879.03
552.689	8964.23
553.053	8980.72
553.417	9006.49
553.78	9056.2
554.143	9071.34
554.507	9069.99
554.87	9047.62
555.234	9119.25
555.597	9074.96
555.96	9071.57
556.323	9088.52
556.686	9113.15
557.05	9160.38
557.413	9218.46
557.776	9182.75
558.139	9230.21
558.502	9243.77
558.865	9249.19
559.228	9264.33
559.59	9283.77
559.953	9308.17
560.316	9345.69
560.679	9337.33
561.041	9381.39
561.404	9433.37
561.767	9460.71
562.129	9406.48
562.492	9531.22
562.854	9475.85
563.217	9526.92
563.579	9547.72
563.941	9598.34
564.304	9629.52
564.666	9650.99
565.028	9673.14
565.39	9646.92
565.753	9714.94
566.115	9688.05
566.477	9799.46
566.839	9833.36
567.201	9806.92
567.563	9873.81
567.925	9907.25
568.287	9879.91
568.648	9897.31
569.01	9925.11
569.372	10102.73
569.734	10006.01
570.095	10055.05
570.457	10159
570.819	10095.72
571.18	10080.36
571.542	10167.13
571.903	10172.78
572.265	10237.41
572.626	10188.83
572.987	10290.07
573.349	10272.89
573.71	10326.68
574.071	10358.09
574.432	10361.48
574.794	10406.9
575.155	10429.95
575.516	10392.21
575.877	10440.12
576.238	10484.87
576.599	10535.26
576.96	10520.57
577.32	10525.77
577.681	10508.37
578.042	10592.89
578.403	10547.69
578.763	10581.13
579.124	10582.72
579.485	10663.17
579.845	10738.87
580.206	10725.76
580.566	10735.93
580.927	10676.05
581.287	10761.02
581.648	10674.92
582.008	10723.5
582.368	10816.38
582.728	10805.31
583.089	10704.29
583.449	10740.9
583.809	10787.68
584.169	10822.03
584.529	10783.16
584.889	10840.79
585.249	10857.29
585.609	10829.26
585.969	10896.38
586.329	10815.25
586.688	10795.14
587.048	10860.9
587.408	10884.86
587.768	10890.96
588.127	10867.68
588.487	10827.23
588.846	10975.93
589.206	10883.73
589.565	10942.93
589.925	10926.66
590.284	10894.35
590.643	10866.32
591.003	10927.79
591.362	10978.64
591.721	10976.83
592.08	10966.66
592.44	10996.49
592.799	11014.12
593.158	11035.59
593.517	10968.24
593.876	10992.65
594.235	10957.4
594.593	11014.12
594.952	11069.71
595.311	11055.92
595.67	11003.5
596.029	11097.5
596.387	11075.13
596.746	11115.13
597.104	11041.69
597.463	11114.68
597.822	11097.96
598.18	11038.07
598.538	11059.31
598.897	11121.68
599.255	11057.96
599.613	11287.56
599.972	11076.26
600.33	11108.13
600.688	11088.69
601.046	11183.15
601.404	11181.34
601.762	11110.84
602.12	11224.96
602.478	11199.42
602.836	11259.53
603.194	11197.84
603.552	11193.55
603.91	11139.76
604.268	11252.3
604.625	11188.35
604.983	11204.39
605.341	11176.82
605.698	11219.99
606.056	11308.12
606.413	11237.84
606.771	11184.06
607.128	11328.01
607.485	11204.62
607.843	11212.98
608.2	11386.76
608.557	11341.57
608.914	11299.76
609.272	11365.07
609.629	11377.72
609.986	11384.28
610.343	11292.3
610.7	11393.54
611.057	11423.37
611.414	11344.28
611.771	11442.81
612.127	11473.31
612.484	11405.97
612.841	11455.46
613.198	11436.93
613.554	11480.77
613.911	11566.87
614.267	11525.97
614.624	11533.43
614.98	11551.28
615.337	11605.29
615.693	11538.17
616.05	11612.75
616.406	11622.69
616.762	11550.37
617.118	11603.71
617.475	11590.6
617.831	11586.53
618.187	11640.77
618.543	11654.33
618.899	11763.48
619.255	11734.32
619.611	11684.16
619.967	11711.95
620.323	11776.58
620.678	11677.83
621.034	11729.58
621.39	11761.67
621.746	11783.81
622.101	11957.14
622.457	11791.05
622.812	11858.39
623.168	11907.2
623.523	11792.4
623.879	11896.13
624.234	11774.32
624.589	11854.1
624.945	11904.26
625.3	11938.61
625.655	11949.01
626.01	11958.05
626.365	11928.67
626.72	11915.34
627.075	11911.49
627.43	11956.24
627.785	11948.56
628.14	12001.66
628.495	11988.78
628.85	11940.42
629.205	11846.41
629.559	12011.61
629.914	11932.96
630.269	11966.18
630.623	11985.17
630.978	11968.67
631.332	12109
631.687	12060.87
632.041	12060.64
632.396	12064.03
632.75	11957.6
633.104	12041.89
633.459	11921.89
633.813	12012.28
634.167	12058.38
634.521	11994.43
634.875	12059.74
635.229	12036.24
635.583	12067.65
635.937	12061.32
636.291	12063.36
636.645	12078.27
636.999	12048.21
637.352	12102.45
637.706	12018.84
638.06	12080.53
638.413	12075.78
638.767	12120.3
639.121	12147.42
639.474	12064.49
639.828	12032.4
640.181	12118.72
640.534	12136.8
640.888	12059.51
641.241	12095.22
641.594	12197.14
641.947	12135.9
642.301	12189.23
642.654	12143.35
643.007	12149.68
643.36	12233.29
643.713	12232.62
644.066	12215.67
644.419	12151.71
644.771	12084.15
645.124	12130.47
645.477	12094.31
645.83	12066.74
646.182	12017.71
646.535	11852.97
646.888	11915.56
647.24	11846.41
647.593	11920.76
647.945	11775.23
648.298	11730.71
648.65	11752.85
649.002	11765.06
649.355	11906.3
649.707	11942.23
650.059	12054.77
650.411	12246.4
650.763	12237.59
651.115	12308.09
651.467	12282.78
651.819	12292.05
652.171	12318.49
652.523	12263.8
652.875	12313.52
653.227	12289.79
653.578	12415.21
653.93	12358.26
654.282	12371.6
654.633	12276
654.985	12415.44
655.337	12325.5
655.688	12330.69
656.039	12386.51
656.391	12400.75
656.742	12456.34
657.094	12414.76
657.445	12490.01
657.796	12461.54
658.147	12443.68
658.498	12450.46
658.849	12465.83
659.2	12501.54
659.551	12474.87
659.902	12532.04
660.253	12481.42
660.604	12477.13
660.955	12462.21
661.306	12490.46
661.656	12517.13
662.007	12415.44
662.358	12538.37
662.708	12481.2
663.059	12520.74
663.409	12391.48
663.76	12565.94
664.11	12477.13
664.461	12524.36
664.811	12502.89
665.161	12504.25
665.511	12477.13
665.862	12535.66
666.212	12608.65
666.562	12549.44
666.912	12545.15
667.262	12571.36
667.612	12546.28
667.962	12469.9
668.312	12452.95
668.662	12501.99
669.011	12339.05
669.361	12463.12
669.711	12447.75
670.06	12375.66
670.41	12415.21
670.76	12351.71
671.109	12394.65
671.459	12324.37
671.808	12269.23
672.157	12293.86
672.507	12182
672.856	12267.64
673.205	12268.32
673.554	12257.93
673.904	12191.71
674.253	12203.01
674.602	12197.14
674.951	11987.2
675.3	11880.31
675.649	12070.81
675.998	12038.5
676.346	12106.74
676.695	12094.31
677.044	12018.38
677.393	11984.71
677.741	11991.94
678.09	11978.39
678.438	11940.65
678.787	11940.87
679.135	11916.01
679.484	11826.75
679.832	11892.96
680.181	11785.85
680.529	11768.9
680.877	11814.1
681.225	11760.09
681.573	11803.02
681.922	11717.83
682.27	11669.92
682.618	11652.74
682.966	11590.15
683.314	11622.46
683.661	11619.75
684.009	11550.83
684.357	11514.22
684.705	11472.86
685.053	11492.97
685.4	11459.3
685.748	11466.53
686.095	11443.03
686.443	11427.44
686.79	11341.11
687.138	11396.25
687.485	11441
687.832	11350.15
688.18	11335.24
688.527	11283.49
688.874	11274.22
689.221	11269.48
689.568	11259.31
689.915	11186.32
690.262	11259.08
690.609	11213.89
690.956	11248.91
691.303	11245.3
691.65	11160.33
691.997	11183.6
692.344	11142.7
692.69	11098.41
693.037	11094.57
693.383	11075.36
693.73	11041.69
694.077	11025.42
694.423	11051.18
694.769	10954.46
695.116	10970.95
695.462	10883.73
695.808	10948.36
696.155	10986.1
696.501	10872.88
696.847	10869.04
697.193	10752.43
697.539	10914.68
697.885	10830.85
698.231	10739.32
698.577	10738.87
698.923	10770.96
699.269	10659.32
699.614	10681.02
699.96	10645.99
700.306	10617.97
700.651	10669.95
700.997	10573.68
701.342	10550.85
701.688	10649.16
702.033	10606.44
702.379	10637.4
702.724	10567.12
703.069	10652.54
703.415	10485.32
703.76	10488.93
704.105	10607.12
704.45	10569.38
704.795	10528.48
705.14	10516.5
705.485	10461.82
705.83	10537.52
706.175	10472.44
706.52	10485.77
706.865	10413.23
707.209	10411.87
707.554	10436.96
707.899	10391.31
708.243	10416.62
708.588	10337.3
708.932	10285.55
709.277	10356.73
709.621	10344.3
709.966	10343.4
710.31	10371.42
710.654	10333.23
710.998	10321.71
711.342	10291.2
711.687	10300.92
712.031	10251.88
712.375	10264.76
712.719	10268.83
713.063	10259.11
713.407	10275.38
713.75	10217.75
714.094	10266.79
714.438	10195.38
714.782	10243.74
715.125	10199.45
715.469	10205.1
715.812	10136.4
716.156	10088.49
716.499	10119.9
716.843	10175.27
717.186	10073.12
717.53	10137.98
717.873	10075.38
718.216	10106.12
718.559	10002.39
718.902	9982.28
719.246	10063.18
719.589	10048.72
719.932	9973.24
720.275	10054.82
720.617	10014.14
720.96	9934.37
721.303	10042.17
721.646	10069.28
721.989	9982.96
722.331	10029.28
722.674	10022.28
723.016	10048.72
723.359	9954.71
723.701	10015.27
724.044	9963.75
724.386	9947.7
724.729	9966.69
725.071	9924.65
725.413	9922.85
725.755	9954.48
726.097	9899.8
726.439	9926.01
726.782	9886.24
727.124	9917.65
727.465	9921.49
727.807	9909.97
728.149	9866.58
728.491	9879.46
728.833	9907.93
729.175	9854.15
729.516	9917.65
729.858	9854.83
730.199	9919.23
730.541	9954.26
730.882	9912
731.224	9991.77
731.565	9866.35
731.906	9951.09
732.248	9939.34
732.589	9858.44
732.93	9904.32
733.271	9922.85
733.612	9952.68
733.953	9967.14
734.294	9898.44
734.635	9853.47
734.976	9955.39
735.317	9891.43
735.658	9902.06
735.999	9977.53
736.339	9941.15
736.68	9984.09
737.021	9970.08
737.361	9964.65
737.702	10030.87
738.042	9981.6
738.383	9959.68
738.723	10047.81
739.063	10001.71
739.404	10042.39
739.744	10055.72
740.084	10019.34
740.424	10106.12
740.764	10082.62
741.104	10128.26
741.444	10106.34
741.784	10113.12
742.124	10144.99
742.464	10164.65
742.804	10221.37
743.143	10204.19
743.483	10224.31
743.823	10193.57
744.162	10220.01
744.502	10271.99
744.841	10274.48
745.181	10320.8
745.52	10311.76
745.86	10381.59
746.199	10369.16
746.538	10354.7
746.877	10440.8
747.216	10472.66
747.556	10380.24
747.895	10420.46
748.234	10309.5
748.573	10465.66
748.911	10480.8
749.25	10518.76
749.589	10442.15
749.928	10531.64
750.267	10630.85
750.605	10613
750.944	10600.79
751.283	10582.04
751.621	10652.32
751.96	10656.16
752.298	10707.46
752.636	10673.56
752.975	10686.67
753.313	10700.68
753.651	10824.07
753.989	10700.23
754.327	10702.03
754.666	10801.47
755.004	10794.46
755.342	10867
755.679	10814.12
756.017	10841.69
756.355	10866.32
756.693	10858.87
757.031	10977.73
757.368	10981.12
757.706	10937.06
758.044	10939.77
758.381	11007.11
758.719	10923.05
759.056	11029.71
759.394	10937.74
759.731	10991.07
760.068	11006.21
760.405	11058.41
760.743	11015.7
761.08	11031.97
761.417	10971.86
761.754	11041.46
762.091	11080.33
762.428	11038.07
762.765	11000.33
763.102	11146.32
763.438	11077.39
763.775	11052.53
764.112	11188.8
764.449	11142.25
764.785	11201.46
765.122	11067.68
765.458	11066.32
765.795	11107.22
766.131	11172.98
766.467	11060.44
766.804	11084.62
767.14	11125.3
767.476	11107
767.812	11139.99
768.148	11203.04
768.485	11071.74
768.821	11111.29
769.157	11083.04
769.492	11125.07
769.828	11100.44
770.164	11086.66
770.5	11100.22
770.836	11185.19
771.171	11141.12
771.507	11100.22
771.842	11161.46
772.178	11063.38
772.513	11112.42
772.849	11154
773.184	11052.08
773.519	11105.64
773.855	11138.18
774.19	11045.08
774.525	11107.67
774.86	11053.21
775.195	11062.03
775.53	11018.41
775.865	10961.01
776.2	10969.37
776.535	10930.05
776.87	11078.52
777.205	11022.48
777.539	10986.32
777.874	11047.79
778.209	10989.71
778.543	10949.03
778.878	10881.92
779.212	11013.67
779.547	10866.1
779.881	10953.78
780.215	10953.55
780.55	10947.9
780.884	10933.89
781.218	10942.48
781.552	10922.82
781.886	10890.28
782.22	10885.08
782.554	10871.3
782.888	10748.36
783.222	10796.5
783.556	10749.49
783.889	10814.8
784.223	10778.42
784.557	10734.35
784.89	10794.46
785.224	10798.76
785.557	10743.84
785.891	10715.82
786.224	10715.59
786.558	10734.12
786.891	10610.51
787.224	10656.39
787.557	10697.06
787.891	10669.49
788.224	10760.34
788.557	10784.07
788.89	10659.32
789.223	10687.35
789.556	10580.46
789.888	10627.01
790.221	10552.43
790.554	10500.91
790.887	10625.43
791.219	10537.07
791.552	10503.62
791.884	10502.04
792.217	10494.13
792.549	10486
792.882	10424.53
793.214	10436.73
793.546	10446.22
793.879	10428.82
794.211	10406.9
794.543	10474.7
794.875	10373.46
795.207	10393.12
795.539	10406.9
795.871	10387.69
796.203	10361.93
796.535	10276.96
796.867	10291.88
797.198	10328.03
797.53	10319.9
797.862	10253.69
798.193	10328.94
798.525	10196.74
798.856	10176.4
799.188	10154.25
799.519	10211.2
799.85	10106.34
800.182	10131.88
800.513	10162.39
800.844	10128.94
801.175	10091.2
801.506	10129.85
801.837	10109.96
802.168	10140.02
802.499	10027.48
802.83	10044.88
803.161	10008.04
803.491	10009.62
803.822	9973.24
804.153	9998.32
804.483	9874.94
804.814	9905.67
805.145	9923.98
805.475	9934.15
805.805	9923.07
806.136	9909.29
806.466	9884.2
806.796	9862.28
807.126	9817.54
807.457	9710.2
807.787	9791.78
808.117	9720.82
808.447	9745.68
808.777	9770.08
809.107	9750.2
809.436	9787.26
809.766	9674.04
810.096	9725.34
810.426	9655.28
810.755	9693.02
811.085	9662.29
811.414	9684.43
811.744	9606.02
812.073	9586.81
812.403	9603.08
812.732	9547.72
813.061	9510.43
813.39	9492.8
813.719	9545.23
814.049	9529.41
814.378	9535.96
814.707	9434.72
815.036	9452.35
815.365	9452.35
815.693	9432.24
816.022	9412.58
816.351	9396.31
816.68	9315.86
817.008	9412.8
817.337	9329.87
817.665	9281.06
817.994	9358.79
818.322	9288.96
818.651	9305.24
818.979	9318.79
819.307	9289.19
819.636	9333.03
819.964	9225.92
820.292	9243.54
820.62	9288.74
820.948	9241.51
821.276	9297.33
821.604	9158.8
821.932	9297.1
822.259	9190.89
822.587	9308.63
822.915	9180.04
823.243	9235.41
823.57	9270.21
823.898	9256.42
824.225	9226.14
824.553	9246.71
824.88	9275.63
825.207	9352.24
825.535	9308.85
825.862	9357.21
826.189	9263.2
826.516	9321.96
826.843	9391.56
827.17	9393.82
827.497	9375.97
827.824	9331.22
828.151	9307.04
828.478	9389.08
828.805	9437.66
829.131	9359.25
829.458	9367.15
829.785	9244.67
830.111	9397.66
830.438	9377.1
830.764	9364.67
831.09	9394.05
831.417	9300.26
831.743	9383.65
832.069	9333.71
832.395	9342.52
832.722	9409.19
833.048	9373.48
833.374	9320.83
833.7	9271.56
834.026	9304.56
834.351	9371
834.677	9293.48
835.003	9384.78
835.329	9366.02
835.654	9323.54
835.98	9305.69
836.306	9296.2
836.631	9235.63
836.956	9309.08
837.282	9251.68
837.607	9208.74
837.932	9260.49
838.258	9215.52
838.583	9186.59
838.908	9197.44
839.233	9195.86
839.558	9212.58
839.883	9190.44
840.208	9097.56
840.533	9141.4
840.858	9147.5
841.182	9098.24
841.507	9132.36
841.832	9031.34
842.156	9092.36
842.481	9015.75
842.805	9114.05
843.13	9044.23
843.454	9081.06
843.778	9011.91
844.103	9023.21
844.427	8943.21
844.751	8934.62
845.075	8980.27
845.399	8906.38
845.723	8866.15
846.047	8921.06
846.371	8810.79
846.695	8849.65
847.019	8804.91
847.343	8719.04
847.666	8665.7
847.99	8650.56
848.313	8707.74
848.637	8554.29
848.96	8567.4
849.284	8588.19
849.607	8500.96
849.931	8523.56
850.254	8467.29
850.577	8376.9
850.9	8371.7
851.223	8395.88
851.546	8323.34
851.869	8336
852.192	8354.53
852.515	8259.39
852.838	8244.92
853.161	8264.13
853.483	8113.4
853.806	8147.3
854.129	8157.47
854.451	8104.14
854.774	8120.41
855.096	8046.51
855.419	8030.47
855.741	7993.63
856.063	7979.39
856.385	7999.96
856.708	7985.72
857.03	7864.14
857.352	7917.7
857.674	7831.38
857.996	7888.1
858.318	7824.82
858.64	7826.4
858.961	7863.69
859.283	7778.04
859.605	7702.11
859.926	7749.12
860.248	7712.74
860.57	7716.35
860.891	7713.64
861.212	7665.73
861.534	7660.53
861.855	7634.77
862.176	7627.09
862.498	7686.52
862.819	7668.22
863.14	7608.56
863.461	7608.11
863.782	7522.23
864.103	7627.31
864.424	7504.38
864.745	7589.57
865.065	7533.76
865.386	7474.32
865.707	7495.34
866.027	7474.1
866.348	7466.64
866.668	7460.09
866.989	7465.28
867.309	7388
867.63	7449.47
867.95	7460.76
868.27	7385.51
868.59	7370.37
868.91	7362.69
869.23	7366.3
869.55	7301.22
869.87	7330.82
870.19	7324.95
870.51	7321.11
870.83	7347.55
871.15	7273.2
871.469	7249.24
871.789	7277.94
872.109	7197.49
872.428	7248.34
872.748	7261
873.067	7269.81
873.386	7214.67
873.706	7266.65
874.025	7219.87
874.344	7230.49
874.663	7239.3
874.982	7184.84
875.301	7151.17
875.62	7156.82
875.939	7141.9
876.258	7177.83
876.577	7152.75
876.896	7126.31
877.214	7113.65
877.533	7143.71
877.852	7053.77
878.17	7115.46
878.489	7072.75
878.807	7069.14
879.125	7071.62
879.444	7079.08
879.762	7054
880.08	7011.28
880.398	7024.62
880.716	7013.32
881.034	6974.9
881.352	6957.05
881.67	6974.9
881.988	6941.91
882.306	6923.38
882.624	6872.31
882.941	6913.21
883.259	6846.77
883.577	6846.32
883.894	6876.82
884.212	6824.62
884.529	6811.52
884.846	6856.49
885.164	6858.52
885.481	6787.11
885.798	6809.26
886.115	6682.71
886.432	6731.97
886.75	6786.43
887.067	6727.68
887.383	6706.89
887.7	6742.37
888.017	6710.95
888.334	6721.35
888.651	6716.15
888.967	6643.84
889.284	6589.83
889.6	6599.09
889.917	6554.12
890.233	6560.9
890.55	6562.26
890.866	6578.98
891.182	6537.17
891.498	6490.17
891.815	6447.68
892.131	6431.86
892.447	6417.85
892.763	6387.35
893.079	6358.19
893.395	6377.18
893.71	6368.36
894.026	6390.51
894.342	6320
894.657	6268.48
894.973	6201.36
895.289	6218.54
895.604	6264.64
895.92	6192.55
896.235	6211.76
896.55	6229.84
896.865	6212.44
897.181	6191.42
897.496	6168.14
897.811	6127.24
898.126	6072.78
898.441	6047.47
898.756	6068.26
899.071	6018.77
899.386	6046.34
899.7	5957.08
900.015	5904.42
900.33	5958.66
900.644	5876.4
900.959	5936.74
901.273	5934.48
901.588	5869.17
901.902	5827.81
902.216	5869.85
902.531	5839.56
902.845	5794.37
903.159	5734.93
903.473	5770.19
903.787	5745.78
904.101	5711.43
904.415	5689.96
904.729	5705.33
905.042	5637.54
905.356	5649.06
905.67	5625.33
905.984	5586.01
906.297	5602.73
906.611	5570.42
906.924	5553.24
907.237	5530.19
907.551	5462.17
907.864	5496.52
908.177	5439.57
908.491	5445.68
908.804	5394.6
909.117	5422.63
909.43	5397.09
909.743	5333.14
910.056	5284.55
910.368	5285
910.681	5314.83
910.994	5212.91
911.307	5222.63
911.619	5186.02
911.932	5190.99
912.244	5220.82
912.557	5200.26
912.869	5147.83
913.181	5135.4
913.494	5102.41
913.806	5071.67
914.118	5080.26
914.43	5051.34
914.742	4980.38
915.054	4994.84
915.366	5021.05
915.678	4971.79
915.99	4918.91
916.302	4899.02
916.613	4906.48
916.925	4933.83
917.236	4871.23
917.548	4847.5
917.859	4866.93
918.171	4788.07
918.482	4802.53
918.794	4766.6
919.105	4806.6
919.416	4731.8
919.727	4716.43
920.038	4713.04
920.349	4681.63
920.66	4655.41
920.971	4676.43
921.282	4658.35
921.593	4664.23
921.903	4561.18
922.214	4579.71
922.525	4555.76
922.835	4534.97
923.146	4500.62
923.456	4501.75
923.767	4448.19
924.077	4451.58
924.387	4440.28
924.697	4400.73
925.008	4423.33
925.318	4352.6
925.628	4398.02
925.938	4363.22
926.248	4304.24
926.558	4302.2
926.867	4313.05
927.177	4290.45
927.487	4303.56
927.796	4217.23
928.106	4242.77
928.416	4221.98
928.725	4227.63
929.034	4180.17
929.344	4195.54
929.653	4117.35
929.962	4131.81
930.271	4149.21
930.581	4098.37
930.89	4061.08
931.199	4035.09
931.508	4013.85
931.817	4014.08
932.125	4017.01
932.434	3998.48
932.743	3967.3
933.051	3963.68
933.36	3937.02
933.669	3928.88
933.977	3904.25
934.286	3939.27
934.594	3901.31
934.902	3867.19
935.21	3841.42
935.519	3818.15
935.827	3804.36
936.135	3797.13
936.443	3767.08
936.751	3755.78
937.059	3778.15
937.367	3727.76
937.674	3730.24
937.982	3739.28
938.29	3691.15
938.597	3680.75
938.905	3702.9
939.213	3661.32
939.52	3647.98
939.827	3669.9
940.135	3608.44
940.442	3611.15
940.749	3620.41
941.056	3583.58
941.363	3559.17
941.67	3544.71
941.977	3561.66
942.284	3504.48
942.591	3516.24
942.898	3451.15
943.205	3504.48
943.511	3459.97
943.818	3482.34
944.125	3427.65
944.431	3412.06
944.738	3418.61
945.044	3421.77
945.35	3359.63
945.657	3370.93
945.963	3363.92
946.269	3297.26
946.575	3320.99
946.881	3276.24
947.187	3268.78
947.493	3257.03
947.799	3264.49
948.105	3253.64
948.41	3257.48
948.716	3224.94
949.022	3218.84
949.327	3198.96
949.633	3195.11
949.938	3163.7
950.244	3184.27
950.549	3152.4
950.854	3146.53
951.16	3096.36
951.465	3130.71
951.77	3121.22
952.075	3051.61
952.38	3058.17
952.685	3075.57
952.99	3041.22
953.294	3017.94
953.599	3017.72
953.904	3005.51
954.209	2992.18
954.513	2999.19
954.818	2932.52
955.122	2990.15
955.426	2946.08
955.731	2929.58
956.035	2922.58
956.339	2911.51
956.643	2903.82
956.948	2853.88
957.252	2894.56
957.556	2851.85
957.86	2848.91
958.163	2852.3
958.467	2843.71
958.771	2808.91
959.075	2827.67
959.378	2815.69
959.682	2751.51
959.985	2786.76
960.289	2765.97
960.592	2718.97
960.896	2744.73
961.199	2758.29
961.502	2730.95
961.805	2691.62
962.108	2653.21
962.411	2692.98
962.714	2684.84
963.017	2668.12
963.32	2679.2
963.623	2617.28
963.926	2638.29
964.228	2621.8
964.531	2576.15
964.833	2586.77
965.136	2578.86
965.438	2561.91
965.741	2542.93
966.043	2562.59
966.345	2535.47
966.648	2522.14
966.95	2500.67
967.252	2524.17
967.554	2505.19
967.856	2478.52
968.158	2470.16
968.46	2504.06
968.761	2499.99
969.063	2410.73
969.365	2427.9
969.666	2407.56
969.968	2365.31
970.269	2415.47
970.571	2431.07
970.872	2406.21
971.174	2348.81
971.475	2376.83
971.776	2381.35
972.077	2362.59
972.378	2333.89
972.679	2333.44
972.98	2287.12
973.281	2278.3
973.582	2277.4
973.883	2272.88
974.183	2297.06
974.484	2304.97
974.785	2274.01
975.085	2254.12
975.386	2245.53
975.686	2228.36
975.986	2186.78
976.287	2230.62
976.587	2177.29
976.887	2192.65
977.187	2236.72
977.487	2201.24
977.787	2174.12
978.087	2152.66
978.387	2144.07
978.687	2189.04
978.987	2161.69
979.286	2141.36
979.586	2128.25
979.885	2095.71
980.185	2121.92
980.484	2119.89
980.784	2094.58
981.083	2069.95
981.382	2081.47
981.682	2060.45
981.981	2018.65
982.28	2050.51
982.579	2021.13
982.878	2034.24
983.177	2023.85
983.475	2008.93
983.774	2002.83
984.073	1980.46
984.372	2000.79
984.67	1968.71
984.969	1975.71
985.267	1972.32
985.566	1970.51
985.864	1966.9
986.162	1948.59
986.461	1921.25
986.759	1901.36
987.057	1894.36
987.355	1921.93
987.653	1925.77
987.951	1880.57
988.249	1852.32
988.547	1891.65
988.844	1869.5
989.142	1867.01
989.44	1841.03
989.737	1851.19
990.035	1854.81
990.332	1837.86
990.63	1794.7
990.927	1817.75
991.224	1794.02
991.521	1791.31
991.819	1809.61
992.116	1770.29
992.413	1784.08
992.71	1752.89
993.006	1759.9
993.303	1762.16
993.6	1737.75
993.897	1740.24
994.193	1736.85
994.49	1707.7
994.787	1714.7
995.083	1700.01
995.379	1696.4
995.676	1690.97
995.972	1661.82
996.268	1660.69
996.565	1675.83
996.861	1660.92
997.157	1679
997.453	1660.46
997.749	1625.21
998.044	1620.92
998.34	1591.31
998.636	1618.66
998.932	1610.75
999.227	1600.58
999.523	1590.41
999.818	1581.6
1000.114	1580.24
1000.409	1564.42
1000.704	1556.51
1001	1542.73
1001.295	1552.22
1001.59	1540.02
1001.885	1524.42
1002.18	1528.26
1002.475	1516.06
1002.77	1509.06
1003.065	1497.08
1003.359	1515.84
1003.654	1469.06
1003.949	1472.45
1004.243	1449.4
1004.538	1416.18
1004.832	1476.51
1005.127	1455.95
1005.421	1446.46
1005.715	1442.84
1006.009	1455.95
1006.304	1430.64
1006.598	1414.14
1006.892	1405.78
1007.186	1405.33
1007.48	1375.27
1007.773	1356.29
1008.067	1386.35
1008.361	1370.98
1008.655	1337.76
1008.948	1338.21
1009.242	1335.05
1009.535	1314.26
1009.829	1343.41
1010.122	1328.5
1010.415	1321.72
1010.708	1316.07
1011.001	1301.15
1011.295	1284.43
1011.588	1300.93
1011.881	1277.2
1012.173	1285.11
1012.466	1251.89
1012.759	1261.38
1013.052	1239.91
1013.344	1237.43
1013.637	1261.38
1013.93	1226.58
1014.222	1210.99
1014.514	1215.28
1014.807	1250.76
1015.099	1241.04
1015.391	1217.31
1015.683	1212.79
1015.976	1204.88
1016.268	1178.9
1016.56	1174.83
1016.851	1167.6
1017.143	1170.76
1017.435	1184.32
1017.727	1157.65
1018.018	1130.54
1018.31	1137.09
1018.602	1148.16
1018.893	1132.8
1019.185	1113.59
1019.476	1119.01
1019.767	1116.3
1020.058	1100.48
1020.35	1117.43
1020.641	1116.52
1020.932	1084.66
1021.223	1094.83
1021.514	1073.59
1021.804	1031.55
1022.095	1071.55
1022.386	1048.96
1022.677	1052.12
1022.967	1023.19
1023.258	1048.73
1023.548	1040.82
1023.839	1020.03
1024.129	1005.57
1024.419	1003.31
1024.709	1006.24
1025	1015.51
1025.29	982.97
1025.58	985.68
1025.87	979.58
1026.16	1005.79
1026.449	967.6
1026.739	958.34
1027.029	940.71
1027.319	951.33
1027.608	931.9
1027.898	950.43
1028.187	933.93
1028.477	925.34
1028.766	922.18
1029.055	891.45
1029.344	913.82
1029.634	917.21
1029.923	912.46
1030.212	907.04
1030.501	902.29
1030.79	875.4
1031.078	873.37
1031.367	897.1
1031.656	878.11
1031.945	888.28
1032.233	876.08
1032.522	881.5
1032.81	869.53
1033.099	841.5
1033.387	846.93
1033.675	822.52
1033.963	839.47
1034.251	806.93
1034.54	857.1
1034.828	839.02
1035.116	828.17
1035.403	815.29
1035.691	808.28
1035.979	809.87
1036.267	802.86
1036.554	795.85
1036.842	783.2
1037.129	806.25
1037.417	769.87
1037.704	768.96
1037.992	785.01
1038.279	776.87
1038.566	771.67
1038.853	771.67
1039.14	771.67
