Data from blue_shiny_book_FLMS001491_00082.txt Node
Date: Wed Feb 08 15:27:39 GMT 2017
User: dcchb
Spectrometer: FLMS00149
Trigger mode: 0
Integration Time (sec): 2.000000E-2
Scans to average: 10
Electric dark correction enabled: true
Nonlinearity correction enabled: false
Boxcar width: 0
XAxis mode: Wavelengths
Number of Pixels in Spectrum: 2048
>>>>>Begin Spectral Data<<<<<
341.393	-16.04
341.776	-16.04
342.16	-16.04
342.543	-59.21
342.927	-50.85
343.31	-58.98
343.693	-70.96
344.077	-86.1
344.46	-54.01
344.843	-56.5
345.226	-41.58
345.61	-25.76
345.993	-12.2
346.376	4.07
346.759	22.82
347.142	14.46
347.525	42.26
347.908	59.89
348.291	69.6
348.674	79.32
349.057	113.67
349.44	113.44
349.823	135.36
350.206	168.13
350.588	188.47
350.971	235.7
351.354	250.39
351.737	249.48
352.119	233.67
352.502	253.1
352.884	251.29
353.267	280.67
353.65	288.13
354.032	305.3
354.414	319.54
354.797	344.4
355.179	311.63
355.562	342.14
355.944	334.68
356.326	333.55
356.709	342.59
357.091	349.82
357.473	346.21
357.855	348.92
358.238	353.89
358.62	355.92
359.002	342.59
359.384	336.26
359.766	348.47
360.148	338.52
360.53	346.88
360.912	348.01
361.294	331.74
361.676	305.08
362.057	334.23
362.439	302.14
362.821	328.58
363.203	319.31
363.584	336.26
363.966	352.08
364.348	355.47
364.729	341.46
365.111	323.61
365.493	322.48
365.874	326.32
366.256	322.25
366.637	320.44
367.019	345.98
367.4	342.59
367.781	314.57
368.163	346.88
368.544	318.64
368.925	330.16
369.306	351.63
369.688	331.74
370.069	336.49
370.45	346.88
370.831	322.03
371.212	341.23
371.593	338.97
371.974	357.73
372.355	349.82
372.736	352.53
373.117	342.82
373.498	336.26
373.879	334
374.26	357.73
374.641	330.84
375.021	352.31
375.402	331.97
375.783	345.3
376.163	372.87
376.544	379.2
376.925	368.35
377.305	362.25
377.686	360.44
378.066	365.19
378.447	368.8
378.827	364.06
379.208	373.1
379.588	373.55
379.968	396.6
380.349	388.24
380.729	385.98
381.109	377.39
381.489	385.07
381.87	377.84
382.25	399.54
382.63	379.65
383.01	409.03
383.39	420.1
383.77	400.44
384.15	408.12
384.53	421.01
384.91	411.06
385.29	408.12
385.67	428.24
386.049	415.58
386.429	424.4
386.809	445.41
387.189	418.07
387.568	437.73
387.948	433.21
388.328	437.5
388.707	467.11
389.087	455.81
389.466	455.81
389.846	461.91
390.225	472.3
390.605	463.26
390.984	465.52
391.363	484.51
391.743	465.75
392.122	494
392.501	476.82
392.881	512.53
393.26	494.68
393.639	498.52
394.018	511.17
394.397	502.13
394.776	517.05
395.155	516.6
395.534	518.63
395.913	532.19
396.292	555.01
396.671	536.03
397.05	549.14
397.429	551.4
397.808	537.16
398.186	556.14
398.565	548.46
398.944	545.3
399.323	588.91
399.701	573.54
400.08	565.18
400.458	600.21
400.837	607.89
401.215	630.72
401.594	586.43
401.972	609.25
402.351	624.16
402.729	635.24
403.107	632.75
403.486	649.93
403.864	630.72
404.242	675.91
404.62	666.2
404.999	646.54
405.377	677.27
405.755	683.82
406.133	726.08
406.511	691.28
406.889	705.29
407.267	725.86
407.645	736.48
408.023	758.62
408.401	744.84
408.779	772.41
409.156	788.68
409.534	781.45
409.912	780.32
410.29	781.9
410.667	843.14
411.045	848.34
411.422	832.07
411.8	848.79
412.178	860.99
412.555	896.47
412.933	908
413.31	914.33
413.687	916.13
414.065	961.33
414.442	936.02
414.819	959.97
415.197	973.31
415.574	966.53
415.951	984.83
416.328	1009.69
416.705	1011.5
417.082	1033.42
417.46	1033.42
417.837	1076.58
418.214	1063.25
418.591	1080.2
418.967	1103.02
419.344	1082.23
419.721	1114.1
420.098	1111.16
420.475	1114.55
420.852	1155
421.228	1148.44
421.605	1177.37
421.982	1193.87
422.358	1194.54
422.735	1227.99
423.111	1217.14
423.488	1240.42
423.864	1261.66
424.241	1269.57
424.617	1265.28
424.994	1264.83
425.37	1291.94
425.746	1308.67
426.123	1334.2
426.499	1373.52
426.875	1401.32
427.251	1390.92
427.627	1425.05
428.003	1461.66
428.379	1444.93
428.756	1462.33
429.132	1484.93
429.507	1501.2
429.883	1541.65
430.259	1564.7
430.635	1555.67
431.011	1596.79
431.387	1630.47
431.763	1672.5
432.138	1692.84
432.514	1716.57
432.89	1729.22
433.265	1771.25
433.641	1774.64
434.016	1807.86
434.392	1827.52
434.767	1832.49
435.143	1833.17
435.518	1859.61
435.894	1933.06
436.269	1924.24
436.644	1977.12
437.02	2005.6
437.395	2005.6
437.77	2055.31
438.145	2098.25
438.52	2105.48
438.895	2132.15
439.271	2151.36
439.646	2186.84
440.021	2185.03
440.395	2227.96
440.77	2197.68
441.145	2257.34
441.52	2288.08
441.895	2311.13
442.27	2335.76
442.645	2323.33
443.019	2386.83
443.394	2367.4
443.769	2404.46
444.143	2379.37
444.518	2427.73
444.892	2433.38
445.267	2485.13
445.641	2511.57
446.016	2495.3
446.39	2514.74
446.764	2563.55
447.139	2552.25
447.513	2614.39
447.887	2614.17
448.262	2626.37
448.636	2642.87
449.01	2684.22
449.384	2687.39
449.758	2714.05
450.132	2741.62
450.506	2748.63
450.88	2794.95
451.254	2794.28
451.628	2882.64
452.002	2887.38
452.376	2928.51
452.75	2956.08
453.123	3012.35
453.497	3047.6
453.871	3086.25
454.244	3156.53
454.618	3145.91
454.992	3168.73
455.365	3219.8
455.739	3262.97
456.112	3337.77
456.486	3340.48
456.859	3366.69
457.232	3488.72
457.606	3444.88
457.979	3502.96
458.352	3606.68
458.725	3640.36
459.099	3646.01
459.472	3721.26
459.845	3793.12
460.218	3827.47
460.591	3843.06
460.964	3851.88
461.337	3997.41
461.71	3981.59
462.083	4125.09
462.456	4138.2
462.829	4119.89
463.201	4203.05
463.574	4241.7
463.947	4343.84
464.32	4453.67
464.692	4484.4
465.065	4494.12
465.438	4598.75
465.81	4576.6
466.183	4682.14
466.555	4803.04
466.928	4779.76
467.3	4805.98
467.672	4917.16
468.045	5060.21
468.417	5063.14
468.789	5147.21
469.161	5182.24
469.534	5240.54
469.906	5418.39
470.278	5387.65
470.65	5487.09
471.022	5579.51
471.394	5651.6
471.766	5697.03
472.138	5809.34
472.51	5922.33
472.882	6041.42
473.253	6124.81
473.625	6185.15
473.997	6332.49
474.369	6363.22
474.74	6511.02
475.112	6622.88
475.484	6703.55
475.855	6805.92
476.227	6920.72
476.598	7129.76
476.97	7135.63
477.341	7317.77
477.713	7386.25
478.084	7469.63
478.455	7655.62
478.827	7755.05
479.198	8027.13
479.569	8015.61
479.94	8211.54
480.311	8343.51
480.682	8524.07
481.053	8675.48
481.424	8803.84
481.795	8903.49
482.166	9117.5
482.537	9195.92
482.908	9475.01
483.279	9495.12
483.65	9684.27
484.021	9902.79
484.391	10062.11
484.762	10104.14
485.133	10257.58
485.503	10417.13
485.874	10610.57
486.244	10760.85
486.615	10972.59
486.985	11051.91
487.356	11339.59
487.726	11338.23
488.097	11535.52
488.467	11624.1
488.837	11924.66
489.207	12079.46
489.578	12205.1
489.948	12347.02
490.318	12543.4
490.688	12645.77
491.058	12902.49
491.428	13056.15
491.798	13293.44
492.168	13463.83
492.538	13491.85
492.908	13673.31
493.278	13785.4
493.648	13914.89
494.017	14033.76
494.387	14196.46
494.757	14367.53
495.126	14501.99
495.496	14576.11
495.866	14636
496.235	14947.4
496.605	15114.86
496.974	15195.31
497.344	15356.21
497.713	15498.12
498.082	15619.25
498.452	15805.01
498.821	15864.89
499.19	15879.36
499.559	16168.84
499.928	16152.34
500.298	16279.8
500.667	16484.99
501.036	16286.8
501.405	16687.24
501.774	16777.86
502.143	16938.09
502.512	17022.6
502.88	17206.1
503.249	17229.83
503.618	17444.06
503.987	17476.6
504.356	17624.17
504.724	17694.45
505.093	17880.89
505.462	17898.51
505.83	18074.55
506.199	18112.07
506.567	18331.27
506.936	18305.28
507.304	18568.33
507.672	18566.29
508.041	18726.29
508.409	18825.27
508.777	19103.45
509.145	19241.75
509.514	19308.64
509.882	19437.68
510.25	19554.74
510.618	19806.48
510.986	19863.66
511.354	20101.84
511.722	20194.5
512.09	20418.22
512.458	20359.01
512.826	20549.52
513.193	20702.96
513.561	20675.16
513.929	20890.3
514.297	20968.71
514.664	21140.91
515.032	21169.84
515.4	21403.96
515.767	21588.13
516.135	21622.71
516.502	21596.49
516.869	22102.7
517.237	22205.29
517.604	22220.21
517.972	22495.45
518.339	22714.66
518.706	22722.79
519.073	22825.84
519.44	23086.62
519.808	23201.88
520.175	23245.49
520.542	23552.83
520.909	23596.89
521.276	23655.42
521.643	23874.4
522.009	23915.3
522.376	24154.85
522.743	24249.53
523.11	24591.67
523.477	24872.11
523.843	25009.29
524.21	25414.02
524.577	25607.01
524.943	25735.59
525.31	25964.52
525.676	26179.65
526.043	26279.54
526.409	26282.25
526.776	26786.19
527.142	26849.46
527.508	26788.45
527.874	26970.59
528.241	26975.34
528.607	27180.08
528.973	27378.26
529.339	27343.01
529.705	27665.94
530.071	28000.85
530.437	28146.6
530.803	28417.33
531.169	28605.58
531.535	28708.4
531.901	28873.82
532.267	29030.42
532.632	29292.34
532.998	29452.78
533.364	29555.38
533.73	29698.2
534.095	29864.75
534.461	29870.4
534.826	29905.65
535.192	30044.86
535.557	30231.07
535.923	30197.62
536.288	30232.2
536.653	30295.93
537.019	30393.33
537.384	30568.91
537.749	30721.9
538.114	30765.97
538.479	30939.3
538.845	31216.13
539.21	31158.05
539.575	31547.19
539.94	31610.92
540.305	31925.94
540.67	31814.76
541.034	31942.66
541.399	32057.24
541.764	32103.56
542.129	32073.51
542.494	32252.26
542.858	32195.76
543.223	32294.52
543.587	32286.61
543.952	32352.14
544.316	32590.1
544.681	32491.12
545.045	32653.6
545.41	32814.96
545.774	32801.62
546.138	32859.47
546.503	33123.87
546.867	33204.78
547.231	33513.47
547.595	33517.76
547.959	33758.89
548.324	33833.23
548.688	33812.44
549.052	33992.78
549.416	33968.15
549.779	34096.73
550.143	34097.41
550.507	34289.95
550.871	34328.14
551.235	34230.96
551.599	34301.02
551.962	34392.32
552.326	34409.04
552.689	34602.71
553.053	34548.24
553.417	34441.35
553.78	35254.21
554.143	34944.84
554.507	35156.36
554.87	35467.99
555.234	35882.9
555.597	35598.39
555.96	35877.02
556.323	36020.07
556.686	36144.59
557.05	36366.73
557.413	36434.07
557.776	36550.45
558.139	36651.47
558.502	36493.96
558.865	36613.73
559.228	36821.86
559.59	36653.27
559.953	36650.34
560.316	37039.03
560.679	36921.74
561.041	37229.3
561.404	37299.13
561.767	37669.74
562.129	37573.48
562.492	37996.29
562.854	38097.08
563.217	37939.57
563.579	38338.88
563.941	38548.14
564.304	38787.91
564.666	39023.83
565.028	39125.98
565.39	39212.98
565.753	39481
566.115	39606.19
566.477	39744.72
566.839	39757.6
567.201	39775.68
567.563	39879.86
567.925	40013.86
568.287	39979.74
568.648	40089.34
569.01	40205.95
569.372	40370.69
569.734	40147.19
570.095	40499.05
570.457	40600.74
570.819	40531.14
571.18	40953.5
571.542	41001.41
571.903	41203.44
572.265	41378.8
572.626	41605.46
572.987	41698.11
573.349	41809.3
573.71	42215.16
574.071	42149.63
574.432	42475.95
574.794	42498.77
575.155	42578.32
575.516	42316.18
575.877	42583.74
576.238	42473.23
576.599	42541.93
576.96	42331.99
577.32	42412.9
577.681	42664.64
578.042	42672.1
578.403	42598.65
578.763	42553.23
579.124	42717.29
579.485	42885.43
579.845	43055.37
580.206	43046.1
580.566	43262.37
580.927	43254.23
581.287	43446.32
581.648	43327.67
582.008	43698.74
582.368	43795.91
582.728	43910.94
583.089	43899.64
583.449	43822.8
583.809	43986.64
584.169	44018.96
584.529	43896.92
584.889	44113.19
585.249	43674.56
585.609	43562.02
585.969	43845.85
586.329	43616.03
586.688	43570.61
587.048	43541.91
587.408	43477.5
587.768	43468.24
588.127	43709.81
588.487	43597.95
588.846	43843.37
589.206	43553.43
589.565	43727.89
589.925	44000.88
590.284	43709.81
590.643	44011.27
591.003	44093.53
591.362	44277.48
591.721	44288.33
592.08	44186.86
592.44	44420.53
592.799	44547.98
593.158	44537.13
593.517	44390.25
593.876	44489
594.235	44257.59
594.593	44344.14
594.952	44427.08
595.311	44213.75
595.67	44161.78
596.029	44281.55
596.387	44164.94
596.746	44141.21
597.104	44074.32
597.463	44052.4
597.822	44323.58
598.18	44187.31
598.538	44123.13
598.897	44432.28
599.255	44078.39
599.613	44701.2
599.972	44653.97
600.33	44619.17
600.688	44639.5
601.046	44724.25
601.404	44903.68
601.762	44942.77
602.12	45147.51
602.478	45193.84
602.836	45219.6
603.194	44998.59
603.552	45129.89
603.91	44754.53
604.268	45053.28
604.625	44777.35
604.983	44964.92
605.341	44698.03
605.698	44918.82
606.056	44805.6
606.413	44822.55
606.771	44876.79
607.128	44873.4
607.485	44689.45
607.843	44801.31
608.2	44995.2
608.557	45171.92
608.914	44989.33
609.272	45173.28
609.629	45394.06
609.986	45472.48
610.343	45352.93
610.7	45699.82
611.057	45556.09
611.414	45653.26
611.771	45810.32
612.127	45918.34
612.484	45982.07
612.841	46128.28
613.198	46128.96
613.554	45997.43
613.911	46321.72
614.267	46215.06
614.624	46121.73
614.98	46180.03
615.337	46265.68
615.693	46076.98
616.05	45951.11
616.406	46247.6
616.762	46111.78
617.118	46094.16
617.475	46037.89
617.831	46094.61
618.187	46161.72
618.543	46182.97
618.899	46460.7
619.255	46324.43
619.611	46301.38
619.967	46449.17
620.323	46590.64
620.678	46502.05
621.034	46443.98
621.39	46580.02
621.746	46469.74
622.101	47034.92
622.457	46635.61
622.812	46769.62
623.168	46938.43
623.523	46862.95
623.879	47006
624.234	46825.89
624.589	47043.28
624.945	46909.28
625.3	47053.68
625.655	46886.9
626.01	46770.07
626.365	46774.36
626.72	46624.31
627.075	46705.66
627.43	46685.78
627.785	46568.49
628.14	46589.06
628.495	46497.31
628.85	46470.42
629.205	46334.83
629.559	46520.58
629.914	46279.69
630.269	46232
630.623	46213.7
630.978	46214.15
631.332	46392.9
631.687	46499.57
632.041	46274.04
632.396	46488.72
632.75	46420.02
633.104	46379.8
633.459	46210.76
633.813	46435.84
634.167	46261.38
634.521	46190.42
634.875	46316.3
635.229	46316.97
635.583	46051.44
635.937	46209.86
636.291	45940.94
636.645	46134.38
636.999	45873.82
637.352	45995.4
637.706	45543.21
638.06	45940.71
638.413	45747.05
638.767	45578.01
639.121	45467.28
639.474	45176.44
639.828	45147.06
640.181	45141.86
640.534	45114.75
640.888	44980.96
641.241	44875.66
641.594	45043.34
641.947	45090.34
642.301	45004.47
642.654	45042.21
643.007	45092.6
643.36	44989.78
643.713	44898.48
644.066	45004.47
644.419	45035.88
644.771	45026.84
645.124	44906.62
645.477	45003.11
645.83	44671.37
646.182	44425.27
646.535	44115
646.888	44001.78
647.24	43503.26
647.593	43677.72
647.945	43419.88
648.298	43197.28
648.65	43108.25
649.002	43089.49
649.355	43253.1
649.707	43323.15
650.059	43725.86
650.411	44153.64
650.763	44156.58
651.115	44507.53
651.467	44116.81
651.819	44025.06
652.171	43845.63
652.523	43948.67
652.875	43902.35
653.227	43694.9
653.578	44105.73
653.93	44116.35
654.282	43766.08
654.633	43714.33
654.985	43895.34
655.337	43944.83
655.688	43910.94
656.039	44058.5
656.391	43807.66
656.742	43986.19
657.094	44114.32
657.445	44251.72
657.796	44129.46
658.147	44120.65
658.498	44129.01
658.849	44208.78
659.2	44139.63
659.551	43979.41
659.902	44085.39
660.253	44006.07
660.604	44004.04
660.955	43842.24
661.306	43773.99
661.656	43509.59
662.007	43596.37
662.358	43450.61
662.708	43491.29
663.059	43536.71
663.409	43088.58
663.76	43371.51
664.11	43179.2
664.461	43148.02
664.811	43086.55
665.161	43120
665.511	43089.94
665.862	43232.31
666.212	43427.78
666.562	43295.81
666.912	43437.5
667.262	43463.72
667.612	43398.63
667.962	43590.94
668.312	43405.64
668.662	43767.89
669.011	43612.64
669.361	43724.95
669.711	43667.55
670.06	43599.08
670.41	43650.6
670.76	43664.39
671.109	43627.33
671.459	43357.05
671.808	43365.19
672.157	43434.56
672.507	43199.99
672.856	43231.86
673.205	43193.67
673.554	43182.82
673.904	43186.21
674.253	43100.11
674.602	42891.98
674.951	42248.15
675.3	42118.89
675.649	42624.19
675.998	42470.52
676.346	42483.4
676.695	42375.83
677.044	42153.24
677.393	42157.08
677.741	42308.49
678.09	42193.47
678.438	42044.54
678.787	42226.01
679.135	42141.49
679.484	41962.74
679.832	42182.17
680.181	42176.29
680.529	42297.19
680.877	42201.83
681.225	42237.08
681.573	42361.82
681.922	42228.49
682.27	42101.72
682.618	42119.8
682.966	42173.35
683.314	42133.81
683.661	42140.36
684.009	41925
684.357	41791.67
684.705	41777.43
685.053	41659.47
685.4	41709.19
685.748	41425.8
686.095	41343.55
686.443	41230.33
686.79	40999.6
687.138	41095.42
687.485	40904.69
687.832	40716.22
688.18	40632.6
688.527	40392.38
688.874	40339.05
689.221	40078.95
689.568	40020.19
689.915	39880.31
690.262	39778.62
690.609	39713.31
690.956	39603.48
691.303	39434.22
691.65	39322.58
691.997	39410.94
692.344	39128.91
692.69	39100.21
693.037	39243.94
693.383	38905.19
693.73	39091.85
694.077	38936.6
694.423	39113.1
694.769	38829.71
695.116	38839.88
695.462	38716.72
695.808	38878.07
696.155	38945.19
696.501	38673.11
696.847	38540
697.193	38194.02
697.539	38427.92
697.885	38156.96
698.231	38127.36
698.577	38140.69
698.923	37806.46
699.269	37790.42
699.614	37428.17
699.96	37342.07
700.306	37348.17
700.651	37098.01
700.997	36848.75
701.342	36683.1
701.688	36441.08
702.033	36353.85
702.379	36493.05
702.724	36243.57
703.069	36424.8
703.415	35777.59
703.76	35891.49
704.105	35859.62
704.45	35663.24
704.795	35466.64
705.14	35373.76
705.485	35421.22
705.83	35275.23
706.175	35337.6
706.52	35265.74
706.865	35162.69
707.209	35089.92
707.554	35150.94
707.899	35034.33
708.243	35101.22
708.588	35071.85
708.932	34902.36
709.277	34867.11
709.621	34889.93
709.966	34894.22
710.31	34853.32
710.654	34707.79
710.998	34665.76
711.342	34655.36
711.687	34564.74
712.031	34452.43
712.375	34377.85
712.719	34328.14
713.063	34150.74
713.407	34151.19
713.75	34004.53
714.094	33879.79
714.438	33697.19
714.782	33614.94
715.125	33382.63
715.469	33426.01
715.812	33198.22
716.156	33040.94
716.499	33030.54
716.843	32917.55
717.186	32846.82
717.53	32827.61
717.873	32819.25
718.216	32740.38
718.559	32577.9
718.902	32411.8
719.246	32434.18
719.589	32504
719.932	32442.54
720.275	32388.53
720.617	32310.34
720.96	32308.53
721.303	32484.12
721.646	32470.78
721.989	32294.52
722.331	32361.63
722.674	32424.01
723.016	32574.51
723.359	32494.51
723.701	32538.35
724.044	32450.22
724.386	32218.36
724.729	32422.88
725.071	32335.87
725.413	32360.96
725.755	32339.71
726.097	32270.11
726.439	32046.39
726.782	31973.17
727.124	32059.04
727.465	31939.95
727.807	31825.6
728.149	31681.65
728.491	31606.63
728.833	31707.87
729.175	31550.36
729.516	31469.46
729.858	31464.94
730.199	31467.87
730.541	31497.7
730.882	31294.09
731.224	31430.59
731.565	31212.29
731.906	31215.9
732.248	31162.8
732.589	30975.46
732.93	30842.8
733.271	30897.27
733.612	31031.73
733.953	30913.09
734.294	30994.89
734.635	30917.15
734.976	31104.04
735.317	30912.86
735.658	30934.33
735.999	30956.7
736.339	30878.51
736.68	31097.26
737.021	31107.2
737.361	30951.28
737.702	31136.58
738.042	31071.95
738.383	30984.5
738.723	31277.14
739.063	31085.96
739.404	31294.09
739.744	31186.75
740.084	31068.56
740.424	31234.66
740.764	31191.72
741.104	31171.84
741.444	30976.59
741.784	31044.16
742.124	31095
742.464	30938.17
742.804	31066.08
743.143	31059.97
743.483	30979.07
743.823	30819.98
744.162	30847.32
744.502	30987.21
744.841	30773.88
745.181	30850.71
745.52	30656.82
745.86	30623.15
746.199	30564.17
746.538	30604.85
746.877	30644.62
747.216	30656.82
747.556	30707.67
747.895	30544.51
748.234	30459.76
748.573	30430.61
748.911	30485.07
749.25	30605.07
749.589	30506.77
749.928	30584.96
750.267	30798.96
750.605	30709.48
750.944	30699.53
751.283	30777.27
751.621	30882.58
751.96	30791.05
752.298	30938.4
752.636	30890.26
752.975	30849.81
753.313	30812.98
753.651	31020.2
753.989	30901.79
754.327	31058.84
754.666	30946.53
755.004	31079.18
755.342	31195.79
755.679	31194.66
756.017	30983.14
756.355	31243.7
756.693	30999.18
757.031	31314.2
757.368	30949.24
757.706	31045.51
758.044	30948.11
758.381	30944.95
758.719	30824.5
759.056	30968.23
759.394	30816.14
759.731	30591.51
760.068	30672.19
760.405	30628.8
760.743	30470.39
761.08	30636.26
761.417	30549.25
761.754	30465.64
762.091	30430.84
762.428	30286.44
762.765	30055.25
763.102	30144.74
763.438	29994.01
763.775	29965.31
764.112	30093.45
764.449	30084.41
764.785	29843.51
765.122	29867.01
765.458	29706.79
765.795	29780.69
766.131	29803.06
766.467	29724.19
766.804	29684.19
767.14	29530.3
767.476	29788.6
767.812	29594.93
768.148	29723.51
768.485	29509.96
768.821	29353.8
769.157	29359.91
769.492	29414.59
769.828	29430.86
770.164	29184.32
770.5	29187.93
770.836	29137.76
771.171	29133.7
771.507	28966.24
771.842	28947.94
772.178	28950.43
772.513	28890.54
772.849	28842.41
773.184	28750.88
773.519	28716.31
773.855	28521.51
774.19	28434.73
774.525	28208.3
774.86	28334.85
775.195	28290.1
775.53	28168.52
775.865	28053.27
776.2	27987.74
776.535	27825.03
776.87	27776.44
777.205	27637.47
777.539	27512.72
777.874	27560.63
778.209	27208.55
778.543	27158.61
778.878	27054.43
779.212	26958.39
779.547	26712.29
779.881	26754.78
780.215	26542.35
780.55	26702.8
780.884	26470.49
781.218	26294
781.552	26234.11
781.886	26169.26
782.22	26036.38
782.554	25883.61
782.888	25805.88
783.222	25756.61
783.556	25592.55
783.889	25586.22
784.223	25458.09
784.557	25457.41
784.89	25347.13
785.224	25341.93
785.557	25296.96
785.891	25272.78
786.224	25243.63
786.558	25116.4
786.891	24992.56
787.224	24898.78
787.557	24767.03
787.891	24814.26
788.224	24889.74
788.557	24854.71
788.89	24716.19
789.223	24761.16
789.556	24675.96
789.888	24530.2
790.221	24566.13
790.554	24237.1
790.887	24341.96
791.219	24148.97
791.552	24221.51
791.884	23982.19
792.217	23912.59
792.549	23814.06
792.882	23734.07
793.214	23622.2
793.546	23665.14
793.879	23456.78
794.211	23388.76
794.543	23452.94
794.875	23152.84
795.207	23152.16
795.539	22994.65
795.871	22930.47
796.203	22631.27
796.535	22619.29
796.867	22570.03
797.198	22553.76
797.53	22539.29
797.862	22376.36
798.193	22371.16
798.525	22209.59
798.856	22213.88
799.188	22050.95
799.519	21940.67
799.85	21822.93
800.182	21862.93
800.513	21862.7
800.844	21529.15
801.175	21696.83
801.506	21632.2
801.837	21554.01
802.168	21585.2
802.499	21577.06
802.83	21483.73
803.161	21349.04
803.491	21462.26
803.822	21435.14
804.153	21246.22
804.483	21126.45
804.814	21041.71
805.145	21101.14
805.475	21218.88
805.805	21014.36
806.136	21030.63
806.466	21102.04
806.796	20970.75
807.126	20807.14
807.457	20750.19
807.787	20804.65
808.117	20657.54
808.447	20604.88
808.777	20720.36
809.107	20692.34
809.436	20511.55
809.766	20588.84
810.096	20335.06
810.426	20332.35
810.755	20317.66
811.085	20283.99
811.414	20224.33
811.744	20066.82
812.073	20100.49
812.403	19937.1
812.732	19853.72
813.061	19865.01
813.39	19676.32
813.719	19637.22
814.049	19691.01
814.378	19565.36
814.707	19459.15
815.036	19429.32
815.365	19318.36
815.693	19156.33
816.022	19154.52
816.351	19090.12
816.68	18957.02
817.008	18966.28
817.337	18769.9
817.665	18768.09
817.994	18856.45
818.322	18834.31
818.651	18669.79
818.979	18606.52
819.307	18675.22
819.636	18563.81
819.964	18444.94
820.292	18585.27
820.62	18580.75
820.948	18548.21
821.276	18719.51
821.604	18687.19
821.932	18672.96
822.259	18639.51
822.587	18622.11
822.915	18629.57
823.243	18721.32
823.57	18620.53
823.898	18717.25
824.225	18593.64
824.553	18619.4
824.88	18774.2
825.207	18846.96
825.535	18718.83
825.862	18780.75
826.189	18723.58
826.516	18757.02
826.843	18888.77
827.17	18930.35
827.497	18816.23
827.824	18807.42
828.151	18855.78
828.478	18801.31
828.805	18896
829.131	18684.71
829.458	18750.69
829.785	18656.68
830.111	18655.33
830.438	18829.34
830.764	18697.14
831.09	18738.04
831.417	18546.18
831.743	18657.36
832.069	18597.93
832.395	18481.55
832.722	18573.52
833.048	18514.99
833.374	18408.56
833.7	18314.32
834.026	18308.67
834.351	18329.24
834.677	18300.99
835.003	18258.95
835.329	18270.71
835.654	18184.83
835.98	18022.12
836.306	18198.17
836.631	18053.76
836.956	18177.38
837.282	18155.91
837.607	18071.84
837.932	17941
838.258	17995.46
838.583	18009.24
838.908	17787.55
839.233	17926.76
839.558	17782.13
839.883	17743.49
840.208	17725.86
840.533	17666.65
840.858	17768.35
841.182	17762.47
841.507	17738.06
841.832	17710.04
842.156	17624.85
842.481	17682.02
842.805	17609.48
843.13	17602.7
843.454	17635.47
843.778	17505.53
844.103	17483.61
844.427	17526.54
844.751	17467.11
845.075	17412.88
845.399	17459.88
845.723	17282.03
846.047	17351.63
846.371	17086.1
846.695	17235.03
847.019	17026.22
847.343	17070.51
847.666	16815.6
847.99	16866.9
848.313	16775.15
848.637	16769.73
848.96	16766.56
849.284	16600.02
849.607	16611.09
849.931	16527.25
850.254	16317.76
850.577	16245.9
850.9	16183.98
851.223	16073.93
851.546	16009.97
851.869	15887.04
852.192	15993.93
852.515	15818.12
852.838	15720.49
853.161	15625.58
853.483	15552.59
853.806	15571.57
854.129	15529.54
854.451	15444.79
854.774	15327.96
855.096	15233.27
855.419	15246.83
855.741	15161.86
856.063	15045.48
856.385	14987.85
856.708	15010.68
857.03	14907.86
857.352	14799.38
857.674	14761.19
857.996	14813.85
858.318	14670.57
858.64	14794.19
858.961	14711.03
859.283	14606.17
859.605	14578.37
859.926	14613.63
860.248	14565.04
860.57	14462.22
860.891	14424.25
861.212	14512.84
861.534	14403.92
861.855	14425.38
862.176	14480.75
862.498	14420.86
862.819	14393.97
863.14	14337.02
863.461	14354.42
863.782	14300.87
864.103	14398.94
864.424	14361.2
864.745	14395.55
865.065	14331.37
865.386	14336.35
865.707	14288.44
866.027	14289.57
866.348	14272.85
866.668	14284.14
866.989	14205.05
867.309	14168.22
867.63	14156.46
867.95	14082.79
868.27	14111.49
868.59	14097.26
868.91	14078.5
869.23	14016.81
869.55	14022.91
869.87	13986.75
870.19	13982.46
870.51	13939.07
870.83	13879.41
871.15	13814.33
871.469	13752.86
871.789	13794.67
872.109	13791.05
872.428	13747.89
872.748	13671.05
873.067	13711.5
873.386	13684.39
873.706	13683.48
874.025	13571.17
874.344	13429.48
874.663	13548.8
874.982	13453.43
875.301	13430.83
875.62	13342.93
875.939	13280.78
876.258	13325.07
876.577	13355.81
876.896	13149.94
877.214	13172.99
877.533	13228.8
877.852	13150.61
878.17	13229.93
878.489	13125.53
878.807	13130.28
879.125	13067.45
879.444	13085.31
879.762	13088.24
880.08	13080.33
880.398	12974.35
880.716	12930.96
881.034	12969.83
881.352	12973.22
881.67	12909.04
881.988	12903.39
882.306	12829.49
882.624	12831.53
882.941	12818.65
883.259	12787.46
883.577	12863.16
883.894	12808.93
884.212	12717.63
884.529	12756.73
884.846	12707.69
885.164	12667.69
885.481	12728.03
885.798	12756.27
886.115	12688.25
886.432	12696.62
886.75	12579.1
887.067	12663.85
887.383	12634.02
887.7	12627.46
888.017	12542.27
888.334	12596.5
888.651	12575.71
888.967	12481.03
889.284	12488.71
889.6	12511.99
889.917	12423.85
890.233	12392.89
890.55	12347.7
890.866	12305.89
891.182	12313.12
891.498	12222.28
891.815	12111.32
892.131	12154.48
892.447	12105.22
892.763	12089.85
893.079	11944.77
893.395	11890.53
893.71	11994.71
894.026	11883.08
894.342	11786.13
894.657	11709.52
894.973	11723.53
895.289	11705.45
895.604	11637.89
895.92	11543.43
896.235	11485.12
896.55	11432.92
896.865	11458.91
897.181	11375.52
897.496	11281.74
897.811	11234.96
898.126	11309.31
898.441	11185.02
898.756	11144.34
899.071	11076.77
899.386	11004.46
899.7	10951.35
900.015	10902.76
900.33	10845.36
900.644	10778.7
900.959	10833.84
901.273	10769.89
901.588	10676.78
901.902	10641.98
902.216	10623.22
902.531	10649.89
902.845	10677.01
903.159	10582.09
903.473	10500.29
903.787	10463
904.101	10438.37
904.415	10436.11
904.729	10423.91
905.042	10404.02
905.356	10348.65
905.67	10357.92
905.984	10368.31
906.297	10309.11
906.611	10211.71
906.924	10265.49
907.237	10264.59
907.551	10190.01
907.864	10079.96
908.177	10005.61
908.491	10019.85
908.804	10004.93
909.117	9970.13
909.43	9951.15
909.743	9906.86
910.056	9840.19
910.368	9794.54
910.681	9812.4
910.994	9775.11
911.307	9755.22
911.619	9735.11
911.932	9701.44
912.244	9621.67
912.557	9622.35
912.869	9577.15
913.181	9526.3
913.494	9559.3
913.806	9418.74
914.118	9395.23
914.43	9359.75
914.742	9354.56
915.054	9320.88
915.366	9250.6
915.678	9210.15
915.99	9149.36
916.302	9134.22
916.613	9075.47
916.925	9039.08
917.236	8988.46
917.548	8863.95
917.859	8885.64
918.171	8825.53
918.482	8788.02
918.794	8746.44
919.105	8776.94
919.416	8678.42
919.727	8580.11
920.038	8590.06
920.349	8474.13
920.66	8469.61
920.971	8482.49
921.282	8409.04
921.593	8364.07
921.903	8355.71
922.214	8312.32
922.525	8258.99
922.835	8215.6
923.146	8174.93
923.456	8145.77
923.767	8132.22
924.077	8128.83
924.387	8079.34
924.697	7999.56
925.008	8051.09
925.318	7911.2
925.628	7874.14
925.938	7893.35
926.248	7824.2
926.558	7796.41
926.867	7751.89
927.177	7739.46
927.487	7685.45
927.796	7628.73
928.106	7611.1
928.416	7619.46
928.725	7672.34
929.034	7539.69
929.344	7584.66
929.653	7565
929.962	7513.47
930.271	7465.34
930.581	7459.92
930.89	7423.53
931.199	7379.24
931.508	7426.02
931.817	7373.37
932.125	7376.98
932.434	7313.48
932.743	7224.22
933.051	7268.74
933.36	7252.24
933.669	7148.74
933.977	7170.66
934.286	7181.96
934.594	7154.84
934.902	6997.33
935.21	7080.49
935.519	7017.89
935.827	7053.83
936.135	6952.59
936.443	6951.91
936.751	6933.15
937.059	6923.21
937.367	6856.99
937.674	6818.8
937.982	6832.59
938.29	6757.79
938.597	6733.38
938.905	6713.5
939.213	6699.94
939.52	6630.33
939.827	6592.6
940.135	6598.92
940.442	6507.85
940.749	6477.12
941.056	6415.42
941.363	6407.74
941.67	6371.13
941.977	6353.05
942.284	6308.53
942.591	6323.45
942.898	6249.78
943.205	6297.24
943.511	6154.41
943.818	6139.05
944.125	6104.25
944.431	6117.35
944.738	6064.7
945.044	6032.16
945.35	6002.1
945.657	5976.57
945.963	5913.06
946.269	5969.11
946.575	5911.93
946.881	5886.17
947.187	5861.09
947.493	5810.24
947.799	5831.26
948.105	5809.34
948.41	5735.22
948.716	5731.83
949.022	5696.35
949.327	5709.91
949.633	5580.64
949.938	5686.63
950.244	5584.49
950.549	5580.87
950.854	5569.12
951.16	5535.22
951.465	5516.47
951.77	5522.79
952.075	5462.91
952.38	5495
952.685	5459.97
952.99	5406.86
953.294	5350.37
953.599	5398.5
953.904	5372.06
954.209	5333.19
954.513	5302.23
954.818	5309.01
955.122	5296.58
955.426	5277.15
955.731	5185.4
956.035	5232.4
956.339	5219.07
956.643	5247.55
956.948	5178.85
957.252	5201.45
957.556	5136.14
957.86	5142.92
958.163	5081.22
958.467	5093.43
958.771	5080.09
959.075	5097.95
959.378	5045.29
959.682	5048.45
959.985	4975.24
960.289	5010.94
960.592	4976.14
960.896	4980.21
961.199	4945.86
961.502	4888.23
961.805	4868.12
962.108	4844.84
962.411	4828.57
962.714	4786.77
963.017	4760.33
963.32	4792.87
963.623	4730.05
963.926	4709.93
964.228	4660.89
964.531	4643.72
964.833	4685.07
965.136	4631.97
965.438	4550.39
965.741	4635.36
966.043	4510.39
966.345	4544.51
966.648	4524.85
966.95	4509.26
967.252	4441.92
967.554	4431.97
967.856	4408.02
968.158	4390.17
968.46	4351.52
968.761	4342.71
969.063	4330.73
969.365	4325.76
969.666	4248.93
969.968	4236.27
970.269	4258.65
970.571	4245.09
970.872	4201.92
971.174	4171.19
971.475	4152.21
971.776	4160.34
972.077	4123.51
972.378	4083.96
972.679	4087.12
972.98	4093.9
973.281	4040.35
973.582	4044.41
973.883	4028.82
974.183	3969.39
974.484	3968.26
974.785	3921.93
975.085	3886
975.386	3931.42
975.686	3894.36
975.986	3861.14
976.287	3892.1
976.587	3809.62
976.887	3823.85
977.187	3822.5
977.487	3822.72
977.787	3819.79
978.087	3769.62
978.387	3727.81
978.687	3710.86
978.987	3674.93
979.286	3730.52
979.586	3708.6
979.885	3695.5
980.185	3685.1
980.484	3687.59
980.784	3608.49
981.083	3618.21
981.382	3597.42
981.682	3565.78
981.981	3612.33
982.28	3574.14
982.579	3539.79
982.878	3587.25
983.177	3551.32
983.475	3546.8
983.774	3518.55
984.073	3494.6
984.372	3457.08
984.67	3464.77
984.969	3459.8
985.267	3429.06
985.566	3417.54
985.864	3424.09
986.162	3373.47
986.461	3386.8
986.759	3359.69
987.057	3345.67
987.355	3347.48
987.653	3349.06
987.951	3317.2
988.249	3326.69
988.547	3306.13
988.844	3276.98
989.142	3240.82
989.44	3206.02
989.737	3209.63
990.035	3208.28
990.332	3156.53
990.63	3151.33
990.927	3173.48
991.224	3116.75
991.521	3124.89
991.819	3103.2
992.116	3111.1
992.413	3078.34
992.71	3026.81
993.006	3030.88
993.303	3008.06
993.6	2980.49
993.897	2985.68
994.193	2961.05
994.49	2936.42
994.787	2941.39
995.083	2897.55
995.379	2902.97
995.676	2888.06
995.972	2863.88
996.268	2867.27
996.565	2815.75
996.861	2799.7
997.157	2806.71
997.453	2802.19
997.749	2768.74
998.044	2756.76
998.34	2730.55
998.636	2750.89
998.932	2722.19
999.227	2700.04
999.523	2670.44
999.818	2644.22
1000.114	2625.69
1000.409	2627.73
1000.704	2603.77
1001	2662.3
1001.295	2587.95
1001.59	2575.98
1001.885	2572.14
1002.18	2560.84
1002.475	2534.4
1002.77	2553.15
1003.065	2505.7
1003.359	2525.58
1003.654	2521.06
1003.949	2483.1
1004.243	2486.94
1004.538	2481.97
1004.832	2410.56
1005.127	2446.72
1005.421	2402.42
1005.715	2416.43
1006.009	2403.1
1006.304	2370.33
1006.598	2361.29
1006.892	2321.52
1007.186	2331.46
1007.48	2333.95
1007.773	2320.84
1008.067	2273.16
1008.361	2302.54
1008.655	2253.05
1008.948	2280.17
1009.242	2267.51
1009.535	2295.08
1009.829	2226.16
1010.122	2227.74
1010.415	2217.34
1010.708	2210.34
1011.001	2184.58
1011.295	2170.56
1011.588	2174.86
1011.881	2154.07
1012.173	2164.91
1012.466	2112.26
1012.759	2122.88
1013.052	2126.5
1013.344	2101.41
1013.637	2109.32
1013.93	2052.15
1014.222	2058.93
1014.514	2043.79
1014.807	2028.65
1015.099	2010.34
1015.391	2004.24
1015.683	2016.44
1015.976	2001.76
1016.268	1975.77
1016.56	1954.3
1016.851	1929.89
1017.143	1976.45
1017.435	1936.45
1017.727	1921.53
1018.018	1900.74
1018.31	1888.99
1018.602	1884.47
1018.893	1853.74
1019.185	1850.35
1019.476	1860.74
1019.767	1831.36
1020.058	1822.78
1020.35	1804.02
1020.641	1797.47
1020.932	1781.2
1021.223	1762.21
1021.514	1774.19
1021.804	1727.64
1022.095	1718.37
1022.386	1743.23
1022.677	1739.16
1022.967	1675.21
1023.258	1670.46
1023.548	1661.65
1023.839	1670.69
1024.129	1641.76
1024.419	1634.08
1024.709	1633.4
1025	1594.99
1025.29	1587.3
1025.58	1597.47
1025.87	1575.33
1026.16	1567.64
1026.449	1551.6
1026.739	1538.72
1027.029	1550.24
1027.319	1525.38
1027.608	1475.89
1027.898	1507.08
1028.187	1485.38
1028.477	1493.29
1028.766	1504.82
1029.055	1459.62
1029.344	1473.18
1029.634	1426.86
1029.923	1416.23
1030.212	1445.84
1030.501	1424.82
1030.79	1394.31
1031.078	1397.25
1031.367	1384.14
1031.656	1383.24
1031.945	1387.76
1032.233	1333.07
1032.522	1399.06
1032.81	1339.85
1033.099	1315.22
1033.387	1304.15
1033.675	1306.18
1033.963	1282.23
1034.251	1295.11
1034.54	1284.26
1034.828	1277.48
1035.116	1271.38
1035.403	1260.53
1035.691	1239.97
1035.979	1267.09
1036.267	1238.39
1036.554	1233.64
1036.842	1230.02
1037.129	1227.31
1037.417	1222.79
1037.704	1186.41
1037.992	1181.66
1038.279	1189.57
1038.566	1181.44
1038.853	1181.44
1039.14	1181.44
