Data from blue_shiny_book_FLMS001491_00073.txt Node
Date: Wed Feb 08 15:27:30 GMT 2017
User: dcchb
Spectrometer: FLMS00149
Trigger mode: 0
Integration Time (sec): 2.000000E-2
Scans to average: 10
Electric dark correction enabled: true
Nonlinearity correction enabled: false
Boxcar width: 0
XAxis mode: Wavelengths
Number of Pixels in Spectrum: 2048
>>>>>Begin Spectral Data<<<<<
341.393	-6.07
341.776	-6.07
342.16	-6.07
342.543	-59.86
342.927	-81.78
343.31	-64.38
343.693	-68.9
344.077	-49.91
344.46	-74.32
344.843	-46.52
345.226	-33.42
345.61	-37.26
345.993	-14.89
346.376	-11.72
346.759	1.16
347.142	29.63
347.525	51.1
347.908	55.39
348.291	77.31
348.674	85.22
349.057	101.49
349.44	117.77
349.823	142.85
350.206	163.19
350.588	204.77
350.971	213.36
351.354	218.1
351.737	247.48
352.119	244.99
352.502	266.91
352.884	279.34
353.267	282.73
353.65	284.09
354.032	301.04
354.414	297.87
354.797	332.22
355.179	327.25
355.562	333.35
355.944	319.12
356.326	341.26
356.709	350.08
357.091	333.35
357.473	349.85
357.855	344.65
358.238	357.31
358.62	350.98
359.002	351.88
359.384	329.51
359.766	345.1
360.148	358.66
360.53	329.96
360.912	356.18
361.294	349.62
361.676	338.78
362.057	338.1
362.439	319.57
362.821	321.6
363.203	335.61
363.584	358.89
363.966	337.42
364.348	344.88
364.729	329.96
365.111	311.43
365.493	332.9
365.874	355.73
366.256	319.12
366.637	322.73
367.019	311.21
367.4	322.28
367.781	324.77
368.163	320.02
368.544	330.42
368.925	326.8
369.306	348.72
369.688	316.4
370.069	341.49
370.45	339.45
370.831	320.25
371.212	323.18
371.593	317.99
371.974	335.39
372.355	341.26
372.736	346.91
373.117	338.1
373.498	322.51
373.879	331.09
374.26	348.95
374.641	330.87
375.021	349.62
375.402	350.53
375.783	330.42
376.163	336.52
376.544	355.95
376.925	357.08
377.305	335.61
377.686	343.75
378.066	339.91
378.447	362.28
378.827	358.66
379.208	359.57
379.588	355.95
379.968	379.45
380.349	377.19
380.729	370.64
381.109	365.67
381.489	385.1
381.87	382.17
382.25	372.9
382.63	378.78
383.01	398.44
383.39	381.04
383.77	382.62
384.15	388.27
384.53	367.93
384.91	426.23
385.29	396.4
385.67	390.53
386.049	420.81
386.429	390.53
386.809	379.68
387.189	395.5
387.568	421.94
387.948	404.99
388.328	411.32
388.707	416.29
389.087	418.32
389.466	455.38
389.846	443.63
390.225	433.24
390.605	438.43
390.984	440.69
391.363	463.29
391.743	438.43
392.122	453.12
392.501	441.37
392.881	481.37
393.26	457.64
393.639	462.84
394.018	473.24
394.397	468.72
394.776	461.49
395.155	486.8
395.534	491.31
395.913	471.65
396.292	467.36
396.671	488.6
397.05	506
397.429	522.27
397.808	508.72
398.186	480.24
398.565	525.21
398.944	524.99
399.323	522.73
399.701	535.83
400.08	532.44
400.458	546.23
400.837	557.98
401.215	544.19
401.594	566.79
401.972	547.58
402.351	553.69
402.729	579.22
403.107	561.37
403.486	576.74
403.864	580.8
404.242	612.67
404.62	617.87
404.999	592.1
405.377	616.06
405.755	610.41
406.133	626.68
406.511	645.89
406.889	622.61
407.267	649.95
407.645	662.16
408.023	667.36
408.401	645.66
408.779	660.35
409.156	680.24
409.534	689.28
409.912	693.57
410.29	732.21
410.667	726.79
411.045	734.25
411.422	736.05
411.8	761.59
412.178	780.8
412.555	777.63
412.933	779.22
413.31	796.84
413.687	828.71
414.065	827.8
414.442	848.59
414.819	832.1
415.197	838.88
415.574	847.24
415.951	860.57
416.328	873.23
416.705	880.68
417.082	878.2
417.46	906.45
417.837	930.85
418.214	873.45
418.591	910.74
418.967	935.6
419.344	951.42
419.721	925.88
420.098	937.86
420.475	959.55
420.852	983.51
421.228	1012.43
421.605	1029.38
421.982	1019.21
422.358	1010.4
422.735	1065.99
423.111	1046.55
423.488	1064.63
423.864	1068.02
424.241	1102.37
424.617	1116.38
424.994	1109.6
425.37	1101.02
425.746	1145.08
426.123	1152.99
426.499	1166.78
426.875	1175.82
427.251	1182.6
427.627	1206.55
428.003	1221.47
428.379	1235.25
428.756	1271.86
429.132	1287.45
429.507	1266.44
429.883	1279.32
430.259	1307.56
430.635	1336.72
431.011	1363.16
431.387	1370.61
431.763	1410.16
432.138	1444.28
432.514	1438.86
432.89	1474.57
433.265	1502.36
433.641	1496.94
434.016	1502.14
434.392	1547.56
434.767	1570.38
435.143	1572.87
435.518	1574
435.894	1641.12
436.269	1640.66
436.644	1689.25
437.02	1691.96
437.395	1710.27
437.77	1745.52
438.145	1763.37
438.52	1771.06
438.895	1769.25
439.271	1766.99
439.646	1840.66
440.021	1839.3
440.395	1865.52
440.77	1858.96
441.145	1887.21
441.52	1951.39
441.895	1957.72
442.27	1955.68
442.645	1947.55
443.019	1981.22
443.394	1994.78
443.769	2021.44
444.143	1993.42
444.518	2026.19
444.892	2041.56
445.267	2060.31
445.641	2126.98
446.016	2118.62
446.39	2113.87
446.764	2121.78
447.139	2156.13
447.513	2199.29
447.887	2202.91
448.262	2195.22
448.636	2207.88
449.01	2203.13
449.384	2258.95
449.758	2258.05
450.132	2288.56
450.506	2303.92
450.88	2353.64
451.254	2383.24
451.628	2399.74
452.002	2410.13
452.376	2441.55
452.75	2511.83
453.123	2484.71
453.497	2565.38
453.871	2549.11
454.244	2603.58
454.618	2616.23
454.992	2618.94
455.365	2671.14
455.739	2737.13
456.112	2746.4
456.486	2798.82
456.859	2832.04
457.232	2933.06
457.606	2888.09
457.979	2929.67
458.352	3009.67
458.725	3070.46
459.099	3045.15
459.472	3103.9
459.845	3146.61
460.218	3150.23
460.591	3208.53
460.964	3215.31
461.337	3256.44
461.71	3355.42
462.083	3407.17
462.456	3419.15
462.829	3439.26
463.201	3488.52
463.574	3541.4
463.947	3553.61
464.32	3645.13
464.692	3705.92
465.065	3704.34
465.438	3746.37
465.81	3813.49
466.183	3828.18
466.555	3977.1
466.928	3957.21
467.3	4021.84
467.672	4072.46
468.045	4180.48
468.417	4201.27
468.789	4237.88
469.161	4301.38
469.534	4375.51
469.906	4467.26
470.278	4462.96
470.65	4538.67
471.022	4600.36
471.394	4704.99
471.766	4716.51
472.138	4802.16
472.51	4938.43
472.882	4911.09
473.253	5004.42
473.625	5084.64
473.997	5221.59
474.369	5272.21
474.74	5325.31
475.112	5437.17
475.484	5530.96
475.855	5579.99
476.227	5685.75
476.598	5799.65
476.97	5842.59
477.341	5935.47
477.713	5988.35
478.084	6081.9
478.455	6250.03
478.827	6396.7
479.198	6492.74
479.569	6542
479.94	6749
480.311	6830.81
480.682	6944.25
481.053	7109.67
481.424	7165.26
481.795	7305.37
482.166	7375.65
482.537	7535.88
482.908	7626.72
483.279	7716.89
483.65	7852.25
484.021	8059.7
484.391	8168.4
484.762	8263.09
485.133	8305.8
485.503	8479.58
485.874	8670.76
486.244	8706.92
486.615	8885.67
486.985	9018.77
487.356	9230.97
487.726	9273.91
488.097	9452.21
488.467	9454.69
488.837	9702.82
489.207	9789.6
489.578	9982.59
489.948	10084.73
490.318	10219.65
490.688	10244.73
491.058	10475.23
491.428	10574.67
491.798	10731.5
492.168	10974.65
492.538	11050.13
492.908	11159.96
493.278	11281.31
493.648	11243.35
494.017	11455.09
494.387	11547.97
494.757	11631.13
495.126	11802.66
495.496	11862.54
495.866	11912.48
496.235	12109.99
496.605	12290.78
496.974	12331.91
497.344	12488.97
497.713	12650.09
498.082	12669.53
498.452	12766.92
498.821	12882.4
499.19	12939.35
499.559	13033.58
499.928	13094.37
500.298	13210.08
500.667	13354.25
501.036	13378.21
501.405	13550.18
501.774	13565.1
502.143	13747.46
502.512	13789.04
502.88	13909.72
503.249	14004.18
503.618	14120.33
503.987	14214.57
504.356	14319.65
504.724	14470.83
505.093	14433.55
505.462	14532.3
505.83	14677.16
506.199	14772.52
506.567	14883.7
506.936	14904.95
507.304	15063.59
507.672	15154.43
508.041	15223.58
508.409	15382.22
508.777	15561.43
509.145	15725.26
509.514	15711.48
509.882	15942.89
510.25	15935.88
510.618	16070.79
510.986	16092.49
511.354	16264.46
511.722	16470.56
512.09	16586.94
512.458	16537.45
512.826	16800.26
513.193	16794.84
513.561	16852.24
513.929	17025.34
514.297	17053.59
514.664	17221.95
515.032	17294.04
515.4	17513.24
515.767	17581.49
516.135	17722.5
516.502	17784.42
516.869	18049.95
517.237	18095.82
517.604	18077.07
517.972	18475.02
518.339	18467.34
518.706	18451.07
519.073	18617.84
519.44	18697.84
519.808	18910.94
520.175	18873.66
520.542	19088.79
520.909	19192.07
521.276	19174.21
521.643	19492.62
522.009	19591.38
522.376	19697.82
522.743	19954.76
523.11	20073.4
523.477	20294.18
523.843	20457.57
524.21	20761.06
524.577	20925.13
524.943	21044.22
525.31	21122.64
525.676	21372.8
526.043	21568.05
526.409	21574.15
526.776	21874.48
527.142	21825.9
527.508	21944.76
527.874	22132.55
528.241	22123.29
528.607	22178.88
528.973	22428.82
529.339	22362.83
529.705	22608.47
530.071	22971.4
530.437	22975.02
530.803	23177.05
531.169	23491.61
531.535	23489.35
531.901	23697.26
532.267	23762.34
532.632	23984.03
532.998	24114.65
533.364	24172.95
533.73	24273.97
534.095	24329.78
534.461	24513.73
534.826	24530.91
535.192	24501.3
535.557	24593.73
535.923	24603.68
536.288	24682.32
536.653	24734.75
537.019	24786.95
537.384	24988.3
537.749	25143.55
538.114	25332.02
538.479	25379.47
538.845	25597.1
539.21	25536.53
539.575	25805
539.94	25895.84
540.305	26073.92
540.67	26027.59
541.034	26127.02
541.399	26304.65
541.764	26280.69
542.129	26252.45
542.494	26367.7
542.858	26452.44
543.223	26329.05
543.587	26580.12
543.952	26337.41
544.316	26537.86
544.681	26526.79
545.045	26870.06
545.41	26940.34
545.774	26930.17
546.138	27054.23
546.503	27082.93
546.867	27222.14
547.231	27559.76
547.595	27540.77
547.959	27599.3
548.324	27687.44
548.688	27605.86
549.052	27898.73
549.416	27883.81
549.779	27897.15
550.143	27908.22
550.507	27964.72
550.871	27880.88
551.235	27895.11
551.599	28087.43
551.962	28025.28
552.326	28162
552.689	28150.7
553.053	28183.92
553.417	28348.89
553.78	28665.26
554.143	28698.71
554.507	28826.61
554.87	28873.39
555.234	29248.75
555.597	29277
555.96	29285.81
556.323	29387.96
556.686	29662.53
557.05	29755.86
557.413	29618.01
557.776	29650.55
558.139	29917.43
558.502	29789.53
558.865	29722.64
559.228	29799.92
559.59	29840.83
559.953	29719.25
560.316	29987.26
560.679	30192.23
561.041	30255.96
561.404	30545.89
561.767	30691.42
562.129	30627.02
562.492	30939.33
562.854	31123.05
563.217	31069.49
563.579	31252.77
563.941	31701.57
564.304	31796.71
564.666	31950.83
565.028	32057.94
565.39	31983.82
565.753	32160.76
566.115	32290.03
566.477	32269.24
566.839	32338.39
567.201	32338.61
567.563	32285.06
567.925	32445.5
568.287	32399.85
568.648	32425.16
569.01	32552.62
569.372	32743.57
569.734	32666.06
570.095	32993.51
570.457	33099.5
570.819	33244.35
571.18	33147.18
571.542	33575.87
571.903	33737.45
572.265	33959.81
572.626	34012.92
572.987	34211.33
573.349	34291.1
573.71	34473.02
574.071	34568.84
574.432	34525.45
574.794	34712.34
575.155	34534.49
575.516	34391.44
575.877	34601.6
576.238	34497.88
576.599	34571.32
576.96	34442.06
577.32	34517.31
577.681	34787.81
578.042	34680.47
578.403	34566.58
578.763	34744.2
579.124	34742.62
579.485	34776.97
579.845	35198.2
580.206	35158.88
580.566	35286.33
580.927	35329.95
581.287	35608.13
581.648	35535.37
582.008	35849.03
582.368	35733.1
582.728	35915.69
583.089	35919.54
583.449	35744.4
583.809	35725.19
584.169	35791.63
584.529	35604.52
584.889	35744.17
585.249	35547.12
585.609	35267.35
585.969	35677.06
586.329	35440
586.688	35381.92
587.048	35382.37
587.408	35249.04
587.768	35405.88
588.127	35418.31
588.487	35503.73
588.846	35783.72
589.206	35483.84
589.565	35785.75
589.925	35830.72
590.284	35870.05
590.643	36057.16
591.003	36145.52
591.362	36418.51
591.721	36197.72
592.08	36216.03
592.44	36299.41
592.799	36267.1
593.158	36398.17
593.517	36277.04
593.876	36247.44
594.235	36159.98
594.593	36116.82
594.952	36163.15
595.311	36017.39
595.67	36009.93
596.029	36054.45
596.387	36053.09
596.746	36108.01
597.104	35935.35
597.463	35901.46
597.822	36081.34
598.18	36012.41
598.538	36053.09
598.897	36397.49
599.255	35991.17
599.613	36559.52
599.972	36428.9
600.33	36547.54
600.688	36531.27
601.046	36714.54
601.404	36916.35
601.762	36833.64
602.12	36946.85
602.478	36853.97
602.836	36926.29
603.194	36725.16
603.552	36707.09
603.91	36617.14
604.268	36777.37
604.625	36604.26
604.983	36619.86
605.341	36256.48
605.698	36526.98
606.056	36623.47
606.413	36572.85
606.771	36693.98
607.128	36538.28
607.485	36502.35
607.843	36656.92
608.2	36886.29
608.557	36835.44
608.914	36852.84
609.272	37114.08
609.629	37162.44
609.986	37370.35
610.343	37287.64
610.7	37418.71
611.057	37531.47
611.414	37532.15
611.771	37672.71
612.127	37855.53
612.484	37749.77
612.841	37869.77
613.198	37796.32
613.554	37905.02
613.911	37900.05
614.267	37825.93
614.624	37670.68
614.98	37753.39
615.337	37957.45
615.693	37807.85
616.05	37576.44
616.406	37820.05
616.762	37552.26
617.118	37691.24
617.475	37668.42
617.831	37904.12
618.187	37803.33
618.543	37940.73
618.899	38260.94
619.255	38043.32
619.611	38104.34
619.967	38308.63
620.323	38332.81
620.678	38339.36
621.034	38371.45
621.39	38550.2
621.746	38521.05
622.101	38996.74
622.457	38618.9
622.812	38719.69
623.168	38678.79
623.523	38758.11
623.879	38739.57
624.234	38705.9
624.589	38661.84
624.945	38761.95
625.3	38705.68
625.655	38536.19
626.01	38595.17
626.365	38496.87
626.72	38272.69
627.075	38314.05
627.43	38308.63
627.785	38179.59
628.14	38318.79
628.495	38179.82
628.85	38252.58
629.205	38135.97
629.559	38436.53
629.914	38026.82
630.269	38327.16
630.623	38197.22
630.978	38321.05
631.332	38482.63
631.687	38445.12
632.041	38358.34
632.396	38512.91
632.75	38462.97
633.104	38423.65
633.459	38389.08
633.813	38276.54
634.167	38208.74
634.521	38177.56
634.875	38288.29
635.229	38072.47
635.583	37865.25
635.937	37935.53
636.291	37942.53
636.645	37722.2
636.999	37545.03
637.352	37745.93
637.706	37462.32
638.06	37651.02
638.413	37413.51
638.767	37280.86
639.121	37199.95
639.474	36955.21
639.828	36943.01
640.181	37061.65
640.534	36985.95
640.888	36902.33
641.241	36832.96
641.594	36935.78
641.947	37243.57
642.301	37132.61
642.654	37214.42
643.007	37300.52
643.36	37174.64
643.713	37036.12
644.066	37270.23
644.419	37166.28
644.771	37195.89
645.124	36935.55
645.477	37108.66
645.83	36865.73
646.182	36574.21
646.535	36223.93
646.888	36049.25
647.24	35725.64
647.593	35821.69
647.945	35558.42
648.298	35329.72
648.65	35454.01
649.002	35337.86
649.355	35505.08
649.707	35534.91
650.059	35696.72
650.411	36068.91
650.763	36212.86
651.115	36486.75
651.467	36289.02
651.819	36350.26
652.171	36202.69
652.523	36190.94
652.875	36065.75
653.227	36063.49
653.578	36386.19
653.93	36400.2
654.282	36133.99
654.633	36100.55
654.985	36338.28
655.337	36363.82
655.688	36354.33
656.039	36470.03
656.391	36160.66
656.742	36321.33
657.094	36412.18
657.445	36521.1
657.796	36319.07
658.147	36355
658.498	36325.85
658.849	36320.88
659.2	36270.71
659.551	36197.04
659.902	36270.94
660.253	36189.81
660.604	36110.04
660.955	35963.38
661.306	36018.06
661.656	35809.26
662.007	35777.62
662.358	35726.55
662.708	35771.29
663.059	35775.58
663.409	35432.09
663.76	35781.01
664.11	35677.06
664.461	35594.12
664.811	35700.33
665.161	35511.64
665.511	35454.01
665.862	35694.68
666.212	35779.43
666.562	35661.01
666.912	35689.71
667.262	35917.73
667.612	35857.39
667.962	36016.71
668.312	35955.02
668.662	36076.14
669.011	36120.66
669.361	35963.6
669.711	36036.59
670.06	35889.71
670.41	35930.83
670.76	35804.51
671.109	35961.79
671.459	35702.37
671.808	35631.63
672.157	35745.76
672.507	35502.6
672.856	35501.47
673.205	35429.15
673.554	35618.75
673.904	35444.29
674.253	35358.65
674.602	35257.41
674.951	34635.5
675.3	34495.17
675.649	35031.2
675.998	34981.48
676.346	34794.14
676.695	34887.7
677.044	34574.49
677.393	34661.04
677.741	34839.34
678.09	34794.37
678.438	34800.7
678.787	34863.52
679.135	34786.23
679.484	34499.23
679.832	34798.21
680.181	34757.08
680.529	34807.7
680.877	34834.14
681.225	34833.01
681.573	35124.75
681.922	34887.7
682.27	34738.32
682.618	34826.46
682.966	34695.39
683.314	34655.61
683.661	34488.39
684.009	34241.61
684.357	34156.64
684.705	34222.63
685.053	34217.21
685.4	34178.11
685.748	33836.65
686.095	33763.66
686.443	33602.99
686.79	33533.16
687.138	33510.11
687.485	33464.69
687.832	33303.79
688.18	33155.54
688.527	33012.27
688.874	32984.92
689.221	32822.44
689.568	32741.09
689.915	32662.45
690.262	32803.69
690.609	32604.14
690.956	32570.92
691.303	32528.44
691.65	32462
691.997	32401.44
692.344	32179.52
692.69	32280.31
693.037	32309.01
693.383	32056.13
693.73	32207.32
694.077	31990.83
694.423	32046.42
694.769	31990.6
695.116	31855.01
695.462	31821.79
695.808	31687.1
696.155	31964.39
696.501	31684.84
696.847	31622.25
697.193	31203.73
697.539	31419.09
697.885	31135.71
698.231	30935.71
698.577	31004.64
698.923	30688.03
699.269	30600.13
699.614	30424.99
699.96	30269.06
700.306	30212.12
700.651	30164.88
700.997	29988.84
701.342	29776.19
701.688	29729.87
702.033	29529.87
702.379	29488.74
702.724	29405.58
703.069	29566.71
703.415	29199.49
703.76	29301.4
704.105	29093.05
704.45	28953.62
704.795	29007.18
705.14	28898.25
705.485	28931.47
705.83	28872.94
706.175	28989.1
706.52	28844.69
706.865	28694.64
707.209	28909.78
707.554	28827.29
707.899	28856.9
708.243	28650.35
708.588	28621.65
708.932	28511.14
709.277	28540.97
709.621	28666.17
709.966	28430.47
710.31	28487.64
710.654	28222.34
710.998	28240.19
711.342	28230.02
711.687	28185.5
712.031	27873.65
712.375	27819.41
712.719	27786.42
713.063	27711.39
713.407	27890.37
713.75	27526.54
714.094	27451.51
714.438	27214
714.782	27263.27
715.125	26964.07
715.469	27070.05
715.812	26896.5
716.156	26628.48
716.499	26739.21
716.843	26825.54
717.186	26613.79
717.53	26746.67
717.873	26674.13
718.216	26643.85
718.559	26544.87
718.902	26537.64
719.246	26607.46
719.589	26577.86
719.932	26597.52
720.275	26526.79
720.617	26496.96
720.96	26452.21
721.303	26591.42
721.646	26632.55
721.989	26484.53
722.331	26640.91
722.674	26588.48
723.016	26686.56
723.359	26673.9
723.701	26625.09
724.044	26452.67
724.386	26315.27
724.729	26485.89
725.071	26414.02
725.413	26342.39
725.755	26314.14
726.097	26193.01
726.439	26082.96
726.782	26075.95
727.124	26166.12
727.465	25821.5
727.807	25821.95
728.149	25693.82
728.491	25750.54
728.833	25828.05
729.175	25599.36
729.516	25496.53
729.858	25563.42
730.199	25546.25
730.541	25387.84
730.882	25389.64
731.224	25494.05
731.565	25274.17
731.906	25243.43
732.248	25312.36
732.589	25236.65
732.93	25195.75
733.271	25229.2
733.612	25307.39
733.953	25386.93
734.294	25242.75
734.635	25188.29
734.976	25388.97
735.317	25261.74
735.658	25382.86
735.999	25432.58
736.339	25371.34
736.68	25528.4
737.021	25520.26
737.361	25459.47
737.702	25543.09
738.042	25529.98
738.383	25512.8
738.723	25649.75
739.063	25549.41
739.404	25681.39
739.744	25569.53
740.084	25575.4
740.424	25590.54
740.764	25550.09
741.104	25527.27
741.444	25347.61
741.784	25167.73
742.124	25393.03
742.464	25367.27
742.804	25306.03
743.143	25266.03
743.483	25196.88
743.823	25078.46
744.162	24992.37
744.502	25144.23
744.841	24962.08
745.181	25252.47
745.52	24956.89
745.86	25010.44
746.199	25087.28
746.538	25029.88
746.877	25075.08
747.216	25101.06
747.556	25028.75
747.895	25046.6
748.234	25001.86
748.573	25164.34
748.911	24996.21
749.25	25086.37
749.589	25032.59
749.928	25257.9
750.267	25303.77
750.605	25391
750.944	25329.08
751.283	25355.52
751.621	25496.98
751.96	25367.27
752.298	25582.41
752.636	25642.97
752.975	25397.1
753.313	25540.15
753.651	25675.96
753.989	25650.2
754.327	25716.41
754.666	25612.24
755.004	25863.98
755.342	25798.67
755.679	25740.59
756.017	25673.93
756.355	25660.6
756.693	25630.09
757.031	25870.76
757.368	25697.43
757.706	25668.96
758.044	25692.46
758.381	25628.05
758.719	25643.87
759.056	25574.72
759.394	25510.09
759.731	25475.52
760.068	25555.51
760.405	25276.2
760.743	25379.47
761.08	25485.01
761.417	25271.68
761.754	25260.83
762.091	25248.63
762.428	25193.04
762.765	25128.86
763.102	25172.25
763.438	24968.64
763.775	25021.07
764.112	25062.19
764.449	25111.46
764.785	25109.65
765.122	24995.98
765.458	24976.32
765.795	24921.18
766.131	24945.14
766.467	25041.86
766.804	24906.49
767.14	24911.69
767.476	25031.46
767.812	24990.78
768.148	24961.41
768.485	24880.73
768.821	24725.25
769.157	24851.13
769.492	24624.47
769.828	24767.29
770.164	24516.45
770.5	24582.88
770.836	24613.84
771.171	24563.68
771.507	24438.03
771.842	24334.76
772.178	24423.34
772.513	24265.83
772.849	24179.28
773.184	24174.76
773.519	24146.51
773.855	24008.89
774.19	24002.79
774.525	23857.48
774.86	23874.2
775.195	23682.34
775.53	23612.51
775.865	23405.74
776.2	23377.72
776.535	23186.76
776.87	23155.58
777.205	23114
777.539	23077.61
777.874	23019.54
778.209	22791.07
778.543	22831.74
778.878	22583.16
779.212	22607.12
779.547	22523.05
779.881	22479.44
780.215	22458.19
780.55	22402.6
780.884	22297.75
781.218	22262.04
781.552	22238.77
781.886	22024.53
782.22	21970.52
782.554	21957.87
782.888	21741.38
783.222	21621.38
783.556	21638.78
783.889	21650.53
784.223	21505.68
784.557	21509.75
784.89	21488.5
785.224	21403.31
785.557	21338.45
785.891	21397.43
786.224	21314.04
786.558	21095.52
786.891	20960.38
787.224	20851.68
787.557	21039.25
787.891	20912.25
788.224	20858.69
788.557	20974.39
788.89	20857.56
789.223	20890.55
789.556	20609.66
789.888	20720.16
790.221	20652.37
790.554	20458.02
790.887	20416.67
791.219	20324.92
791.552	20229.55
791.884	19997.92
792.217	19972.16
792.549	19959.96
792.882	19882.9
793.214	19746.63
793.546	19771.03
793.879	19609.68
794.211	19593.64
794.543	19580.08
794.875	19365.17
795.207	19558.16
795.539	19268
795.871	19267.54
796.203	19122.24
796.535	19006.76
796.867	19035.46
797.198	19016.93
797.53	19044.05
797.862	18901.9
798.193	18885.18
798.525	18753.21
798.856	18818.29
799.188	18614.91
799.519	18597.28
799.85	18526.77
800.182	18496.94
800.513	18524.74
800.844	18439.32
801.175	18383.05
801.506	18387.12
801.837	18388.47
802.168	18286.55
802.499	18305.31
802.83	18079.78
803.161	18152.77
803.491	18122.26
803.822	18196.61
804.153	18035.94
804.483	17943.51
804.814	17884.53
805.145	17853.8
805.475	17914.81
805.805	17804.08
806.136	17767.24
806.466	17793.01
806.796	17783.06
807.126	17661.03
807.457	17580.13
807.787	17700.13
808.117	17571.32
808.447	17450.42
808.777	17508.04
809.107	17364.32
809.436	17334.94
809.766	17373.58
810.096	17289.97
810.426	17162.97
810.755	17211.33
811.085	17161.84
811.414	17056.53
811.744	16976.98
812.073	16935.85
812.403	16932.01
812.732	16799.36
813.061	16819.92
813.39	16677.33
813.719	16513.27
814.049	16616.77
814.378	16599.37
814.707	16461.97
815.036	16497
815.365	16404.79
815.693	16401.4
816.022	16324.12
816.351	16286.61
816.68	16165.25
817.008	16192.37
817.337	16036.44
817.665	15990.34
817.994	16002.77
818.322	15927.07
818.651	15914.41
818.979	15837.58
819.307	15882.1
819.636	15894.53
819.964	15729.78
820.292	15847.52
820.62	15824.47
820.948	15804.36
821.276	15799.16
821.604	15780.18
821.932	15864.7
822.259	15825.6
822.587	15861.53
822.915	15756.9
823.243	15858.82
823.57	15753.96
823.898	15790.57
824.225	15708.77
824.553	15863.34
824.88	15831.48
825.207	15947.41
825.535	15849.56
825.862	15931.36
826.189	15852.04
826.516	16070.34
826.843	16045.26
827.17	16014.75
827.497	15946.95
827.824	15924.13
828.151	15920.97
828.478	15944.47
828.805	15979.72
829.131	16027.86
829.458	15891.81
829.785	15795.77
830.111	15790.57
830.438	15875.99
830.764	15778.6
831.09	15834.41
831.417	15688.66
831.743	15799.84
832.069	15728.65
832.395	15748.77
832.722	15710.12
833.048	15567.08
833.374	15602.33
833.7	15480.07
834.026	15437.36
834.351	15492.05
834.677	15418.83
835.003	15511.48
835.329	15447.98
835.654	15351.26
835.98	15403.01
836.306	15315.11
836.631	15336.35
836.956	15341.55
837.282	15288.21
837.607	15246.63
837.932	15221.32
838.258	15152.17
838.583	15106.3
838.908	15080.31
839.233	15079.41
839.558	15115.11
839.883	15098.16
840.208	14995.11
840.533	15121.44
840.858	15104.72
841.182	15132.74
841.507	15139.07
841.832	15011.38
842.156	15161.21
842.481	15027.66
842.805	15025.4
843.13	14949.24
843.454	14965.06
843.778	14862.01
844.103	14875.12
844.427	14873.08
844.751	14832.41
845.075	14786.08
845.399	14813.65
845.723	14598.74
846.047	14678.96
846.371	14546.54
846.695	14587.44
847.019	14494.34
847.343	14477.16
847.666	14403.72
847.99	14291.86
848.313	14270.16
848.637	14265.87
848.96	14209.15
849.284	14162.37
849.607	14052.31
849.931	14031.75
850.254	13944.07
850.577	13841.7
850.9	13721.48
851.223	13707.69
851.546	13612.1
851.869	13410.98
852.192	13562.61
852.515	13381.15
852.838	13439.22
853.161	13349.73
853.483	13306.35
853.806	13127.82
854.129	13143.86
854.451	13027.26
854.774	12979.35
855.096	12972.34
855.419	12868.84
855.741	12870.65
856.063	12761.27
856.385	12721.73
856.708	12755.63
857.03	12746.13
857.352	12775.74
857.674	12650.54
857.996	12654.84
858.318	12498.23
858.64	12541.17
858.961	12434.96
859.283	12397.44
859.605	12392.92
859.926	12443.32
860.248	12406.93
860.57	12359.25
860.891	12448.06
861.212	12316.31
861.534	12322.19
861.855	12281.97
862.176	12309.54
862.498	12332.59
862.819	12271.57
863.14	12306.6
863.461	12217.79
863.782	12173.95
864.103	12258.01
864.424	12201.52
864.745	12302.3
865.065	12258.69
865.386	12103.21
865.707	12120.84
866.027	12038.81
866.348	12090.11
866.668	12126.26
866.989	12048.75
867.309	11984.35
867.63	12006.72
867.95	11979.15
868.27	12017.11
868.59	11936.89
868.91	11990.45
869.23	11989.77
869.55	11794.07
869.87	11902.54
870.19	11860.73
870.51	11851.02
870.83	11805.37
871.15	11704.81
871.469	11739.38
871.789	11728.08
872.109	11697.57
872.428	11627.52
872.748	11707.07
873.067	11608.99
873.386	11619.16
873.706	11555.43
874.025	11536
874.344	11471.37
874.663	11482.89
874.982	11397.69
875.301	11394.76
875.62	11237.92
875.939	11240.86
876.258	11261.88
876.577	11196.12
876.896	11202.22
877.214	11185.5
877.533	11140.53
877.852	11154.99
878.17	11195.67
878.489	11172.16
878.807	11073.18
879.125	11106.18
879.444	11149.79
879.762	11090.58
880.08	11066.4
880.398	10929.68
880.716	11011.04
881.034	10954.99
881.352	10953.41
881.67	10936.92
881.988	10913.64
882.306	10917.03
882.624	10854.43
882.941	10817.82
883.259	10783.47
883.577	10803.13
883.894	10825.73
884.212	10848.1
884.529	10851.72
884.846	10767.88
885.164	10715.9
885.481	10670.93
885.798	10810.14
886.115	10741.89
886.432	10743.02
886.75	10650.82
887.067	10651.5
887.383	10650.14
887.7	10695.79
888.017	10599.75
888.334	10586.64
888.651	10606.3
888.967	10543.25
889.284	10550.49
889.6	10529.24
889.917	10416.03
890.233	10559.52
890.55	10492.63
890.866	10413.09
891.182	10414.22
891.498	10395.46
891.815	10339.64
892.131	10303.71
892.447	10256.48
892.763	10242.24
893.079	10112.53
893.395	10105.3
893.71	10052.87
894.026	10026.88
894.342	10000.44
894.657	9950.73
894.973	9907.34
895.289	9848.58
895.604	9783.27
895.92	9765.65
896.235	9724.52
896.55	9682.71
896.865	9590.96
897.181	9609.27
897.496	9511.64
897.811	9570.17
898.126	9441.81
898.441	9447.01
898.756	9413.34
899.071	9350.06
899.386	9369.95
899.7	9266
900.015	9254.93
900.33	9190.52
900.644	9120.24
900.959	9187.81
901.273	9136.96
901.588	9091.77
901.902	9044.08
902.216	9093.57
902.531	9051.32
902.845	8994.37
903.159	8954.6
903.473	8991.66
903.787	8955.05
904.101	8917.31
904.415	8912.11
904.729	8821.94
905.042	8775.62
905.356	8835.95
905.67	8790.31
905.984	8806.58
906.297	8709.63
906.611	8727.48
906.924	8701.49
907.237	8708.05
907.551	8656.3
907.864	8565.9
908.177	8611.55
908.491	8527.71
908.804	8509.64
909.117	8475.74
909.43	8442.97
909.743	8374.95
910.056	8437.55
910.368	8379.92
910.681	8371.79
910.994	8379.24
911.307	8314.84
911.619	8326.81
911.932	8242.75
912.244	8216.99
912.557	8224.9
912.869	8138.35
913.181	8101.74
913.494	8106.93
913.806	8063.77
914.118	8049.31
914.43	7947.62
914.742	7946.49
915.054	7887.96
915.366	7854.51
915.678	7747.85
915.99	7763.21
916.302	7700.84
916.613	7588.98
916.925	7658.81
917.236	7622.2
917.548	7537.01
917.859	7564.12
918.171	7471.92
918.482	7425.14
918.794	7407.29
919.105	7413.84
919.416	7333.39
919.727	7303.34
920.038	7278.48
920.349	7228.76
920.66	7160.07
920.971	7219.27
921.282	7159.39
921.593	7112.84
921.903	7126.17
922.214	7037.13
922.525	7001.65
922.835	6963.01
923.146	6923.69
923.456	6938.38
923.767	6863.58
924.077	6779.96
924.387	6810.24
924.697	6777.03
925.008	6759.4
925.318	6774.31
925.628	6721.21
925.938	6681.21
926.248	6563.92
926.558	6636.69
926.867	6582.68
927.177	6590.36
927.487	6530.03
927.796	6478.95
928.106	6486.41
928.416	6494.55
928.725	6474.89
929.034	6448.45
929.344	6424.72
929.653	6423.36
929.962	6395.34
930.271	6353.76
930.581	6289.13
930.89	6315.34
931.199	6284.38
931.508	6274.89
931.817	6225.63
932.125	6238.73
932.434	6228.34
932.743	6169.81
933.051	6175.91
933.36	6143.6
933.669	6103.82
933.977	6166.87
934.286	6113.77
934.594	6139.3
934.902	6073.99
935.21	6024.95
935.519	5990.38
935.827	5965.07
936.135	5986.09
936.443	5872.87
936.751	5879.87
937.059	5856.6
937.367	5867.44
937.674	5818.63
937.982	5791.74
938.29	5761.46
938.597	5739.31
938.905	5687.11
939.213	5689.82
939.52	5634.46
939.827	5649.15
940.135	5561.24
940.442	5603.04
940.749	5572.31
941.056	5548.81
941.363	5446.44
941.67	5516.49
941.977	5428.81
942.284	5388.14
942.591	5364.41
942.898	5343.16
943.205	5339.55
943.511	5295.93
943.818	5192.89
944.125	5195.82
944.431	5203.28
944.738	5205.54
945.044	5132.32
945.35	5082.61
945.657	5055.04
945.963	5089.84
946.269	5056.62
946.575	5043.06
946.881	4995.83
947.187	4971.42
947.493	4885.32
947.799	4914.93
948.105	4872.89
948.41	4867.02
948.716	4901.37
949.022	4845.1
949.327	4838.09
949.633	4772.11
949.938	4772.11
950.244	4761.71
950.549	4722.84
950.854	4685.1
951.16	4732.11
951.465	4689.17
951.77	4706.12
952.075	4642.62
952.38	4626.8
952.685	4608.72
952.99	4597.65
953.294	4634.71
953.599	4604.2
953.904	4557.87
954.209	4554.48
954.513	4514.71
954.818	4508.84
955.122	4504.54
955.426	4487.14
955.731	4458.44
956.035	4471.78
956.339	4441.04
956.643	4419.12
956.948	4420.25
957.252	4409.4
957.556	4415.05
957.86	4383.87
958.163	4312.91
958.467	4361.27
958.771	4322.63
959.075	4347.48
959.378	4308.39
959.682	4324.21
959.985	4265.45
960.289	4249.86
960.592	4251.22
960.896	4195.85
961.199	4171.22
961.502	4161.05
961.805	4192.69
962.108	4112.01
962.411	4120.82
962.714	4142.07
963.017	4081.28
963.32	4051
963.623	4015.29
963.926	4074.95
964.228	3994.95
964.531	4003.31
964.833	3969.42
965.136	3940.26
965.438	3912.02
965.741	3904.78
966.043	3895.07
966.345	3870.43
966.648	3832.47
966.95	3822.98
967.252	3812.58
967.554	3801.06
967.856	3742.3
968.158	3750.66
968.46	3717.9
968.761	3740.04
969.063	3681.74
969.365	3662.76
969.666	3675.86
969.968	3643.55
970.269	3620.95
970.571	3602.65
970.872	3555.19
971.174	3575.75
971.475	3570.33
971.776	3512.7
972.077	3488.75
972.378	3477.45
972.679	3455.3
972.98	3451.24
973.281	3448.07
973.582	3419.83
973.883	3407.85
974.183	3381.41
974.484	3371.01
974.785	3354.52
975.085	3361.75
975.386	3320.62
975.686	3322.2
975.986	3340.05
976.287	3275.42
976.587	3279.72
976.887	3248.98
977.187	3280.85
977.487	3226.38
977.787	3237.01
978.087	3252.15
978.387	3200.4
978.687	3201.98
978.987	3196.1
979.286	3190.9
979.586	3149.78
979.885	3188.19
980.185	3145.48
980.484	3156.1
980.784	3145.03
981.083	3161.08
981.382	3157.46
981.682	3097.12
981.981	3098.03
982.28	3078.14
982.579	3050.8
982.878	3065.26
983.177	3028.65
983.475	3054.64
983.774	3032.72
984.073	3008.76
984.372	2990.01
984.67	3009.44
984.969	2994.07
985.267	2980.06
985.566	2942.32
985.864	2954.53
986.162	2914.53
986.461	2900.97
986.759	2924.47
987.057	2869.56
987.355	2887.41
987.653	2872.5
987.951	2829.78
988.249	2883.57
988.547	2847.19
988.844	2816.9
989.142	2817.36
989.44	2823.23
989.737	2802.89
990.035	2744.14
990.332	2770.12
990.63	2731.26
990.927	2754.76
991.224	2722.44
991.521	2700.3
991.819	2682.44
992.116	2679.05
992.413	2600.41
992.71	2664.82
993.006	2623.91
993.303	2565.61
993.6	2613.07
993.897	2578.49
994.193	2573.97
994.49	2558.61
994.787	2525.84
995.083	2529.23
995.379	2504.6
995.676	2513.63
995.972	2480.42
996.268	2444.26
996.565	2464.6
996.861	2452.17
997.157	2402.45
997.453	2437.25
997.749	2360.87
998.044	2379.4
998.34	2374.2
998.636	2364.26
998.932	2348.89
999.227	2315.9
999.523	2316.8
999.818	2291.95
1000.114	2309.35
1000.409	2297.14
1000.704	2249.69
1001	2250.59
1001.295	2237.94
1001.59	2230.48
1001.885	2231.61
1002.18	2200.2
1002.475	2177.15
1002.77	2178.28
1003.065	2204.04
1003.359	2167.43
1003.654	2174.66
1003.949	2114.1
1004.243	2139.18
1004.538	2149.12
1004.832	2121.78
1005.127	2104.61
1005.421	2105.06
1005.715	2080.88
1006.009	2075.91
1006.304	2068.67
1006.598	2043.14
1006.892	2058.51
1007.186	2041.33
1007.48	2034.78
1007.773	1997.72
1008.067	2003.37
1008.361	1990.48
1008.655	1975.8
1008.948	1944.38
1009.242	1962.01
1009.535	1962.24
1009.829	1945.06
1010.122	1936.7
1010.415	1914.1
1010.708	1915.23
1011.001	1911.16
1011.295	1907.32
1011.588	1890.37
1011.881	1911.62
1012.173	1916.14
1012.466	1894.89
1012.759	1866.87
1013.052	1880.43
1013.344	1854.67
1013.637	1823.03
1013.93	1818.96
1014.222	1834.33
1014.514	1807.89
1014.807	1767.21
1015.099	1804.05
1015.391	1740.32
1015.683	1752.75
1015.976	1753.65
1016.268	1753.88
1016.56	1745.52
1016.851	1694.22
1017.143	1696.71
1017.435	1709.59
1017.727	1692.19
1018.018	1669.59
1018.31	1643.83
1018.602	1632.75
1018.893	1635.24
1019.185	1635.69
1019.476	1618.97
1019.767	1629.36
1020.058	1596.82
1020.35	1568.8
1020.641	1573.77
1020.932	1561.8
1021.223	1583.94
1021.514	1559.76
1021.804	1522.02
1022.095	1520.89
1022.386	1512.98
1022.677	1500.55
1022.967	1513.66
1023.258	1508.01
1023.548	1481.35
1023.839	1437.5
1024.129	1458.29
1024.419	1440.89
1024.709	1447.9
1025	1415.81
1025.29	1402.93
1025.58	1382.59
1025.87	1409.93
1026.16	1407.9
1026.449	1370.84
1026.739	1363.61
1027.029	1347.79
1027.319	1359.31
1027.608	1345.76
1027.898	1343.72
1028.187	1312.54
1028.477	1316.38
1028.766	1295.14
1029.055	1290.62
1029.344	1271.86
1029.634	1253.33
1029.923	1261.24
1030.212	1263.5
1030.501	1233.89
1030.79	1206.55
1031.078	1227.11
1031.367	1220.79
1031.656	1217.62
1031.945	1202.48
1032.233	1209.04
1032.522	1189.15
1032.81	1192.77
1033.099	1178.98
1033.387	1166.55
1033.675	1157.29
1033.963	1150.05
1034.251	1153.44
1034.54	1168.13
1034.828	1133.11
1035.116	1156.38
1035.403	1155.03
1035.691	1123.39
1035.979	1110.28
1036.267	1102.37
1036.554	1079.1
1036.842	1078.87
1037.129	1081.13
1037.417	1091.3
1037.704	1087.01
1037.992	1043.84
1038.279	1064.18
1038.566	1049.94
1038.853	1049.94
1039.14	1049.94
