Data from blue_surface_keyboard_FLMS001491_006.txt Node
Date: Tue Feb 07 11:12:33 GMT 2017
User: dcchb
Spectrometer: FLMS00149
Trigger mode: 0
Integration Time (sec): 2.000000E-2
Scans to average: 10
Electric dark correction enabled: true
Nonlinearity correction enabled: false
Boxcar width: 0
XAxis mode: Wavelengths
Number of Pixels in Spectrum: 2048
>>>>>Begin Spectral Data<<<<<
341.393	6.62
341.776	6.62
342.16	6.62
342.543	-60.72
342.927	-63.88
343.31	-70.44
343.693	-67.95
344.077	-54.84
344.46	-59.14
344.843	-42.87
345.226	-40.83
345.61	-30.44
345.993	-33.37
346.376	-7.84
346.759	19.28
347.142	19.51
347.525	65.38
347.908	54.98
348.291	63.35
348.674	79.84
349.057	105.38
349.44	119.39
349.823	156.45
350.206	140.41
350.588	189.44
350.971	174.98
351.354	201.87
351.737	199.16
352.119	229.67
352.502	238.71
352.884	239.16
353.267	249.78
353.65	267.18
354.032	283.68
354.414	296.11
354.797	299.72
355.179	297.92
355.562	283.45
355.944	309.22
356.326	302.44
356.709	320.06
357.091	330.01
357.473	303.11
357.855	327.29
358.238	323
358.62	307.63
359.002	313.73
359.384	321.87
359.766	321.87
360.148	328.42
360.53	317.35
360.912	334.3
361.294	295.43
361.676	315.32
362.057	309.22
362.439	304.02
362.821	299.95
363.203	307.41
363.584	287.75
363.966	294.3
364.348	299.72
364.729	285.26
365.111	284.81
365.493	272.61
365.874	306.28
366.256	297.92
366.637	292.72
367.019	304.24
367.4	290.23
367.781	301.76
368.163	298.59
368.544	280.06
368.925	292.04
369.306	313.06
369.688	285.71
370.069	292.27
370.45	289.1
370.831	267.63
371.212	276.22
371.593	288.88
371.974	301.53
372.355	277.8
372.736	275.77
373.117	280.52
373.498	309.22
373.879	292.04
374.26	281.42
374.641	296.56
375.021	291.36
375.402	303.11
375.783	294.3
376.163	306.05
376.544	284.58
376.925	297.24
377.305	281.42
377.686	309.22
378.066	287.75
378.447	293.17
378.827	311.47
379.208	287.52
379.588	299.5
379.968	298.14
380.349	299.27
380.729	291.36
381.109	292.49
381.489	298.59
381.87	297.24
382.25	311.47
382.63	304.24
383.01	319.16
383.39	283.68
383.77	291.59
384.15	295.66
384.53	313.06
384.91	318.71
385.29	294.53
385.67	314.86
386.049	326.16
386.429	303.34
386.809	328.2
387.189	328.2
387.568	290.46
387.948	296.56
388.328	309.44
388.707	337.24
389.087	288.42
389.466	325.71
389.846	328.42
390.225	309.22
390.605	318.25
390.984	294.07
391.363	327.97
391.743	312.6
392.122	322.77
392.501	328.65
392.881	325.94
393.26	311.02
393.639	303.57
394.018	341.3
394.397	330.68
394.776	327.52
395.155	327.07
395.534	314.86
395.913	332.94
396.292	334.53
396.671	333.4
397.05	313.96
397.429	315.99
397.808	336.78
398.186	317.58
398.565	317.35
398.944	352.83
399.323	335.88
399.701	329.78
400.08	341.08
400.458	328.42
400.837	316.67
401.215	355.09
401.594	333.62
401.972	362.77
402.351	347.63
402.729	347.41
403.107	355.77
403.486	345.15
403.864	350.34
404.242	358.48
404.62	339.27
404.999	358.03
405.377	370.23
405.755	359.38
406.133	363.22
406.511	349.44
406.889	335.88
407.267	390.79
407.645	352.83
408.023	352.83
408.401	353.96
408.779	354.64
409.156	367.52
409.534	368.87
409.912	351.02
410.29	369.33
410.667	381.3
411.045	374.98
411.422	373.62
411.8	390.34
412.178	373.17
412.555	374.75
412.933	392.83
413.31	364.81
413.687	381.53
414.065	377.69
414.442	381.3
414.819	388.76
415.197	374.3
415.574	390.57
415.951	383.56
416.328	397.12
416.705	386.73
417.082	401.42
417.46	390.34
417.837	381.08
418.214	414.07
418.591	377.01
418.967	388.99
419.344	388.76
419.721	403.9
420.098	381.98
420.475	393.73
420.852	414.3
421.228	397.57
421.605	397.57
421.982	391.02
422.358	425.6
422.735	397.57
423.111	394.64
423.488	408.42
423.864	422.88
424.241	435.54
424.617	435.99
424.994	411.13
425.37	408.42
425.746	423.11
426.123	433.73
426.499	426.27
426.875	426.05
427.251	427.4
427.627	408.2
428.003	457.23
428.379	436.44
428.756	423.11
429.132	457.01
429.507	447.74
429.883	417.46
430.259	454.97
430.635	443
431.011	447.97
431.387	456.56
431.763	476.89
432.138	455.2
432.514	458.59
432.89	452.49
433.265	465.6
433.641	483.22
434.016	487.97
434.392	456.1
434.767	498.81
435.143	462.21
435.518	460.17
435.894	494.07
436.269	475.99
436.644	466.5
437.02	471.47
437.395	481.64
437.77	507.18
438.145	485.71
438.52	505.14
438.895	480.28
439.271	508.76
439.646	496.1
440.021	494.97
440.395	487.74
440.77	528.64
441.145	507.18
441.52	531.58
441.895	518.7
442.27	515.09
442.645	523.45
443.019	527.29
443.394	516.22
443.769	536.55
444.143	534.07
444.518	511.47
444.892	537.46
445.267	520.28
445.641	539.04
446.016	525.25
446.39	544.92
446.764	537.91
447.139	534.07
447.513	524.35
447.887	529.77
448.262	533.16
448.636	545.37
449.01	541.53
449.384	536.1
449.758	552.37
450.132	564.12
450.506	567.06
450.88	548.76
451.254	564.12
451.628	546.72
452.002	574.52
452.376	559.15
452.75	574.29
453.123	599.38
453.497	598.25
453.871	593.95
454.244	595.76
454.618	601.41
454.992	576.55
455.365	592.37
455.739	616.78
456.112	593.95
456.486	599.83
456.859	599.15
457.232	619.26
457.606	619.94
457.979	629.43
458.352	639.6
458.725	642.99
459.099	642.77
459.472	634.18
459.845	626.95
460.218	626.95
460.591	654.52
460.964	640.05
461.337	655.42
461.71	655.19
462.083	657
462.456	663.56
462.829	678.92
463.201	689.54
463.574	663.78
463.947	690.22
464.32	669.66
464.692	702.65
465.065	668.53
465.438	709.66
465.81	727.51
466.183	715.53
466.555	717.34
466.928	704.68
467.3	714.85
467.672	726.38
468.045	725.7
468.417	744.01
468.789	720.05
469.161	746.27
469.534	750.33
469.906	751.46
470.278	775.87
470.65	765.7
471.022	791.24
471.394	782.87
471.766	764.57
472.138	777.45
472.51	813.61
472.882	818.58
473.253	839.82
473.625	825.59
473.997	823.55
474.369	847.05
474.74	833.5
475.112	847.73
475.484	835.08
475.855	860.16
476.227	860.39
476.598	873.49
476.97	886.83
477.341	897.9
477.713	914.4
478.084	892.02
478.455	926.37
478.827	938.35
479.198	948.29
479.569	958.01
479.94	970.21
480.311	948.52
480.682	971.34
481.053	973.83
481.424	992.59
481.795	996.88
482.166	1020.61
482.537	1043.66
482.908	1030.78
483.279	1024.45
483.65	1015.41
484.021	1049.53
484.391	1054.51
484.762	1045.92
485.133	1083.43
485.503	1093.38
485.874	1109.42
486.244	1110.78
486.615	1113.71
486.985	1124.11
487.356	1135.63
487.726	1148.97
488.097	1148.74
488.467	1155.52
488.837	1164.11
489.207	1163.43
489.578	1166.82
489.948	1198.01
490.318	1235.52
490.688	1179.7
491.058	1209.08
491.428	1192.13
491.798	1216.08
492.168	1215.18
492.538	1220.6
492.908	1265.8
493.278	1238
493.648	1249.76
494.017	1268.06
494.387	1274.84
494.757	1285.01
495.126	1296.99
495.496	1281.84
495.866	1278.68
496.235	1282.07
496.605	1308.51
496.974	1290.66
497.344	1301.51
497.713	1287.27
498.082	1311.67
498.452	1339.02
498.821	1314.16
499.19	1307.83
499.559	1340.15
499.928	1331.79
500.298	1367.94
500.667	1346.02
501.036	1337.89
501.405	1343.99
501.774	1342.63
502.143	1351
502.512	1359.81
502.88	1349.64
503.249	1357.32
503.618	1377.89
503.987	1380.83
504.356	1391.67
504.724	1383.99
505.093	1363.88
505.462	1367.72
505.83	1405.68
506.199	1369.75
506.567	1381.73
506.936	1390.54
507.304	1391.45
507.672	1390.54
508.041	1408.85
508.409	1434.16
508.777	1406.14
509.145	1416.3
509.514	1420.15
509.882	1409.98
510.25	1413.82
510.618	1407.94
510.986	1424.44
511.354	1453.14
511.722	1445.91
512.09	1429.64
512.458	1419.69
512.826	1441.16
513.193	1443.42
513.561	1467.15
513.929	1435.97
514.297	1451.33
514.664	1482.07
515.032	1478.22
515.4	1455.4
515.767	1454.27
516.135	1466.92
516.502	1471.9
516.869	1503.08
517.237	1467.83
517.604	1461.73
517.972	1475.06
518.339	1493.14
518.706	1468.51
519.073	1470.77
519.44	1461.73
519.808	1472.57
520.175	1487.72
520.542	1472.12
520.909	1482.74
521.276	1497.66
521.643	1533.59
522.009	1506.7
522.376	1544.66
522.743	1477.55
523.11	1504.44
523.477	1526.81
523.843	1522.97
524.21	1531.78
524.577	1536.53
524.943	1537.21
525.31	1510.54
525.676	1550.09
526.043	1531.78
526.409	1551.67
526.776	1557.09
527.142	1570.42
527.508	1548.73
527.874	1532.23
528.241	1549.18
528.607	1568.39
528.973	1577.66
529.339	1560.71
529.705	1571.55
530.071	1584.66
530.437	1576.07
530.803	1601.84
531.169	1578.79
531.535	1587.15
531.901	1571.78
532.267	1589.41
532.632	1597.54
532.998	1625.11
533.364	1609.07
533.73	1570.65
534.095	1595.51
534.461	1606.36
534.826	1608.84
535.192	1618.33
535.557	1617.88
535.923	1626.69
536.288	1653.81
536.653	1633.7
537.019	1584.89
537.384	1603.42
537.749	1615.85
538.114	1602.51
538.479	1627.15
538.845	1597.77
539.21	1596.86
539.575	1609.29
539.94	1595.73
540.305	1630.54
540.67	1625.34
541.034	1606.81
541.399	1642.74
541.764	1633.25
542.129	1618.79
542.494	1613.14
542.858	1653.13
543.223	1629.18
543.587	1622.4
543.952	1614.72
544.316	1627.82
544.681	1634.38
545.045	1634.6
545.41	1616.98
545.774	1633.25
546.138	1623.98
546.503	1612.01
546.867	1639.8
547.231	1644.1
547.595	1635.51
547.959	1616.07
548.324	1636.41
548.688	1635.51
549.052	1626.02
549.416	1611.33
549.779	1640.03
550.143	1633.7
550.507	1641.84
550.871	1627.15
551.235	1630.31
551.599	1630.08
551.962	1637.99
552.326	1664.66
552.689	1646.81
553.053	1646.13
553.417	1664.21
553.78	1646.81
554.143	1645
554.507	1657.88
554.87	1678.44
555.234	1673.02
555.597	1659.69
555.96	1672.12
556.323	1674.6
556.686	1631.21
557.05	1650.2
557.413	1650.87
557.776	1669.63
558.139	1651.55
558.502	1654.49
558.865	1653.13
559.228	1667.6
559.59	1670.99
559.953	1683.64
560.316	1656.98
560.679	1695.85
561.041	1682.29
561.404	1678.67
561.767	1719.8
562.129	1635.51
562.492	1696.75
562.854	1658.78
563.217	1694.49
563.579	1672.79
563.941	1736.97
564.304	1725.45
564.666	1713.47
565.028	1708.73
565.39	1692.46
565.753	1694.94
566.115	1699.91
566.477	1719.35
566.839	1724.09
567.201	1756.18
567.563	1735.39
567.925	1728.16
568.287	1754.83
568.648	1743.3
569.01	1740.59
569.372	1744.21
569.734	1778.55
570.095	1739.91
570.457	1732.91
570.819	1737.43
571.18	1714.6
571.542	1755.96
571.903	1780.36
572.265	1736.3
572.626	1754.15
572.987	1773.36
573.349	1766.8
573.71	1787.14
574.071	1791.44
574.432	1763.87
574.794	1774.26
575.155	1762.06
575.516	1788.27
575.877	1781.72
576.238	1774.04
576.599	1785.56
576.96	1748.05
577.32	1774.26
577.681	1811.1
578.042	1785.11
578.403	1780.81
578.763	1807.48
579.124	1816.52
579.485	1812.9
579.845	1784.88
580.206	1766.8
580.566	1800.25
580.927	1822.62
581.287	1799.57
581.648	1781.27
582.008	1786.24
582.368	1811.32
582.728	1812.23
583.089	1811.1
583.449	1787.14
583.809	1790.98
584.169	1804.09
584.529	1831.43
584.889	1810.42
585.249	1834.82
585.609	1828.05
585.969	1842.28
586.329	1804.54
586.688	1832.34
587.048	1799.57
587.408	1840.93
587.768	1823.3
588.127	1809.74
588.487	1807.48
588.846	1840.25
589.206	1812.23
589.565	1833.24
589.925	1801.38
590.284	1838.67
590.643	1828.95
591.003	1829.18
591.362	1839.8
591.721	1845.9
592.08	1835.28
592.44	1829.18
592.799	1851.32
593.158	1829.63
593.517	1823.53
593.876	1834.82
594.235	1793.92
594.593	1851.55
594.952	1832.11
595.311	1846.58
595.67	1821.49
596.029	1846.12
596.387	1873.02
596.746	1828.5
597.104	1883.64
597.463	1836.41
597.822	1837.76
598.18	1836.63
598.538	1884.99
598.897	1849.29
599.255	1863.75
599.613	1853.36
599.972	1883.18
600.33	1866.01
600.688	1857.2
601.046	1868.27
601.404	1878.21
601.762	1863.75
602.12	1854.94
602.478	1906.91
602.836	1904.65
603.194	1868.27
603.552	1896.74
603.91	1850.42
604.268	1908.5
604.625	1882.28
604.983	1885.22
605.341	1883.86
605.698	1883.18
606.056	1849.06
606.413	1875.95
606.771	1888.61
607.128	1893.81
607.485	1894.71
607.843	1901.49
608.2	1936.29
608.557	1884.09
608.914	1918.21
609.272	1909.62
609.629	1894.48
609.986	1924.31
610.343	1902.62
610.7	1900.81
611.057	1909.4
611.414	1930.19
611.771	1925.9
612.127	1923.64
612.484	1934.48
612.841	1945.33
613.198	1956.86
613.554	1922.73
613.911	1940.81
614.267	1950.08
614.624	1919.12
614.98	1972
615.337	1966.35
615.693	1962.28
616.05	1976.06
616.406	1965.89
616.762	1971.09
617.118	1976.06
617.475	1982.84
617.831	1968.15
618.187	1997.53
618.543	1978.78
618.899	1995.5
619.255	1982.84
619.611	1991.2
619.967	2007.02
620.323	1979.45
620.678	2057.42
621.034	1997.53
621.39	2018.55
621.746	2004.54
622.101	2031.2
622.457	2003.63
622.812	2007.25
623.168	2020.81
623.523	2029.62
623.879	2025.33
624.234	2026.68
624.589	2063.52
624.945	2009.06
625.3	2063.07
625.655	2053.58
626.01	2051.77
626.365	2075.5
626.72	2038.66
627.075	2049.51
627.43	2049.51
627.785	2077.53
628.14	2066.68
628.495	2043.18
628.85	2070.98
629.205	2062.16
629.559	2064.2
629.914	2063.52
630.269	2071.43
630.623	2089.06
630.978	2113.46
631.332	2122.27
631.687	2127.47
632.041	2109.39
632.396	2088.6
632.75	2102.16
633.104	2082.05
633.459	2100.35
633.813	2111.43
634.167	2100.13
634.521	2119.34
634.875	2122.95
635.229	2155.27
635.583	2130.64
635.937	2151.43
636.291	2117.53
636.645	2115.95
636.999	2149.62
637.352	2139.45
637.706	2134.93
638.06	2146.23
638.413	2148.71
638.767	2164.31
639.121	2179.22
639.474	2150.52
639.828	2195.72
640.181	2176.06
640.534	2183.52
640.888	2191.88
641.241	2177.19
641.594	2208.6
641.947	2194.82
642.301	2213.35
642.654	2215.83
643.007	2251.76
643.36	2246.34
643.713	2236.85
644.066	2262.84
644.419	2247.02
644.771	2223.29
645.124	2201.37
645.477	2240.46
645.83	2240.24
646.182	2250.63
646.535	2244.53
646.888	2238.2
647.24	2209.73
647.593	2256.06
647.945	2271.2
648.298	2258.09
648.65	2266
649.002	2240.24
649.355	2295.83
649.707	2277.75
650.059	2292.44
650.411	2354.81
650.763	2332.66
651.115	2368.37
651.467	2361.36
651.819	2427.8
652.171	2450.85
652.523	2394.13
652.875	2393.23
653.227	2421.93
653.578	2435.03
653.93	2467.35
654.282	2454.24
654.633	2449.95
654.985	2441.81
655.337	2445.88
655.688	2479.55
656.039	2489.95
656.391	2489.04
656.742	2510.97
657.094	2509.61
657.445	2543.73
657.796	2549.38
658.147	2552.55
658.498	2562.49
658.849	2610.62
659.2	2609.95
659.551	2629.83
659.902	2631.19
660.253	2639.32
660.604	2642.04
660.955	2638.65
661.306	2695.37
661.656	2650.85
662.007	2681.36
662.358	2682.94
662.708	2663.28
663.059	2748.7
663.409	2751.41
663.76	2754.57
664.11	2763.16
664.461	2774.01
664.811	2770.85
665.161	2819.43
665.511	2811.3
665.862	2822.6
666.212	2834.12
666.562	2845.42
666.912	2861.46
667.262	2877.28
667.612	2884.29
667.962	2931.07
668.312	2926.55
668.662	2932.65
669.011	2951.86
669.361	2921.35
669.711	2951.18
670.06	2990.5
670.41	2988.69
670.76	2992.08
671.109	3024.85
671.459	3044.96
671.808	3058.07
672.157	3026.88
672.507	3086.54
672.856	3065.53
673.205	3102.59
673.554	3087.67
673.904	3117.95
674.253	3158.63
674.602	3140.33
674.951	3122.02
675.3	3127.22
675.649	3190.5
675.998	3171.06
676.346	3206.31
676.695	3206.77
677.044	3248.12
677.393	3216.26
677.741	3268.91
678.09	3263.26
678.438	3246.31
678.787	3279.98
679.135	3309.59
679.484	3265.97
679.832	3292.41
680.181	3297.61
680.529	3322.7
680.877	3341.68
681.225	3350.72
681.573	3345.97
681.922	3356.82
682.27	3376.48
682.618	3370.83
682.966	3358.85
683.314	3417.38
683.661	3416.7
684.009	3412.41
684.357	3382.58
684.705	3402.69
685.053	3421
685.4	3415.35
685.748	3428.46
686.095	3460.09
686.443	3404.5
686.79	3456.93
687.138	3486.31
687.485	3472.75
687.832	3457.38
688.18	3471.39
688.527	3507.77
688.874	3510.71
689.221	3484.5
689.568	3516.14
689.915	3520.88
690.262	3545.74
690.609	3505.74
690.956	3517.04
691.303	3526.98
691.65	3536.02
691.997	3538.51
692.344	3533.99
692.69	3552.52
693.037	3542.8
693.383	3544.38
693.73	3533.31
694.077	3498.28
694.423	3528.11
694.769	3527.66
695.116	3540.77
695.462	3554.33
695.808	3518.62
696.155	3541.45
696.501	3531.73
696.847	3568.34
697.193	3487.21
697.539	3538.73
697.885	3540.09
698.231	3512.29
698.577	3568.56
698.923	3497.15
699.269	3510.03
699.614	3518.85
699.96	3539.19
700.306	3542.8
700.651	3470.49
700.997	3504.16
701.342	3526.08
701.688	3515.23
702.033	3500.54
702.379	3491.73
702.724	3493.76
703.069	3513.65
703.415	3463.93
703.76	3462.35
704.105	3482.92
704.45	3489.7
704.795	3461.67
705.14	3444.27
705.485	3447.89
705.83	3470.94
706.175	3425.97
706.52	3407.44
706.865	3432.75
707.209	3451.73
707.554	3449.02
707.899	3459.19
708.243	3441.34
708.588	3437.95
708.932	3403.37
709.277	3398.85
709.621	3429.13
709.966	3392.07
710.31	3411.73
710.654	3378.96
710.998	3432.52
711.342	3415.8
711.687	3408.79
712.031	3381.68
712.375	3405.86
712.719	3391.39
713.063	3343.49
713.407	3420.77
713.75	3402.69
714.094	3340.77
714.438	3366.54
714.782	3401.11
715.125	3350.94
715.469	3392.3
715.812	3385.29
716.156	3366.54
716.499	3393.65
716.843	3393.43
717.186	3346.2
717.53	3398.4
717.873	3404.05
718.216	3390.26
718.559	3383.26
718.902	3364.5
719.246	3355.01
719.589	3341.68
719.932	3375.35
720.275	3328.12
720.617	3321.79
720.96	3406.99
721.303	3371.28
721.646	3392.98
721.989	3377.61
722.331	3334.45
722.674	3366.54
723.016	3393.88
723.359	3386.65
723.701	3382.81
724.044	3384.84
724.386	3356.37
724.729	3360.89
725.071	3378.29
725.413	3381
725.755	3403.6
726.097	3373.77
726.439	3360.66
726.782	3317.95
727.124	3402.02
727.465	3387.1
727.807	3352.07
728.149	3362.69
728.491	3387.55
728.833	3362.92
729.175	3352.98
729.516	3373.54
729.858	3394.56
730.199	3400.89
730.541	3405.18
730.882	3414.9
731.224	3393.88
731.565	3353.65
731.906	3395.69
732.248	3390.04
732.589	3379.64
732.93	3394.56
733.271	3385.07
733.612	3435.01
733.953	3388.46
734.294	3412.64
734.635	3417.16
734.976	3401.34
735.317	3370.15
735.658	3373.09
735.999	3411.05
736.339	3400.21
736.68	3420.32
737.021	3449.92
737.361	3411.96
737.702	3469.81
738.042	3467.1
738.383	3423.71
738.723	3440.21
739.063	3473.43
739.404	3488.57
739.744	3433.43
740.084	3460.54
740.424	3475.91
740.764	3458.06
741.104	3524.27
741.444	3469.58
741.784	3478.85
742.124	3486.76
742.464	3487.66
742.804	3511.84
743.143	3515.68
743.483	3562.24
743.823	3561.33
744.162	3560.43
744.502	3559.75
744.841	3584.61
745.181	3613.76
745.52	3601.33
745.86	3633.87
746.199	3628.22
746.538	3631.16
746.877	3712.29
747.216	3655.57
747.556	3673.42
747.895	3714.32
748.234	3718.62
748.573	3781.21
748.911	3702.12
749.25	3739.63
749.589	3736.47
749.928	3773.08
750.267	3850.36
750.605	3856.24
750.944	3802
751.283	3829.35
751.621	3859.86
751.96	3849.69
752.298	3869.12
752.636	3891.49
752.975	3903.7
753.313	3924.04
753.651	3967.42
753.989	3988.21
754.327	3966.75
754.666	4023.24
755.004	4002
755.342	4067.99
755.679	4045.39
756.017	4089.23
756.355	4090.81
756.693	4113.63
757.031	4136.01
757.368	4149.11
757.706	4170.81
758.044	4206.51
758.381	4210.13
758.719	4178.27
759.056	4243.57
759.394	4194.99
759.731	4246.29
760.068	4250.35
760.405	4267.76
760.743	4258.72
761.08	4334.87
761.417	4283.8
761.754	4314.76
762.091	4325.61
762.428	4307.98
762.765	4321.76
763.102	4371.93
763.438	4348.43
763.775	4331.03
764.112	4366.51
764.449	4381.65
764.785	4349.33
765.122	4364.48
765.458	4376.9
765.795	4368.77
766.131	4358.6
766.467	4394.53
766.804	4447.64
767.14	4341.88
767.476	4385.94
767.812	4385.49
768.148	4458.48
768.485	4361.99
768.821	4393.85
769.157	4439.28
769.492	4416
769.828	4394.76
770.164	4384.36
770.5	4397.92
770.836	4378.94
771.171	4380.75
771.507	4399.05
771.842	4427.3
772.178	4392.05
772.513	4390.69
772.849	4385.27
773.184	4365.15
773.519	4324.48
773.855	4360.18
774.19	4311.14
774.525	4334.42
774.86	4324.93
775.195	4343.23
775.53	4314.99
775.865	4339.39
776.2	4274.08
776.535	4252.39
776.87	4257.36
777.205	4280.18
777.539	4257.36
777.874	4241.77
778.209	4250.35
778.543	4194.76
778.878	4194.99
779.212	4174.88
779.547	4170.81
779.881	4218.49
780.215	4167.19
780.55	4211.26
780.884	4134.43
781.218	4185.95
781.552	4155.22
781.886	4166.29
782.22	4098.95
782.554	4118.38
782.888	4060.98
783.222	4026.63
783.556	4056.46
783.889	4051.72
784.223	4004.71
784.557	4000.64
784.89	4000.42
785.224	3995.22
785.557	3973.3
785.891	3972.62
786.224	3969.46
786.558	3994.99
786.891	3897.37
787.224	3923.58
787.557	3932.62
787.891	3907.09
788.224	3903.7
788.557	3899.4
788.89	3886.07
789.223	3893.08
789.556	3863.7
789.888	3862.34
790.221	3860.76
790.554	3830.48
790.887	3809.24
791.219	3796.81
791.552	3796.81
791.884	3781.89
792.217	3751.61
792.549	3800.65
792.882	3729.92
793.214	3769.24
793.546	3752.74
793.879	3709.35
794.211	3725.85
794.543	3720.42
794.875	3707.09
795.207	3739.86
795.539	3691.72
795.871	3689.24
796.203	3658.96
796.535	3629.58
796.867	3651.05
797.198	3620.54
797.53	3641.33
797.862	3602.46
798.193	3637.26
798.525	3610.6
798.856	3576.25
799.188	3561.78
799.519	3549.36
799.85	3529.7
800.182	3554.78
800.513	3552.07
800.844	3475.69
801.175	3536.02
801.506	3539.41
801.837	3473.2
802.168	3550.26
802.499	3489.24
802.83	3482.69
803.161	3458.28
803.491	3422.81
803.822	3467.78
804.153	3437.95
804.483	3355.46
804.814	3425.52
805.145	3401.34
805.475	3419.19
805.805	3386.2
806.136	3407.44
806.466	3380.32
806.796	3365.63
807.126	3386.65
807.457	3390.04
807.787	3324.28
808.117	3332.64
808.447	3316.37
808.777	3340.55
809.107	3373.77
809.436	3338.51
809.766	3312.98
810.096	3342.36
810.426	3275.69
810.755	3291.74
811.085	3289.93
811.414	3267.33
811.744	3270.95
812.073	3257.16
812.403	3239.31
812.732	3263.71
813.061	3260.1
813.39	3181.23
813.719	3177.84
814.049	3211.96
814.378	3209.03
814.707	3252.64
815.036	3187.11
815.365	3178.97
815.693	3148.46
816.022	3165.19
816.351	3154.79
816.68	3152.98
817.008	3148.01
817.337	3133.77
817.665	3158.86
817.994	3105.53
818.322	3138.07
818.651	3102.14
818.979	3075.24
819.307	3108.92
819.636	3100.55
819.964	3087.9
820.292	3073.21
820.62	3101.23
820.948	3115.02
821.276	3109.37
821.604	3104.4
821.932	3083.15
822.259	3070.72
822.587	3108.01
822.915	3046.09
823.243	3095.81
823.57	3094.45
823.898	3070.72
824.225	3070.27
824.553	3078.63
824.88	3100.1
825.207	3103.27
825.535	3076.37
825.862	3075.02
826.189	3089.71
826.516	3096.26
826.843	3104.85
827.17	3074.79
827.497	3103.72
827.824	3078.18
828.151	3104.62
828.478	3076.6
828.805	3077.5
829.131	3081.8
829.458	3108.92
829.785	3030.5
830.111	3045.87
830.438	3101.68
830.764	3057.17
831.09	3079.54
831.417	3076.83
831.743	3066.2
832.069	3068.01
832.395	3082.02
832.722	3080.22
833.048	3084.96
833.374	3012.87
833.7	3070.27
834.026	3049.03
834.351	3044.96
834.677	3022.14
835.003	3061.69
835.329	3049.48
835.654	3011.06
835.98	3026.66
836.306	3048.8
836.631	3058.75
836.956	3024.62
837.282	3036.6
837.607	3001.12
837.932	3011.97
838.258	3012.19
838.583	3012.87
838.908	2995.25
839.233	2996.38
839.558	2994.57
839.883	2944.17
840.208	2966.55
840.533	2978.98
840.858	2984.4
841.182	2952.08
841.507	2967.22
841.832	2923.16
842.156	2924.29
842.481	2945.53
842.805	2947.11
843.13	2901.46
843.454	2921.8
843.778	2914.57
844.103	2920.9
844.427	2887.68
844.751	2930.84
845.075	2874.12
845.399	2902.14
845.723	2881.8
846.047	2916.15
846.371	2864.63
846.695	2893.33
847.019	2848.36
847.343	2825.76
847.666	2802.48
847.99	2792.31
848.313	2818.08
848.637	2840.22
848.96	2786.21
849.284	2772.65
849.607	2753.44
849.931	2767.91
850.254	2749.15
850.577	2752.31
850.9	2716.38
851.223	2729.49
851.546	2668.25
851.869	2689.27
852.192	2704.86
852.515	2693.33
852.838	2696.72
853.161	2664.86
853.483	2668.02
853.806	2675.93
854.129	2687.46
854.451	2615.14
854.774	2630.51
855.096	2652.2
855.419	2599.78
855.741	2619.44
856.063	2595.93
856.385	2626.22
856.708	2588.48
857.03	2570.62
857.352	2585.31
857.674	2583.28
857.996	2550.96
858.318	2523.62
858.64	2542.83
858.961	2530.63
859.283	2511.42
859.605	2558.42
859.926	2522.72
860.248	2517.29
860.57	2497.63
860.891	2524.75
861.212	2506.67
861.534	2476.84
861.855	2483.4
862.176	2475.94
862.498	2496.73
862.819	2458.54
863.14	2483.85
863.461	2450.4
863.782	2475.26
864.103	2475.49
864.424	2470.29
864.745	2463.51
865.065	2458.09
865.386	2436.84
865.707	2446.33
866.027	2430.74
866.348	2448.82
866.668	2461.7
866.989	2436.84
867.309	2433
867.63	2417.86
867.95	2417.86
868.27	2411.08
868.59	2401.82
868.91	2404.3
869.23	2404.08
869.55	2390.52
869.87	2413.57
870.19	2410.63
870.51	2437.29
870.83	2380.12
871.15	2392.55
871.469	2371.53
871.789	2380.12
872.109	2390.74
872.428	2356.62
872.748	2371.08
873.067	2367.24
873.386	2343.74
873.706	2375.6
874.025	2367.24
874.344	2358.88
874.663	2336.28
874.982	2338.54
875.301	2360.01
875.62	2339.22
875.939	2324.08
876.258	2345.09
876.577	2340.35
876.896	2333.34
877.214	2336.96
877.533	2322.04
877.852	2331.31
878.17	2301.93
878.489	2326.56
878.807	2302.83
879.125	2329.95
879.444	2299.22
879.762	2314.13
880.08	2288.82
880.398	2316.62
880.716	2320.46
881.034	2268.49
881.352	2271.42
881.67	2270.75
881.988	2295.38
882.306	2266.45
882.624	2269.62
882.941	2254.47
883.259	2244.08
883.577	2228.03
883.894	2251.99
884.212	2221.48
884.529	2233.91
884.846	2213.57
885.164	2254.7
885.481	2215.61
885.798	2225.1
886.115	2210.63
886.432	2237.53
886.75	2212.89
887.067	2209.73
887.383	2190.07
887.7	2218.77
888.017	2183.97
888.334	2175.83
888.651	2185.78
888.967	2179.67
889.284	2174.93
889.6	2149.84
889.917	2151.65
890.233	2150.75
890.55	2109.39
890.866	2153.01
891.182	2168.15
891.498	2185.78
891.815	2120.69
892.131	2140.35
892.447	2100.13
892.763	2101.94
893.079	2081.15
893.395	2130.86
893.71	2068.26
894.026	2071.43
894.342	2076.85
894.657	2088.15
894.973	2073.24
895.289	2101.03
895.604	2084.99
895.92	2035.95
896.235	2019.45
896.55	2064.88
896.865	2042.5
897.181	2035.5
897.496	2025.55
897.811	2021.26
898.126	2012.9
898.441	2016.29
898.756	2016.06
899.071	2004.76
899.386	1994.82
899.7	1957.31
900.015	1973.8
900.33	1975.16
900.644	1997.98
900.959	1965.44
901.273	1965.44
901.588	1958.44
901.902	1990.53
902.216	1925.22
902.531	1939
902.845	1949.17
903.159	1935.16
903.473	1894.94
903.787	1940.58
904.101	1916.18
904.415	1959.34
904.729	1898.33
905.042	1875.73
905.356	1884.99
905.67	1888.61
905.984	1873.02
906.297	1877.76
906.611	1848.16
906.924	1879.57
907.237	1859.68
907.551	1831.43
907.864	1867.82
908.177	1827.59
908.491	1844.77
908.804	1842.96
909.117	1815.62
909.43	1816.97
909.743	1817.65
910.056	1801.15
910.368	1799.57
910.681	1779.46
910.994	1828.72
911.307	1793.7
911.619	1769.29
911.932	1789.63
912.244	1738.56
912.557	1754.37
912.869	1769.52
913.181	1751.44
913.494	1734.04
913.806	1712.34
914.118	1763.19
914.43	1698.56
914.742	1714.83
915.054	1720.25
915.366	1687.94
915.678	1700.36
915.99	1707.37
916.302	1685.68
916.613	1681.38
916.925	1677.31
917.236	1681.16
917.548	1701.49
917.859	1663.3
918.171	1638.9
918.482	1640.03
918.794	1632.34
919.105	1652
919.416	1636.64
919.727	1629.63
920.038	1632.34
920.349	1633.47
920.66	1594.83
920.971	1600.03
921.282	1592.12
921.593	1608.84
921.903	1596.41
922.214	1567.26
922.525	1591.44
922.835	1572.23
923.146	1555.28
923.456	1578.33
923.767	1543.31
924.077	1559.8
924.387	1548.73
924.697	1553.93
925.008	1541.05
925.318	1551.22
925.628	1519.35
925.938	1525.45
926.248	1523.87
926.558	1515.51
926.867	1505.34
927.177	1473.03
927.487	1501.95
927.796	1483.2
928.106	1504.44
928.416	1511.9
928.725	1482.97
929.034	1462.63
929.344	1470.54
929.653	1462.41
929.962	1468.73
930.271	1452.24
930.581	1446.81
930.89	1437.77
931.199	1456.53
931.508	1425.34
931.817	1434.38
932.125	1452.46
932.434	1429.86
932.743	1414.04
933.051	1403.65
933.36	1420.37
933.669	1403.65
933.977	1402.29
934.286	1391.67
934.594	1395.74
934.902	1358.45
935.21	1359.13
935.519	1376.53
935.827	1376.98
936.135	1365.23
936.443	1339.02
936.751	1350.32
937.059	1370.2
937.367	1357.1
937.674	1333.14
937.982	1338.11
938.29	1348.06
938.597	1348.96
938.905	1348.28
939.213	1331.56
939.52	1314.84
939.827	1333.82
940.135	1290.43
940.442	1301.28
940.749	1300.83
941.056	1309.64
941.363	1278
941.67	1311.67
941.977	1292.69
942.284	1280.26
942.591	1272.35
942.898	1228.74
943.205	1285.46
943.511	1245.24
943.818	1260.6
944.125	1260.15
944.431	1255.18
944.738	1250.21
945.044	1242.07
945.35	1271.9
945.657	1245.91
945.963	1231.9
946.269	1262.64
946.575	1206.82
946.881	1242.52
947.187	1219.02
947.493	1193.71
947.799	1217.44
948.105	1192.13
948.41	1216.76
948.716	1196.2
949.022	1165.24
949.327	1180.15
949.633	1215.63
949.938	1174.05
950.244	1158.46
950.549	1157.78
950.854	1162.98
951.16	1137.67
951.465	1139.48
951.77	1173.37
952.075	1147.16
952.38	1155.07
952.685	1153.71
952.99	1154.62
953.294	1155.07
953.599	1098.57
953.904	1115.3
954.209	1114.17
954.513	1137.89
954.818	1132.47
955.122	1103.77
955.426	1112.36
955.731	1098.57
956.035	1108.29
956.339	1108.29
956.643	1079.14
956.948	1099.7
957.252	1073.94
957.556	1085.01
957.86	1076.2
958.163	1071
958.467	1082.53
958.771	1066.26
959.075	1059.7
959.378	1059.25
959.682	1051.12
959.985	1064.9
960.289	1059.03
960.592	1071.23
960.896	1048.4
961.199	1047.27
961.502	1049.99
961.805	1031
962.108	1019.48
962.411	1025.58
962.714	1040.04
963.017	1009.31
963.32	1028.29
963.623	1019.25
963.926	1011.12
964.228	994.39
964.531	983.55
964.833	993.26
965.136	1015.41
965.438	1005.69
965.741	977.67
966.043	979.25
966.345	1019.48
966.648	1002.76
966.95	981.51
967.252	972.47
967.554	985.58
967.856	954.62
968.158	964.57
968.46	951.68
968.761	956.66
969.063	968.63
969.365	984
969.666	950.33
969.968	960.95
970.269	973.6
970.571	936.09
970.872	937.9
971.174	935.64
971.475	938.13
971.776	935.87
972.077	912.14
972.378	931.8
972.679	924.79
972.98	920.5
973.281	939.48
973.582	927.96
973.883	905.81
974.183	924.34
974.484	921.85
974.785	894.74
975.085	899.93
975.386	930.44
975.686	906.71
975.986	891.12
976.287	905.81
976.587	900.84
976.887	883.21
977.187	913.72
977.487	899.48
977.787	871.91
978.087	875.3
978.387	859.94
978.687	861.97
978.987	867.39
979.286	889.31
979.586	858.13
979.885	857.9
980.185	869.2
980.484	823.78
980.784	862.19
981.083	849.99
981.382	853.16
981.682	840.73
981.981	829.43
982.28	840.05
982.579	835.08
982.878	849.54
983.177	860.16
983.475	832.37
983.774	802.99
984.073	830.78
984.372	828.07
984.67	810.44
984.969	805.25
985.267	827.62
985.566	818.35
985.864	817.68
986.162	797.56
986.461	823.55
986.759	824.23
987.057	787.39
987.355	789.88
987.653	807.96
987.951	791.01
988.249	800.28
988.547	772.25
988.844	758.02
989.142	770.9
989.44	784
989.737	771.8
990.035	774.74
990.332	781.97
990.63	777
990.927	776.77
991.224	758.24
991.521	758.69
991.819	758.92
992.116	772.71
992.413	765.47
992.71	740.62
993.006	741.97
993.303	753.27
993.6	770.45
993.897	729.32
994.193	749.43
994.49	729.54
994.787	750.79
995.083	763.44
995.379	740.84
995.676	731.8
995.972	741.29
996.268	712.59
996.565	727.06
996.861	720.73
997.157	720.73
997.453	731.58
997.749	732.03
998.044	711.24
998.34	687.28
998.636	701.97
998.932	720.5
999.227	679.15
999.523	701.07
999.818	698.81
1000.114	699.26
1000.409	680.28
1000.704	683.22
1001	686.38
1001.295	697.68
1001.59	674.4
1001.885	705.14
1002.18	700.62
1002.475	691.58
1002.77	693.61
1003.065	667.85
1003.359	685.93
1003.654	676.66
1003.949	654.06
1004.243	696.55
1004.538	669.43
1004.832	650.9
1005.127	661.97
1005.421	656.55
1005.715	669.88
1006.009	637.79
1006.304	669.43
1006.598	652.93
1006.892	635.53
1007.186	648.87
1007.48	641.18
1007.773	660.17
1008.067	640.73
1008.361	640.28
1008.655	604.12
1008.948	626.04
1009.242	633.95
1009.535	651.13
1009.829	647.06
1010.122	629.88
1010.415	617.68
1010.708	597.8
1011.001	621.98
1011.295	615.65
1011.588	612.26
1011.881	603.22
1012.173	585.82
1012.466	593.73
1012.759	597.34
1013.052	597.8
1013.344	582.2
1013.637	620.85
1013.93	585.82
1014.222	596.89
1014.514	588.98
1014.807	567.29
1015.099	591.24
1015.391	592.37
1015.683	585.82
1015.976	594.41
1016.268	599.6
1016.56	591.69
1016.851	574.52
1017.143	565.48
1017.435	587.4
1017.727	566.61
1018.018	553.73
1018.31	549.89
1018.602	545.59
1018.893	570.45
1019.185	576.78
1019.476	548.98
1019.767	570.23
1020.058	546.04
1020.35	574.29
1020.641	556.21
1020.932	563.45
1021.223	568.19
1021.514	545.37
1021.804	542.66
1022.095	537.46
1022.386	556.44
1022.677	580.85
1022.967	537.01
1023.258	550.56
1023.548	537.23
1023.839	539.49
1024.129	528.19
1024.419	522.09
1024.709	509.44
1025	528.19
1025.29	540.62
1025.58	523.22
1025.87	530.45
1026.16	514.18
1026.449	549.21
1026.739	509.89
1027.029	539.27
1027.319	488.42
1027.608	480.28
1027.898	499.04
1028.187	524.8
1028.477	501.75
1028.766	508.76
1029.055	492.94
1029.344	501.3
1029.634	476.44
1029.923	502.43
1030.212	496.1
1030.501	524.12
1030.79	497.46
1031.078	493.84
1031.367	501.3
1031.656	494.97
1031.945	500.62
1032.233	513.96
1032.522	483.9
1032.81	478.02
1033.099	473.05
1033.387	486.16
1033.675	479.38
1033.963	483.9
1034.251	463.34
1034.54	460.4
1034.828	490.23
1035.116	462.66
1035.403	467.63
1035.691	480.06
1035.979	480.74
1036.267	456.1
1036.554	460.85
1036.842	458.59
1037.129	465.6
1037.417	456.1
1037.704	468.53
1037.992	448.19
1038.279	465.6
1038.566	456.1
1038.853	456.1
1039.14	456.1
