Data from blue_clamp_base_FLMS001491_00017.txt Node
Date: Wed Feb 08 15:15:38 GMT 2017
User: dcchb
Spectrometer: FLMS00149
Trigger mode: 0
Integration Time (sec): 2.000000E-2
Scans to average: 10
Electric dark correction enabled: true
Nonlinearity correction enabled: false
Boxcar width: 0
XAxis mode: Wavelengths
Number of Pixels in Spectrum: 2048
>>>>>Begin Spectral Data<<<<<
341.393	-20.49
341.776	-20.49
342.16	-20.49
342.543	-63.88
342.927	-55.97
343.31	-69.31
343.693	-63.2
344.077	-60.04
344.46	-40.61
344.843	-58.46
345.226	-52.13
345.61	-27.73
345.993	-34.05
346.376	-14.17
346.759	14.31
347.142	36
347.525	27.64
347.908	67.41
348.291	71.71
348.674	86.62
349.057	116
349.44	137.69
349.823	142.67
350.206	165.94
350.588	193.06
350.971	223.34
351.354	241.42
351.737	236.45
352.119	244.36
352.502	258.59
352.884	278.26
353.267	289.55
353.65	315.32
354.032	286.39
354.414	316.45
354.797	317.8
355.179	326.39
355.562	325.49
355.944	318.93
356.326	346.05
356.709	328.2
357.091	337.01
357.473	340.17
357.855	335.88
358.238	349.44
358.62	334.75
359.002	341.98
359.384	348.31
359.766	353.51
360.148	330.01
360.53	370.91
360.912	339.04
361.294	328.42
361.676	336.33
362.057	338.82
362.439	344.92
362.821	346.05
363.203	325.26
363.584	346.95
363.966	317.35
364.348	319.84
364.729	324.36
365.111	328.2
365.493	325.49
365.874	320.97
366.256	301.08
366.637	293.62
367.019	325.94
367.4	319.38
367.781	302.21
368.163	320.29
368.544	330.68
368.925	310.12
369.306	327.75
369.688	327.52
370.069	285.49
370.45	332.49
370.831	299.5
371.212	306.73
371.593	326.39
371.974	326.62
372.355	337.91
372.736	335.43
373.117	317.8
373.498	330.01
373.879	333.4
374.26	305.83
374.641	311.47
375.021	334.3
375.402	337.69
375.783	321.64
376.163	338.14
376.544	327.07
376.925	343.56
377.305	333.4
377.686	322.1
378.066	357.58
378.447	340.63
378.827	335.66
379.208	320.51
379.588	335.43
379.968	348.76
380.349	381.98
380.729	363
381.109	370.68
381.489	352.38
381.87	373.62
382.25	383.11
382.63	368.65
383.01	350.8
383.39	362.55
383.77	370.46
384.15	369.55
384.53	377.24
384.91	353.73
385.29	381.76
385.67	375.43
386.049	401.42
386.429	386.05
386.809	366.16
387.189	393.28
387.568	381.98
387.948	375.88
388.328	412.26
388.707	384.69
389.087	397.8
389.466	401.64
389.846	411.13
390.225	389.89
390.605	402.09
390.984	402.32
391.363	424.24
391.743	409.33
392.122	411.81
392.501	405.71
392.881	415.2
393.26	445.71
393.639	429.44
394.018	439.38
394.397	429.66
394.776	436.44
395.155	467.63
395.534	453.39
395.913	467.4
396.292	468.98
396.671	452.94
397.05	482.77
397.429	474.86
397.808	482.09
398.186	492.04
398.565	501.98
398.944	481.87
399.323	489.32
399.701	491.81
400.08	518.48
400.458	508.98
400.837	526.61
401.215	507.63
401.594	531.13
401.972	523.67
402.351	523.67
402.729	530
403.107	528.19
403.486	558.02
403.864	530.9
404.242	542.66
404.62	560.06
404.999	574.07
405.377	591.24
405.755	592.15
406.133	584.69
406.511	601.41
406.889	595.31
407.267	620.39
407.645	617
408.023	632.6
408.401	616.1
408.779	615.87
409.156	653.61
409.534	654.97
409.912	665.36
410.29	656.55
410.667	678.7
411.045	687.74
411.422	687.06
411.8	706.49
412.178	703.33
412.555	686.15
412.933	722.99
413.31	720.73
413.687	747.85
414.065	748.53
414.442	744.68
414.819	759.15
415.197	765.7
415.574	794.63
415.951	797.56
416.328	793.5
416.705	796.21
417.082	791.69
417.46	795.3
417.837	830.78
418.214	815.19
418.591	829.2
418.967	849.99
419.344	845.02
419.721	856.77
420.098	866.71
420.475	907.84
420.852	905.81
421.228	897
421.605	906.49
421.982	911.46
422.358	945.36
422.735	936.54
423.111	939.71
423.488	965.47
423.864	939.93
424.241	968.18
424.617	960.27
424.994	967.5
425.37	992.13
425.746	1001.63
426.123	988.75
426.499	1042.76
426.875	1046.37
427.251	1071.45
427.627	1086.6
428.003	1109.65
428.379	1108.29
428.756	1094.28
429.132	1117.56
429.507	1166.59
429.883	1139.93
430.259	1194.39
430.635	1176.99
431.011	1146.93
431.387	1205.24
431.763	1223.32
432.138	1207.5
432.514	1277.33
432.89	1263.99
433.265	1252.92
433.641	1299.47
434.016	1295.18
434.392	1339.24
434.767	1360.49
435.143	1336.98
435.518	1373.59
435.894	1374.05
436.269	1432.35
436.644	1409.07
437.02	1463.99
437.395	1451.56
437.77	1508.73
438.145	1494.27
438.52	1512.8
438.895	1518.22
439.271	1542.4
439.646	1588.73
440.021	1559.58
440.395	1615.85
440.77	1599.8
441.145	1607.26
441.52	1638.67
441.895	1620.37
442.27	1662.85
442.645	1667.82
443.019	1709.4
443.394	1693.36
443.769	1700.36
444.143	1689.97
444.518	1724.77
444.892	1762.96
445.267	1734.26
445.641	1795.05
446.016	1757.99
446.39	1810.64
446.764	1829.85
447.139	1801.15
447.513	1837.99
447.887	1839.57
448.262	1859.68
448.636	1863.75
449.01	1903.52
449.384	1902.17
449.758	1911.21
450.132	1981.71
450.506	1951.21
450.88	1983.07
451.254	1995.5
451.628	2020.58
452.002	2004.09
452.376	2053.35
452.75	2078.43
453.123	2096.06
453.497	2112.56
453.871	2143.07
454.244	2160.01
454.618	2195.27
454.992	2216.51
455.365	2188.71
455.739	2286.34
456.112	2296.28
456.486	2299.9
456.859	2322.72
457.232	2382.15
457.606	2339.9
457.979	2362.95
458.352	2442.49
458.725	2465.77
459.099	2474.58
459.472	2541.7
459.845	2550.74
460.218	2565.65
460.591	2594.35
460.964	2605.2
461.337	2633.45
461.71	2692.88
462.083	2747.12
462.456	2711.64
462.829	2739.89
463.201	2770.85
463.574	2773.56
463.947	2848.13
464.32	2915.47
464.692	2938.3
465.065	2918.64
465.438	2962.7
465.81	3035.7
466.183	3027.79
466.555	3132.42
466.928	3107.56
467.3	3094.23
467.672	3175.81
468.045	3235.24
468.417	3259.42
468.789	3272.98
469.161	3296.93
469.534	3308.01
469.906	3434.1
470.278	3438.17
470.65	3455.8
471.022	3561.56
471.394	3590.71
471.766	3617.6
472.138	3622.8
472.51	3686.75
472.882	3753.42
473.253	3784.38
473.625	3826.64
473.997	3900.76
474.369	3919.29
474.74	3980.3
475.112	4082.68
475.484	4084.03
475.855	4119.74
476.227	4106.4
476.598	4210.81
476.97	4282.44
477.341	4342.33
477.713	4465.72
478.084	4448.54
478.455	4557.46
478.827	4600.63
479.198	4732.6
479.569	4708.42
479.94	4843.33
480.311	4839.94
480.682	4906.38
481.053	5052.37
481.424	5121.97
481.795	5154.06
482.166	5177.34
482.537	5294.62
482.908	5331.91
483.279	5389.99
483.65	5470.44
484.021	5564.9
484.391	5611
484.762	5612.8
485.133	5630.66
485.503	5722.86
485.874	5836.3
486.244	5871.33
486.615	5961.5
486.985	5975.73
487.356	6065.67
487.726	6124.2
488.097	6184.31
488.467	6222.51
488.837	6347.02
489.207	6357.64
489.578	6464.53
489.948	6545.89
490.318	6589.5
490.688	6576.62
491.058	6655.94
491.428	6698.88
491.798	6756.05
492.168	6893.22
492.538	6864.52
492.908	6918.31
493.278	6944.29
493.648	6916.27
494.017	7061.81
494.387	7028.81
494.757	7097.29
495.126	7238.98
495.496	7164.63
495.866	7264.51
496.235	7243.5
496.605	7351.29
496.974	7346.77
497.344	7413.44
497.713	7398.97
498.082	7421.8
498.452	7506.31
498.821	7461.57
499.19	7547.67
499.559	7562.36
499.928	7542.92
500.298	7640.55
500.667	7649.36
501.036	7625.18
501.405	7720.55
501.774	7663.37
502.143	7754.67
502.512	7810.94
502.88	7846.42
503.249	7911.73
503.618	7889.81
503.987	7946.98
504.356	7932.97
504.724	7958.28
505.093	7950.14
505.462	7954.66
505.83	8111.27
506.199	8047.32
506.567	8181.32
506.936	8141.55
507.304	8194.88
507.672	8191.95
508.041	8265.62
508.409	8274.43
508.777	8341.77
509.145	8353.75
509.514	8362.79
509.882	8382.22
510.25	8421.77
510.618	8469
510.986	8479.4
511.354	8494.54
511.722	8603.91
512.09	8643.69
512.458	8546.74
512.826	8664.48
513.193	8674.64
513.561	8744.25
513.929	8725.49
514.297	8840.97
514.664	8882.32
515.032	8844.58
515.4	8882.32
515.767	8843
516.135	8904.92
516.502	8884.36
516.869	9009.78
517.237	9046.16
517.604	9009.33
517.972	9092.03
518.339	9133.16
518.706	9116.67
519.073	9126.16
519.44	9197.57
519.808	9173.84
520.175	9230.34
520.542	9360.95
520.909	9350.79
521.276	9325.25
521.643	9387.85
522.009	9418.58
522.376	9508.97
522.743	9552.59
523.11	9612.25
523.477	9663.77
523.843	9652.7
524.21	9795.75
524.577	9868.96
524.943	9802.75
525.31	9868.51
525.676	9959.36
526.043	9989.41
526.409	10040.26
526.776	10108.51
527.142	10209.75
527.508	10140.59
527.874	10236.86
528.241	10271.21
528.607	10333.58
528.973	10350.31
529.339	10343.75
529.705	10463.3
530.071	10489.29
530.437	10539.68
530.803	10569.06
531.169	10642.73
531.535	10640.47
531.901	10636.4
532.267	10704.42
532.632	10701.71
532.998	10769.96
533.364	10802.05
533.73	10872.55
534.095	10898.77
534.461	10894.7
534.826	10944.42
535.192	10983.51
535.557	11129.27
535.923	11050.63
536.288	11074.58
536.653	11103.96
537.019	11098.99
537.384	11189.61
537.749	11258.98
538.114	11235.71
538.479	11230.74
538.845	11299.21
539.21	11286.78
539.575	11334.91
539.94	11385.08
540.305	11429.15
540.67	11460.33
541.034	11453.55
541.399	11465.53
541.764	11558.64
542.129	11537.39
542.494	11591.63
542.858	11597.05
543.223	11628.92
543.587	11749.37
543.952	11667.56
544.316	11702.59
544.681	11767.9
545.045	11789.59
545.41	11851.74
545.774	11845.18
546.138	11905.07
546.503	11912.53
546.867	11866.88
547.231	11945.97
547.595	11986.87
547.959	12047.66
548.324	12053.09
548.688	11998.17
549.052	12080.43
549.416	12106.64
549.779	12083.59
550.143	12089.92
550.507	12229.35
550.871	12222.57
551.235	12216.02
551.599	12352.29
551.962	12358.62
552.326	12317.49
552.689	12355.9
553.053	12371.72
553.417	12336.02
553.78	12533.98
554.143	12469.12
554.507	12582.11
554.87	12561.1
555.234	12671.15
555.597	12559.51
555.96	12578.72
556.323	12649.23
556.686	12707.99
557.05	12763.8
557.413	12820.75
557.776	12740.53
558.139	12858.49
558.502	12840.18
558.865	12875.89
559.228	13014.87
559.59	13022.1
559.953	13018.49
560.316	13090.12
560.679	13044.25
561.041	13249.44
561.404	13244.02
561.767	13385.03
562.129	13232.04
562.492	13404.24
562.854	13256.22
563.217	13331.7
563.579	13382.77
563.941	13482.65
564.304	13604.91
564.666	13629.32
565.028	13562.88
565.39	13638.81
565.753	13707.73
566.115	13752.25
566.477	13835.64
566.839	13869.31
567.201	13937.33
567.563	13880.16
567.925	14040.61
568.287	14046.48
568.648	14013.71
569.01	14132.58
569.372	14223.65
569.734	14180.94
570.095	14309.07
570.457	14342.52
570.819	14356.76
571.18	14336.64
571.542	14465.45
571.903	14514.49
572.265	14631.78
572.626	14664.77
572.987	14676.52
573.349	14732.34
573.71	14773.69
574.071	14732.79
574.432	14879
574.794	14881.26
575.155	14907.48
575.516	14824.77
575.877	14914.93
576.238	15023.18
576.599	15067.47
576.96	15046.23
577.32	15042.84
577.681	15097.98
578.042	15194.02
578.403	15225.43
578.763	15179.78
579.124	15269.73
579.485	15314.47
579.845	15280.12
580.206	15383.62
580.566	15255.71
580.927	15338.2
581.287	15444.41
581.648	15339.33
582.008	15496.84
582.368	15428.14
582.728	15439.66
583.089	15462.49
583.449	15485.77
583.809	15450.74
584.169	15490.28
584.529	15460
584.889	15578.19
585.249	15504.52
585.609	15506.33
585.969	15495.71
586.329	15567.12
586.688	15587.46
587.048	15612.09
587.408	15615.48
587.768	15608.25
588.127	15565.31
588.487	15618.64
588.846	15681.69
589.206	15664.07
589.565	15620.45
589.925	15699.09
590.284	15685.99
590.643	15728.02
591.003	15706.32
591.362	15868.81
591.721	15829.94
592.08	15771.18
592.44	15956.71
592.799	15935.02
593.158	15816.38
593.517	15833.55
593.876	15796.04
594.235	15851.18
594.593	15870.16
594.952	15905.42
595.311	15901.12
595.67	15901.12
596.029	15928.92
596.387	15963.04
596.746	16022.47
597.104	15843.95
597.463	15892.53
597.822	16008.01
598.18	15956.04
598.538	15918.3
598.897	16025.41
599.255	15899.09
599.613	16041
599.972	16014.34
600.33	16039.65
600.688	16043.72
601.046	16062.93
601.404	16192.87
601.762	16070.38
602.12	16246.42
602.478	16163.71
602.836	16238.74
603.194	16197.38
603.552	16090.72
603.91	16135.69
604.268	16179.53
604.625	16150.38
604.983	16245.97
605.341	16204.39
605.698	16245.52
606.056	16302.01
606.413	16250.49
606.771	16251.17
607.128	16333.2
607.485	16198.74
607.843	16324.84
608.2	16397.38
608.557	16476.47
608.914	16361.9
609.272	16476.47
609.629	16446.19
609.986	16537.49
610.343	16450.49
610.7	16485.74
611.057	16584.27
611.414	16551.27
611.771	16538.39
612.127	16605.51
612.484	16641.44
612.841	16626.53
613.198	16600.31
613.554	16652.97
613.911	16866.97
614.267	16739.07
614.624	16728.9
614.98	16706.98
615.337	16881.21
615.693	16786.52
616.05	16824.04
616.406	16987.42
616.762	16819.52
617.118	16939.29
617.475	16899.06
617.831	16916.91
618.187	16977.03
618.543	16915.56
618.899	17107.19
619.255	16997.59
619.611	16996.01
619.967	17111.94
620.323	17100.41
620.678	17067.19
621.034	17059.28
621.39	17059.28
621.746	17089.79
622.101	17259.28
622.457	17112.84
622.812	17140.41
623.168	17321.42
623.523	17254.08
623.879	17209.56
624.234	17067.64
624.589	17235.32
624.945	17331.59
625.3	17237.36
625.655	17296.56
626.01	17313.29
626.365	17378.37
626.72	17265.61
627.075	17316
627.43	17365.49
627.785	17322.78
628.14	17426.73
628.495	17398.71
628.85	17370.69
629.205	17386.28
629.559	17424.7
629.914	17363.91
630.269	17403.23
630.623	17419.73
630.978	17465.6
631.332	17547.41
631.687	17506.95
632.041	17447.07
632.396	17420.86
632.75	17480.74
633.104	17480.97
633.459	17550.12
633.813	17475.54
634.167	17460.85
634.521	17564.58
634.875	17533.17
635.229	17536.56
635.583	17522.1
635.937	17538.14
636.291	17482.77
636.645	17624.92
636.999	17388.31
637.352	17599.38
637.706	17408.88
638.06	17561.87
638.413	17573.85
638.767	17479.84
639.121	17615.88
639.474	17462.21
639.828	17442.78
640.181	17501.08
640.534	17632.15
640.888	17518.71
641.241	17563
641.594	17553.28
641.947	17650.45
642.301	17563
642.654	17611.13
643.007	17623.79
643.36	17638.93
643.713	17586.5
644.066	17691.36
644.419	17639.61
644.771	17613.84
645.124	17361.87
645.477	17401.65
645.83	17333.4
646.182	17294.31
646.535	17263.35
646.888	17302.89
647.24	17175.21
647.593	17279.16
647.945	17207.75
648.298	17239.84
648.65	17151.26
649.002	17160.3
649.355	17303.8
649.707	17325.94
650.059	17362.33
650.411	17668.31
650.763	17648.42
651.115	17812.03
651.467	17772.94
651.819	17861.97
652.171	17840.73
652.523	17822.65
652.875	17807.51
653.227	17797.79
653.578	17907.17
653.93	17881.41
654.282	17794.86
654.633	17757.12
654.985	17920.28
655.337	17895.65
655.688	17861.97
656.039	18066.94
656.391	17867.17
656.742	17833.73
657.094	17932.93
657.445	17917.11
657.796	17921.86
658.147	17855.65
658.498	17898.13
658.849	17914.18
659.2	17946.49
659.551	17984
659.902	17964.57
660.253	17887.96
660.604	17966.83
660.955	17954.4
661.306	17956.21
661.656	17924.8
662.007	17971.8
662.358	17980.61
662.708	17979.26
663.059	17962.99
663.409	17865.82
663.76	18071.23
664.11	17987.39
664.461	18008.86
664.811	17989.43
665.161	17975.42
665.511	17958.47
665.862	17992.82
666.212	17969.32
666.562	18025.81
666.912	17971.58
667.262	17990.11
667.612	17926.15
667.962	18024.23
668.312	17963.89
668.662	18082.98
669.011	17977.45
669.361	17934.06
669.711	17855.19
670.06	17833.73
670.41	17850.22
670.76	17866.95
671.109	17888.41
671.459	17824.46
671.808	17710.79
672.157	17742.65
672.507	17581.08
672.856	17601.64
673.205	17684.8
673.554	17731.81
673.904	17700.62
674.253	17718.02
674.602	17619.95
674.951	17416.11
675.3	17271.25
675.649	17499.5
675.998	17460.4
676.346	17520.97
676.695	17597.12
677.044	17341.99
677.393	17425.15
677.741	17428.31
678.09	17462.44
678.438	17326.62
678.787	17343.34
679.135	17325.72
679.484	17179.51
679.832	17269.9
680.181	17198.49
680.529	17184.48
680.877	17162.11
681.225	17085.95
681.573	17182.44
681.922	17019.51
682.27	16994.2
682.618	17056.12
682.966	16921.89
683.314	16975.22
683.661	16848.89
684.009	16806.18
684.357	16761.66
684.705	16692.51
685.053	16870.14
685.4	16733.87
685.748	16629.46
686.095	16682.12
686.443	16652.29
686.79	16503.82
687.138	16581.1
687.485	16624.04
687.832	16488.9
688.18	16560.54
688.527	16501.11
688.874	16401.45
689.221	16415.23
689.568	16374.56
689.915	16301.56
690.262	16361.45
690.609	16303.82
690.956	16236.48
691.303	16301.79
691.65	16224.28
691.997	16158.52
692.344	16061.12
692.69	16092.08
693.037	16154
693.383	15988.58
693.73	16080.1
694.077	15943.38
694.423	15884.4
694.769	15862.93
695.116	15784.29
695.462	15901.57
695.808	15862.03
696.155	15904.29
696.501	15786.1
696.847	15801.46
697.193	15635.37
697.539	15758.75
697.885	15658.42
698.231	15598.08
698.577	15689.15
698.923	15694.12
699.269	15666.55
699.614	15524.41
699.96	15534.8
700.306	15567.8
700.651	15414.81
700.997	15439.44
701.342	15447.57
701.688	15455.94
702.033	15414.13
702.379	15356.28
702.724	15352.89
703.069	15455.48
703.415	15253.45
703.76	15308.37
704.105	15335.94
704.45	15272.44
704.795	15177.07
705.14	15187.24
705.485	15160.12
705.83	15104.53
706.175	15153.57
706.52	15229.95
706.865	15117.64
707.209	15107.24
707.554	15002.84
707.899	15123.06
708.243	15000.58
708.588	15024.31
708.932	14933.01
709.277	14923.07
709.621	14984.99
709.966	14835.84
710.31	14867.93
710.654	14764.65
710.998	14907.93
711.342	14959.9
711.687	14839.23
712.031	14788.83
712.375	14743.41
712.719	14819.12
713.063	14733.92
713.407	14799.91
713.75	14752
714.094	14756.52
714.438	14715.62
714.782	14747.93
715.125	14730.3
715.469	14695.73
715.812	14681.72
716.156	14626.8
716.499	14591.55
716.843	14669.74
717.186	14600.36
717.53	14654.15
717.873	14624.77
718.216	14567.6
718.559	14535.51
718.902	14458.67
719.246	14523.08
719.589	14460.93
719.932	14440.82
720.275	14445.57
720.617	14463.65
720.96	14413.25
721.303	14512.91
721.646	14399.24
721.989	14394.95
722.331	14438.56
722.674	14493.7
723.016	14445.34
723.359	14452.8
723.701	14316.08
724.044	14356.98
724.386	14286.47
724.729	14394.49
725.071	14307.27
725.413	14353.37
725.755	14342.07
726.097	14352.46
726.439	14258
726.782	14245.35
727.124	14319.69
727.465	14194.73
727.807	14244.44
728.149	14241.96
728.491	14279.92
728.833	14192.24
729.175	14295.06
729.516	14166.7
729.858	14189.75
730.199	14302.07
730.541	14196.53
730.882	14192.47
731.224	14279.02
731.565	14185.23
731.906	14198.12
732.248	14275.63
732.589	14239.7
732.93	14070.21
733.271	14112.24
733.612	14233.82
733.953	14278.11
734.294	14247.38
734.635	14328.96
734.976	14317.43
735.317	14258.68
735.658	14260.49
735.999	14282.41
736.339	14271.56
736.68	14360.6
737.021	14320.37
737.361	14286.93
737.702	14398.11
738.042	14345
738.383	14397.88
738.723	14396.98
739.063	14430.88
739.404	14488.5
739.744	14437.43
740.084	14389.52
740.424	14465.68
740.764	14436.98
741.104	14562.85
741.444	14434.49
741.784	14522.17
742.124	14503.42
742.464	14598.1
742.804	14583.19
743.143	14594.26
743.483	14552.23
743.823	14515.17
744.162	14637.2
744.502	14627.48
744.841	14699.8
745.181	14744.09
745.52	14651.66
745.86	14754.26
746.199	14730.3
746.538	14832.22
746.877	14856.86
747.216	14801.72
747.556	14911.09
747.895	14952.22
748.234	14940.24
748.573	14910.64
748.911	14915.84
749.25	14963.52
749.589	14971.2
749.928	15041.93
750.267	15042.39
750.605	15032.44
750.944	15098.2
751.283	15044.87
751.621	15121.03
751.96	15120.35
752.298	15068.37
752.636	15231.99
752.975	15105.44
753.313	15127.58
753.651	15246
753.989	15142.95
754.327	15247.13
754.666	15243.96
755.004	15258.2
755.342	15331.64
755.679	15344.53
756.017	15274.7
756.355	15341.36
756.693	15324.19
757.031	15347.46
757.368	15310.85
757.706	15371.64
758.044	15370.29
758.381	15407.8
758.719	15481.92
759.056	15419.78
759.394	15536.84
759.731	15384.52
760.068	15448.03
760.405	15427.01
760.743	15404.86
761.08	15559.89
761.417	15445.54
761.754	15511.3
762.091	15453.9
762.428	15513.79
762.765	15374.58
763.102	15561.92
763.438	15540.23
763.775	15441.25
764.112	15538.65
764.449	15544.07
764.785	15571.41
765.122	15447.35
765.458	15509.95
765.795	15567.8
766.131	15506.1
766.467	15495.48
766.804	15462.04
767.14	15486.9
767.476	15439.89
767.812	15451.42
768.148	15488.48
768.485	15485.54
768.821	15497.06
769.157	15460.23
769.492	15478.76
769.828	15518.31
770.164	15351.31
770.5	15396.28
770.836	15360.8
771.171	15364.86
771.507	15449.83
771.842	15276.73
772.178	15288.71
772.513	15257.97
772.849	15329.16
773.184	15287.35
773.519	15333
773.855	15308.14
774.19	15226.79
774.525	15273.12
774.86	15232.66
775.195	15361.7
775.53	15200.35
775.865	15130.52
776.2	15218.2
776.535	15154.25
776.87	15218.2
777.205	15177.52
777.539	15207.35
777.874	15189.95
778.209	15032.22
778.543	15100.69
778.878	15064.76
779.212	15061.82
779.547	15084.19
779.881	15100.92
780.215	15048.26
780.55	15031.54
780.884	14913.12
781.218	15029.05
781.552	15071.76
781.886	14929.62
782.22	14846.23
782.554	14818.89
782.888	14750.87
783.222	14707.03
783.556	14693.24
783.889	14676.75
784.223	14662.74
784.557	14656.86
784.89	14707.71
785.224	14685.56
785.557	14555.85
785.891	14725.56
786.224	14631.55
786.558	14592.91
786.891	14502.97
787.224	14467.49
787.557	14491.44
787.891	14460.93
788.224	14504.32
788.557	14458.67
788.89	14488.73
789.223	14391.78
789.556	14405.79
789.888	14429.75
790.221	14415.28
790.554	14274.05
790.887	14315.63
791.219	14263.65
791.552	14289.41
791.884	14186.59
792.217	14216.42
792.549	14168.06
792.882	14136.87
793.214	14071.34
793.546	14155.86
793.879	14105.46
794.211	14040.61
794.543	14084.22
794.875	14012.58
795.207	14012.36
795.539	13991.34
795.871	14072.24
796.203	13905.47
796.535	13871.34
796.867	13941.4
797.198	13892.81
797.53	13970.78
797.862	13775.75
798.193	13825.47
798.525	13805.58
798.856	13778.24
799.188	13679.48
799.519	13698.47
799.85	13664.57
800.182	13659.82
800.513	13660.73
800.844	13625.48
801.175	13666.83
801.506	13634.51
801.837	13570.11
802.168	13535.76
802.499	13499.6
802.83	13510.9
803.161	13536.89
803.491	13467.97
803.822	13432.71
804.153	13422.32
804.483	13314.07
804.814	13324.47
805.145	13301.64
805.475	13370.57
805.805	13262.77
806.136	13324.24
806.466	13182.55
806.796	13204.24
807.126	13157.46
807.457	13188.65
807.787	13227.97
808.117	13048.09
808.447	13074.76
808.777	13136.45
809.107	13041.76
809.436	13068.2
809.766	13047.19
810.096	13016.23
810.426	12931.03
810.755	12968.77
811.085	12926.28
811.414	12931.03
811.744	12832.95
812.073	12794.54
812.403	12862.11
812.732	12861.2
813.061	12851.94
813.39	12751.37
813.719	12738.27
814.049	12846.51
814.378	12754.54
814.707	12679.74
815.036	12708.21
815.365	12608.55
815.693	12518.61
816.022	12601.1
816.351	12520.87
816.68	12461.44
817.008	12482.68
817.337	12364.72
817.665	12405.39
817.994	12429.8
818.322	12384.83
818.651	12312.06
818.979	12380.54
819.307	12333.98
819.636	12379.63
819.964	12242.69
820.292	12349.58
820.62	12312.06
820.948	12282.23
821.276	12359.52
821.604	12329.69
821.932	12347.54
822.259	12364.94
822.587	12348.22
822.915	12320.88
823.243	12376.69
823.57	12279.52
823.898	12300.09
824.225	12291.72
824.553	12238.17
824.88	12303.93
825.207	12448.56
825.535	12357.03
825.862	12386.86
826.189	12398.84
826.516	12377.37
826.843	12481.78
827.17	12435
827.497	12432.51
827.824	12446.97
828.151	12462.79
828.478	12443.13
828.805	12493.3
829.131	12418.95
829.458	12395.68
829.785	12331.95
830.111	12381.67
830.438	12444.04
830.764	12368.56
831.09	12538.5
831.417	12374.43
831.743	12498.5
832.069	12464.15
832.395	12412.4
832.722	12409.69
833.048	12346.19
833.374	12377.6
833.7	12313.87
834.026	12316.58
834.351	12397.48
834.677	12391.16
835.003	12339.63
835.329	12460.99
835.654	12424.38
835.98	12299.63
836.306	12335.11
836.631	12277.71
836.956	12332.4
837.282	12380.08
837.607	12301.67
837.932	12302.57
838.258	12286.3
838.583	12213.53
838.908	12177.15
839.233	12175.34
839.558	12161.11
839.883	12109.81
840.208	12101.45
840.533	12142.58
840.858	12097.38
841.182	12090.83
841.507	12047.21
841.832	12006.53
842.156	11989.81
842.481	12087.66
842.805	12008.12
843.13	11957.95
843.454	11885.63
843.778	11884.28
844.103	11919.53
844.427	11852.19
844.751	11876.37
845.075	11800.44
845.399	11746.43
845.723	11741.23
846.047	11736.94
846.371	11656.49
846.695	11626.88
847.019	11583.04
847.343	11608.13
847.666	11405.87
847.99	11481.12
848.313	11460.79
848.637	11277.97
848.96	11359.32
849.284	11321.58
849.607	11250.17
849.931	11205.88
850.254	11159.33
850.577	11065.99
850.9	11065.09
851.223	10991.42
851.546	11009.5
851.869	10906.68
852.192	10950.07
852.515	10780.8
852.838	10796.62
853.161	10844.31
853.483	10750.52
853.806	10717.08
854.129	10714.59
854.451	10626.23
854.774	10651.54
855.096	10620.13
855.419	10460.81
855.741	10577.42
856.063	10479.12
856.385	10437.76
856.708	10371.1
857.03	10434.82
857.352	10402.96
857.674	10397.76
857.996	10289.74
858.318	10245
858.64	10274.15
858.961	10260.37
859.283	10168.16
859.605	10211.78
859.926	10128.84
860.248	10181.5
860.57	10152.57
860.891	10106.92
861.212	10072.12
861.534	10144.44
861.855	10085.23
862.176	10070.31
862.498	10016.53
862.819	10023.76
863.14	10038.22
863.461	9953.71
863.782	9948.96
864.103	9968.62
864.424	9871.9
864.745	9860.6
865.065	9887.72
865.386	9871.22
865.707	9856.76
866.027	9834.39
866.348	9829.87
866.668	9787.84
866.989	9778.34
867.309	9738.35
867.63	9738.57
867.95	9694.05
868.27	9661.74
868.59	9711.45
868.91	9651.34
869.23	9639.59
869.55	9658.57
869.87	9739.93
870.19	9636.43
870.51	9660.83
870.83	9604.56
871.15	9574.06
871.469	9521.18
871.789	9573.83
872.109	9551.01
872.428	9491.57
872.748	9503.32
873.067	9525.7
873.386	9511.91
873.706	9478.01
874.025	9477.79
874.344	9450.44
874.663	9475.53
874.982	9411.57
875.301	9377.68
875.62	9384.68
875.939	9388.52
876.258	9386.49
876.577	9338.13
876.896	9341.75
877.214	9282.99
877.533	9296.55
877.852	9282.31
878.17	9317.34
878.489	9282.99
878.807	9244.57
879.125	9261.3
879.444	9214.97
879.762	9199.38
880.08	9219.26
880.398	9167.74
880.716	9228.75
881.034	9200.28
881.352	9172.71
881.67	9144.91
881.988	9092.03
882.306	9076.89
882.624	9054.75
882.941	9001.42
883.259	9027.4
883.577	8995.09
883.894	9047.29
884.212	8981.98
884.529	8940.4
884.846	8941.98
885.164	8859.5
885.481	8794.42
885.798	8885.03
886.115	8789.44
886.432	8820.86
886.75	8794.42
887.067	8819.73
887.383	8740.86
887.7	8769.11
888.017	8704.02
888.334	8716.68
888.651	8684.81
888.967	8709.22
889.284	8625.38
889.6	8560.52
889.917	8584.03
890.233	8624.7
890.55	8507.87
890.866	8492.28
891.182	8499.96
891.498	8459.51
891.815	8469
892.131	8470.36
892.447	8386.74
892.763	8365.05
893.079	8371.83
893.395	8352.62
893.71	8272.17
894.026	8304.49
894.342	8332.51
894.657	8232.62
894.973	8220.42
895.289	8204.37
895.604	8132.51
895.92	8093.64
896.235	8065.4
896.55	8072.63
896.865	8077.15
897.181	8025.4
897.496	7998.73
897.811	7976.36
898.126	7991.72
898.441	7850.26
898.756	7910.6
899.071	7851.39
899.386	7874.21
899.7	7821.33
900.015	7783.37
900.33	7683.71
900.644	7771.84
900.959	7746.76
901.273	7703.6
901.588	7648.46
901.902	7562.81
902.216	7561.23
902.531	7536.37
902.845	7541.79
903.159	7546.76
903.473	7459.54
903.787	7478.07
904.101	7443.72
904.415	7441
904.729	7436.26
905.042	7293.21
905.356	7234
905.67	7257.96
905.984	7323.49
906.297	7217.96
906.611	7196.04
906.924	7252.54
907.237	7185.64
907.551	7165.76
907.864	7109.49
908.177	7150.17
908.491	7065.2
908.804	6986.1
909.117	7033.11
909.43	6962.6
909.743	6962.83
910.056	6926.44
910.368	6910.17
910.681	6853.68
910.994	6829.72
911.307	6773.68
911.619	6759.44
911.932	6737.07
912.244	6640.35
912.557	6708.37
912.869	6620.46
913.181	6573.68
913.494	6616.85
913.806	6615.04
914.118	6582.72
914.43	6522.38
914.742	6494.59
915.054	6497.3
915.366	6515.38
915.678	6479
915.99	6426.12
916.302	6356.51
916.613	6342.73
916.925	6339.34
917.236	6370.52
917.548	6306.12
917.859	6288.27
918.171	6228.61
918.482	6229.74
918.794	6162.17
919.105	6163.52
919.416	6109.74
919.727	6133.24
920.038	6075.17
920.349	6041.27
920.66	5975.51
920.971	6041.95
921.282	5975.96
921.593	5974.38
921.903	5920.37
922.214	5923.76
922.525	5868.62
922.835	5880.82
923.146	5835.17
923.456	5824.78
923.767	5838.56
924.077	5704.33
924.387	5749.07
924.697	5735.96
925.008	5710.2
925.318	5645.57
925.628	5636.53
925.938	5617.1
926.248	5589.75
926.558	5506.37
926.867	5536.42
927.177	5535.07
927.487	5505.46
927.796	5470.89
928.106	5444.67
928.416	5438.35
928.725	5417.78
929.034	5380.04
929.344	5356.31
929.653	5336.2
929.962	5307.5
930.271	5323.77
930.581	5276.54
930.89	5224.11
931.199	5218.24
931.508	5190.44
931.817	5174.62
932.125	5182.76
932.434	5135.3
932.743	5120.39
933.051	5121.52
933.36	5082.42
933.669	5047.85
933.977	4989.77
934.286	4991.58
934.594	4972.6
934.902	4915.65
935.21	4942.99
935.519	4964.69
935.827	4919.26
936.135	4865.25
936.443	4847.63
936.751	4848.53
937.059	4827.97
937.367	4831.58
937.674	4793.84
937.982	4792.49
938.29	4740.96
938.597	4758.59
938.905	4686.28
939.213	4698.25
939.52	4662.55
939.827	4692.15
940.135	4580.29
940.442	4610.8
940.749	4527.18
941.056	4538.26
941.363	4553.85
941.67	4501.2
941.977	4489.67
942.284	4467.07
942.591	4470.91
942.898	4516.11
943.205	4435.66
943.511	4451.25
943.818	4415.55
944.125	4377.13
944.431	4360.63
944.738	4354.53
945.044	4348.66
945.35	4281.54
945.657	4298.71
945.963	4309.79
946.269	4262.78
946.575	4258.94
946.881	4220.07
947.187	4231.15
947.493	4211.94
947.799	4154.09
948.105	4154.54
948.41	4105.5
948.716	4102.79
949.022	4083.13
949.327	4084.48
949.633	4016.91
949.938	4043.58
950.244	4035.44
950.549	4005.62
950.854	4007.87
951.16	4005.62
951.465	3961.1
951.77	3905.05
952.075	3948.44
952.38	3875.9
952.685	3906.41
952.99	3860.99
953.294	3857.6
953.599	3849.23
953.904	3817.37
954.209	3800.2
954.513	3796.13
954.818	3792.29
955.122	3800.87
955.426	3789.58
955.731	3733.31
956.035	3735.34
956.339	3731.95
956.643	3733.53
956.948	3656.25
957.252	3637.94
957.556	3687.66
957.86	3604.5
958.163	3624.61
958.467	3564.04
958.771	3607.43
959.075	3605.63
959.378	3529.92
959.682	3535.57
959.985	3508.9
960.289	3500.77
960.592	3463.71
960.896	3492.86
961.199	3430.26
961.502	3436.59
961.805	3411.73
962.108	3401.34
962.411	3394.11
962.714	3356.37
963.017	3353.43
963.32	3337.61
963.623	3352.75
963.926	3370.38
964.228	3262.13
964.531	3315.46
964.833	3314.56
965.136	3249.93
965.438	3241.79
965.741	3263.71
966.043	3251.74
966.345	3203.6
966.648	3222.13
966.95	3215.13
967.252	3157.5
967.554	3144.62
967.856	3171.06
968.158	3117.73
968.46	3113.89
968.761	3103.72
969.063	3107.79
969.365	3030.73
969.666	3073.89
969.968	3012.42
970.269	3065.3
970.571	3030.27
970.872	3026.43
971.174	2998.18
971.475	2975.13
971.776	2955.47
972.077	2966.77
972.378	2930.84
972.679	2962.25
972.98	2927.68
973.281	2877.74
973.582	2890.84
973.883	2879.54
974.183	2882.03
974.484	2860.79
974.785	2816.27
975.085	2845.65
975.386	2862.82
975.686	2811.75
975.986	2794.12
976.287	2786.89
976.587	2806.32
976.887	2764.07
977.187	2764.97
977.487	2745.76
977.787	2738.3
978.087	2718.64
978.387	2741.69
978.687	2703.05
978.987	2680.68
979.286	2670.28
979.586	2675.03
979.885	2671.41
980.185	2649.04
980.484	2657.85
980.784	2647.01
981.083	2631.19
981.382	2621.47
981.682	2590.96
981.981	2574.24
982.28	2545.99
982.579	2535.6
982.878	2530.63
983.177	2544.18
983.475	2534.92
983.774	2505.09
984.073	2494.02
984.372	2473.68
984.67	2472.55
984.969	2446.56
985.267	2410.85
985.566	2449.72
985.864	2444.3
986.162	2433.9
986.461	2406.56
986.759	2386.45
987.057	2386.9
987.355	2406.34
987.653	2378.99
987.951	2351.87
988.249	2313.68
988.547	2302.83
988.844	2323.17
989.142	2298.54
989.44	2298.99
989.737	2288.37
990.035	2269.62
990.332	2290.41
990.63	2256.73
990.927	2276.39
991.224	2240.92
991.521	2218.77
991.819	2237.3
992.116	2208.15
992.413	2189.39
992.71	2174.48
993.006	2154.82
993.303	2185.78
993.6	2155.04
993.897	2163.86
994.193	2142.16
994.49	2129.96
994.787	2104.87
995.083	2098.77
995.379	2105.1
995.676	2081.15
995.972	2056.74
996.268	2078.66
996.565	2081.82
996.861	2029.85
997.157	2028.49
997.453	2003.18
997.749	2004.76
998.044	2006.35
998.34	1995.27
998.636	1978.55
998.932	1986.01
999.227	1944.88
999.523	1920.92
999.818	1927.25
1000.114	1937.65
1000.409	1921.38
1000.704	1907.59
1001	1893.58
1001.295	1890.87
1001.59	1922.73
1001.885	1899.68
1002.18	1880.47
1002.475	1837.31
1002.77	1871.43
1003.065	1808.61
1003.359	1852
1003.654	1784.43
1003.949	1793.92
1004.243	1806.8
1004.538	1787.59
1004.832	1803.64
1005.127	1784.88
1005.421	1746.01
1005.715	1749.86
1006.009	1738.56
1006.304	1739.23
1006.598	1720.25
1006.892	1743.3
1007.186	1714.15
1007.48	1706.92
1007.773	1696.07
1008.067	1695.62
1008.361	1652.68
1008.655	1673.25
1008.948	1678.22
1009.242	1671.21
1009.535	1648.39
1009.829	1632.34
1010.122	1607.49
1010.415	1591.67
1010.708	1609.97
1011.001	1598.67
1011.295	1564.55
1011.588	1578.56
1011.881	1548.96
1012.173	1523.65
1012.466	1561.39
1012.759	1518.22
1013.052	1552.35
1013.344	1562.74
1013.637	1549.18
1013.93	1508.51
1014.222	1483.65
1014.514	1468.96
1014.807	1461.73
1015.099	1481.39
1015.391	1466.02
1015.683	1468.05
1015.976	1476.64
1016.268	1440.71
1016.56	1415.17
1016.851	1417.66
1017.143	1403.2
1017.435	1425.8
1017.727	1378.11
1018.018	1382.41
1018.31	1379.02
1018.602	1412.24
1018.893	1343.31
1019.185	1354.16
1019.476	1334.95
1019.767	1350.09
1020.058	1340.83
1020.35	1308.96
1020.641	1305.8
1020.932	1287.49
1021.223	1292.92
1021.514	1279.13
1021.804	1268.51
1022.095	1280.94
1022.386	1261.28
1022.677	1229.87
1022.967	1264.67
1023.258	1229.19
1023.548	1225.8
1023.839	1233.26
1024.129	1219.7
1024.419	1200.94
1024.709	1198.46
1025	1176.31
1025.29	1188.06
1025.58	1189.64
1025.87	1178.34
1026.16	1142.64
1026.449	1160.04
1026.739	1161.85
1027.029	1156.65
1027.319	1140.38
1027.608	1127.05
1027.898	1129.98
1028.187	1104.22
1028.477	1087.73
1028.766	1092.25
1029.055	1094.05
1029.344	1072.58
1029.634	1078.91
1029.923	1062.64
1030.212	1070.55
1030.501	1046.82
1030.79	1055.86
1031.078	1044.11
1031.367	1041.85
1031.656	1035.3
1031.945	1046.6
1032.233	1030.78
1032.522	999.14
1032.81	981.51
1033.099	1037.11
1033.387	973.6
1033.675	976.99
1033.963	960.05
1034.251	968.18
1034.54	953.72
1034.828	988.07
1035.116	974.73
1035.403	940.84
1035.691	967.5
1035.979	919.59
1036.267	939.03
1036.554	927.73
1036.842	913.49
1037.129	922.53
1037.417	914.17
1037.704	933.83
1037.992	906.04
1038.279	885.25
1038.566	892.02
1038.853	892.02
1039.14	892.02
