Data from blue_chair_FLMS001491_00080.txt Node
Date: Wed Feb 08 10:31:45 GMT 2017
User: dcchb
Spectrometer: FLMS00149
Trigger mode: 0
Integration Time (sec): 2.000000E-2
Scans to average: 10
Electric dark correction enabled: true
Nonlinearity correction enabled: false
Boxcar width: 0
XAxis mode: Wavelengths
Number of Pixels in Spectrum: 2048
>>>>>Begin Spectral Data<<<<<
341.393	0.89
341.776	0.89
342.16	0.89
342.543	-60.8
342.927	-76.62
343.31	-62.39
343.693	-57.87
344.077	-64.65
344.46	-59.67
344.843	-55.15
345.226	-21.48
345.61	-33.69
345.993	-12.67
346.376	-15.83
346.759	-13.12
347.142	22.58
347.525	33.21
347.908	45.86
348.291	85.41
348.674	102.58
349.057	106.88
349.44	111.4
349.823	128.8
350.206	148.23
350.588	186.42
350.971	190.72
351.354	199.53
351.737	212.18
352.119	210.6
352.502	215.57
352.884	245.63
353.267	250.15
353.65	255.8
354.032	279.3
354.414	282.24
354.797	271.62
355.179	305.51
355.562	286.31
355.944	285.63
356.326	299.19
356.709	293.99
357.091	315.46
357.473	303.03
357.855	319.07
358.238	305.29
358.62	311.84
359.002	331.05
359.384	303.03
359.766	313.2
360.148	317.04
360.53	294.89
360.912	323.59
361.294	292.63
361.676	291.05
362.057	291.73
362.439	305.97
362.821	293.54
363.203	296.25
363.584	284.05
363.966	298.06
364.348	284.05
364.729	308.45
365.111	312.97
365.493	313.88
365.874	278.85
366.256	277.94
366.637	286.98
367.019	291.5
367.4	283.37
367.781	291.73
368.163	304.38
368.544	298.51
368.925	273.65
369.306	290.37
369.688	288.57
370.069	288.79
370.45	303.25
370.831	274.33
371.212	260.32
371.593	302.58
371.974	276.59
372.355	264.16
372.736	275.01
373.117	296.25
373.498	274.55
373.879	279.53
374.26	273.88
374.641	275.68
375.021	275.68
375.402	270.49
375.783	282.24
376.163	274.78
376.544	272.52
376.925	293.31
377.305	277.27
377.686	287.21
378.066	262.8
378.447	298.74
378.827	291.05
379.208	278.4
379.588	299.86
379.968	287.44
380.349	268.23
380.729	272.97
381.109	302.12
381.489	305.06
381.87	293.54
382.25	283.59
382.63	287.89
383.01	293.76
383.39	293.31
383.77	300.54
384.15	296.02
384.53	278.17
384.91	298.74
385.29	298.28
385.67	285.63
386.049	293.31
386.429	287.44
386.809	287.89
387.189	302.35
387.568	297.83
387.948	302.8
388.328	299.86
388.707	295.12
389.087	317.27
389.466	293.31
389.846	313.65
390.225	311.84
390.605	307.1
390.984	291.28
391.363	322.69
391.743	303.25
392.122	317.94
392.501	308.45
392.881	313.2
393.26	326.08
393.639	331.95
394.018	307.77
394.397	310.71
394.776	323.37
395.155	325.63
395.534	314.78
395.913	289.02
396.292	320.2
396.671	308.23
397.05	339.64
397.429	331.95
397.808	317.72
398.186	336.02
398.565	330.15
398.944	348
399.323	324.5
399.701	305.29
400.08	324.95
400.458	326.98
400.837	350.26
401.215	332.41
401.594	321.56
401.972	327.43
402.351	323.82
402.729	346.87
403.107	328.34
403.486	351.62
403.864	326.98
404.242	340.99
404.62	318.4
404.999	345.29
405.377	335.12
405.755	350.94
406.133	333.76
406.511	333.76
406.889	370.37
407.267	339.64
407.645	358.85
408.023	342.35
408.401	364.95
408.779	336.25
409.156	362.91
409.534	370.15
409.912	355.91
410.29	371.95
410.667	344.61
411.045	353.2
411.422	357.26
411.8	357.04
412.178	370.37
412.555	364.5
412.933	376.02
413.31	364.27
413.687	376.7
414.065	360.43
414.442	351.62
414.819	384.83
415.197	366.3
415.574	383.03
415.951	377.83
416.328	390.71
416.705	389.35
417.082	381.67
417.46	384.61
417.837	395
418.214	397.72
418.591	383.48
418.967	402.69
419.344	383.03
419.721	393.65
420.098	390.48
420.475	405.17
420.852	388.9
421.228	378.06
421.605	412.18
421.982	411.95
422.358	412.18
422.735	401.11
423.111	415.12
423.488	407.43
423.864	421.22
424.241	424.83
424.617	412.4
424.994	410.6
425.37	414.89
425.746	453.76
426.123	448.34
426.499	408.11
426.875	437.04
427.251	437.71
427.627	460.99
428.003	420.77
428.379	455.34
428.756	447.66
429.132	446.98
429.507	462.35
429.883	470.03
430.259	449.92
430.635	468.22
431.011	476.81
431.387	452.63
431.763	449.69
432.138	471.84
432.514	461.89
432.89	498.28
433.265	481.33
433.641	495.57
434.016	493.53
434.392	480.88
434.767	502.35
435.143	514.55
435.518	505.28
435.894	539.41
436.269	529.92
436.644	532.18
437.02	532.85
437.395	552.06
437.77	553.19
438.145	545.51
438.52	532.85
438.895	551.61
439.271	561.55
439.646	566.07
440.021	563.81
440.395	532.18
440.77	559.52
441.145	559.97
441.52	562.46
441.895	577.6
442.27	569.91
442.645	584.15
443.019	600.42
443.394	576.69
443.769	603.59
444.143	599.07
444.518	609.01
444.892	623.7
445.267	614.66
445.641	617.6
446.016	601.55
446.39	636.58
446.764	632.29
447.139	638.16
447.513	630.93
447.887	635.45
448.262	633.42
448.636	636.58
449.01	652.17
449.384	646.75
449.758	653.75
450.132	666.41
450.506	638.84
450.88	668.67
451.254	658.05
451.628	654.21
452.002	661.89
452.376	702.11
452.75	677.93
453.123	678.39
453.497	684.26
453.871	687.65
454.244	703.47
454.618	702.34
454.992	709.12
455.365	721.1
455.739	734.43
456.112	715.22
456.486	738.95
456.859	740.31
457.232	745.95
457.606	717.26
457.979	731.94
458.352	748.44
458.725	747.08
459.099	763.58
459.472	772.39
459.845	765.39
460.218	783.02
460.591	773.75
460.964	793.64
461.337	778.27
461.71	828.44
462.083	816.69
462.456	803.58
462.829	775.33
463.201	818.5
463.574	820.08
463.947	812.39
464.32	829.79
464.692	823.47
465.065	842.22
465.438	816.01
465.81	844.48
466.183	810.36
466.555	859.17
466.928	829.12
467.3	860.3
467.672	846.29
468.045	888.55
468.417	891.49
468.789	878.83
469.161	871.83
469.534	888.55
469.906	903.69
470.278	906.4
470.65	901.43
471.022	923.35
471.394	929.9
471.766	926.97
472.138	956.12
472.51	975.55
472.882	946.4
473.253	950.24
473.625	964.48
473.997	974.42
474.369	979.85
474.74	984.82
475.112	1013.97
475.484	982.11
475.855	1016.91
476.227	1032.73
476.598	1032.5
476.97	1048.77
477.341	1054.65
477.713	1047.19
478.084	1064.59
478.455	1078.83
478.827	1085.16
479.198	1075.21
479.569	1068.66
479.94	1119.05
480.311	1110.92
480.682	1121.54
481.053	1159.5
481.424	1158.15
481.795	1160.63
482.166	1187.98
482.537	1180.07
482.908	1201.54
483.279	1213.06
483.65	1200.63
484.021	1223.68
484.391	1202.67
484.762	1202.21
485.133	1216.68
485.503	1217.13
485.874	1251.93
486.244	1251.7
486.615	1267.3
486.985	1247.18
487.356	1288.99
487.726	1295.77
488.097	1287.86
488.467	1280.63
488.837	1286.05
489.207	1328.76
489.578	1298.03
489.948	1314.75
490.318	1311.36
490.688	1326.05
491.058	1341.87
491.428	1352.72
491.798	1345.94
492.168	1356.56
492.538	1341.19
492.908	1364.92
493.278	1372.15
493.648	1349.78
494.017	1386.39
494.387	1336.9
494.757	1365.15
495.126	1389.33
495.496	1373.51
495.866	1368.31
496.235	1367.41
496.605	1400.63
496.974	1365.83
497.344	1359.5
497.713	1373.06
498.082	1387.97
498.452	1373.06
498.821	1359.27
499.19	1400.4
499.559	1373.96
499.928	1382.32
500.298	1389.78
500.667	1340.52
501.036	1359.72
501.405	1360.85
501.774	1340.29
502.143	1371.25
502.512	1353.4
502.88	1376.9
503.249	1382.1
503.618	1364.24
503.987	1354.75
504.356	1372.61
504.724	1354.3
505.093	1349.1
505.462	1358.59
505.83	1359.27
506.199	1372.38
506.567	1379.16
506.936	1359.05
507.304	1321.99
507.672	1353.4
508.041	1353.4
508.409	1361.76
508.777	1358.37
509.145	1348.88
509.514	1352.94
509.882	1340.52
510.25	1339.61
510.618	1368.54
510.986	1344.36
511.354	1346.62
511.722	1328.09
512.09	1358.37
512.458	1315.88
512.826	1353.4
513.193	1281.76
513.561	1312.72
513.929	1281.08
514.297	1316.56
514.664	1307.97
515.032	1290.35
515.4	1330.57
515.767	1314.98
516.135	1299.39
516.502	1314.98
516.869	1320.4
517.237	1317.24
517.604	1265.49
517.972	1300.29
518.339	1293.96
518.706	1284.47
519.073	1275.88
519.44	1287.64
519.808	1294.42
520.175	1273.85
520.542	1290.12
520.909	1292.83
521.276	1262.78
521.643	1277.47
522.009	1281.53
522.376	1268.43
522.743	1272.27
523.11	1272.72
523.477	1271.14
523.843	1268.2
524.21	1286.96
524.577	1268.2
524.943	1251.25
525.31	1256.45
525.676	1271.36
526.043	1270.46
526.409	1270.01
526.776	1286.96
527.142	1277.92
527.508	1265.72
527.874	1265.26
528.241	1256.45
528.607	1261.87
528.973	1267.3
529.339	1239.28
529.705	1264.36
530.071	1244.47
530.437	1278.14
530.803	1275.88
531.169	1241.54
531.535	1261.65
531.901	1263.91
532.267	1248.31
532.632	1248.77
532.998	1255.55
533.364	1253.74
533.73	1290.57
534.095	1255.55
534.461	1241.76
534.826	1263.68
535.192	1234.76
535.557	1257.81
535.923	1241.31
536.288	1233.4
536.653	1242.44
537.019	1240.18
537.384	1220.07
537.749	1248.31
538.114	1232.5
538.479	1244.47
538.845	1212.16
539.21	1212.16
539.575	1209.9
539.94	1217.13
540.305	1243.57
540.67	1225.72
541.034	1238.82
541.399	1257.58
541.764	1213.97
542.129	1214.64
542.494	1229.33
542.858	1223.91
543.223	1243.12
543.587	1199.95
543.952	1197.24
544.316	1209.22
544.681	1225.04
545.045	1197.69
545.41	1242.89
545.774	1225.49
546.138	1202.89
546.503	1194.3
546.867	1202.89
547.231	1192.04
547.595	1227.98
547.959	1195.66
548.324	1213.06
548.688	1201.08
549.052	1178.94
549.416	1194.3
549.779	1188.43
550.143	1186.85
550.507	1204.93
550.871	1225.04
551.235	1199.73
551.599	1206.96
551.962	1192.5
552.326	1184.81
552.689	1166.51
553.053	1159.5
553.417	1218.03
553.78	1191.59
554.143	1175.55
554.507	1187.3
554.87	1174.87
555.234	1169.45
555.597	1150.24
555.96	1166.28
556.323	1207.64
556.686	1166.06
557.05	1163.12
557.413	1180.97
557.776	1173.97
558.139	1164.7
558.502	1190.01
558.865	1166.28
559.228	1178.26
559.59	1167.86
559.953	1153.63
560.316	1170.8
560.679	1179.62
561.041	1178.03
561.404	1172.38
561.767	1154.31
562.129	1166.51
562.492	1160.86
562.854	1191.14
563.217	1181.88
563.579	1201.54
563.941	1189.79
564.304	1185.04
564.666	1184.36
565.028	1183.91
565.39	1171.71
565.753	1165.6
566.115	1201.31
566.477	1207.41
566.839	1212.38
567.201	1185.27
567.563	1187.53
567.925	1212.84
568.287	1189.11
568.648	1203.8
569.01	1198.37
569.372	1206.73
569.734	1206.96
570.095	1223.46
570.457	1191.37
570.819	1239.28
571.18	1218.71
571.542	1215.1
571.903	1236.34
572.265	1221.87
572.626	1234.98
572.987	1229.11
573.349	1247.41
573.71	1246.96
574.071	1224.36
574.432	1252.16
574.794	1266.85
575.155	1235.66
575.516	1241.76
575.877	1234.53
576.238	1271.36
576.599	1262.1
576.96	1260.29
577.32	1272.95
577.681	1237.24
578.042	1277.24
578.403	1259.39
578.763	1283.57
579.124	1298.93
579.485	1295.77
579.845	1283.12
580.206	1305.94
580.566	1280.63
580.927	1295.09
581.287	1289.44
581.648	1298.03
582.008	1307.97
582.368	1296.22
582.728	1301.42
583.089	1305.04
583.449	1301.87
583.809	1306.62
584.169	1303.68
584.529	1313.62
584.889	1321.76
585.249	1325.15
585.609	1306.84
585.969	1303.45
586.329	1328.09
586.688	1325.15
587.048	1317.69
587.408	1310.69
587.768	1336.22
588.127	1323.34
588.487	1308.88
588.846	1328.31
589.206	1292.61
589.565	1332.83
589.925	1315.66
590.284	1324.92
590.643	1322.44
591.003	1313.4
591.362	1317.01
591.721	1312.49
592.08	1317.69
592.44	1338.03
592.799	1342.78
593.158	1310.23
593.517	1324.92
593.876	1320.18
594.235	1308.43
594.593	1313.4
594.952	1321.53
595.311	1341.87
595.67	1318.37
596.029	1321.99
596.387	1317.69
596.746	1323.34
597.104	1311.36
597.463	1292.83
597.822	1322.66
598.18	1317.47
598.538	1314.08
598.897	1349.33
599.255	1322.89
599.613	1322.66
599.972	1302.55
600.33	1303
600.688	1301.42
601.046	1319.73
601.404	1323.57
601.762	1312.27
602.12	1306.84
602.478	1329.22
602.836	1314.98
603.194	1315.43
603.552	1349.78
603.91	1310.01
604.268	1342.32
604.625	1320.4
604.983	1321.08
605.341	1307.75
605.698	1322.44
606.056	1331.48
606.413	1313.62
606.771	1310.01
607.128	1327.63
607.485	1280.18
607.843	1307.97
608.2	1326.28
608.557	1324.47
608.914	1306.84
609.272	1320.18
609.629	1310.46
609.986	1326.5
610.343	1331.48
610.7	1330.8
611.057	1328.09
611.414	1328.76
611.771	1323.57
612.127	1313.4
612.484	1348.88
612.841	1304.81
613.198	1327.41
613.554	1347.3
613.911	1347.97
614.267	1305.04
614.624	1340.52
614.98	1338.26
615.337	1354.75
615.693	1335.09
616.05	1319.05
616.406	1322.66
616.762	1358.14
617.118	1343.68
617.475	1330.8
617.831	1332.83
618.187	1320.86
618.543	1347.52
618.899	1364.02
619.255	1353.85
619.611	1333.96
619.967	1335.54
620.323	1358.59
620.678	1347.3
621.034	1339.84
621.39	1331.02
621.746	1333.28
622.101	1369.89
622.457	1356.56
622.812	1321.99
623.168	1351.14
623.523	1323.11
623.879	1352.72
624.234	1344.81
624.589	1365.6
624.945	1356.33
625.3	1319.95
625.655	1327.18
626.01	1349.1
626.365	1373.28
626.72	1350.23
627.075	1341.65
627.43	1359.27
627.785	1335.77
628.14	1375.32
628.495	1374.41
628.85	1365.83
629.205	1362.44
629.559	1375.09
629.914	1350.46
630.269	1363.57
630.623	1357.92
630.978	1363.57
631.332	1338.48
631.687	1335.77
632.041	1344.36
632.396	1364.7
632.75	1348.88
633.104	1345.26
633.459	1336.22
633.813	1382.32
634.167	1355.66
634.521	1363.34
634.875	1350.01
635.229	1360.63
635.583	1370.57
635.937	1359.05
636.291	1338.71
636.645	1358.59
636.999	1363.11
637.352	1330.12
637.706	1366.96
638.06	1372.61
638.413	1353.85
638.767	1350.68
639.121	1307.52
639.474	1341.65
639.828	1368.09
640.181	1367.86
640.534	1362.44
640.888	1355.2
641.241	1353.4
641.594	1359.27
641.947	1330.35
642.301	1363.79
642.654	1349.55
643.007	1380.97
643.36	1361.53
643.713	1333.96
644.066	1363.57
644.419	1344.58
644.771	1329.89
645.124	1334.41
645.477	1352.72
645.83	1348.42
646.182	1334.19
646.535	1332.15
646.888	1314.98
647.24	1349.33
647.593	1375.32
647.945	1369.89
648.298	1371.93
648.65	1336.45
649.002	1347.97
649.355	1368.76
649.707	1332.61
650.059	1341.19
650.411	1375.77
650.763	1355.66
651.115	1369.22
651.467	1372.15
651.819	1367.18
652.171	1378.48
652.523	1400.4
652.875	1365.37
653.227	1380.06
653.578	1373.28
653.93	1388.42
654.282	1390.68
654.633	1387.75
654.985	1381.19
655.337	1380.74
655.688	1391.14
656.039	1413.06
656.391	1398.14
656.742	1366.73
657.094	1410.8
657.445	1374.86
657.796	1415.32
658.147	1411.47
658.498	1397.69
658.849	1411.25
659.2	1383.68
659.551	1420.06
659.902	1392.49
660.253	1428.65
660.604	1405.82
660.955	1411.02
661.306	1405.82
661.656	1396.33
662.007	1403.79
662.358	1446.5
662.708	1367.41
663.059	1384.58
663.409	1405.6
663.76	1399.27
664.11	1425.49
664.461	1413.96
664.811	1415.32
665.161	1445.82
665.511	1432.72
665.862	1430
666.212	1433.17
666.562	1442.89
666.912	1413.73
667.262	1387.97
667.612	1398.37
667.962	1413.28
668.312	1436.78
668.662	1426.16
669.011	1435.88
669.361	1432.94
669.711	1413.96
670.06	1420.29
670.41	1422.1
670.76	1419.61
671.109	1419.61
671.459	1389.33
671.808	1397.01
672.157	1391.14
672.507	1392.94
672.856	1404.47
673.205	1401.53
673.554	1397.92
673.904	1422.55
674.253	1388.42
674.602	1402.21
674.951	1395.43
675.3	1350.91
675.649	1385.03
675.998	1373.74
676.346	1377.58
676.695	1377.8
677.044	1380.74
677.393	1386.84
677.741	1395.66
678.09	1348.88
678.438	1364.47
678.787	1365.83
679.135	1348.2
679.484	1356.56
679.832	1394.53
680.181	1377.35
680.529	1362.66
680.877	1333.51
681.225	1358.37
681.573	1356.11
681.922	1328.54
682.27	1334.19
682.618	1341.65
682.966	1328.54
683.314	1328.09
683.661	1339.84
684.009	1340.74
684.357	1333.96
684.705	1350.91
685.053	1307.97
685.4	1318.37
685.748	1322.44
686.095	1324.24
686.443	1283.79
686.79	1322.44
687.138	1309.33
687.485	1301.65
687.832	1307.07
688.18	1281.31
688.527	1322.66
688.874	1318.6
689.221	1281.31
689.568	1267.07
689.915	1307.07
690.262	1286.51
690.609	1305.94
690.956	1270.91
691.303	1305.04
691.65	1273.85
691.997	1285.15
692.344	1272.72
692.69	1272.27
693.037	1245.15
693.383	1273.85
693.73	1282.89
694.077	1234.3
694.423	1267.07
694.769	1233.63
695.116	1255.55
695.462	1244.47
695.808	1233.63
696.155	1239.73
696.501	1237.47
696.847	1230.91
697.193	1229.56
697.539	1232.95
697.885	1230.24
698.231	1219.16
698.577	1215.1
698.923	1210.12
699.269	1220.07
699.614	1227.52
699.96	1235.21
700.306	1206.73
700.651	1194.08
700.997	1204.47
701.342	1217.58
701.688	1200.63
702.033	1211.03
702.379	1220.97
702.724	1200.18
703.069	1189.33
703.415	1205.6
703.76	1196.56
704.105	1185.49
704.45	1204.7
704.795	1203.57
705.14	1168.09
705.485	1199.5
705.83	1183.46
706.175	1194.08
706.52	1194.53
706.865	1212.84
707.209	1187.75
707.554	1186.4
707.899	1176.9
708.243	1178.94
708.588	1164.93
708.932	1178.49
709.277	1167.41
709.621	1185.94
709.966	1177.36
710.31	1184.81
710.654	1181.2
710.998	1192.5
711.342	1201.99
711.687	1178.26
712.031	1191.59
712.375	1185.94
712.719	1202.21
713.063	1175.55
713.407	1204.47
713.75	1207.64
714.094	1212.84
714.438	1197.02
714.782	1187.07
715.125	1215.55
715.469	1212.61
715.812	1212.16
716.156	1197.24
716.499	1205.83
716.843	1212.16
717.186	1194.08
717.53	1220.74
717.873	1195.89
718.216	1216.23
718.559	1229.78
718.902	1211.03
719.246	1205.83
719.589	1204.25
719.932	1210.8
720.275	1224.13
720.617	1217.13
720.96	1230.91
721.303	1223.68
721.646	1256
721.989	1232.04
722.331	1239.73
722.674	1253.51
723.016	1225.26
723.359	1252.38
723.701	1247.41
724.044	1250.8
724.386	1289.67
724.729	1266.62
725.071	1297.8
725.413	1262.55
725.755	1289.67
726.097	1299.16
726.439	1275.43
726.782	1286.05
727.124	1291.7
727.465	1258.26
727.807	1310.23
728.149	1330.57
728.491	1298.03
728.833	1309.1
729.175	1326.28
729.516	1326.96
729.858	1304.36
730.199	1347.3
730.541	1344.81
730.882	1333.96
731.224	1345.49
731.565	1349.55
731.906	1373.96
732.248	1373.51
732.589	1383.68
732.93	1394.53
733.271	1398.14
733.612	1419.84
733.953	1413.28
734.294	1410.34
734.635	1395.66
734.976	1402.66
735.317	1415.99
735.658	1409.89
735.999	1437.01
736.339	1430
736.68	1429.55
737.021	1468.2
737.361	1474.3
737.702	1513.62
738.042	1519.49
738.383	1503.22
738.723	1505.71
739.063	1499.61
739.404	1539.83
739.744	1542.32
740.084	1531.7
740.424	1551.58
740.764	1613.95
741.104	1594.75
741.444	1624.8
741.784	1633.16
742.124	1630.68
742.464	1655.99
742.804	1651.92
743.143	1665.48
743.483	1680.17
743.823	1680.62
744.162	1715.65
744.502	1743.89
744.841	1758.36
745.181	1769.2
745.52	1807.4
745.86	1826.15
746.199	1845.36
746.538	1862.31
746.877	1881.29
747.216	1933.72
747.556	1933.27
747.895	1957.67
748.234	1971.46
748.573	1997.22
748.911	2018.69
749.25	2041.51
749.589	2068.18
749.928	2096.43
750.267	2115.64
750.605	2150.66
750.944	2213.26
751.283	2217.33
751.621	2256.88
751.96	2275.41
752.298	2290.32
752.636	2372.8
752.975	2407.15
753.313	2419.58
753.651	2496.19
753.989	2521.95
754.327	2541.16
754.666	2611.89
755.004	2648.28
755.342	2644.21
755.679	2677.88
756.017	2723.53
756.355	2769.4
756.693	2825
757.031	2854.37
757.368	2939.34
757.706	2940.25
758.044	3003.75
758.381	3033.13
758.719	3088.04
759.056	3133.69
759.394	3171.43
759.731	3204.42
760.068	3253.23
760.405	3309.73
760.743	3332.1
761.08	3388.15
761.417	3439.67
761.754	3451.42
762.091	3519.67
762.428	3554.24
762.765	3588.82
763.102	3656.61
763.438	3676.73
763.775	3691.87
764.112	3750.85
764.449	3809.6
764.785	3847.34
765.122	3897.96
765.458	3951.97
765.795	3916.27
766.131	3954.46
766.467	4049.14
766.804	4024.06
767.14	4064.96
767.476	4102.93
767.812	4142.93
768.148	4196.49
768.485	4182.93
768.821	4181.57
769.157	4193.1
769.492	4290.72
769.828	4325.75
770.164	4289.82
770.5	4316.48
770.836	4372.98
771.171	4373.43
771.507	4414.79
771.842	4391.06
772.178	4488.68
772.513	4488.46
772.849	4490.04
773.184	4510.15
773.519	4532.07
773.855	4557.38
774.19	4548.11
774.525	4543.6
774.86	4586.76
775.195	4623.37
775.53	4624.72
775.865	4627.89
776.2	4686.87
776.535	4608.23
776.87	4640.32
777.205	4692.97
777.539	4591.73
777.874	4688.45
778.209	4679.64
778.543	4675.34
778.878	4686.87
779.212	4678.51
779.547	4687.09
779.881	4743.14
780.215	4709.24
780.55	4733.87
780.884	4739.3
781.218	4685.29
781.552	4760.31
781.886	4772.29
782.22	4722.35
782.554	4734.32
782.888	4678.73
783.222	4707.43
783.556	4705.4
783.889	4730.26
784.223	4699.07
784.557	4718.96
784.89	4754.21
785.224	4697.72
785.557	4701.78
785.891	4753.53
786.224	4678.73
786.558	4737.94
786.891	4671.28
787.224	4727.09
787.557	4740.43
787.891	4693.65
788.224	4754.66
788.557	4739.52
788.89	4705.4
789.223	4732.29
789.556	4759.41
789.888	4676.93
790.221	4750.37
790.554	4704.27
790.887	4653.2
791.219	4679.86
791.552	4706.75
791.884	4723.25
792.217	4645.51
792.549	4655.46
792.882	4692.97
793.214	4638.06
793.546	4652.74
793.879	4613.42
794.211	4630.6
794.543	4584.95
794.875	4624.05
795.207	4640.32
795.539	4602.12
795.871	4637.38
796.203	4612.52
796.535	4599.19
796.867	4607.55
797.198	4563.26
797.53	4598.96
797.862	4563.71
798.193	4576.14
798.525	4518.51
798.856	4542.69
799.188	4549.24
799.519	4506.76
799.85	4540.88
800.182	4513.09
800.513	4527.32
800.844	4442.13
801.175	4514.9
801.506	4480.32
801.837	4460.21
802.168	4488.46
802.499	4505.18
802.83	4433.09
803.161	4414.79
803.491	4440.55
803.822	4459.98
804.153	4454.33
804.483	4421.34
804.814	4346.54
805.145	4393.32
805.475	4375.46
805.805	4390.6
806.136	4351.06
806.466	4395.35
806.796	4388.8
807.126	4330.95
807.457	4330.49
807.787	4355.13
808.117	4320.78
808.447	4319.19
808.777	4356.26
809.107	4328.69
809.436	4294.11
809.766	4295.24
810.096	4260.89
810.426	4296.6
810.755	4272.64
811.085	4266.99
811.414	4283.72
811.744	4234
812.073	4225.19
812.403	4262.25
812.732	4237.16
813.061	4240.33
813.39	4203.27
813.719	4200.33
814.049	4217.5
814.378	4231.74
814.707	4181.57
815.036	4215.92
815.365	4210.5
815.693	4124.85
816.022	4166.2
816.351	4159.42
816.68	4141.8
817.008	4129.82
817.337	4104.06
817.665	4106.09
817.994	4103.15
818.322	4099.31
818.651	4116.94
818.979	4109.26
819.307	4110.61
819.636	4068.58
819.964	4097.28
820.292	4062.7
820.62	4077.17
820.948	4045.98
821.276	4096.6
821.604	4060.22
821.932	4064.06
822.259	4076.71
822.587	4067.9
822.915	4056.83
823.243	4075.13
823.57	4029.03
823.898	4103.38
824.225	4053.66
824.553	4040.11
824.88	4087.79
825.207	4086.88
825.535	4098.41
825.862	4137.5
826.189	4091.18
826.516	4082.36
826.843	4157.84
827.17	4110.61
827.497	4094.57
827.824	4135.24
828.151	4140.44
828.478	4110.84
828.805	4141.35
829.131	4077.84
829.458	4097.28
829.785	4126.66
830.111	4062.93
830.438	4088.01
830.764	4102.7
831.09	4069.71
831.417	4094.79
831.743	4100.22
832.069	4097.51
832.395	4089.37
832.722	4080.56
833.048	4090.5
833.374	4089.37
833.7	4067.68
834.026	4043.5
834.351	4107.67
834.677	4078.75
835.003	4125.75
835.329	4103.61
835.654	4083.27
835.98	4062.25
836.306	4055.92
836.631	4040.33
836.956	4080.78
837.282	4040.33
837.607	4012.99
837.932	4013.21
838.258	4041.69
838.583	4056.15
838.908	3986.77
839.233	4036.49
839.558	4018.19
839.883	3985.42
840.208	3965.98
840.533	3993.78
840.858	4025.19
841.182	3959.43
841.507	3976.83
841.832	4002.14
842.156	4016.38
842.481	3984.74
842.805	3911.52
843.13	3991.29
843.454	3975.93
843.778	3925.53
844.103	3909.26
844.427	3913.56
844.751	3883.27
845.075	3887.34
845.399	3860.45
845.723	3858.87
846.047	3850.28
846.371	3819.55
846.695	3817.06
847.019	3817.96
847.343	3806.67
847.666	3758.76
847.99	3748.81
848.313	3754.92
848.637	3769.83
848.96	3725.31
849.284	3748.81
849.607	3706.1
849.931	3705.65
850.254	3700.68
850.577	3661.36
850.9	3644.41
851.223	3616.16
851.546	3645.31
851.869	3569.16
852.192	3623.39
852.515	3609.83
852.838	3560.8
853.161	3599.21
853.483	3548.37
853.806	3504.98
854.129	3554.69
854.451	3545.66
854.774	3535.49
855.096	3520.12
855.419	3484.19
855.741	3474.7
856.063	3468.6
856.385	3462.95
856.708	3473.57
857.03	3442.16
857.352	3453
857.674	3414.36
857.996	3410.07
858.318	3408.03
858.64	3400.12
858.961	3372.55
859.283	3362.84
859.605	3363.51
859.926	3378.88
860.248	3384.3
860.57	3318.09
860.891	3333.68
861.212	3330.97
861.534	3323.06
861.855	3326.9
862.176	3320.58
862.498	3304.53
862.819	3308.37
863.14	3304.98
863.461	3270.63
863.782	3270.41
864.103	3262.72
864.424	3237.19
864.745	3281.93
865.065	3261.14
865.386	3250.52
865.707	3238.77
866.027	3252.56
866.348	3230.86
866.668	3262.05
866.989	3219.56
867.309	3197.19
867.63	3216.17
867.95	3240.35
868.27	3221.82
868.59	3208.72
868.91	3177.98
869.23	3181.15
869.55	3203.74
869.87	3214.14
870.19	3140.69
870.51	3196.51
870.83	3191.99
871.15	3167.81
871.469	3126.01
871.789	3173.69
872.109	3147.47
872.428	3122.16
872.748	3147.47
873.067	3151.77
873.386	3119
873.706	3133.91
874.025	3102.05
874.344	3100.92
874.663	3156.97
874.982	3102.05
875.301	3117.19
875.62	3090.07
875.939	3100.7
876.258	3113.35
876.577	3081.26
876.896	3097.53
877.214	3108.15
877.533	3078.55
877.852	3081.71
878.17	3080.36
878.489	3062.28
878.807	3078.77
879.125	3084.88
879.444	3042.62
879.762	3036.97
880.08	3034.48
880.398	3044.2
880.716	3032.45
881.034	3050.08
881.352	3001.71
881.67	2980.02
881.988	3019.79
882.306	3019.34
882.624	2984.99
882.941	2969.63
883.259	2949.51
883.577	2946.35
883.894	2937.99
884.212	2949.96
884.529	2936.18
884.846	2963.75
885.164	2959.46
885.481	2907.25
885.798	2932.79
886.115	2921.72
886.432	2940.02
886.75	2892.11
887.067	2860.48
887.383	2843.3
887.7	2874.71
888.017	2883.98
888.334	2842.17
888.651	2845.79
888.967	2888.72
889.284	2858.44
889.6	2814.6
889.917	2773.47
890.233	2838.33
890.55	2803.98
890.866	2805.11
891.182	2807.37
891.498	2794.49
891.815	2771.66
892.131	2753.13
892.447	2709.29
892.763	2734.83
893.079	2733.47
893.395	2767.37
893.71	2737.32
894.026	2692.8
894.342	2686.24
894.657	2672.46
894.973	2657.32
895.289	2683.31
895.604	2694.83
895.92	2700.93
896.235	2677.2
896.55	2665.9
896.865	2643.31
897.181	2610.99
897.496	2655.74
897.811	2632.46
898.126	2634.94
898.441	2609.86
898.756	2566.47
899.071	2590.88
899.386	2568.51
899.7	2542.74
900.015	2581.61
900.33	2558.11
900.644	2562.18
900.959	2534.38
901.273	2556.3
901.588	2541.84
901.902	2502.07
902.216	2498
902.531	2489.86
902.845	2460.03
903.159	2479.47
903.473	2434.05
903.787	2437.89
904.101	2400.37
904.415	2425.23
904.729	2405.57
905.042	2426.81
905.356	2408.06
905.67	2403.31
905.984	2399.47
906.297	2390.43
906.611	2373.71
906.924	2392.24
907.237	2336.87
907.551	2358.12
907.864	2326.7
908.177	2362.18
908.491	2326.93
908.804	2309.53
909.117	2298
909.43	2259.59
909.743	2285.8
910.056	2268.63
910.368	2267.04
910.681	2255.97
910.994	2226.14
911.307	2262.98
911.619	2255.75
911.932	2242.64
912.244	2212.13
912.557	2174.62
912.869	2197.89
913.181	2194.05
913.494	2199.25
913.806	2201.74
914.118	2170.32
914.43	2134.17
914.742	2148.86
915.054	2123.55
915.366	2140.72
915.678	2121.29
915.99	2106.37
916.302	2125.35
916.613	2110.21
916.925	2097.33
917.236	2092.13
917.548	2108.18
917.859	2115.86
918.171	2041.74
918.482	2064.11
918.794	2041.97
919.105	2031.12
919.416	2041.06
919.727	2017.79
920.038	2020.5
920.349	1997.67
920.66	2019.82
920.971	2035.64
921.282	1990.67
921.593	1992.93
921.903	1989.09
922.214	1965.58
922.525	1952.25
922.835	1962.19
923.146	1937.79
923.456	1939.82
923.767	1925.13
924.077	1964.23
924.387	1953.83
924.697	1899.37
925.008	1918.13
925.318	1862.08
925.628	1901.86
925.938	1888.3
926.248	1865.93
926.558	1862.99
926.867	1881.52
927.177	1868.64
927.487	1880.16
927.796	1848.52
928.106	1842.2
928.416	1837.68
928.725	1834.29
929.034	1829.99
929.344	1818.47
929.653	1843.55
929.962	1793.84
930.271	1790.67
930.581	1774.63
930.89	1758.13
931.199	1779.6
931.508	1754.74
931.817	1718.13
932.125	1775.53
932.434	1776.21
932.743	1759.71
933.051	1754.97
933.36	1745.25
933.669	1749.32
933.977	1700.96
934.286	1724.91
934.594	1697.34
934.902	1668.64
935.21	1695.08
935.519	1691.24
935.827	1679.26
936.135	1702.99
936.443	1668.64
936.751	1646.27
937.059	1659.15
937.367	1652.37
937.674	1670.68
937.982	1608.53
938.29	1656.67
938.597	1634.29
938.905	1596.1
939.213	1617.57
939.52	1632.71
939.827	1602.2
940.135	1581.87
940.442	1584.8
940.749	1592.26
941.056	1573.96
941.363	1568.53
941.67	1566.95
941.977	1568.08
942.284	1567.4
942.591	1542.54
942.898	1557.91
943.205	1533.73
943.511	1507.06
943.818	1513.84
944.125	1521.08
944.431	1515.65
944.738	1503
945.044	1501.87
945.35	1499.16
945.657	1496.44
945.963	1474.3
946.269	1491.92
946.575	1446.28
946.881	1493.05
947.187	1473.62
947.493	1464.58
947.799	1473.85
948.105	1447.86
948.41	1436.56
948.716	1431.13
949.022	1437.69
949.327	1418.93
949.633	1434.07
949.938	1412.38
950.244	1423.68
950.549	1425.03
950.854	1418.48
951.16	1399.05
951.465	1386.84
951.77	1406.05
952.075	1375.77
952.38	1392.04
952.685	1359.27
952.99	1376.9
953.294	1413.96
953.599	1378.03
953.904	1340.06
954.209	1362.21
954.513	1358.59
954.818	1338.93
955.122	1324.02
955.426	1342.32
955.731	1331.02
956.035	1328.54
956.339	1345.49
956.643	1303.23
956.948	1317.92
957.252	1328.99
957.556	1326.96
957.86	1295.77
958.163	1301.65
958.467	1283.57
958.771	1287.18
959.075	1262.78
959.378	1284.47
959.682	1278.6
959.985	1262.33
960.289	1264.59
960.592	1254.19
960.896	1273.17
961.199	1243.12
961.502	1239.28
961.805	1241.54
962.108	1233.17
962.411	1230.69
962.714	1226.85
963.017	1224.13
963.32	1194.08
963.623	1195.89
963.926	1203.57
964.228	1184.59
964.531	1184.36
964.833	1217.13
965.136	1197.47
965.438	1202.89
965.741	1189.33
966.043	1190.69
966.345	1172.16
966.648	1188.43
966.95	1174.42
967.252	1171.71
967.554	1159.5
967.856	1147.53
968.158	1138.71
968.46	1136.45
968.761	1147.75
969.063	1131.48
969.365	1135.32
969.666	1161.76
969.968	1131.93
970.269	1122.22
970.571	1127.19
970.872	1129.67
971.174	1107.75
971.475	1122.89
971.776	1096.45
972.077	1112.95
972.378	1102.78
972.679	1088.54
972.98	1084.03
973.281	1080.41
973.582	1075.89
973.883	1103.46
974.183	1074.53
974.484	1073.86
974.785	1074.53
975.085	1057.81
975.386	1070.24
975.686	1053.74
975.986	1044.93
976.287	1058.26
976.587	1034.76
976.887	1022.11
977.187	1052.16
977.487	1027.98
977.787	1041.99
978.087	1018.72
978.387	1038.15
978.687	1033.63
978.987	1009.68
979.286	1018.26
979.586	1030.69
979.885	1001.99
980.185	1000.41
980.484	998.6
980.784	1002.67
981.083	978.94
981.382	1000.86
981.682	986.4
981.981	1001.32
982.28	988.21
982.579	987.98
982.878	983.01
983.177	968.32
983.475	954.54
983.774	941.43
984.073	974.65
984.372	968.32
984.67	968.77
984.969	950.92
985.267	968.1
985.566	978.72
985.864	941.66
986.162	948.66
986.461	933.52
986.759	926.97
987.057	915.44
987.355	906.18
987.653	911.15
987.951	925.84
988.249	898.27
988.547	923.35
988.844	891.04
989.142	926.97
989.44	887.65
989.737	909.57
990.035	910.47
990.332	880.19
990.63	869.79
990.927	894.88
991.224	890.81
991.521	868.66
991.819	865.05
992.116	864.82
992.413	890.36
992.71	870.25
993.006	865.73
993.303	842.9
993.6	855.56
993.897	855.56
994.193	868.44
994.49	876.57
994.787	867.76
995.083	851.71
995.379	842.22
995.676	825.73
995.972	849
996.268	831.38
996.565	852.39
996.861	826.63
997.157	806.97
997.453	819.4
997.749	843.81
998.044	816.69
998.34	811.04
998.636	815.78
998.932	815.56
999.227	799.96
999.523	783.02
999.818	817.82
1000.114	783.24
1000.409	776.01
1000.704	771.04
1001	770.14
1001.295	772.62
1001.59	751.38
1001.885	805.61
1002.18	760.42
1002.475	779.85
1002.77	746.41
1003.065	767.2
1003.359	769.23
1003.654	752.73
1003.949	744.6
1004.243	759.51
1004.538	747.99
1004.832	728.1
1005.127	708.44
1005.421	741.21
1005.715	745.28
1006.009	764.71
1006.304	729.68
1006.598	735.11
1006.892	722.23
1007.186	714.54
1007.48	709.35
1007.773	701.44
1008.067	708.22
1008.361	715
1008.655	717.03
1008.948	698.95
1009.242	690.36
1009.535	684.94
1009.829	719.97
1010.122	722
1010.415	692.17
1010.708	682.45
1011.001	675.22
1011.295	677.48
1011.588	680.87
1011.881	666.86
1012.173	665.51
1012.466	656.24
1012.759	664.83
1013.052	670.25
1013.344	618.5
1013.637	664.38
1013.93	670.02
1014.222	660.08
1014.514	622.57
1014.807	646.75
1015.099	649.91
1015.391	667.09
1015.683	628.22
1015.976	624.38
1016.268	647.2
1016.56	619.86
1016.851	623.92
1017.143	634.77
1017.435	643.13
1017.727	634.09
1018.018	641.32
1018.31	622.34
1018.602	622.79
1018.893	595.22
1019.185	624.15
1019.476	591.61
1019.767	604.72
1020.058	592.74
1020.35	610.14
1020.641	580.08
1020.932	589.35
1021.223	584.38
1021.514	605.62
1021.804	592.06
1022.095	602.68
1022.386	597.94
1022.677	590.48
1022.967	588.44
1023.258	567.88
1023.548	582.57
1023.839	567.2
1024.129	555
1024.419	578.95
1024.709	589.57
1025	557.49
1025.29	560.65
1025.58	544.38
1025.87	546.64
1026.16	584.15
1026.449	549.12
1026.739	535.34
1027.029	532.85
1027.319	542.8
1027.608	554.77
1027.898	557.71
1028.187	539.86
1028.477	532.4
1028.766	520.88
1029.055	551.84
1029.344	539.63
1029.634	528.79
1029.923	540.54
1030.212	532.63
1030.501	528.33
1030.79	526.75
1031.078	531.05
1031.367	537.82
1031.656	521.1
1031.945	528.56
1032.233	505.51
1032.522	500.09
1032.81	522.46
1033.099	501.89
1033.387	504.38
1033.675	501.44
1033.963	511.38
1034.251	504.15
1034.54	481.78
1034.828	485.4
1035.116	513.87
1035.403	485.4
1035.691	490.14
1035.979	473.19
1036.267	493.31
1036.554	484.94
1036.842	484.72
1037.129	495.79
1037.417	493.08
1037.704	479.3
1037.992	482.69
1038.279	470.03
1038.566	470.93
1038.853	470.93
1039.14	470.93
