Data from blue_surface_keyboard_FLMS001491_051.txt Node
Date: Tue Feb 07 11:13:19 GMT 2017
User: dcchb
Spectrometer: FLMS00149
Trigger mode: 0
Integration Time (sec): 2.000000E-2
Scans to average: 10
Electric dark correction enabled: true
Nonlinearity correction enabled: false
Boxcar width: 0
XAxis mode: Wavelengths
Number of Pixels in Spectrum: 2048
>>>>>Begin Spectral Data<<<<<
341.393	-18.45
341.776	-18.45
342.16	-18.45
342.543	-62.06
342.927	-71.1
343.31	-75.39
343.693	-64.55
344.077	-74.94
344.46	-68.16
344.843	-64.32
345.226	-39.69
345.61	-24.77
345.993	-13.25
346.376	-10.76
346.759	13.64
347.142	27.43
347.525	43.25
347.908	79.63
348.291	78.05
348.674	86.41
349.057	107.43
349.44	105.39
349.823	127.77
350.206	146.3
350.588	179.29
350.971	200.53
351.354	188.78
351.737	231.94
352.119	244.37
352.502	233.52
352.884	252.73
353.267	248.89
353.65	267.2
354.032	288.44
354.414	287.99
354.797	314.2
355.179	276.69
355.562	278.04
355.944	295.44
356.326	318.72
356.709	311.49
357.091	327.99
357.473	313.97
357.855	313.07
358.238	335.67
358.62	332.73
359.002	320.3
359.384	312.39
359.766	324.6
360.148	299.06
360.53	315.56
360.912	273.98
361.294	300.19
361.676	315.1
362.057	314.43
362.439	302.45
362.821	314.43
363.203	316.46
363.584	312.39
363.966	295.22
364.348	289.12
364.729	283.92
365.111	312.84
365.493	289.34
365.874	299.96
366.256	276.46
366.637	298.38
367.019	300.87
367.4	291.15
367.781	285.5
368.163	293.41
368.544	277.59
368.925	281.21
369.306	286.18
369.688	299.96
370.069	283.47
370.45	284.15
370.831	278.5
371.212	282.79
371.593	300.87
371.974	287.08
372.355	281.89
372.736	299.96
373.117	280.3
373.498	280.3
373.879	301.77
374.26	291.83
374.641	280.53
375.021	263.13
375.402	279.85
375.783	291.38
376.163	288.21
376.544	307.65
376.925	270.81
377.305	291.83
377.686	298.83
378.066	295.9
378.447	294.31
378.827	293.18
379.208	283.24
379.588	299.06
379.968	283.02
380.349	303.81
380.729	303.35
381.109	316.01
381.489	325.95
381.87	290.92
382.25	289.34
382.63	304.03
383.01	303.58
383.39	299.51
383.77	314.43
384.15	311.04
384.53	311.26
384.91	322.56
385.29	319.85
385.67	297.03
386.049	323.92
386.429	313.97
386.809	318.49
387.189	319.4
387.568	320.98
387.948	327.53
388.328	321.66
388.707	302.22
389.087	321.21
389.466	321.43
389.846	294.77
390.225	306.74
390.605	291.15
390.984	330.25
391.363	314.65
391.743	328.89
392.122	327.76
392.501	325.27
392.881	339.51
393.26	310.59
393.639	320.75
394.018	325.73
394.397	329.57
394.776	319.17
395.155	341.54
395.534	334.99
395.913	330.25
396.292	342.22
396.671	325.5
397.05	320.75
397.429	336.8
397.808	318.49
398.186	318.95
398.565	341.77
398.944	322.79
399.323	331.6
399.701	337.93
400.08	349.68
400.458	331.6
400.837	331.15
401.215	335.22
401.594	337.25
401.972	344.03
402.351	351.49
402.729	341.77
403.107	346.97
403.486	352.62
403.864	353.97
404.242	366.4
404.62	349.68
404.999	368.44
405.377	339.06
405.755	347.65
406.133	365.5
406.511	358.04
406.889	358.95
407.267	354.2
407.645	373.41
408.023	353.3
408.401	354.2
408.779	352.62
409.156	372.96
409.534	369.34
409.912	367.76
410.29	367.31
410.667	367.98
411.045	373.41
411.422	384.03
411.8	365.5
412.178	363.92
412.555	372.05
412.933	356.91
413.31	378.83
413.687	400.75
414.065	389
414.442	380.87
414.819	386.97
415.197	401.88
415.574	375.67
415.951	381.54
416.328	406.63
416.705	390.58
417.082	400.53
417.46	402.11
417.837	412.96
418.214	384.93
418.591	391.71
418.967	391.03
419.344	391.71
419.721	419.96
420.098	385.84
420.475	381.09
420.852	403.01
421.228	424.48
421.605	390.13
421.982	415.67
422.358	414.99
422.735	409.79
423.111	401.2
423.488	416.57
423.864	424.25
424.241	411.37
424.617	404.82
424.994	406.85
425.37	419.96
425.746	426.74
426.123	433.29
426.499	416.57
426.875	434.88
427.251	440.07
427.627	437.59
428.003	427.42
428.379	450.47
428.756	421.54
429.132	459.06
429.507	440.07
429.883	443.01
430.259	474.65
430.635	452.95
431.011	440.53
431.387	441.66
431.763	463.12
432.138	459.28
432.514	480.3
432.89	476.91
433.265	487.53
433.641	474.2
434.016	474.87
434.392	484.82
434.767	468.55
435.143	498.6
435.518	480.98
435.894	476.68
436.269	491.15
436.644	484.59
437.02	501.54
437.395	494.54
437.77	496.79
438.145	506.06
438.52	491.6
438.895	525.49
439.271	500.18
439.646	515.33
440.021	514.2
440.395	503.8
440.77	519.17
441.145	511.48
441.52	526.4
441.895	503.8
442.27	524.59
442.645	508.55
443.019	535.89
443.394	512.39
443.769	534.53
444.143	532.5
444.518	519.17
444.892	525.72
445.267	514.87
445.641	562.56
446.016	539.28
446.39	534.31
446.764	531.82
447.139	556.68
447.513	555.1
447.887	553.06
448.262	567.75
448.636	564.59
449.01	569.79
449.384	555.1
449.758	545.16
450.132	552.84
450.506	574.53
450.88	544.03
451.254	567.3
451.628	559.62
452.002	593.29
452.376	574.31
452.75	571.37
453.123	575.21
453.497	606.62
453.871	591.71
454.244	589.9
454.618	607.98
454.992	604.36
455.365	577.47
455.739	626.06
456.112	611.59
456.486	631.25
456.859	611.59
457.232	619.28
457.606	633.74
457.979	628.32
458.352	639.84
458.725	628.77
459.099	643.01
459.472	664.47
459.845	641.42
460.218	646.85
460.591	674.19
460.964	658.15
461.337	660.86
461.71	669.22
462.083	691.14
462.456	666.96
462.829	675.32
463.201	687.07
463.574	677.81
463.947	679.39
464.32	679.39
464.692	698.37
465.065	730.01
465.438	711.48
465.81	721.2
466.183	722.33
466.555	744.25
466.928	716
467.3	729.78
467.672	729.78
468.045	745.38
468.417	765.49
468.789	752.38
469.161	753.96
469.534	750.8
469.906	748.09
470.278	776.56
470.65	752.38
471.022	815.66
471.394	804.13
471.766	802.78
472.138	777.01
472.51	826.28
472.882	809.78
473.253	841.64
473.625	828.09
473.997	815.2
474.369	843
474.74	861.76
475.112	850.01
475.484	859.05
475.855	907.63
476.227	881.42
476.598	920.74
476.97	913.06
477.341	929.78
477.713	910.57
478.084	897.01
478.455	917.57
478.827	942.21
479.198	982.43
479.569	972.71
479.94	1005.03
480.311	983.34
480.682	1005.26
481.053	1031.24
481.424	1012.04
481.795	1054.07
482.166	1030.57
482.537	1045.93
482.908	1058.36
483.279	1087.51
483.65	1060.17
484.021	1092.71
484.391	1061.53
484.762	1104.01
485.133	1092.49
485.503	1104.24
485.874	1145.14
486.244	1126.16
486.615	1149.89
486.985	1133.16
487.356	1157.57
487.726	1180.62
488.097	1183.33
488.467	1194.63
488.837	1188.75
489.207	1188.75
489.578	1199.83
489.948	1210.45
490.318	1254.97
490.688	1203.22
491.058	1245.02
491.428	1223.1
491.798	1242.31
492.168	1252.93
492.538	1281.63
492.908	1290.45
493.278	1273.5
493.648	1297.9
494.017	1307.17
494.387	1286.6
494.757	1298.13
495.126	1301.97
495.496	1327.73
495.866	1318.47
496.235	1332.03
496.605	1344.68
496.974	1344.23
497.344	1328.86
497.713	1337.22
498.082	1354.63
498.452	1349.88
498.821	1357.11
499.19	1379.71
499.559	1377
499.928	1380.61
500.298	1361.63
500.667	1377.9
501.036	1348.07
501.405	1376.55
501.774	1375.87
502.143	1384
502.512	1408.86
502.88	1380.16
503.249	1415.41
503.618	1433.72
503.987	1420.61
504.356	1379.71
504.724	1398.24
505.093	1416.09
505.462	1416.54
505.83	1408.64
506.199	1406.6
506.567	1443.89
506.936	1427.39
507.304	1422.19
507.672	1454.96
508.041	1459.93
508.409	1459.03
508.777	1472.59
509.145	1468.97
509.514	1466.71
509.882	1469.2
510.25	1460.16
510.618	1439.82
510.986	1466.94
511.354	1463.32
511.722	1493.38
512.09	1506.71
512.458	1494.73
512.826	1505.36
513.193	1503.32
513.561	1469.65
513.929	1505.58
514.297	1507.84
514.664	1479.59
515.032	1494.51
515.4	1520.27
515.767	1525.24
516.135	1511.91
516.502	1513.94
516.869	1525.92
517.237	1523.66
517.604	1519.59
517.972	1536.99
518.339	1523.89
518.706	1522.08
519.073	1558.01
519.44	1547.16
519.808	1536.09
520.175	1516.88
520.542	1543.32
520.909	1525.24
521.276	1569.54
521.643	1541.51
522.009	1558.24
522.376	1535.86
522.743	1555.3
523.11	1557.78
523.477	1574.05
523.843	1601.85
524.21	1614.28
524.577	1578.35
524.943	1583.09
525.31	1593.26
525.676	1645.47
526.043	1599.82
526.409	1586.71
526.776	1591.68
527.142	1623.32
527.508	1616.54
527.874	1637.1
528.241	1639.36
528.607	1619.7
528.973	1614.51
529.339	1635.52
529.705	1628.06
530.071	1628.97
530.437	1641.85
530.803	1673.94
531.169	1682.75
531.535	1649.53
531.901	1623.09
532.267	1648.4
532.632	1646.37
532.998	1666.26
533.364	1662.19
533.73	1660.38
534.095	1680.49
534.461	1663.54
534.826	1699.02
535.192	1686.37
535.557	1678.68
535.923	1668.97
536.288	1674.84
536.653	1678.68
537.019	1669.65
537.384	1660.38
537.749	1678.01
538.114	1700.83
538.479	1648.4
538.845	1685.24
539.21	1707.61
539.575	1691.34
539.94	1695.18
540.305	1689.98
540.67	1715.29
541.034	1687.05
541.399	1698.8
541.764	1713.94
542.129	1690.21
542.494	1705.35
542.858	1713.71
543.223	1669.65
543.587	1685.69
543.952	1701.51
544.316	1742.64
544.681	1699.93
545.045	1714.62
545.41	1707.61
545.774	1702.86
546.138	1727.5
546.503	1706.03
546.867	1703.09
547.231	1719.81
547.595	1704.45
547.959	1728.85
548.324	1678.68
548.688	1695.41
549.052	1722.53
549.416	1720.94
549.779	1747.38
550.143	1713.03
550.507	1715.07
550.871	1750.32
551.235	1694.28
551.599	1703.77
551.962	1766.82
552.326	1711.9
552.689	1759.36
553.053	1721.62
553.417	1738.12
553.78	1723.66
554.143	1733.6
554.507	1760.26
554.87	1739.47
555.234	1725.69
555.597	1728.17
555.96	1729.3
556.323	1778.12
556.686	1725.24
557.05	1753.71
557.413	1770.21
557.776	1760.04
558.139	1753.71
558.502	1766.82
558.865	1745.8
559.228	1763.88
559.59	1762.75
559.953	1764.78
560.316	1795.74
560.679	1793.03
561.041	1765.01
561.404	1794.84
561.767	1778.12
562.129	1780.6
562.492	1781.28
562.854	1755.07
563.217	1785.12
563.579	1822.41
563.941	1810.43
564.304	1798.91
564.666	1830.77
565.028	1807.04
565.39	1805.91
565.753	1802.07
566.115	1788.51
566.477	1818.12
566.839	1833.93
567.201	1849.75
567.563	1833.71
567.925	1860.37
568.287	1810.88
568.648	1843.65
569.01	1865.57
569.372	1834.61
569.734	1837.32
570.095	1862.86
570.457	1864.89
570.819	1844.56
571.18	1872.13
571.542	1859.02
571.903	1873.26
572.265	1861.96
572.626	1867.38
572.987	1861.05
573.349	1854.73
573.71	1866.48
574.071	1872.58
574.432	1882.97
574.794	1932.92
575.155	1914.84
575.516	1893.59
575.877	1871.9
576.238	1899.7
576.599	1898.79
576.96	1858.34
577.32	1906.25
577.681	1884.78
578.042	1896.98
578.403	1912.35
578.763	1880.71
579.124	1903.09
579.485	1903.31
579.845	1903.99
580.206	1905.35
580.566	1939.24
580.927	1918.23
581.287	1929.07
581.648	1910.54
582.008	1939.24
582.368	1912.58
582.728	1910.54
583.089	1944.67
583.449	1900.37
583.809	1899.24
584.169	1936.98
584.529	1909.87
584.889	1948.06
585.249	1933.82
585.609	1962.97
585.969	1950.99
586.329	1916.19
586.688	1923.65
587.048	1965.91
587.408	1934.05
587.768	1904.44
588.127	1942.18
588.487	1900.37
588.846	1960.94
589.206	1925.68
589.565	1896.76
589.925	1941.5
590.284	1920.26
590.643	1929.07
591.003	1953.48
591.362	1951.22
591.721	1916.42
592.08	1961.16
592.44	1955.74
592.799	1938.11
593.158	1914.61
593.517	1941.5
593.876	1968.62
594.235	1941.73
594.593	1946.25
594.952	1937.66
595.311	1927.49
595.67	1959.13
596.029	1959.58
596.387	2005.68
596.746	1999.58
597.104	1969.98
597.463	1935.85
597.822	1993.7
598.18	1961.16
598.538	1978.56
598.897	1987.6
599.255	1946.47
599.613	1998.68
599.972	1962.52
600.33	1962.97
600.688	1970.2
601.046	1997.32
601.404	1972.24
601.762	1979.92
602.12	1996.87
602.478	1992.12
602.836	2020.14
603.194	1969.98
603.552	1995.74
603.91	2012.91
604.268	2020.37
604.625	1986.7
604.983	2007.26
605.341	1999.35
605.698	1989.18
606.056	2027.83
606.413	2048.62
606.771	2012.91
607.128	2005.68
607.485	1998.9
607.843	1990.31
608.2	1992.57
608.557	2018.11
608.914	2041.16
609.272	2027.38
609.629	2033.7
609.986	2023.53
610.343	2040.26
610.7	2021.73
611.057	2048.62
611.414	2015.4
611.771	2038.9
612.127	2037.32
612.484	2041.16
612.841	2057.21
613.198	2055.4
613.554	2065.34
613.911	2072.12
614.267	2039.35
614.624	2068.05
614.98	2070.99
615.337	2083.65
615.693	2078.22
616.05	2082.29
616.406	2107.83
616.762	2057.21
617.118	2085.91
617.475	2099.69
617.831	2117.09
618.187	2096.07
618.543	2122.74
618.899	2077.54
619.255	2103.53
619.611	2111.22
619.967	2143.31
620.323	2124.32
620.678	2109.18
621.034	2126.58
621.39	2110.54
621.746	2134.72
622.101	2117.77
622.457	2117.09
622.812	2142.18
623.168	2133.36
623.523	2153.93
623.879	2157.32
624.234	2143.53
624.589	2161.16
624.945	2155.96
625.3	2136.07
625.655	2151.21
626.01	2167.03
626.365	2158.22
626.72	2146.24
627.075	2162.06
627.43	2166.58
627.785	2167.49
628.14	2170.42
628.495	2193.7
628.85	2214.26
629.205	2169.75
629.559	2177.43
629.914	2181.04
630.269	2186.47
630.623	2186.02
630.978	2185.11
631.332	2220.82
631.687	2246.58
632.041	2198.67
632.396	2223.76
632.75	2199.8
633.104	2228.5
633.459	2242.29
633.813	2215.39
634.167	2218.33
634.521	2220.59
634.875	2261.27
635.229	2242.96
635.583	2256.3
635.937	2219.91
636.291	2281.15
636.645	2261.95
636.999	2249.74
637.352	2228.27
637.706	2300.82
638.06	2253.13
638.413	2241.83
638.767	2281.15
639.121	2263.53
639.474	2302.85
639.828	2254.49
640.181	2326.58
640.534	2283.19
640.888	2315.96
641.241	2298.33
641.594	2304.43
641.947	2315.28
642.301	2337.65
642.654	2321.15
643.007	2348.72
643.36	2343.53
643.713	2360.02
644.066	2379.46
644.419	2356.41
644.771	2353.47
645.124	2355.28
645.477	2326.8
645.83	2355.5
646.182	2382.85
646.535	2332
646.888	2350.76
647.24	2338.1
647.593	2329.97
647.945	2388.5
648.298	2394.37
648.65	2418.1
649.002	2394.37
649.355	2421.72
649.707	2391.66
650.059	2451.09
650.411	2461.94
650.763	2473.24
651.115	2559.11
651.467	2508.49
651.819	2484.09
652.171	2536.29
652.523	2541.71
652.875	2529.96
653.227	2557.08
653.578	2568.38
653.93	2577.19
654.282	2577.42
654.633	2565.67
654.985	2561.37
655.337	2610.41
655.688	2586.91
656.039	2647.47
656.391	2639.56
656.742	2649.96
657.094	2658.77
657.445	2670.97
657.796	2699
658.147	2716.85
658.498	2670.97
658.849	2688.83
659.2	2706
659.551	2678.43
659.902	2731.99
660.253	2773.12
660.604	2794.81
660.955	2756.62
661.306	2783.29
661.656	2784.42
662.007	2816.28
662.358	2821.71
662.708	2829.84
663.059	2854.7
663.409	2840.69
663.76	2871.2
664.11	2840.01
664.461	2921.82
664.811	2884.08
665.161	2921.82
665.511	2901.48
665.862	2957.97
666.212	2969.95
666.562	2979.22
666.912	2995.26
667.262	3026.22
667.612	2990.97
667.962	3083.17
668.312	3005.88
668.662	3058.76
669.011	3106.22
669.361	3091.98
669.711	3106.44
670.06	3134.01
670.41	3110.29
670.76	3124.97
671.109	3155.26
671.459	3167.69
671.808	3146.44
672.157	3191.19
672.507	3172.2
672.856	3220.34
673.205	3213.11
673.554	3221.92
673.904	3244.52
674.253	3259.66
674.602	3245.42
674.951	3222.82
675.3	3288.59
675.649	3283.84
675.998	3280.9
676.346	3314.35
676.695	3327.91
677.044	3325.42
677.393	3361.13
677.741	3367
678.09	3371.97
678.438	3404.29
678.787	3401.58
679.135	3441.8
679.484	3395.02
679.832	3424.4
680.181	3425.08
680.529	3473.21
680.877	3486.77
681.225	3495.59
681.573	3547.34
681.922	3486.55
682.27	3489.26
682.618	3466.21
682.966	3463.04
683.314	3505.08
683.661	3499.43
684.009	3506.89
684.357	3525.64
684.705	3541.01
685.053	3573.55
685.4	3555.92
685.748	3538.97
686.095	3604.28
686.443	3555.92
686.79	3616.49
687.138	3649.03
687.485	3621.91
687.832	3619.42
688.18	3642.47
688.527	3635.24
688.874	3622.59
689.221	3641.12
689.568	3654
689.915	3652.42
690.262	3671.17
690.609	3624.4
690.956	3669.14
691.303	3662.59
691.65	3623.04
691.997	3649.93
692.344	3660.55
692.69	3646.32
693.037	3702.59
693.383	3632.76
693.73	3668.69
694.077	3659.65
694.423	3638.63
694.769	3687.22
695.116	3683.6
695.462	3715.47
695.808	3676.15
696.155	3694.68
696.501	3674.56
696.847	3690.84
697.193	3645.86
697.539	3651.06
697.885	3632.31
698.231	3647.67
698.577	3634.79
698.923	3673.21
699.269	3649.25
699.614	3704.62
699.96	3662.14
700.306	3629.14
700.651	3661.23
700.997	3650.84
701.342	3669.37
701.688	3637.05
702.033	3600.89
702.379	3646.99
702.724	3628.92
703.069	3607.22
703.415	3630.5
703.76	3608.35
704.105	3635.92
704.45	3614.68
704.795	3599.54
705.14	3611.29
705.485	3620.1
705.83	3596.37
706.175	3621.23
706.52	3599.76
706.865	3601.12
707.209	3569.03
707.554	3582.59
707.899	3556.38
708.243	3595.47
708.588	3569.26
708.932	3585.98
709.277	3586.66
709.621	3578.52
709.966	3569.03
710.31	3559.77
710.654	3566.54
710.998	3547.34
711.342	3565.87
711.687	3565.41
712.031	3565.64
712.375	3530.61
712.719	3544.62
713.063	3516.38
713.407	3576.04
713.75	3574.23
714.094	3515.47
714.438	3563.15
714.782	3574
715.125	3525.42
715.469	3518.64
715.812	3523.83
716.156	3558.64
716.499	3518.41
716.843	3532.42
717.186	3523.38
717.53	3494.91
717.873	3554.57
718.216	3509.82
718.559	3493.33
718.902	3509.82
719.246	3496.26
719.589	3520.22
719.932	3489.71
720.275	3531.74
720.617	3522.7
720.96	3501.69
721.303	3552.76
721.646	3501.01
721.989	3490.39
722.331	3538.3
722.674	3497.85
723.016	3483.61
723.359	3526.77
723.701	3562.7
724.044	3475.47
724.386	3489.26
724.729	3496.94
725.071	3499.65
725.413	3522.25
725.755	3543.49
726.097	3559.54
726.439	3522.25
726.782	3520.44
727.124	3531.07
727.465	3542.36
727.807	3541.01
728.149	3507.11
728.491	3535.13
728.833	3506.21
729.175	3522.25
729.516	3515.47
729.858	3533.1
730.199	3552.08
730.541	3517.28
730.882	3536.94
731.224	3522.93
731.565	3543.49
731.906	3568.35
732.248	3545.98
732.589	3508.02
732.93	3560.67
733.271	3524.06
733.612	3544.62
733.953	3549.82
734.294	3560.67
734.635	3544.4
734.976	3570.39
735.317	3557.28
735.658	3586.43
735.999	3580.56
736.339	3533.55
736.68	3592.53
737.021	3587.56
737.361	3568.13
737.702	3603.15
738.042	3608.13
738.383	3599.76
738.723	3601.12
739.063	3619.42
739.404	3627.79
739.744	3570.16
740.084	3628.24
740.424	3669.14
740.764	3644.96
741.104	3700.78
741.444	3650.61
741.784	3647.9
742.124	3693.32
742.464	3677.05
742.804	3712.76
743.143	3726.99
743.483	3677.05
743.823	3709.59
744.162	3691.97
744.502	3739.87
744.841	3770.61
745.181	3743.94
745.52	3763.38
745.86	3770.83
746.199	3776.48
746.538	3780.78
746.877	3828.68
747.216	3847.89
747.556	3846.54
747.895	3870.49
748.234	3874.56
748.573	3867.78
748.911	3882.02
749.25	3889.93
749.589	3880.89
749.928	3959.08
750.267	3929.7
750.605	3949.13
750.944	4003.14
751.283	4009.47
751.621	4023.26
751.96	4065.06
752.298	4057.38
752.636	4093.08
752.975	4065.06
753.313	4104.61
753.651	4113.87
753.989	4118.62
754.327	4143.7
754.666	4145.96
755.004	4207.21
755.342	4199.52
755.679	4244.49
756.017	4206.53
756.355	4247.43
756.693	4293.76
757.031	4288.79
757.368	4279.97
757.706	4302.34
758.044	4335.34
758.381	4342.8
758.719	4359.07
759.056	4348.9
759.394	4368.78
759.731	4342.57
760.068	4414.66
760.405	4432.51
760.743	4423.25
761.08	4458.72
761.417	4440.87
761.754	4481.55
762.091	4432.06
762.428	4485.84
762.765	4479.29
763.102	4526.07
763.438	4524.49
763.775	4486.75
764.112	4525.62
764.449	4568.55
764.785	4531.94
765.122	4537.82
765.458	4515.22
765.795	4501.66
766.131	4562.45
766.467	4509.34
766.804	4537.59
767.14	4537.59
767.476	4554.32
767.812	4530.59
768.148	4568.78
768.485	4525.39
768.821	4523.13
769.157	4518.38
769.492	4572.62
769.828	4560.19
770.164	4507.54
770.5	4541.89
770.836	4519.06
771.171	4502.34
771.507	4486.75
771.842	4456.24
772.178	4493.07
772.513	4491.27
772.849	4474.54
773.184	4490.81
773.519	4496.01
773.855	4456.46
774.19	4457.59
774.525	4401.78
774.86	4489.23
775.195	4439.97
775.53	4433.87
775.865	4422.57
776.2	4369.46
776.535	4373.98
776.87	4393.42
777.205	4361.1
777.539	4324.49
777.874	4377.37
778.209	4346.19
778.543	4316.58
778.878	4280.65
779.212	4282.46
779.547	4295.79
779.881	4307.32
780.215	4268.22
780.55	4305.51
780.884	4308.45
781.218	4284.27
781.552	4251.95
781.886	4251.95
782.22	4222.12
782.554	4221.89
782.888	4186.19
783.222	4202.69
783.556	4214.66
783.889	4134.89
784.223	4133.08
784.557	4125.4
784.89	4160.2
785.224	4093.76
785.557	4120.2
785.891	4086.98
786.224	4048.34
786.558	4087.21
786.891	4028.45
787.224	4063.25
787.557	3996.14
787.891	3978.96
788.224	4005.18
788.557	3989.36
788.89	4002.47
789.223	3979.64
789.556	3968.57
789.888	3970.38
790.221	3969.92
790.554	3945.29
790.887	3930.38
791.219	3901.23
791.552	3896.03
791.884	3857.84
792.217	3867.1
792.549	3895.58
792.882	3883.6
793.214	3849.02
793.546	3845.63
793.879	3805.18
794.211	3846.54
794.543	3748.69
794.875	3819.42
795.207	3818.06
795.539	3773.32
795.871	3759.99
796.203	3726.09
796.535	3715.47
796.867	3730.61
797.198	3726.09
797.53	3714.11
797.862	3668.01
798.193	3692.42
798.525	3666.88
798.856	3688.58
799.188	3628.69
799.519	3627.79
799.85	3594.57
800.182	3637.96
800.513	3632.08
800.844	3535.13
801.175	3584.85
801.506	3595.24
801.837	3619.2
802.168	3577.17
802.499	3583.72
802.83	3564.51
803.161	3557.73
803.491	3499.43
803.822	3550.73
804.153	3522.25
804.483	3532.2
804.814	3507.79
805.145	3492.65
805.475	3498.07
805.805	3454.68
806.136	3490.39
806.466	3455.36
806.796	3471.86
807.126	3420.56
807.457	3426.66
807.787	3418.53
808.117	3429.37
808.447	3434.8
808.777	3396.83
809.107	3392.54
809.436	3374.46
809.766	3393.22
810.096	3388.92
810.426	3364.52
810.755	3387.34
811.085	3366.55
811.414	3334.01
811.744	3351.18
812.073	3315.25
812.403	3291.52
812.732	3308.25
813.061	3320
813.39	3313.44
813.719	3310.51
814.049	3294.46
814.378	3267.12
814.707	3248.59
815.036	3258.3
815.365	3259.89
815.693	3246.55
816.022	3225.76
816.351	3216.5
816.68	3218.31
817.008	3205.42
817.337	3193.67
817.665	3173.79
817.994	3229.83
818.322	3229.6
818.651	3178.08
818.979	3169.72
819.307	3181.24
819.636	3152.54
819.964	3169.27
820.292	3150.51
820.62	3136.05
820.948	3162.94
821.276	3155.48
821.604	3153.67
821.932	3128.59
822.259	3146.67
822.587	3141.7
822.915	3136.95
823.243	3150.28
823.57	3145.31
823.898	3144.63
824.225	3118.65
824.553	3138.76
824.88	3149.15
825.207	3159.78
825.535	3146.44
825.862	3148.7
826.189	3133.56
826.516	3147.57
826.843	3152.32
827.17	3152.09
827.497	3170.17
827.824	3142.38
828.151	3126.78
828.478	3140.79
828.805	3161.13
829.131	3166.56
829.458	3169.49
829.785	3115.26
830.111	3144.63
830.438	3139.44
830.764	3148.93
831.09	3109.61
831.417	3142.6
831.743	3178.98
832.069	3120.45
832.395	3145.31
832.722	3151.64
833.048	3133.11
833.374	3138.53
833.7	3088.14
834.026	3106.9
834.351	3126.33
834.677	3118.65
835.003	3134.01
835.329	3138.08
835.654	3147.57
835.98	3089.5
836.306	3098.76
836.631	3081.81
836.956	3073.22
837.282	3064.64
837.607	3103.51
837.932	3076.84
838.258	3061.47
838.583	3072.09
838.908	3059.21
839.233	3062.15
839.558	3049.5
839.883	3061.02
840.208	3072.09
840.533	3057.18
840.858	3078.2
841.182	3030.06
841.507	3029.16
841.832	3007.24
842.156	3029.16
842.481	3038.65
842.805	3007.46
843.13	2995.03
843.454	3023.73
843.778	3022.15
844.103	2988.48
844.427	2989.16
844.751	2973.57
845.075	2960.01
845.399	2988.48
845.723	2933.11
846.047	2948.71
846.371	2925.88
846.695	2933.34
847.019	2900.8
847.343	2934.24
847.666	2890.86
847.99	2884.08
848.313	2850.63
848.637	2842.04
848.96	2833
849.284	2870.97
849.607	2851.99
849.931	2792.1
850.254	2826.9
850.577	2784.64
850.9	2770.41
851.223	2794.81
851.546	2741.03
851.869	2738.77
852.192	2741.26
852.515	2731.09
852.838	2752.33
853.161	2723.18
853.483	2720.24
853.806	2700.35
854.129	2687.47
854.451	2703.97
854.774	2696.06
855.096	2687.02
855.419	2696.51
855.741	2658.09
856.063	2628.72
856.385	2651.77
856.708	2616.51
857.03	2634.82
857.352	2656.96
857.674	2654.93
857.996	2597.53
858.318	2598.43
858.64	2600.47
858.961	2609.28
859.283	2600.92
859.605	2615.16
859.926	2616.51
860.248	2573.12
860.57	2555.5
860.891	2562.73
861.212	2556.4
861.534	2515.27
861.855	2536.74
862.176	2541.03
862.498	2568.83
862.819	2521.15
863.14	2539.68
863.461	2524.76
863.782	2522.05
864.103	2535.84
864.424	2501.04
864.745	2493.13
865.065	2507.36
865.386	2497.87
865.707	2503.75
866.027	2481.83
866.348	2501.04
866.668	2513.24
866.989	2460.59
867.309	2529.96
867.63	2463.3
867.95	2447.48
868.27	2475.95
868.59	2465.56
868.91	2474.37
869.23	2468.72
869.55	2440.02
869.87	2455.39
870.19	2472.79
870.51	2466.23
870.83	2448.38
871.15	2404.32
871.469	2470.3
871.789	2442.51
872.109	2416.29
872.428	2409.96
872.748	2422.39
873.067	2406.58
873.386	2418.55
873.706	2401.38
874.025	2396.86
874.344	2404.54
874.663	2397.54
874.982	2434.37
875.301	2390.3
875.62	2380.14
875.939	2402.06
876.258	2400.02
876.577	2357.76
876.896	2385.11
877.214	2403.19
877.533	2385.56
877.852	2379.01
878.17	2389.85
878.489	2369.74
878.807	2367.03
879.125	2391.66
879.444	2367.25
879.762	2379.46
880.08	2368.16
880.398	2330.87
880.716	2336.07
881.034	2318.89
881.352	2343.53
881.67	2359.12
881.988	2320.02
882.306	2331.55
882.624	2336.52
882.941	2321.15
883.259	2310.76
883.577	2301.27
883.894	2288.61
884.212	2296.07
884.529	2283.19
884.846	2281.83
885.164	2281.38
885.481	2272.12
885.798	2268.27
886.115	2263.08
886.432	2270.99
886.75	2276.86
887.067	2274.38
887.383	2267.82
887.7	2242.29
888.017	2241.38
888.334	2193.02
888.651	2226.47
888.967	2242.06
889.284	2248.39
889.6	2204.77
889.917	2202.29
890.233	2151.44
890.55	2183.08
890.866	2191.21
891.182	2185.11
891.498	2176.3
891.815	2178.11
892.131	2164.32
892.447	2160.71
892.763	2148.28
893.079	2159.35
893.395	2126.81
893.71	2134.72
894.026	2148.28
894.342	2147.82
894.657	2139.01
894.973	2089.97
895.289	2119.13
895.604	2131.55
895.92	2111.44
896.235	2091.56
896.55	2109.41
896.865	2096.3
897.181	2096.07
897.496	2085.91
897.811	2066.25
898.126	2072.12
898.441	2058.79
898.756	2079.13
899.071	2056.08
899.386	2073.02
899.7	2042.06
900.015	2019.01
900.33	2007.26
900.644	2044.32
900.959	2014.27
901.273	1991.67
901.588	1986.25
901.902	2006.36
902.216	2016.53
902.531	1997.55
902.845	1961.84
903.159	1969.3
903.473	1996.42
903.787	1973.14
904.101	1962.97
904.415	1956.64
904.729	1927.04
905.042	1949.41
905.356	1905.12
905.67	1914.84
905.984	1915.74
906.297	1903.09
906.611	1914.16
906.924	1889.3
907.237	1910.77
907.551	1924.1
907.864	1894.5
908.177	1883.65
908.491	1857.89
908.804	1873.71
909.117	1862.18
909.43	1901.5
909.743	1819.92
910.056	1820.83
910.368	1854.27
910.681	1812.92
910.994	1803.43
911.307	1844.1
911.619	1803.43
911.932	1826.93
912.244	1766.37
912.557	1797.1
912.869	1775.63
913.181	1776.99
913.494	1774.28
913.806	1778.8
914.118	1765.01
914.43	1753.26
914.742	1747.61
915.054	1742.86
915.366	1711.9
915.678	1732.92
915.99	1743.99
916.302	1727.72
916.613	1712.13
916.925	1726.37
917.236	1705.12
917.548	1720.49
917.859	1687.5
918.171	1687.95
918.482	1699.48
918.794	1651.57
919.105	1684.11
919.416	1684.56
919.727	1683.43
920.038	1673.04
920.349	1616.54
920.66	1614.96
920.971	1643.21
921.282	1636.88
921.593	1624
921.903	1628.52
922.214	1636.88
922.525	1626.48
922.835	1559.14
923.146	1603.66
923.456	1609.99
923.767	1585.13
924.077	1569.31
924.387	1549.65
924.697	1564.79
925.008	1548.97
925.318	1571.79
925.628	1521.17
925.938	1548.29
926.248	1555.3
926.558	1564.11
926.867	1564.11
927.177	1541.51
927.487	1517.11
927.796	1542.19
928.106	1515.07
928.416	1512.81
928.725	1529.31
929.034	1478.46
929.344	1495.41
929.653	1502.64
929.962	1473.72
930.271	1494.06
930.581	1465.13
930.89	1477.11
931.199	1463.78
931.508	1463.55
931.817	1452.7
932.125	1450.89
932.434	1435.3
932.743	1453.83
933.051	1434.4
933.36	1431.01
933.669	1407.05
933.977	1427.62
934.286	1428.75
934.594	1404.57
934.902	1397.34
935.21	1393.72
935.519	1391.01
935.827	1412.48
936.135	1387.39
936.443	1383.55
936.751	1363.44
937.059	1370.44
937.367	1384.46
937.674	1338.58
937.982	1355.53
938.29	1359.37
938.597	1362.76
938.905	1329.99
939.213	1335.87
939.52	1341.29
939.827	1337.68
940.135	1367.05
940.442	1341.74
940.749	1304.91
941.056	1325.25
941.363	1294.74
941.67	1303.55
941.977	1283.44
942.284	1296.77
942.591	1284.8
942.898	1317.56
943.205	1299.71
943.511	1294.74
943.818	1277.11
944.125	1273.27
944.431	1251.13
944.738	1261.07
945.044	1258.58
945.35	1268.07
945.657	1271.69
945.963	1240.73
946.269	1257.68
946.575	1255.64
946.881	1243.89
947.187	1251.58
947.493	1233.72
947.799	1208.87
948.105	1218.13
948.41	1217.23
948.716	1215.19
949.022	1222.43
949.327	1215.65
949.633	1203.44
949.938	1198.92
950.244	1167.51
950.549	1163.67
950.854	1176.33
951.16	1179.94
951.465	1177.23
951.77	1139.72
952.075	1155.99
952.38	1155.08
952.685	1155.53
952.99	1157.12
953.294	1148.76
953.599	1147.63
953.904	1175.87
954.209	1149.66
954.513	1126.61
954.818	1132.71
955.122	1139.26
955.426	1145.37
955.731	1124.8
956.035	1131.13
956.339	1120.51
956.643	1123.67
956.948	1100.39
957.252	1092.03
957.556	1075.76
957.86	1096.33
958.163	1097.46
958.467	1082.99
958.771	1106.95
959.075	1097.46
959.378	1051.36
959.682	1095.88
959.985	1080.73
960.289	1059.72
960.592	1035.76
960.896	1068.98
961.199	1066.95
961.502	1075.54
961.805	1032.83
962.108	1033.5
962.411	1051.58
962.714	1057.23
963.017	1054.97
963.32	1048.42
963.623	1042.32
963.926	1029.21
964.228	1035.09
964.531	1049.55
964.833	1021.53
965.136	1027.4
965.438	994.18
965.741	997.12
966.043	1017.91
966.345	999.15
966.648	988.99
966.95	1018.59
967.252	1002.54
967.554	1007.06
967.856	976.33
968.158	982.66
968.46	976.78
968.761	974.07
969.063	964.58
969.365	975.43
969.666	974.75
969.968	944.24
970.269	938.37
970.571	961.42
970.872	956.22
971.174	968.65
971.475	968.65
971.776	968.65
972.077	942.21
972.378	937.01
972.679	947.4
972.98	950.12
973.281	946.05
973.582	944.01
973.883	930.46
974.183	940.62
974.484	928.65
974.785	899.95
975.085	920.29
975.386	927.52
975.686	900.85
975.986	909.44
976.287	908.31
976.587	913.51
976.887	895.88
977.187	915.09
977.487	870.8
977.787	896.78
978.087	894.98
978.387	867.18
978.687	865.37
978.987	882.32
979.286	877.35
979.586	879.84
979.885	872.38
980.185	871.25
980.484	880.74
980.784	865.15
981.083	875.09
981.382	847.75
981.682	866.95
981.981	856.33
982.28	856.11
982.579	835.32
982.878	854.07
983.177	847.07
983.475	830.35
983.774	827.18
984.073	854.07
984.372	818.59
984.67	836.45
984.969	854.3
985.267	844.13
985.566	832.15
985.864	813.85
986.162	841.64
986.461	824.02
986.759	810.23
987.057	814.53
987.355	820.4
987.653	817.46
987.951	783.34
988.249	811.36
988.547	803.45
988.844	764.13
989.142	805.04
989.44	799.16
989.737	782.44
990.035	787.41
990.332	793.06
990.63	782.66
990.927	786.96
991.224	790.35
991.521	770.91
991.819	794.87
992.116	779.5
992.413	770.91
992.71	769.56
993.006	775.21
993.303	737.69
993.6	759.39
993.897	747.18
994.193	744.92
994.49	728.2
994.787	750.35
995.083	737.24
995.379	745.6
995.676	753.51
995.972	757.8
996.268	736.11
996.565	729.56
996.861	726.17
997.157	732.04
997.453	733.62
997.749	724.13
998.044	715.55
998.34	732.04
998.636	720.07
998.932	712.83
999.227	735.88
999.523	718.03
999.818	711.25
1000.114	713.06
1000.409	730.01
1000.704	736.79
1001	690.24
1001.295	680.29
1001.59	685.72
1001.885	708.99
1002.18	686.17
1002.475	721.2
1002.77	678.03
1003.065	682.55
1003.359	674.42
1003.654	680.29
1003.949	682.1
1004.243	670.12
1004.538	688.2
1004.832	660.18
1005.127	659.05
1005.421	643.23
1005.715	658.37
1006.009	655.21
1006.304	645.27
1006.598	645.72
1006.892	648.43
1007.186	635.32
1007.48	642.55
1007.773	638.71
1008.067	670.35
1008.361	659.28
1008.655	644.14
1008.948	620.86
1009.242	660.18
1009.535	650.92
1009.829	632.61
1010.122	654.53
1010.415	627.41
1010.708	639.84
1011.001	610.46
1011.295	600.07
1011.588	601.42
1011.881	640.29
1012.173	620.63
1012.466	619.96
1012.759	621.76
1013.052	619.73
1013.344	597.58
1013.637	615.21
1013.93	621.99
1014.222	597.36
1014.514	605.94
1014.807	602.55
1015.099	595.78
1015.391	610.01
1015.683	603.91
1015.976	584.93
1016.268	576.79
1016.56	596.45
1016.851	599.39
1017.143	570.01
1017.435	572.95
1017.727	565.72
1018.018	583.57
1018.31	586.74
1018.602	563.01
1018.893	566.4
1019.185	560.52
1019.476	556
1019.767	563.46
1020.058	546.29
1020.35	563.69
1020.641	572.5
1020.932	549.9
1021.223	571.82
1021.514	550.35
1021.804	559.17
1022.095	543.35
1022.386	563.69
1022.677	550.35
1022.967	552.16
1023.258	532.5
1023.548	537.02
1023.839	533.86
1024.129	534.99
1024.419	537.92
1024.709	533.63
1025	551.03
1025.29	523.01
1025.58	546.51
1025.87	533.63
1026.16	508.77
1026.449	524.59
1026.739	523.91
1027.029	522.1
1027.319	516.23
1027.608	523.46
1027.898	506.74
1028.187	522.78
1028.477	499.05
1028.766	513.29
1029.055	482.11
1029.344	513.29
1029.634	500.86
1029.923	489.34
1030.212	492.5
1030.501	483.46
1030.79	471.03
1031.078	474.87
1031.367	483.46
1031.656	485.95
1031.945	499.73
1032.233	494.76
1032.522	499.28
1032.81	481.65
1033.099	477.59
1033.387	487.08
1033.675	483.91
1033.963	484.14
1034.251	469.22
1034.54	466.29
1034.828	463.8
1035.116	451.82
1035.403	471.94
1035.691	454.99
1035.979	439.17
1036.267	466.06
1036.554	461.09
1036.842	466.74
1037.129	462.22
1037.417	453.41
1037.704	457.47
1037.992	451.6
1038.279	461.99
1038.566	474.2
1038.853	474.2
1039.14	474.2
