Data from blue_chair_FLMS001491_00049.txt Node
Date: Wed Feb 08 10:30:54 GMT 2017
User: dcchb
Spectrometer: FLMS00149
Trigger mode: 0
Integration Time (sec): 2.000000E-2
Scans to average: 10
Electric dark correction enabled: true
Nonlinearity correction enabled: false
Boxcar width: 0
XAxis mode: Wavelengths
Number of Pixels in Spectrum: 2048
>>>>>Begin Spectral Data<<<<<
341.393	-14.29
341.776	-14.29
342.16	-14.29
342.543	-64.69
342.927	-57.46
343.31	-90.68
343.693	-50
344.077	-75.99
344.46	-50.45
344.843	-69.89
345.226	-45.25
345.61	-21.3
345.993	-6.84
346.376	-17.46
346.759	31.13
347.142	32.49
347.525	48.3
347.908	37.91
348.291	85.82
348.674	100.28
349.057	91.92
349.44	134.4
349.823	147.28
350.206	155.19
350.588	199.26
350.971	205.59
351.354	203.78
351.737	235.87
352.119	244.46
352.502	242.87
352.884	269.54
353.267	264.12
353.65	260.95
354.032	277.45
354.414	309.54
354.797	284.68
355.179	317.9
355.562	304.34
355.944	309.99
356.326	323.32
356.709	288.98
357.091	300.27
357.473	321.74
357.855	321.29
358.238	322.87
358.62	330.1
359.002	300.5
359.384	318.81
359.766	299.6
360.148	332.36
360.53	318.35
360.912	328.52
361.294	316.32
361.676	307.73
362.057	312.48
362.439	303.66
362.821	321.29
363.203	314.96
363.584	318.13
363.966	327.17
364.348	303.89
364.729	303.44
365.111	279.48
365.493	305.92
365.874	306.83
366.256	312.25
366.637	298.01
367.019	297.79
367.4	295.75
367.781	289.43
368.163	284.23
368.544	278.81
368.925	292.59
369.306	306.6
369.688	295.08
370.069	285.59
370.45	291.01
370.831	291.24
371.212	263.21
371.593	281.07
371.974	280.84
372.355	292.59
372.736	301.4
373.117	281.52
373.498	299.14
373.879	276.09
374.26	285.59
374.641	277
375.021	278.81
375.402	296.66
375.783	281.97
376.163	296.66
376.544	296.66
376.925	309.54
377.305	309.31
377.686	294.17
378.066	308.86
378.447	302.31
378.827	289.2
379.208	290.56
379.588	311.8
379.968	315.64
380.349	323.32
380.729	304.79
381.109	305.7
381.489	316.77
381.87	307.73
382.25	305.7
382.63	324.68
383.01	306.6
383.39	314.74
383.77	315.87
384.15	302.08
384.53	309.09
384.91	304.34
385.29	322.87
385.67	305.7
386.049	311.8
386.429	314.96
386.809	296.88
387.189	329.65
387.568	312.7
387.948	312.93
388.328	316.32
388.707	324.45
389.087	317.68
389.466	323.32
389.846	327.17
390.225	333.95
390.605	321.07
390.984	320.84
391.363	351.12
391.743	331.01
392.122	350.67
392.501	339.6
392.881	351.12
393.26	347.05
393.639	346.83
394.018	329.43
394.397	359.71
394.776	336.21
395.155	334.85
395.534	339.37
395.913	329.65
396.292	356.54
396.671	364.23
397.05	355.87
397.429	336.66
397.808	343.44
398.186	348.63
398.565	361.29
398.944	339.14
399.323	373.94
399.701	366.71
400.08	368.07
400.458	356.32
400.837	361.52
401.215	372.82
401.594	364
401.972	373.49
402.351	375.75
402.729	388.41
403.107	396.77
403.486	408.75
403.864	392.93
404.242	384.57
404.62	383.44
404.999	397.9
405.377	388.41
405.755	394.28
406.133	407.39
406.511	394.74
406.889	406.71
407.267	389.54
407.645	405.58
408.023	413.72
408.401	434.06
408.779	431.8
409.156	420.72
409.534	409.42
409.912	426.37
410.29	428.86
410.667	434.28
411.045	427.73
411.422	449.65
411.8	431.34
412.178	430.44
412.555	457.11
412.933	451.23
413.31	465.24
413.687	467.28
414.065	455.3
414.442	460.72
414.819	474.73
415.197	473.15
415.574	475.41
415.951	470.67
416.328	486.71
416.705	487.61
417.082	459.37
417.46	490.78
417.837	487.61
418.214	467.95
418.591	482.42
418.967	490.55
419.344	480.16
419.721	501.85
420.098	535.07
420.475	505.47
420.852	502.98
421.228	509.53
421.605	506.82
421.982	530.55
422.358	540.27
422.735	526.71
423.111	521.51
423.488	545.01
423.864	546.37
424.241	552.92
424.617	570.55
424.994	561.51
425.37	561.96
425.746	578.23
426.123	565.58
426.499	581.4
426.875	593.37
427.251	590.66
427.627	631.11
428.003	580.04
428.379	606.03
428.756	625.24
429.132	631.34
429.507	615.07
429.883	626.14
430.259	628.85
430.635	627.5
431.011	643.32
431.387	635.18
431.763	670.66
432.138	649.42
432.514	684.67
432.89	681.51
433.265	688.29
433.641	685.35
434.016	716.99
434.392	706.59
434.767	744.56
435.143	730.77
435.518	749.3
435.894	747.27
436.269	759.25
436.644	767.61
437.02	777.55
437.395	792.24
437.77	798.34
438.145	787.95
438.52	818.45
438.895	822.07
439.271	850.32
439.646	841.28
440.021	889.86
440.395	842.41
440.77	883.99
441.145	874.27
441.52	899.13
441.895	869.98
442.27	916.08
442.645	931.44
443.019	920.37
443.394	917.89
443.769	947.26
444.143	939.81
444.518	959.69
444.892	947.72
445.267	961.05
445.641	980.03
446.016	964.21
446.39	976.87
446.764	1026.13
447.139	1004.66
447.513	1013.02
447.887	997.43
448.262	1020.26
448.636	1031.33
449.01	1018.67
449.384	1057.99
449.758	1041.27
450.132	1048.28
450.506	1089.63
450.88	1065.68
451.254	1075.17
451.628	1088.95
452.002	1104.32
452.376	1122.85
452.75	1113.13
453.123	1119.69
453.497	1139.57
453.871	1147.26
454.244	1155.62
454.618	1183.87
454.992	1173.92
455.365	1179.57
455.739	1218.22
456.112	1224.77
456.486	1242.85
456.859	1245.11
457.232	1258.44
457.606	1243.3
457.979	1264.32
458.352	1302.96
458.725	1293.69
459.099	1308.16
459.472	1324.65
459.845	1340.02
460.218	1356.29
460.591	1348.16
460.964	1371.21
461.337	1369.63
461.71	1408.04
462.083	1436.29
462.456	1454.37
462.829	1442.84
463.201	1464.54
463.574	1451.43
463.947	1502.5
464.32	1481.94
464.692	1513.35
465.065	1544.76
465.438	1538.89
465.81	1543.63
466.183	1579.11
466.555	1598.09
466.928	1608.49
467.3	1597.42
467.672	1650.3
468.045	1641.48
468.417	1672.67
468.789	1658.43
469.161	1676.51
469.534	1667.24
469.906	1723.74
470.278	1744.3
470.65	1739.56
471.022	1810.29
471.394	1817.75
471.766	1815.04
472.138	1835.15
472.51	1855.26
472.882	1895.26
473.253	1900.46
473.625	1931.42
473.997	1956.73
474.369	1935.49
474.74	1973.9
475.112	2036.95
475.484	2057.74
475.855	2025.2
476.227	2071.98
476.598	2126.44
476.97	2140.23
477.341	2142.26
477.713	2194.46
478.084	2192.43
478.455	2232.88
478.827	2252.31
479.198	2272.43
479.569	2280.11
479.94	2328.24
480.311	2328.7
480.682	2372.08
481.053	2439.2
481.424	2452.31
481.795	2487.56
482.166	2489.14
482.537	2517.39
482.908	2536.15
483.279	2601.91
483.65	2635.35
484.021	2659.31
484.391	2645.75
484.762	2654.56
485.133	2707.67
485.503	2713.09
485.874	2767.33
486.244	2768.23
486.615	2805.29
486.985	2845.29
487.356	2895.91
487.726	2889.36
488.097	2915.8
488.467	2943.14
488.837	2970.71
489.207	3020.88
489.578	3022.69
489.948	3027.66
490.318	3048
490.688	3071.73
491.058	3062.91
491.428	3128.45
491.798	3134.55
492.168	3191.27
492.538	3152.63
492.908	3232.4
493.278	3233.08
493.648	3206.41
494.017	3251.38
494.387	3247.54
494.757	3332.06
495.126	3319.18
495.496	3275.79
495.866	3263.36
496.235	3285.51
496.605	3350.36
496.974	3341.55
497.344	3370.25
497.713	3359.63
498.082	3352.4
498.452	3386.3
498.821	3366.18
499.19	3372.74
499.559	3367.76
499.928	3406.63
500.298	3356.92
500.667	3438.05
501.036	3391.94
501.405	3424.94
501.774	3404.37
502.143	3465.84
502.512	3412.51
502.88	3420.19
503.249	3469.46
503.618	3469.23
503.987	3401.21
504.356	3438.95
504.724	3458.61
505.093	3453.19
505.462	3466.97
505.83	3433.07
506.199	3450.47
506.567	3485.05
506.936	3483.69
507.304	3464.49
507.672	3478.5
508.041	3467.87
508.409	3452.28
508.777	3500.87
509.145	3503.58
509.514	3453.41
509.882	3507.2
510.25	3515.78
510.618	3517.59
510.986	3467.2
511.354	3513.3
511.722	3487.31
512.09	3471.72
512.458	3504.03
512.826	3506.74
513.193	3482.56
513.561	3474.88
513.929	3479.17
514.297	3514.65
514.664	3511.94
515.032	3454.54
515.4	3476.24
515.767	3477.82
516.135	3440.53
516.502	3431.04
516.869	3507.65
517.237	3489.34
517.604	3444.82
517.972	3501.55
518.339	3401.66
518.706	3430.59
519.073	3452.96
519.44	3444.37
519.808	3458.61
520.175	3407.99
520.542	3449.8
520.909	3435.56
521.276	3393.98
521.643	3404.15
522.009	3418.38
522.376	3412.51
522.743	3452.28
523.11	3463.36
523.477	3428.78
523.843	3432.62
524.21	3413.87
524.577	3408.44
524.943	3367.76
525.31	3352.85
525.676	3407.31
526.043	3394.2
526.409	3385.84
526.776	3401.89
527.142	3393.75
527.508	3366.63
527.874	3408.44
528.241	3387.43
528.607	3339.29
528.973	3365.96
529.339	3370.48
529.705	3397.59
530.071	3385.39
530.437	3379.97
530.803	3350.36
531.169	3348.56
531.535	3350.14
531.901	3327.31
532.267	3324.6
532.632	3335.68
532.998	3299.29
533.364	3330.25
533.73	3291.16
534.095	3284.83
534.461	3286.86
534.826	3279.18
535.192	3286.86
535.557	3269.46
535.923	3247.32
536.288	3239.86
536.653	3264.94
537.019	3193.76
537.384	3242.8
537.749	3205.51
538.114	3224.49
538.479	3142.69
538.845	3197.15
539.21	3161.89
539.575	3154.89
539.94	3159.41
540.305	3131.84
540.67	3093.42
541.034	3117.38
541.399	3101.78
541.764	3094.1
542.129	3097.49
542.494	3064.5
542.858	3095.46
543.223	3074.21
543.587	3086.87
543.952	3037.6
544.316	3074.44
544.681	3015.23
545.045	3023.59
545.41	3020.88
545.774	2988.34
546.138	2962.8
546.503	2983.82
546.867	2986.98
547.231	2991.05
547.595	2945.18
547.959	2907.89
548.324	2936.36
548.688	2922.58
549.052	2881.45
549.416	2914.67
549.779	2869.47
550.143	2881.45
550.507	2808.01
550.871	2829.02
551.235	2841
551.599	2816.59
551.962	2808.68
552.326	2784.5
552.689	2836.48
553.053	2773.88
553.417	2788.57
553.78	2805.75
554.143	2759.64
554.507	2777.95
554.87	2765.75
555.234	2803.49
555.597	2715.8
555.96	2708.35
556.323	2761.68
556.686	2717.84
557.05	2728.01
557.413	2734.56
557.776	2709.02
558.139	2722.81
558.502	2737.27
558.865	2713.54
559.228	2688.69
559.59	2723.26
559.953	2718.74
560.316	2663.6
560.679	2691.62
561.041	2664.05
561.404	2683.49
561.767	2715.13
562.129	2700.89
562.492	2717.16
562.854	2691.4
563.217	2670.38
563.579	2666.54
563.941	2691.17
564.304	2684.17
564.666	2701.34
565.028	2705.41
565.39	2680.78
565.753	2714
566.115	2675.13
566.477	2681.23
566.839	2696.14
567.201	2701.79
567.563	2726.43
567.925	2716.26
568.287	2724.39
568.648	2719.65
569.01	2720.1
569.372	2739.08
569.734	2747.22
570.095	2740.21
570.457	2762.36
570.819	2753.32
571.18	2751.06
571.542	2739.53
571.903	2750.61
572.265	2755.58
572.626	2764.84
572.987	2792.19
573.349	2754.22
573.71	2824.5
574.071	2865.63
574.432	2818.63
574.794	2851.85
575.155	2802.81
575.516	2812.75
575.877	2844.16
576.238	2819.53
576.599	2840.77
576.96	2831.06
577.32	2847.33
577.681	2872.86
578.042	2898.4
578.403	2880.77
578.763	2866.76
579.124	2869.25
579.485	2892.97
579.845	2904.05
580.206	2914.44
580.566	2908.12
580.927	2884.61
581.287	2911.73
581.648	2914.44
582.008	2916.48
582.368	2958.06
582.728	2954.44
583.089	2942.47
583.449	2938.85
583.809	2913.54
584.169	2942.01
584.529	2964.16
584.889	2954.67
585.249	2991.05
585.609	2972.29
585.969	3017.04
586.329	2979.07
586.688	2981.56
587.048	2996.02
587.408	2970.03
587.768	2996.47
588.127	2995.8
588.487	2970.26
588.846	3005.29
589.206	2970.94
589.565	2950.6
589.925	3031.28
590.284	2960.77
590.643	3011.39
591.003	3001.9
591.362	3059.75
591.721	3000.54
592.08	2996.25
592.44	3012.07
592.799	2986.76
593.158	3005.97
593.517	2997.15
593.876	2953.76
594.235	2988.79
594.593	3015.46
594.952	2955.35
595.311	2976.81
595.67	3000.32
596.029	2994.22
596.387	3013.65
596.746	2993.31
597.104	3016.59
597.463	3022.69
597.822	2958.96
598.18	2980.2
598.538	2961.67
598.897	2987.66
599.255	2960.54
599.613	2965.06
599.972	3004.16
600.33	2959.41
600.688	2982.01
601.046	2978.4
601.404	2982.24
601.762	2981.79
602.12	2968.23
602.478	3014.1
602.836	2987.89
603.194	2978.4
603.552	3005.51
603.91	2969.13
604.268	2972.52
604.625	3026.76
604.983	2971.62
605.341	2996.7
605.698	2994.89
606.056	2975.23
606.413	2965.97
606.771	2984.27
607.128	2993.76
607.485	2992.41
607.843	2978.4
608.2	3004.16
608.557	2977.04
608.914	2961.9
609.272	2978.4
609.629	3018.62
609.986	3035.34
610.343	2994.22
610.7	3029.02
611.057	2978.4
611.414	2998.06
611.771	2975.68
612.127	2985.4
612.484	3018.4
612.841	3022.69
613.198	3001.45
613.554	2994.22
613.911	3025.63
614.267	2988.57
614.624	2973.88
614.98	3017.49
615.337	3045.29
615.693	3003.93
616.05	3017.94
616.406	3028.79
616.762	3035.8
617.118	3014.33
617.475	3040.99
617.831	3052.52
618.187	3040.09
618.543	3036.93
618.899	3099.3
619.255	3057.04
619.611	3045.06
619.967	3066.53
620.323	3054.55
620.678	3059.07
621.034	3080.09
621.39	3001.9
621.746	3036.25
622.101	3061.11
622.457	3032.86
622.812	3032.86
623.168	3079.64
623.523	3076.47
623.879	3080.77
624.234	3014.55
624.589	3035.34
624.945	3042.8
625.3	3069.02
625.655	3030.6
626.01	3046.87
626.365	3070.37
626.72	3050.26
627.075	3077.83
627.43	3052.74
627.785	3045.29
628.14	2991.5
628.495	3014.78
628.85	3005.74
629.205	3001.45
629.559	3048
629.914	3045.51
630.269	3033.99
630.623	3005.97
630.978	3040.54
631.332	3027.66
631.687	3019.75
632.041	3010.26
632.396	3037.38
632.75	3008
633.104	3042.12
633.459	3029.92
633.813	2984.5
634.167	3007.1
634.521	3018.62
634.875	3023.14
635.229	2997.15
635.583	3004.38
635.937	3044.16
636.291	2999.41
636.645	3012.75
636.999	3027.89
637.352	2992.41
637.706	3014.33
638.06	3002.12
638.413	2968.23
638.767	2982.24
639.121	2981.33
639.474	3000.99
639.828	3008.9
640.181	2951.28
640.534	3024.27
640.888	2979.75
641.241	2964.39
641.594	2993.99
641.947	2946.76
642.301	2995.34
642.654	2983.37
643.007	2961.45
643.36	2963.48
643.713	3000.09
644.066	2998.96
644.419	2996.93
644.771	2969.13
645.124	2941.34
645.477	2960.32
645.83	2923.48
646.182	2936.82
646.535	2886.42
646.888	2884.16
647.24	2902.01
647.593	2890.49
647.945	2884.39
648.298	2869.92
648.65	2894.78
649.002	2895.01
649.355	2874.67
649.707	2900.43
650.059	2960.32
650.411	2923.71
650.763	2918.28
651.115	2997.83
651.467	2963.26
651.819	3015.23
652.171	2996.25
652.523	2991.05
652.875	2990.15
653.227	2932.97
653.578	2933.88
653.93	2989.47
654.282	2965.74
654.633	2929.81
654.985	2932.52
655.337	2958.28
655.688	2959.87
656.039	2985.85
656.391	2922.35
656.742	2968.9
657.094	2988.34
657.445	2991.05
657.796	3010.03
658.147	2991.96
658.498	3000.09
658.849	2972.29
659.2	2978.4
659.551	2959.41
659.902	3003.71
660.253	2968
660.604	3003.25
660.955	2980.43
661.306	2997.38
661.656	2982.92
662.007	3001.9
662.358	2946.53
662.708	3002.12
663.059	2960.77
663.409	2970.71
663.76	3003.48
664.11	3007.77
664.461	3008.45
664.811	2965.29
665.161	2963.26
665.511	2962.8
665.862	3001.67
666.212	2996.25
666.562	2986.08
666.912	2994.89
667.262	2956.93
667.612	2963.03
667.962	2983.14
668.312	2956.02
668.662	2982.01
669.011	2957.38
669.361	2997.6
669.711	2946.76
670.06	2971.62
670.41	2959.41
670.76	2933.88
671.109	2965.74
671.459	2982.24
671.808	2935.23
672.157	2960.32
672.507	2944.95
672.856	2911.05
673.205	2946.08
673.554	2952.63
673.904	2926.65
674.253	2918.28
674.602	2963.71
674.951	2919.41
675.3	2844.84
675.649	2890.49
675.998	2912.18
676.346	2922.58
676.695	2916.25
677.044	2895.46
677.393	2882.81
677.741	2885.29
678.09	2879.87
678.438	2855.01
678.787	2867.44
679.135	2870.83
679.484	2852.07
679.832	2865.18
680.181	2805.75
680.529	2870.83
680.877	2844.61
681.225	2851.17
681.573	2873.99
681.922	2854.11
682.27	2841
682.618	2820.89
682.966	2849.59
683.314	2820.43
683.661	2815.46
684.009	2793.32
684.357	2772.98
684.705	2774.79
685.053	2809.14
685.4	2791.28
685.748	2769.59
686.095	2789.47
686.443	2771.85
686.79	2750.38
687.138	2725.75
687.485	2732.3
687.832	2744.5
688.18	2712.64
688.527	2711.28
688.874	2705.41
689.221	2721
689.568	2708.35
689.915	2690.49
690.262	2706.76
690.609	2657.73
690.956	2682.36
691.303	2697.05
691.65	2643.04
691.997	2647.78
692.344	2635.58
692.69	2655.92
693.037	2662.92
693.383	2627.22
693.73	2614.56
694.077	2579.08
694.423	2591.51
694.769	2588.58
695.116	2594.23
695.462	2586.77
695.808	2561.91
696.155	2602.36
696.501	2563.94
696.847	2547.22
697.193	2510.16
697.539	2560.55
697.885	2532.76
698.231	2530.72
698.577	2499.99
698.923	2505.19
699.269	2511.06
699.614	2492.99
699.96	2495.02
700.306	2505.19
700.651	2492.08
700.997	2501.57
701.342	2492.08
701.688	2449.6
702.033	2452.08
702.379	2424.29
702.724	2477.17
703.069	2478.97
703.415	2465.19
703.76	2450.27
704.105	2463.16
704.45	2439.2
704.795	2459.77
705.14	2435.13
705.485	2446.21
705.83	2400.33
706.175	2412.76
706.52	2422.7
706.865	2421.12
707.209	2402.14
707.554	2432.87
707.899	2464.29
708.243	2407.79
708.588	2398.98
708.932	2390.62
709.277	2409.6
709.621	2430.16
709.966	2404.63
710.31	2429.48
710.654	2429.26
710.998	2394
711.342	2407.11
711.687	2428.13
712.031	2389.49
712.375	2421.8
712.719	2423.16
713.063	2417.06
713.407	2400.33
713.75	2419.77
714.094	2407.34
714.438	2412.31
714.782	2399.43
715.125	2417.06
715.469	2429.71
715.812	2422.93
716.156	2414.12
716.499	2399.2
716.843	2426.32
717.186	2422.25
717.53	2421.35
717.873	2438.98
718.216	2434.91
718.559	2461.8
718.902	2447.79
719.246	2443.27
719.589	2473.78
719.932	2437.39
720.275	2442.14
720.617	2471.97
720.96	2463.16
721.303	2419.77
721.646	2511.52
721.989	2449.14
722.331	2486.88
722.674	2487.56
723.016	2478.52
723.359	2494.12
723.701	2491.63
724.044	2527.33
724.386	2475.81
724.729	2511.74
725.071	2492.31
725.413	2541.12
725.755	2566.88
726.097	2531.85
726.439	2556.26
726.782	2568.92
727.124	2535.02
727.465	2556.03
727.807	2552.64
728.149	2564.17
728.491	2551.97
728.833	2605.98
729.175	2587.45
729.516	2592.19
729.858	2651.63
730.199	2631.06
730.541	2650.5
730.882	2646.43
731.224	2643.72
731.565	2638.74
731.906	2637.61
732.248	2642.59
732.589	2662.02
732.93	2681
733.271	2686.65
733.612	2663.38
733.953	2715.8
734.294	2682.36
734.635	2698.86
734.976	2716.71
735.317	2701.57
735.658	2752.87
735.999	2769.36
736.339	2747.67
736.68	2772.3
737.021	2793.77
737.361	2831.28
737.702	2825.18
738.042	2856.59
738.383	2850.04
738.723	2864.27
739.063	2845.74
739.404	2868.57
739.744	2889.36
740.084	2930.49
740.424	2937.49
740.764	2977.04
741.104	2987.21
741.444	2993.99
741.784	3036.25
742.124	3035.8
742.464	3092.97
742.804	3096.81
743.143	3129.35
743.483	3159.18
743.823	3190.14
744.162	3222.68
744.502	3248.45
744.841	3282.34
745.181	3301.33
745.52	3359.63
745.86	3374.77
746.199	3411.83
746.538	3436.46
746.877	3460.42
747.216	3537.03
747.556	3549.68
747.895	3603.46
748.234	3643.01
748.573	3707.87
748.911	3784.02
749.25	3785.38
749.589	3818.15
749.928	3915.09
750.267	3942.66
750.605	4004.13
750.944	4078.93
751.283	4102.43
751.621	4225.37
751.96	4252.94
752.298	4329.1
752.636	4395.53
752.975	4407.74
753.313	4450.9
753.651	4595.08
753.989	4620.61
754.327	4724.79
754.666	4758.46
755.004	4869.87
755.342	4954.39
755.679	5011.79
756.017	5107.83
756.355	5217.43
756.693	5261.5
757.031	5379.46
757.368	5422.85
757.706	5502.4
758.044	5639.57
758.381	5690.19
758.719	5770.19
759.056	5929.28
759.394	5951.65
759.731	6074.81
760.068	6114.58
760.405	6233
760.743	6342.38
761.08	6440.9
761.417	6418.08
761.754	6584.86
762.091	6697.17
762.428	6718.41
762.765	6820.33
763.102	6897.84
763.438	7043.83
763.775	7044.5
764.112	7103.03
764.449	7275.46
764.785	7258.51
765.122	7323.82
765.458	7371.5
765.795	7520.65
766.131	7526.07
766.467	7636.13
766.804	7758.38
767.14	7750.02
767.476	7811.49
767.812	7865.05
768.148	7968.32
768.485	7959.73
768.821	8046.29
769.157	8102.78
769.492	8206.51
769.828	8188.2
770.164	8210.58
770.5	8300.52
770.836	8345.71
771.171	8375.99
771.507	8448.76
771.842	8440.4
772.178	8494.64
772.513	8581.86
772.849	8612.15
773.184	8620.96
773.519	8655.54
773.855	8725.59
774.19	8714.06
774.525	8740.96
774.86	8742.99
775.195	8811.24
775.53	8883.55
775.865	8835.64
776.2	8820.73
776.535	8863.89
776.87	8907.51
777.205	8893.04
777.539	8964.23
777.874	8932.36
778.209	8863.89
778.543	8923.32
778.878	8874.06
779.212	8984.11
779.547	8947.05
779.881	9010.78
780.215	8958.58
780.55	9125.58
780.884	9009.2
781.218	8989.31
781.552	9027.28
781.886	9071.12
782.22	9049.65
782.554	9044.45
782.888	8986.83
783.222	8950.44
783.556	8976.2
783.889	9049.65
784.223	9034.51
784.557	9064.79
784.89	9021.85
785.224	8997.45
785.557	8986.83
785.891	8949.76
786.224	8981.63
786.558	9083.32
786.891	8976.88
787.224	8970.56
787.557	8986.37
787.891	9041.29
788.224	8963.78
788.557	8956.77
788.89	9036.99
789.223	9011.91
789.556	8950.67
789.888	8957.22
790.221	8945.7
790.554	8928.52
790.887	8928.75
791.219	8882.2
791.552	8882.2
791.884	8914.74
792.217	8874.74
792.549	8898.01
792.882	8807.4
793.214	8729.66
793.546	8782.31
793.879	8809.2
794.211	8814.4
794.543	8801.97
794.875	8796.1
795.207	8762.65
795.539	8791.35
795.871	8780.28
796.203	8690.34
796.535	8680.39
796.867	8651.92
797.198	8658.7
797.53	8681.75
797.862	8656.67
798.193	8615.54
798.525	8640.17
798.856	8669.09
799.188	8632.71
799.519	8562.88
799.85	8523.79
800.182	8522.21
800.513	8483.56
800.844	8473.17
801.175	8526.95
801.506	8557.01
801.837	8449.44
802.168	8437.91
802.499	8471.13
802.83	8389.33
803.161	8381.42
803.491	8390.01
803.822	8467.52
804.153	8356.11
804.483	8396.78
804.814	8340.29
805.145	8246.96
805.475	8285.38
805.805	8304.13
806.136	8290.8
806.466	8276.11
806.796	8318.14
807.126	8233.85
807.457	8199.05
807.787	8248.31
808.117	8201.08
808.447	8173.74
808.777	8223
809.107	8219.84
809.436	8144.14
809.766	8175.77
810.096	8152.27
810.426	8117.47
810.755	8125.83
811.085	8112.5
811.414	8089.45
811.744	8109.79
812.073	8008.32
812.403	8072.95
812.732	8029.56
813.061	8028.43
813.39	7971.03
813.719	7973.52
814.049	8028.43
814.378	7981.43
814.707	7992.95
815.036	8022.33
815.365	8025.5
815.693	7866.63
816.022	7922.22
816.351	7837.48
816.68	7832.51
817.008	7904.37
817.337	7819.85
817.665	7831.83
817.994	7818.95
818.322	7880.64
818.651	7806.52
818.979	7812.62
819.307	7752.51
819.636	7784.6
819.964	7740.3
820.292	7747.54
820.62	7762.9
820.948	7741.89
821.276	7818.72
821.604	7771.72
821.932	7821.43
822.259	7806.74
822.587	7741.66
822.915	7772.85
823.243	7811.72
823.57	7772.62
823.898	7782.79
824.225	7748.89
824.553	7802
824.88	7753.86
825.207	7769.91
825.535	7786.86
825.862	7815.56
826.189	7851.26
826.516	7832.96
826.843	7818.04
827.17	7903.69
827.497	7891.04
827.824	7898.72
828.151	7837.93
828.478	7818.04
828.805	7881.77
829.131	7835.9
829.458	7838.38
829.785	7782.79
830.111	7841.09
830.438	7892.39
830.764	7873.63
831.09	7897.36
831.417	7837.7
831.743	7811.94
832.069	7878.38
832.395	7810.36
832.722	7875.44
833.048	7820.3
833.374	7872.96
833.7	7752.28
834.026	7848.78
834.351	7858.04
834.677	7816.24
835.003	7840.19
835.329	7817.59
835.654	7775.56
835.98	7762.9
836.306	7750.25
836.631	7778.95
836.956	7801.55
837.282	7831.15
837.607	7715.9
837.932	7760.42
838.258	7789.57
838.583	7764.94
838.908	7785.5
839.233	7719.74
839.558	7702.79
839.883	7620.99
840.208	7689.23
840.533	7704.15
840.858	7707.31
841.182	7717.03
841.507	7703.02
841.832	7699.63
842.156	7674.54
842.481	7648.1
842.805	7628.9
843.13	7615.34
843.454	7613.53
843.778	7586.18
844.103	7606.07
844.427	7569.24
844.751	7505.73
845.075	7546.64
845.399	7483.81
845.723	7415.79
846.047	7470.48
846.371	7359.3
846.695	7386.87
847.019	7302.58
847.343	7346.64
847.666	7277.72
847.99	7299.86
848.313	7321.33
848.637	7164.05
848.96	7185.97
849.284	7143.48
849.607	7115.24
849.931	7098.06
850.254	7047.67
850.577	7026.65
850.9	6983.26
851.223	6998.63
851.546	6954.56
851.869	6915.69
852.192	6948.91
852.515	6906.65
852.838	6904.39
853.161	6901
853.483	6869.82
853.806	6811.29
854.129	6853.1
854.451	6829.82
854.774	6748.69
855.096	6754.79
855.419	6726.77
855.741	6712.08
856.063	6677.96
856.385	6700.78
856.708	6636.38
857.03	6635.25
857.352	6603.39
857.674	6583.5
857.996	6611.52
858.318	6507.79
858.64	6571.07
858.961	6538.53
859.283	6486.33
859.605	6507.57
859.926	6454.69
860.248	6477.74
860.57	6392.54
860.891	6448.36
861.212	6411.3
861.534	6432.32
861.855	6375.37
862.176	6357.29
862.498	6349.38
862.819	6395.48
863.14	6364.75
863.461	6310.74
863.782	6352.32
864.103	6313
864.424	6309.83
864.745	6292.43
865.065	6261.47
865.386	6278.65
865.707	6306.67
866.027	6316.16
866.348	6288.14
866.668	6217.18
866.989	6256.05
867.309	6234.13
867.63	6190.06
867.95	6207.92
868.27	6126.11
868.59	6221.02
868.91	6186
869.23	6145.77
869.55	6071.2
869.87	6119.1
870.19	6123.17
870.51	6138.99
870.83	6171.98
871.15	6151.19
871.469	6077.3
871.789	6073.91
872.109	6147.8
872.428	6094.02
872.748	6067.13
873.067	6055.6
873.386	6097.64
873.706	6101.25
874.025	6036.62
874.344	6032.33
874.663	5992.78
874.982	6002.5
875.301	5996.4
875.62	6056.28
875.939	6020.12
876.258	5993.46
876.577	5964.98
876.896	5978.32
877.214	5937.19
877.533	5980.58
877.852	5989.62
878.17	5938.09
878.489	5929.73
878.807	5941.26
879.125	5915.27
879.444	5883.4
879.762	5885.66
880.08	5937.19
880.398	5861.26
880.716	5882.73
881.034	5786.68
881.352	5794.59
881.67	5811.54
881.988	5861.94
882.306	5765.67
882.624	5822.62
882.941	5773.13
883.259	5752.56
883.577	5727.48
883.894	5734.93
884.212	5715.05
884.529	5707.36
884.846	5705.78
885.164	5709.85
885.481	5717.31
885.798	5662.85
886.115	5635.5
886.432	5673.47
886.75	5604.54
887.067	5632.34
887.383	5609.06
887.7	5609.74
888.017	5573.81
888.334	5563.64
888.651	5564.09
888.967	5555.5
889.284	5516.86
889.6	5577.2
889.917	5443.87
890.233	5463.98
890.55	5466.47
890.866	5419.01
891.182	5413.36
891.498	5432.57
891.815	5394.6
892.131	5393.25
892.447	5328.84
892.763	5342.4
893.079	5297.43
893.395	5308.5
893.71	5236.64
894.026	5308.96
894.342	5273.03
894.657	5179.92
894.973	5204.33
895.289	5213.37
895.604	5195.06
895.92	5201.16
896.235	5148.28
896.55	5115.97
896.865	5110.54
897.181	5124.55
897.496	5114.16
897.811	5125.91
898.126	5071.22
898.441	5064.9
898.756	5053.14
899.071	4993.26
899.386	4991.9
899.7	4905.58
900.015	4940.15
900.33	4896.76
900.644	4880.49
900.959	4864
901.273	4951.68
901.588	4865.8
901.902	4835.52
902.216	4808.18
902.531	4815.64
902.845	4821.74
903.159	4817.67
903.473	4781.96
903.787	4695.87
904.101	4727.95
904.415	4702.87
904.729	4713.72
905.042	4659.03
905.356	4662.65
905.67	4648.18
905.984	4641.18
906.297	4649.31
906.611	4591.91
906.924	4575.64
907.237	4602.76
907.551	4590.11
907.864	4497
908.177	4531.35
908.491	4520.5
908.804	4463.78
909.117	4450
909.43	4436.21
909.743	4416.1
910.056	4393.27
910.368	4361.41
910.681	4352.37
910.994	4341.07
911.307	4294.29
911.619	4355.54
911.932	4387.62
912.244	4303.33
912.557	4295.65
912.869	4267.85
913.181	4285.93
913.494	4247.06
913.806	4230.11
914.118	4168.65
914.43	4176.78
914.742	4131.13
915.054	4144.24
915.366	4127.52
915.678	4110.57
915.99	4114.41
916.302	4057.69
916.613	4076.67
916.925	4061.31
917.236	4022.89
917.548	4027.63
917.859	4030.57
918.171	4011.14
918.482	3944.47
918.794	3929.11
919.105	3944.02
919.416	3947.86
919.727	3954.87
920.038	3935.66
920.349	3885.94
920.66	3846.17
920.971	3876
921.282	3857.92
921.593	3786.74
921.903	3814.76
922.214	3826.51
922.525	3767.98
922.835	3762.33
923.146	3739.05
923.456	3715.78
923.767	3741.77
924.077	3725.72
924.387	3674.88
924.697	3684.59
925.008	3678.26
925.318	3660.64
925.628	3650.92
925.938	3644.59
926.248	3594.43
926.558	3595.1
926.867	3584.93
927.177	3583.35
927.487	3574.09
927.796	3491.15
928.106	3503.81
928.416	3538.38
928.725	3501.32
929.034	3503.13
929.344	3500.87
929.653	3420.64
929.962	3423.58
930.271	3466.07
930.581	3423.13
930.89	3420.87
931.199	3413.19
931.508	3374.32
931.817	3401.21
932.125	3372.96
932.434	3386.97
932.743	3329.12
933.051	3338.61
933.36	3358.95
933.669	3276.02
933.977	3325.51
934.286	3279.41
934.594	3287.54
934.902	3248.9
935.21	3203.25
935.519	3224.72
935.827	3220.2
936.135	3223.59
936.443	3182.23
936.751	3115.57
937.059	3154.89
937.367	3162.35
937.674	3158.05
937.982	3128.22
938.29	3089.81
938.597	3116.25
938.905	3088
939.213	3073.54
939.52	3076.47
939.827	3085.29
940.135	3055.91
940.442	3019.07
940.749	3020.66
941.056	3030.15
941.363	2984.27
941.67	3012.29
941.977	2970.71
942.284	2944.27
942.591	2967.55
942.898	2944.27
943.205	2943.82
943.511	2928.23
943.818	2928
944.125	2886.87
944.431	2852.52
944.738	2864.73
945.044	2852.3
945.35	2860.43
945.657	2833.09
945.963	2844.39
946.269	2808.68
946.575	2789.7
946.881	2789.7
947.187	2751.74
947.493	2728.23
947.799	2759.42
948.105	2769.81
948.41	2712.64
948.716	2716.26
949.022	2693.66
949.327	2706.99
949.633	2669.25
949.938	2659.99
950.244	2667.22
950.549	2663.6
950.854	2635.13
951.16	2611.4
951.465	2651.4
951.77	2631.29
952.075	2603.72
952.38	2598.52
952.685	2593.32
952.99	2569.37
953.294	2571.85
953.599	2536.15
953.904	2561.91
954.209	2536.6
954.513	2579.99
954.818	2510.84
955.122	2501.12
955.426	2510.16
955.731	2438.3
956.035	2506.09
956.339	2492.31
956.643	2487.11
956.948	2466.55
957.252	2460.44
957.556	2401.46
957.86	2406.21
958.163	2400.11
958.467	2382.25
958.771	2421.35
959.075	2382.93
959.378	2353.1
959.682	2386.1
959.985	2344.51
960.289	2324.85
960.592	2320.79
960.896	2321.01
961.199	2325.08
961.502	2281.69
961.805	2279.66
962.108	2288.24
962.411	2244.4
962.714	2299.77
963.017	2274.69
963.32	2256.83
963.623	2205.54
963.926	2205.54
964.228	2245.76
964.531	2239.88
964.833	2213.22
965.136	2221.35
965.438	2167.12
965.741	2180.45
966.043	2192.43
966.345	2190.85
966.648	2193.11
966.95	2126.89
967.252	2147.68
967.554	2142.49
967.856	2115.59
968.158	2100.23
968.46	2097.97
968.761	2103.84
969.063	2106.55
969.365	2085.31
969.666	2039.89
969.968	2082.6
970.269	2087.57
970.571	2062.49
970.872	2021.13
971.174	2046.22
971.475	2038.99
971.776	2017.29
972.077	2008.25
972.378	2007.57
972.679	2007.8
972.98	1992.21
973.281	1984.3
973.582	1966.22
973.883	1945.66
974.183	1926.9
974.484	1966.22
974.785	1920.12
975.085	1928.03
975.386	1919.22
975.686	1927.35
975.986	1906.11
976.287	1917.63
976.587	1883.96
976.887	1896.62
977.187	1874.02
977.487	1854.13
977.787	1848.03
978.087	1862.27
978.387	1838.09
978.687	1839.22
978.987	1801.93
979.286	1824.75
979.586	1777.07
979.885	1824.53
980.185	1801.25
980.484	1808.03
980.784	1794.92
981.083	1801.7
981.382	1783.4
981.682	1771.65
981.981	1776.85
982.28	1750.63
982.579	1735.94
982.878	1770.74
983.177	1728.94
983.475	1724.87
983.774	1728.26
984.073	1723.06
984.372	1691.2
984.67	1714.47
984.969	1712.44
985.267	1662.72
985.566	1630.64
985.864	1653.23
986.162	1663.63
986.461	1634.02
986.759	1637.64
987.057	1658.66
987.355	1638.77
987.653	1613.23
987.951	1635.15
988.249	1641.03
988.547	1590.64
988.844	1593.57
989.142	1592.9
989.44	1583.63
989.737	1535.95
990.035	1575.5
990.332	1557.64
990.63	1566.68
990.927	1543.41
991.224	1534.37
991.521	1573.69
991.819	1533.24
992.116	1496.4
992.413	1488.49
992.71	1525.55
993.006	1519.45
993.303	1520.81
993.6	1490.75
993.897	1486.91
994.193	1499.34
994.49	1482.62
994.787	1456.4
995.083	1470.87
995.379	1455.95
995.676	1451.2
995.972	1425.89
996.268	1447.59
996.565	1419.57
996.861	1415.05
997.157	1421.6
997.453	1401.71
997.749	1384.77
998.044	1387.48
998.34	1360.81
998.636	1390.42
998.932	1415.95
999.227	1368.72
999.523	1384.09
999.818	1352.22
1000.114	1331.21
1000.409	1370.98
1000.704	1339.57
1001	1344.31
1001.295	1338.67
1001.59	1323.98
1001.885	1319.91
1002.18	1334.6
1002.475	1284.43
1002.77	1284.88
1003.065	1279.23
1003.359	1273.36
1003.654	1293.47
1003.949	1282.62
1004.243	1281.04
1004.538	1288.05
1004.832	1267.71
1005.127	1233.81
1005.421	1265.22
1005.715	1238.78
1006.009	1224.54
1006.304	1223.64
1006.598	1211.89
1006.892	1205.11
1007.186	1201.95
1007.48	1202.4
1007.773	1191.78
1008.067	1183.19
1008.361	1167.6
1008.655	1173.92
1008.948	1166.92
1009.242	1146.13
1009.535	1152.46
1009.829	1154.26
1010.122	1159.01
1010.415	1137.09
1010.708	1115.17
1011.001	1110.2
1011.295	1116.07
1011.588	1120.37
1011.881	1109.97
1012.173	1102.51
1012.466	1093.25
1012.759	1074.49
1013.052	1093.7
1013.344	1071.33
1013.637	1086.69
1013.93	1066.81
1014.222	1037.2
1014.514	1044.89
1014.807	1048.73
1015.099	1056.64
1015.391	1050.99
1015.683	1027.71
1015.976	1025.91
1016.268	1034.72
1016.56	987.04
1016.851	999.92
1017.143	997.43
1017.435	971.44
1017.727	991.1
1018.018	1001.5
1018.31	991.56
1018.602	974.61
1018.893	971.44
1019.185	961.73
1019.476	950.88
1019.767	958.56
1020.058	951.1
1020.35	949.07
1020.641	955.85
1020.932	918.79
1021.223	928.05
1021.514	921.28
1021.804	912.91
1022.095	906.13
1022.386	890.99
1022.677	907.26
1022.967	902.29
1023.258	887.6
1023.548	893.03
1023.839	879.47
1024.129	886.7
1024.419	866.14
1024.709	880.37
1025	865.01
1025.29	863.65
1025.58	874.27
1025.87	864.55
1026.16	850.54
1026.449	882.63
1026.739	855.29
1027.029	849.86
1027.319	809.41
1027.608	835.18
1027.898	846.02
1028.187	810.09
1028.477	816.65
1028.766	820.03
1029.055	800.37
1029.344	800.37
1029.634	767.38
1029.923	807.61
1030.212	809.87
1030.501	793.82
1030.79	792.69
1031.078	760.83
1031.367	778.45
1031.656	752.47
1031.945	773.71
1032.233	759.92
1032.522	745.01
1032.81	747.95
1033.099	742.52
1033.387	752.92
1033.675	740.94
1033.963	742.07
1034.251	739.81
1034.54	719.92
1034.828	701.62
1035.116	719.92
1035.403	709.08
1035.691	696.2
1035.979	697.78
1036.267	709.3
1036.554	703.88
1036.842	714.95
1037.129	679.93
1037.417	700.04
1037.704	679.02
1037.992	677.67
1038.279	695.07
1038.566	702.52
1038.853	702.52
1039.14	702.52
