Data from blue_shiny_book_FLMS001491_00093.txt Node
Date: Wed Feb 08 15:27:48 GMT 2017
User: dcchb
Spectrometer: FLMS00149
Trigger mode: 0
Integration Time (sec): 2.000000E-2
Scans to average: 10
Electric dark correction enabled: true
Nonlinearity correction enabled: false
Boxcar width: 0
XAxis mode: Wavelengths
Number of Pixels in Spectrum: 2048
>>>>>Begin Spectral Data<<<<<
341.393	-0.18
341.776	-0.18
342.16	-0.18
342.543	-51.71
342.927	-53.97
343.31	-70.69
343.693	-67.3
344.077	-72.95
344.46	-52.16
344.843	-65.27
345.226	-43.57
345.61	-27.08
345.993	-1.31
346.376	-3.57
346.759	14.28
347.142	17.22
347.525	35.75
347.908	54.5
348.291	65.35
348.674	102.41
349.057	114.39
349.44	115.07
349.823	136.76
350.206	157.1
350.588	200.94
350.971	193.26
351.354	226.03
351.737	207.72
352.119	234.16
352.502	237.55
352.884	288.62
353.267	268.96
353.65	284.1
354.032	303.76
354.414	323.2
354.797	309.19
355.179	329.07
355.562	319.81
355.944	325.68
356.326	307.6
356.709	344.44
357.091	354.84
357.473	353.93
357.855	353.71
358.238	343.76
358.62	338.11
359.002	332.91
359.384	322.97
359.766	324.55
360.148	313.03
360.53	342.63
360.912	345.34
361.294	323.88
361.676	316.64
362.057	333.82
362.439	332.24
362.821	328.85
363.203	305.12
363.584	314.84
363.966	318.68
364.348	317.32
364.729	316.87
365.111	314.16
365.493	302.86
365.874	310.09
366.256	322.29
366.637	321.39
367.019	299.02
367.4	327.49
367.781	325.23
368.163	312.12
368.544	302.18
368.925	327.27
369.306	320.71
369.688	309.41
370.069	306.93
370.45	310.54
370.831	319.13
371.212	324.78
371.593	317.32
371.974	306.02
372.355	310.99
372.736	299.92
373.117	310.99
373.498	317.1
373.879	309.86
374.26	308.96
374.641	329.75
375.021	323.88
375.402	328.17
375.783	350.32
376.163	328.62
376.544	335.63
376.925	346.93
377.305	334.5
377.686	334.27
378.066	349.64
378.447	349.19
378.827	340.37
379.208	332.69
379.588	340.37
379.968	345.57
380.349	350.54
380.729	348.51
381.109	350.32
381.489	357.32
381.87	357.55
382.25	360.03
382.63	347.6
383.01	355.51
383.39	374.5
383.77	379.69
384.15	380.6
384.53	381.05
384.91	364.78
385.29	376.98
385.67	380.37
386.049	383.54
386.429	371.78
386.809	372.46
387.189	384.21
387.568	394.16
387.948	385.12
388.328	391.9
388.707	386.02
389.087	391.67
389.466	409.52
389.846	396.19
390.225	403.42
390.605	410.88
390.984	409.07
391.363	405.91
391.743	425.57
392.122	444.1
392.501	415.4
392.881	433.93
393.26	444.1
393.639	445.91
394.018	440.26
394.397	449.3
394.776	443.87
395.155	442.06
395.534	452.91
395.913	457.43
396.292	458.56
396.671	462.63
397.05	460.82
397.429	475.51
397.808	454.95
398.186	464.66
398.565	480.71
398.944	466.7
399.323	496.3
399.701	494.94
400.08	509.86
400.458	494.49
400.837	510.54
401.215	482.29
401.594	493.81
401.972	507.15
402.351	526.36
402.729	500.37
403.107	535.62
403.486	537.66
403.864	555.28
404.242	548.5
404.62	566.81
404.999	552.34
405.377	564.55
405.755	579.46
406.133	579.69
406.511	578.11
406.889	561.84
407.267	589.63
407.645	606.81
408.023	620.14
408.401	611.1
408.779	611.78
409.156	635.96
409.534	643.42
409.912	634.6
410.29	652.68
410.667	654.94
411.045	676.63
411.422	670.99
411.8	686.35
412.178	697.88
412.555	713.24
412.933	734.94
413.31	708.27
413.687	699.68
414.065	736.52
414.442	724.09
414.819	757.31
415.197	761.83
415.574	744.2
415.951	772
416.328	789.85
416.705	789.63
417.082	807.48
417.46	851.32
417.837	822.17
418.214	829.85
418.591	840.02
418.967	851.09
419.344	840.92
419.721	847.48
420.098	859.68
420.475	893.35
420.852	884.54
421.228	880.47
421.605	898.32
421.982	917.31
422.358	944.65
422.735	933.13
423.111	930.19
423.488	939.45
423.864	949.17
424.241	972.22
424.617	987.36
424.994	957.31
425.37	985.33
425.746	1028.49
426.123	1030.75
426.499	1015.61
426.875	1042.05
427.251	1071.88
427.627	1099.67
428.003	1091.54
428.379	1089.05
428.756	1140.13
429.132	1123.85
429.507	1150.07
429.883	1161.82
430.259	1171.09
430.635	1188.03
431.011	1216.96
431.387	1246.56
431.763	1255.15
432.138	1236.62
432.514	1291.53
432.89	1285.66
433.265	1317.75
433.641	1317.3
434.016	1341.25
434.392	1363.62
434.767	1388.25
435.143	1399.1
435.518	1414.92
435.894	1438.42
436.269	1468.48
436.644	1496.27
437.02	1486.56
437.395	1506.9
437.77	1543.73
438.145	1523.39
438.52	1528.14
438.895	1562.26
439.271	1584.86
439.646	1603.84
440.021	1620.34
440.395	1645.2
440.77	1654.69
441.145	1642.49
441.52	1700.79
441.895	1697.85
442.27	1737.62
442.645	1739.66
443.019	1735.36
443.394	1757.96
443.769	1776.27
444.143	1752.99
444.518	1771.3
444.892	1800.9
445.267	1804.29
445.641	1844.29
446.016	1859.65
446.39	1859.88
446.764	1851.52
447.139	1883.16
447.513	1907.56
447.887	1899.65
448.262	1894.68
448.636	1923.16
449.01	1932.19
449.384	1980.78
449.758	2018.29
450.132	2050.61
450.506	2038.41
450.88	2068.01
451.254	2065.75
451.628	2116.82
452.002	2087.45
452.376	2139.87
452.75	2159.08
453.123	2166.31
453.497	2200.21
453.871	2204.73
454.244	2279.98
454.618	2261.9
454.992	2304.39
455.365	2314.78
455.739	2357.49
456.112	2373.77
456.486	2434.78
456.859	2438.85
457.232	2508.23
457.606	2481.33
457.979	2508
458.352	2590.03
458.725	2633.65
459.099	2631.16
459.472	2690.59
459.845	2717.71
460.218	2716.13
460.591	2722
460.964	2768.33
461.337	2887.65
461.71	2895.33
462.083	2914.99
462.456	2937.82
462.829	2969.91
463.201	3034.54
463.574	3069.11
463.947	3105.5
464.32	3183.24
464.692	3193.63
465.065	3229.11
465.438	3287.64
465.81	3292.39
466.183	3290.58
466.555	3420.74
466.928	3454.64
467.3	3469.33
467.672	3509.55
468.045	3587.07
468.417	3602.43
468.789	3637.91
469.161	3643.11
469.534	3727.4
469.906	3792.49
470.278	3786.61
470.65	3834.74
471.022	3929.66
471.394	3996.77
471.766	4074.96
472.138	4079.71
472.51	4189.99
472.882	4293.26
473.253	4339.82
473.625	4403.32
473.997	4509.3
474.369	4470.21
474.74	4519.25
475.112	4648.28
475.484	4728.05
475.855	4819.8
476.227	4828.62
476.598	4934.15
476.97	5010.31
477.341	5147.7
477.713	5204.43
478.084	5240.36
478.455	5396.51
478.827	5462.95
479.198	5604.87
479.569	5589.73
479.94	5772.55
480.311	5817.97
480.682	5959.21
481.053	6038.08
481.424	6166.21
481.795	6214.34
482.166	6305.19
482.537	6417.5
482.908	6539.08
483.279	6597.83
483.65	6732.97
484.021	6836.25
484.391	6922.57
484.762	7039.63
485.133	7124.37
485.503	7231.26
485.874	7356.91
486.244	7464.03
486.615	7585.83
486.985	7685.49
487.356	7782.89
487.726	7845.26
488.097	8100.39
488.467	8069.43
488.837	8250.22
489.207	8354.17
489.578	8446.37
489.948	8563.43
490.318	8705.12
490.688	8827.15
491.058	9011.33
491.428	9042.06
491.798	9162.51
492.168	9386.46
492.538	9408.61
492.908	9453.35
493.278	9523.86
493.648	9619
494.017	9731.99
494.387	9781.48
494.757	9883.62
495.126	10009.95
495.496	10046.33
495.866	10222.37
496.235	10315.93
496.605	10468.69
496.974	10491.74
497.344	10659.65
497.713	10764.28
498.082	10853.32
498.452	10915.46
498.821	10907.33
499.19	11018.28
499.559	11048.79
499.928	11098.73
500.298	11231.61
500.667	11273.64
501.036	11351.16
501.405	11425.96
501.774	11429.35
502.143	11634.99
502.512	11756.8
502.88	11851.93
503.249	11870.69
503.618	12056.45
503.987	12089.67
504.356	12211.02
504.724	12235.65
505.093	12318.14
505.462	12355.42
505.83	12415.31
506.199	12565.81
506.567	12612.82
506.936	12636.55
507.304	12726.26
507.672	12789.99
508.041	12822.76
508.409	13020.49
508.777	13140.49
509.145	13256.64
509.514	13410.09
509.882	13455.06
510.25	13503.19
510.618	13655.5
510.986	13723.3
511.354	13854.14
511.722	13983.63
512.09	14076.28
512.458	14070.41
512.826	14195.38
513.193	14198.09
513.561	14320.12
513.929	14354.92
514.297	14413
514.664	14521.24
515.032	14643.27
515.4	14751.52
515.767	14884.85
516.135	14988.8
516.502	14923.27
516.869	15151.73
517.237	15339.07
517.604	15286.65
517.972	15601.67
518.339	15636.69
518.706	15724.15
519.073	15696.8
519.44	15848.21
519.808	15949.23
520.175	15919.85
520.542	16172.27
520.909	16242.78
521.276	16243.23
521.643	16429.89
522.009	16491.13
522.376	16634.63
522.743	16727.06
523.11	16949.88
523.477	17210.66
523.843	17317.55
524.21	17594.16
524.577	17729.07
524.943	17877.99
525.31	17950.08
525.676	18033.69
526.043	18125.67
526.409	18184.42
526.776	18327.47
527.142	18410.86
527.508	18417.86
527.874	18543.96
528.241	18663.05
528.607	18725.2
528.973	18805.88
529.339	18824.86
529.705	19001.8
530.071	19270.5
530.437	19456.48
530.803	19499.64
531.169	19740.77
531.535	19809.69
531.901	19930.82
532.267	20040.65
532.632	20169.68
532.998	20315.67
533.364	20385.95
533.73	20457.13
534.095	20616.68
534.461	20584.36
534.826	20666.39
535.192	20641.99
535.557	20834.3
535.923	20693.06
536.288	20878.36
536.653	20933.05
537.019	20926.95
537.384	21105.7
537.749	21257.11
538.114	21504.79
538.479	21417.33
538.845	21618.46
539.21	21609.87
539.575	21820.03
539.94	21976.19
540.305	22017.99
540.67	21938.45
541.034	22075.39
541.399	22199.91
541.764	22091.44
542.129	22219.8
542.494	22214.37
542.858	22206.69
543.223	22165.11
543.587	22239.23
543.952	22273.13
544.316	22259.57
544.681	22351.09
545.045	22496.63
545.41	22623.85
545.774	22766.22
546.138	22694.13
546.503	22761.03
546.867	22968.03
547.231	23236.95
547.595	23242.14
547.959	23359.43
548.324	23416.15
548.688	23483.94
549.052	23547.45
549.416	23504.51
549.779	23451.63
550.143	23490.95
550.507	23619.08
550.871	23611.4
551.235	23511.51
551.599	23647.56
551.962	23665.18
552.326	23721.68
552.689	23875.57
553.053	23659.53
553.417	23779.08
553.78	24195.56
554.143	24136.13
554.507	24305.39
554.87	24398.95
555.234	24696.12
555.597	24541.77
555.96	24692.05
556.323	24788.09
556.686	24874.64
557.05	24932.04
557.413	25104.92
557.776	25132.49
558.139	25198.7
558.502	25025.37
558.865	25088.65
559.228	25170.45
559.59	25142.21
559.953	25145.37
560.316	25523.67
560.679	25429.88
561.041	25645.47
561.404	25687.73
561.767	25880.27
562.129	25952.35
562.492	26247.49
562.854	26151.45
563.217	26296.98
563.579	26432.57
563.941	26727.48
564.304	26843.18
564.666	27022.16
565.028	27053.57
565.39	27160.68
565.753	27311.87
566.115	27315.71
566.477	27233.45
566.839	27328.82
567.201	27451.52
567.563	27480.9
567.925	27519.32
568.287	27463.28
568.648	27481.81
569.01	27664.85
569.372	27858.07
569.734	27761.57
570.095	27881.57
570.457	27964.5
570.819	28100.77
571.18	28087.89
571.542	28350.48
571.903	28510.93
572.265	28748.21
572.626	28765.84
572.987	28785.73
573.349	29009.9
573.71	29153.85
574.071	29182.33
574.432	29242.89
574.794	29383.68
575.155	29374.64
575.516	29189.33
575.877	29246.73
576.238	29318.82
576.599	29358.14
576.96	29330.12
577.32	29339.38
577.681	29406.5
578.042	29534.63
578.403	29375.09
578.763	29591.13
579.124	29602.43
579.485	29807.85
579.845	29884
580.206	29848.07
580.566	30078.12
580.927	30158.57
581.287	30402.18
581.648	30220.72
582.008	30516.3
582.368	30461.61
582.728	30581.39
583.089	30511.78
583.449	30399.24
583.809	30449.64
584.169	30441.28
584.529	30442.18
584.889	30612.57
585.249	30425.46
585.609	30388.17
585.969	30480.6
586.329	30414.38
586.688	30293.03
587.048	30273.37
587.408	30277.21
587.768	30425.23
588.127	30308.85
588.487	30408.96
588.846	30713.81
589.206	30599.69
589.565	30536.19
589.925	30693.47
590.284	30608.5
590.643	30884.88
591.003	30865.9
591.362	30992
591.721	30939.34
592.08	31053.46
592.44	31086
592.799	31129.62
593.158	31136.17
593.517	31123.74
593.876	31151.99
594.235	30928.04
594.593	30999
594.952	31013.92
595.311	30872.45
595.67	30899.12
596.029	31187.92
596.387	30976.85
596.746	30900.02
597.104	30829.97
597.463	30915.84
597.822	30996.52
598.18	30873.35
598.538	31090.75
598.897	31116.51
599.255	31008.04
599.613	31381.36
599.972	31436.73
600.33	31458.42
600.688	31342.27
601.046	31547.46
601.404	31603.73
601.762	31650.28
602.12	31657.52
602.478	31666.33
602.836	31717.63
603.194	31613
603.552	31700.23
603.91	31703.39
604.268	31718.3
604.625	31466.56
604.983	31537.97
605.341	31388.82
605.698	31459.1
606.056	31613.9
606.413	31601.25
606.771	31640.79
607.128	31729.15
607.485	31536.61
607.843	31529.61
608.2	31808.47
608.557	31972.99
608.914	31815.03
609.272	32186.31
609.629	32143.83
609.986	32320.55
610.343	32130.72
610.7	32433.77
611.057	32330.49
611.414	32505.63
611.771	32491.84
612.127	32572.97
612.484	32628.56
612.841	32725.74
613.198	32578.39
613.554	32641.9
613.911	32821.1
614.267	32752.85
614.624	32633.53
614.98	32617.26
615.337	32775
615.693	32748.79
616.05	32578.17
616.406	32885.96
616.762	32711.05
617.118	32472.18
617.475	32540.43
617.831	32742.68
618.187	32751.05
618.543	32713.76
618.899	32869.01
619.255	32852.96
619.611	32929.35
619.967	33081.21
620.323	33135.22
620.678	32993.53
621.034	33125.27
621.39	33222.22
621.746	33236.91
622.101	33465.15
622.457	33351.93
622.812	33340.86
623.168	33533.4
623.523	33532.49
623.879	33625.82
624.234	33314.42
624.589	33502.44
624.945	33621.31
625.3	33640.74
625.655	33324.59
626.01	33383.35
626.365	33317.13
626.72	33330.24
627.075	33247.98
627.43	33194.88
627.785	33153.07
628.14	33250.69
628.495	33042.56
628.85	33128.21
629.205	33010.25
629.559	33038.27
629.914	32946.29
630.269	33156.46
630.623	33094.54
630.978	33030.81
631.332	33153.52
631.687	33184.71
632.041	33118.27
632.396	33285.04
632.75	33057.48
633.104	33127.98
633.459	33133.18
633.813	33080.75
634.167	33066.07
634.521	32919.85
634.875	32982.23
635.229	33040.08
635.583	32881.66
635.937	33020.42
636.291	32822.46
636.645	32929.12
636.999	32777.71
637.352	32773.87
637.706	32552.41
638.06	32647.77
638.413	32700.65
638.767	32539.53
639.121	32422.24
639.474	32085.07
639.828	32084.62
640.181	32204.17
640.534	32161.46
640.888	31954.91
641.241	31880.56
641.594	32116.26
641.947	32172.53
642.301	32132.76
642.654	32139.08
643.007	32212.08
643.36	32208.46
643.713	32139.31
644.066	32378.4
644.419	32229.48
644.771	32223.15
645.124	32111.29
645.477	32137.05
645.83	31972.99
646.182	31728.25
646.535	31356.96
646.888	31291.2
647.24	30959.91
647.593	31060.47
647.945	31027.02
648.298	30768.27
648.65	30826.12
649.002	30675.62
649.355	30902.05
649.707	30895.5
650.059	31084.2
650.411	31570.74
650.763	31328.48
651.115	31682.83
651.467	31528.7
651.819	31465.66
652.171	31340.24
652.523	31239.9
652.875	31214.81
653.227	31259.33
653.578	31496.16
653.93	31483.06
654.282	31343.17
654.633	31332.55
654.985	31415.04
655.337	31432.66
655.688	31404.41
656.039	31624.75
656.391	31427.92
656.742	31543.62
657.094	31598.99
657.445	31819.32
657.796	31641.47
658.147	31537.29
658.498	31554.24
658.849	31725.76
659.2	31594.47
659.551	31383.62
659.902	31636.95
660.253	31450.74
660.604	31516.73
660.955	31229.73
661.306	31269.5
661.656	31256.62
662.007	31244.42
662.358	31114.03
662.708	31121.94
663.059	31135.72
663.409	30765.11
663.76	31122.16
664.11	30935.27
664.461	30946.35
664.811	30823.86
665.161	30822.06
665.511	30882.39
665.862	30899.57
666.212	31017.08
666.562	31013.92
666.912	31064.54
667.262	31083.52
667.612	31147.7
667.962	31077.42
668.312	31216.4
668.662	31398.31
669.011	31436.28
669.361	31387.69
669.711	31446.45
670.06	31399.22
670.41	31274.02
670.76	31326.22
671.109	31203.06
671.459	31159.9
671.808	31161.26
672.157	31137.98
672.507	30931.88
672.856	30928.04
673.205	30922.62
673.554	30929.85
673.904	30748.16
674.253	30863.19
674.602	30689.63
674.951	30161.74
675.3	30035.64
675.649	30548.84
675.998	30402.63
676.346	30237.44
676.695	30328.51
677.044	30173.94
677.393	30213.49
677.741	30296.42
678.09	30354.95
678.438	30201.96
678.787	30250.32
679.135	30152.02
679.484	30055.07
679.832	30179.81
680.181	30041.74
680.529	30163.09
680.877	30439.47
681.225	30325.57
681.573	30442.86
681.922	30358.11
682.27	30248.29
682.618	30295.74
682.966	30232.24
683.314	30181.85
683.661	30140.04
684.009	30045.35
684.357	29922.42
684.705	29792.93
685.053	29955.19
685.4	29724.23
685.748	29634.07
686.095	29484.46
686.443	29382.09
686.79	29329.21
687.138	29262.78
687.485	29336.9
687.832	29020.07
688.18	29027.3
688.527	28895.55
688.874	28661.66
689.221	28549.12
689.568	28483.59
689.915	28405.85
690.262	28507.77
690.609	28349.13
690.956	28201.11
691.303	28217.61
691.65	27993.43
691.997	28086.76
692.344	27833.21
692.69	27935.58
693.037	28003.83
693.383	27784.62
693.73	27814.45
694.077	27693.1
694.423	27849.25
694.769	27726.77
695.116	27733.32
695.462	27570.62
695.808	27559.77
696.155	27704.17
696.501	27483.84
696.847	27486.55
697.193	27207.91
697.539	27368.59
697.885	27122.95
698.231	26881.6
698.577	26929.73
698.923	26817.64
699.269	26705.55
699.614	26625.11
699.96	26586.46
700.306	26465.56
700.651	26331.55
700.997	26032.8
701.342	25963.88
701.688	25913.49
702.033	25811.57
702.379	25673.72
702.724	25586.04
703.069	25662.64
703.415	25348.53
703.76	25354.4
704.105	25368.19
704.45	25349.66
704.795	25193.28
705.14	25061.76
705.485	25131.58
705.83	25135.88
706.175	25048.2
706.52	24926.84
706.865	25015.43
707.209	25022.44
707.554	25142.43
707.899	25120.51
708.243	24894.76
708.588	25038.71
708.932	24854.76
709.277	24971.36
709.621	24910.57
709.966	24698.38
710.31	24815.21
710.654	24584.25
710.998	24572.96
711.342	24511.94
711.687	24511.49
712.031	24336.58
712.375	24281.44
712.719	24229.69
713.063	24231.72
713.407	24132.06
713.75	24076.02
714.094	23925.97
714.438	23741.34
714.782	23777.72
715.125	23639.42
715.469	23599.87
715.812	23368.02
716.156	23311.52
716.499	23261.58
716.843	23172.77
717.186	23116.72
717.53	23150.85
717.873	23207.12
718.216	23186.55
718.559	22978.87
718.902	22946.11
719.246	23037.4
719.589	23046.89
719.932	23020.23
720.275	22961.25
720.617	23084.41
720.96	22920.12
721.303	23104.75
721.646	23154.24
721.989	23018.19
722.331	23190.62
722.674	23072.2
723.016	23227.23
723.359	23186.33
723.701	23180.45
724.044	23001.92
724.386	22842.15
724.729	23084.41
725.071	23040.57
725.413	22976.84
725.755	22927.8
726.097	22904.3
726.439	22837.86
726.782	22722.83
727.124	22769.16
727.465	22486
727.807	22633.12
728.149	22487.36
728.491	22529.17
728.833	22549.51
729.175	22435.16
729.516	22390.19
729.858	22493.24
730.199	22511.99
730.541	22465.44
730.882	22365.56
731.224	22323.98
731.565	22129.18
731.906	22170.31
732.248	22177.54
732.589	22068.16
732.93	22075.17
733.271	22176.63
733.612	22226.35
733.953	22239.46
734.294	22192.45
734.635	22090.53
734.976	22217.31
735.317	22112.91
735.658	22292.79
735.999	22323.98
736.339	22222.96
736.68	22423.41
737.021	22313.58
737.361	22290.98
737.702	22331.43
738.042	22306.8
738.383	22387.7
738.723	22434.93
739.063	22392.9
739.404	22650.07
739.744	22554.25
740.084	22387.93
740.424	22470.86
740.764	22509.51
741.104	22617.07
741.444	22475.84
741.784	22292.56
742.124	22544.08
742.464	22382.96
742.804	22459.79
743.143	22476.74
743.483	22392.9
743.823	22286.46
744.162	22338.66
744.502	22300.25
744.841	22173.47
745.181	22285.11
745.52	22233.81
745.86	22137.99
746.199	22348.61
746.538	22237.2
746.877	22251.21
747.216	22378.44
747.556	22277.2
747.895	22389.51
748.234	22226.58
748.573	22404.65
748.911	22330.08
749.25	22435.84
749.589	22394.03
749.928	22345.22
750.267	22598.09
750.605	22549.73
750.944	22589.96
751.283	22442.84
751.621	22608.71
751.96	22566
752.298	22681.71
752.636	22768.26
752.975	22736.85
753.313	22690.52
753.651	22811.19
753.989	22745.66
754.327	22865.88
754.666	22843.96
755.004	22989.72
755.342	23020.68
755.679	22999.44
756.017	23052.32
756.355	23120.79
756.693	23028.82
757.031	23150.62
757.368	23057.52
757.706	23092.99
758.044	22959.44
758.381	23147.91
758.719	22930.96
759.056	23077.85
759.394	22962.38
759.731	22890.74
760.068	22904.07
760.405	22969.61
760.743	22893.9
761.08	22959.21
761.417	22846.9
761.754	22900.91
762.091	22891.64
762.428	22733.23
762.765	22623.18
763.102	22660.01
763.438	22507.93
763.775	22583.86
764.112	22656.4
764.449	22728.03
764.785	22631.99
765.122	22623.85
765.458	22528.04
765.795	22605.32
766.131	22583.4
766.467	22573.69
766.804	22477.19
767.14	22513.57
767.476	22527.81
767.812	22487.81
768.148	22574.14
768.485	22503.63
768.821	22287.37
769.157	22287.82
769.492	22311.32
769.828	22340.25
770.164	22262.06
770.5	22236.29
770.836	22263.41
771.171	22114.49
771.507	22107.26
771.842	22010.99
772.178	22093.47
772.513	21960.37
772.849	21927.15
773.184	21852.8
773.519	21844.44
773.855	21745.69
774.19	21571
774.525	21657.33
774.86	21679.02
775.195	21506.37
775.53	21418.91
775.865	21387.5
776.2	21175.08
776.535	21125.36
776.87	21117.68
777.205	20983.67
777.539	20952.03
777.874	20945.25
778.209	20881.08
778.543	20802.66
778.878	20570.8
779.212	20564.93
779.547	20497.58
779.881	20505.04
780.215	20432.95
780.55	20351.15
780.884	20201.09
781.218	20160.42
781.552	20227.31
781.886	20133.52
782.22	19914.1
782.554	19924.72
782.888	19780.77
783.222	19795.45
783.556	19640.88
783.889	19670.03
784.223	19632.29
784.557	19479.3
784.89	19438.63
785.224	19476.59
785.557	19410.38
785.891	19453.99
786.224	19366.31
786.558	19438.18
786.891	19087.68
787.224	19165.19
787.557	19211.51
787.891	19136.04
788.224	19077.51
788.557	19101.24
788.89	18992.76
789.223	19003.38
789.556	18891.98
789.888	18774.24
790.221	18808.59
790.554	18598.42
790.887	18628.48
791.219	18515.04
791.552	18491.99
791.884	18280.24
792.217	18376.28
792.549	18237.3
792.882	18197.08
793.214	18144.88
793.546	18192.33
793.879	17991.89
794.211	18083.18
794.543	18057.65
794.875	17863.08
795.207	17797.77
795.539	17710.99
795.871	17733.14
796.203	17417.21
796.535	17388.74
796.867	17358.46
797.198	17365.46
797.53	17272.13
797.862	17172.02
798.193	17187.84
798.525	17023.32
798.856	17175.64
799.188	16984.45
799.519	16917.34
799.85	16883.21
800.182	16891.58
800.513	16867.62
800.844	16747.17
801.175	16846.38
801.506	16767.96
801.837	16647.51
802.168	16556.67
802.499	16527.52
802.83	16373.17
803.161	16466.5
803.491	16414.75
803.822	16428.76
804.153	16299.5
804.483	16342.21
804.814	16279.61
805.145	16236.45
805.475	16277.81
805.805	16185.38
806.136	16251.59
806.466	16300.86
806.796	16257.24
807.126	16049.11
807.457	16018.15
807.787	16071.71
808.117	15989.9
808.447	15994.42
808.777	16046.17
809.107	15908.78
809.436	15899.51
809.766	15885.05
810.096	15819.06
810.426	15851.38
810.755	15812.06
811.085	15694.32
811.414	15598.28
811.744	15605.51
812.073	15536.58
812.403	15503.82
812.732	15436.02
813.061	15300.43
813.39	15230.83
813.719	15132.98
814.049	15266.31
814.378	15187.67
814.707	15094.33
815.036	15131.4
815.365	15066.09
815.693	14914
816.022	14937.05
816.351	14865.64
816.68	14837.84
817.008	14791.52
817.337	14704.74
817.665	14653.67
817.994	14716.94
818.322	14609.15
818.651	14540.9
818.979	14442.83
819.307	14504.29
819.636	14482.6
819.964	14329.84
820.292	14535.71
820.62	14470.85
820.948	14343.62
821.276	14491.41
821.604	14434.01
821.932	14469.72
822.259	14527.12
822.587	14478.53
822.915	14468.59
823.243	14544.07
823.57	14489.15
823.898	14541.13
824.225	14474.46
824.553	14523.28
824.88	14550.17
825.207	14655.7
825.535	14613.9
825.862	14541.58
826.189	14563.28
826.516	14728.92
826.843	14656.61
827.17	14630.39
827.497	14685.76
827.824	14661.13
828.151	14668.58
828.478	14618.64
828.805	14625.19
829.131	14511.53
829.458	14571.18
829.785	14545.65
830.111	14567.79
830.438	14601.69
830.764	14595.82
831.09	14607.12
831.417	14464.52
831.743	14537.97
832.069	14476.72
832.395	14434.69
832.722	14447.12
833.048	14355.6
833.374	14395.14
833.7	14309.72
834.026	14262.27
834.351	14345.88
834.677	14185.88
835.003	14215.94
835.329	14208.48
835.654	14195.83
835.98	14028.6
836.306	14030.86
836.631	14000.35
836.956	14107.92
837.282	14056.62
837.607	13908.38
837.932	13892.33
838.258	13989.96
838.583	13865.44
838.908	13876.97
839.233	13861.82
839.558	13861.6
839.883	13744.99
840.208	13782.5
840.533	13799
840.858	13819.11
841.182	13768.72
841.507	13834.48
841.832	13741.83
842.156	13697.31
842.481	13756.74
842.805	13634.26
843.13	13663.86
843.454	13700.7
843.778	13615.5
844.103	13585.22
844.427	13658.21
844.751	13541.38
845.075	13511.33
845.399	13505.68
845.723	13410.54
846.047	13547.93
846.371	13440.14
846.695	13393.14
847.019	13369.41
847.343	13253.48
847.666	13155.4
847.99	13186.36
848.313	13141.39
848.637	13084.44
848.96	12993.37
849.284	12927.39
849.607	12881.74
849.931	12818.91
850.254	12743.44
850.577	12664.34
850.9	12517.68
851.223	12536.44
851.546	12404.91
851.869	12353.84
852.192	12371.69
852.515	12226.16
852.838	12237.01
853.161	12256.67
853.483	12142.77
853.806	12065.71
854.129	11996.34
854.451	12054.19
854.774	11952.95
855.096	11876.11
855.419	11783.46
855.741	11799.73
856.063	11715.21
856.385	11680.19
856.708	11700.98
857.03	11599.06
857.352	11594.09
857.674	11649.68
857.996	11510.7
858.318	11516.8
858.64	11510.02
858.961	11429.35
859.283	11368.33
859.605	11335.79
859.926	11445.17
860.248	11244.49
860.57	11319.97
860.891	11228.45
861.212	11242.91
861.534	11252.85
861.855	11201.1
862.176	11237.94
862.498	11270.93
862.819	11192.29
863.14	11231.61
863.461	11188.9
863.782	11148.22
864.103	11242.91
864.424	11178.05
864.745	11183.48
865.065	11162.69
865.386	11237.94
865.707	11100.09
866.027	11091.05
866.348	11063.25
866.668	11092.18
866.989	11025.06
867.309	10981.22
867.63	11052.63
867.95	11027.55
868.27	11013.09
868.59	11050.6
868.91	11014.44
869.23	11027.78
869.55	10997.04
869.87	11057.83
870.19	10926.53
870.51	10948.91
870.83	10999.08
871.15	10796.82
871.469	10868.68
871.789	10794.11
872.109	10750.95
872.428	10622.59
872.748	10679.54
873.067	10654.23
873.386	10610.38
873.706	10673.21
874.025	10592.98
874.344	10559.31
874.663	10537.62
874.982	10474.8
875.301	10466.21
875.62	10504.62
875.939	10369.26
876.258	10389.83
876.577	10416.04
876.896	10351.63
877.214	10298.75
877.533	10394.35
877.852	10321.8
878.17	10317.74
878.489	10359.54
878.807	10296.72
879.125	10267.34
879.444	10192.77
879.762	10121.36
880.08	10157.74
880.398	10091.3
880.716	10145.54
881.034	10006.11
881.352	10040.68
881.67	10003.17
881.988	10056.73
882.306	10061.92
882.624	9984.19
882.941	9941.48
883.259	9958.42
883.577	9947.58
883.894	9978.76
884.212	9976.28
884.529	9939.44
884.846	9955.71
885.164	9931.76
885.481	9942.15
885.798	9977.18
886.115	9884.08
886.432	9861.7
886.75	9818.77
887.067	9894.47
887.383	9865.55
887.7	9828.48
888.017	9794.14
888.334	9830.52
888.651	9807.02
888.967	9752.78
889.284	9775.38
889.6	9711.65
889.917	9627.13
890.233	9600.02
890.55	9680.92
890.866	9630.52
891.182	9546.01
891.498	9511.88
891.815	9495.61
892.131	9507.59
892.447	9414.71
892.763	9418.55
893.079	9304.66
893.395	9266.01
893.71	9321.38
894.026	9259.23
894.342	9213.81
894.657	9189.41
894.973	9106.47
895.289	9103.53
895.604	9081.39
895.92	9036.19
896.235	8968.62
896.55	9001.61
896.865	8931.11
897.181	8858.34
897.496	8842.97
897.811	8784.9
898.126	8750.55
898.441	8696.99
898.756	8678.23
899.071	8611.57
899.386	8725.91
899.7	8544
900.015	8542.42
900.33	8479.14
900.644	8472.81
900.959	8436.88
901.273	8335.64
901.588	8377.9
901.902	8347.62
902.216	8310.11
902.531	8320.95
902.845	8280.95
903.159	8219.49
903.473	8209.54
903.787	8202.31
904.101	8132.03
904.415	8193.05
904.729	8124.12
905.042	8051.36
905.356	8053.84
905.67	8139.72
905.984	8108.76
906.297	8047.51
906.611	7979.72
906.924	7989.21
907.237	7934.52
907.551	7928.87
907.864	7867.86
908.177	7918.03
908.491	7882.1
908.804	7843.45
909.117	7841.19
909.43	7743.34
909.743	7753.06
910.056	7745.38
910.368	7741.31
910.681	7700.4
910.994	7659.05
911.307	7607.98
911.619	7609.56
911.932	7607.53
912.244	7539.96
912.557	7527.98
912.869	7540.86
913.181	7487.08
913.494	7494.76
913.806	7391.03
914.118	7441.88
914.43	7376.12
914.742	7334.54
915.054	7302.45
915.366	7311.94
915.678	7206.41
915.99	7213.64
916.302	7121.89
916.613	7154.43
916.925	7055.45
917.236	7038.5
917.548	7024.04
917.859	7011.61
918.171	6954.66
918.482	6877.83
918.794	6851.61
919.105	6844.61
919.416	6756.02
919.727	6823.82
920.038	6725.52
920.349	6635.35
920.66	6571.62
920.971	6652.75
921.282	6634.9
921.593	6583.6
921.903	6574.33
922.214	6509.93
922.525	6512.41
922.835	6448.23
923.146	6386.32
923.456	6410.95
923.767	6362.59
924.077	6320.78
924.387	6298.18
924.697	6320.1
925.008	6282.36
925.318	6279.2
925.628	6241.46
925.938	6211.4
926.248	6102.48
926.558	6046.89
926.867	6083.5
927.177	6091.86
927.487	6077.85
927.796	5991.07
928.106	6029.94
928.416	5995.82
928.725	5970.51
929.034	5934.8
929.344	5936.61
929.653	5883.05
929.962	5872.88
930.271	5852.09
930.581	5883.28
930.89	5904.75
931.199	5842.6
931.508	5831.98
931.817	5804.41
932.125	5751.53
932.434	5741.13
932.743	5699.55
933.051	5706.78
933.36	5752.66
933.669	5619.56
933.977	5686.22
934.286	5646
934.594	5673.57
934.902	5619.1
935.21	5600.35
935.519	5532.1
935.827	5514.47
936.135	5540.46
936.443	5453.01
936.751	5478.54
937.059	5475.83
937.367	5425.44
937.674	5457.53
937.982	5400.8
938.29	5344.99
938.597	5276.51
938.905	5207.59
939.213	5236.74
939.52	5224.99
939.827	5231.77
940.135	5169.17
940.442	5215.05
940.749	5155.16
941.056	5092.56
941.363	5070.64
941.67	5001.94
941.977	4997.65
942.284	4991.78
942.591	4973.47
942.898	4944.55
943.205	4913.13
943.511	4885.79
943.818	4884.21
944.125	4832.23
944.431	4778.22
944.738	4772.12
945.044	4740.93
945.35	4753.36
945.657	4704.1
945.963	4711.78
946.269	4680.37
946.575	4628.17
946.881	4628.62
947.187	4632.01
947.493	4564.44
947.799	4560.83
948.105	4562.18
948.41	4566.02
948.716	4524.44
949.022	4486.25
949.327	4504.56
949.633	4442.86
949.938	4444.9
950.244	4452.13
950.549	4432.92
950.854	4376.65
951.16	4372.13
951.465	4333.71
951.77	4354.96
952.075	4338.23
952.38	4303.66
952.685	4332.13
952.99	4223.21
953.294	4258.69
953.599	4262.76
953.904	4210.78
954.209	4236.99
954.513	4250.1
954.818	4188.86
955.122	4200.16
955.426	4164.45
955.731	4142.98
956.035	4146.15
956.339	4152.7
956.643	4134.17
956.948	4089.2
957.252	4084.68
957.556	4094.62
957.86	4043.55
958.163	4084
958.467	4036.77
958.771	4047.17
959.075	4010.78
959.378	4032.03
959.682	4000.84
959.985	3999.94
960.289	3979.6
960.592	3946.61
960.896	3931.46
961.199	3941.86
961.502	3909.54
961.805	3890.11
962.108	3845.36
962.411	3842.65
962.714	3809.21
963.017	3806.72
963.32	3794.29
963.623	3771.92
963.926	3775.76
964.228	3752.26
964.531	3758.36
964.833	3739.61
965.136	3688.76
965.438	3628.2
965.741	3652.15
966.043	3621.64
966.345	3573.28
966.648	3608.31
966.95	3546.39
967.252	3540.97
967.554	3542.1
967.856	3537.12
968.158	3484.47
968.46	3478.37
968.761	3494.19
969.063	3438.82
969.365	3458.71
969.666	3438.6
969.968	3381.42
970.269	3345.04
970.571	3364.02
970.872	3379.16
971.174	3291.48
971.475	3348.88
971.776	3335.55
972.077	3305.94
972.378	3298.94
972.679	3227.98
972.98	3253.74
973.281	3215.1
973.582	3208.09
973.883	3206.29
974.183	3146.17
974.484	3128.55
974.785	3135.55
975.085	3117.93
975.386	3122.45
975.686	3134.2
975.986	3092.84
976.287	3109.79
976.587	3053.75
976.887	3086.06
977.187	3056.46
977.487	3047.87
977.787	3060.3
978.087	3000.64
978.387	3013.75
978.687	3003.13
978.987	2975.78
979.286	2962.45
979.586	2936.91
979.885	2979.85
980.185	2960.64
980.484	2950.25
980.784	2900.31
981.083	2951.15
981.382	2912.96
981.682	2893.53
981.981	2906.18
982.28	2848.56
982.579	2865.5
982.878	2867.09
983.177	2879.29
983.475	2858.05
983.774	2827.31
984.073	2801.1
984.372	2804.26
984.67	2805.84
984.969	2814.43
985.267	2805.39
985.566	2735.56
985.864	2739.86
986.162	2720.42
986.461	2764.94
986.759	2714.32
987.057	2696.02
987.355	2692.63
987.653	2685.4
987.951	2639.97
988.249	2625.28
988.547	2676.13
988.844	2631.39
989.142	2627.09
989.44	2601.56
989.737	2580.99
990.035	2569.01
990.332	2530.37
990.63	2580.54
990.927	2531.28
991.224	2527.89
991.521	2521.11
991.819	2527.89
992.116	2511.16
992.413	2463.48
992.71	2477.94
993.006	2425.52
993.303	2433.42
993.6	2411.5
993.897	2441.79
994.193	2391.62
994.49	2378.96
994.787	2378.51
995.083	2374.22
995.379	2344.16
995.676	2338.29
995.972	2334.67
996.268	2292.86
996.565	2302.35
996.861	2242.7
997.157	2281.79
997.453	2231.4
997.749	2239.08
998.044	2235.01
998.34	2209.7
998.636	2228.46
998.932	2214.22
999.227	2164.96
999.523	2171.28
999.818	2151.4
1000.114	2154.34
1000.409	2105.52
1000.704	2115.24
1001	2107.33
1001.295	2122.25
1001.59	2079.99
1001.885	2078.86
1002.18	2056.26
1002.475	2065.98
1002.77	2042.93
1003.065	2052.42
1003.359	2070.95
1003.654	2042.02
1003.949	2023.27
1004.243	2028.24
1004.538	2009.48
1004.832	1956.38
1005.127	1983.72
1005.421	1971.74
1005.715	1964.51
1006.009	1941.23
1006.304	1931.52
1006.598	1932.65
1006.892	1938.97
1007.186	1915.7
1007.48	1869.6
1007.773	1879.54
1008.067	1860.56
1008.361	1845.19
1008.655	1861.91
1008.948	1843.84
1009.242	1800.22
1009.535	1839.54
1009.829	1809.03
1010.122	1827.11
1010.415	1811.07
1010.708	1773.1
1011.001	1783.27
1011.295	1775.59
1011.588	1755.93
1011.881	1777.17
1012.173	1756.15
1012.466	1771.97
1012.759	1727.23
1013.052	1696.72
1013.344	1729.94
1013.637	1771.97
1013.93	1687.68
1014.222	1689.49
1014.514	1692.88
1014.807	1669.83
1015.099	1669.38
1015.391	1674.35
1015.683	1678.64
1015.976	1650.17
1016.268	1641.81
1016.56	1613.56
1016.851	1588.93
1017.143	1610.4
1017.435	1583.5
1017.727	1565.2
1018.018	1584.86
1018.31	1578.31
1018.602	1545.99
1018.893	1529.49
1019.185	1528.14
1019.476	1519.55
1019.767	1505.77
1020.058	1490.4
1020.35	1470.51
1020.641	1490.17
1020.932	1461.92
1021.223	1466.67
1021.514	1428.71
1021.804	1432.55
1022.095	1436.84
1022.386	1397.97
1022.677	1405.88
1022.967	1397.75
1023.258	1380.35
1023.548	1367.24
1023.839	1382.15
1024.129	1386.67
1024.419	1357.29
1024.709	1353.23
1025	1293.57
1025.29	1306.22
1025.58	1297.86
1025.87	1316.62
1026.16	1314.36
1026.449	1292.66
1026.739	1259.22
1027.029	1272.33
1027.319	1275.72
1027.608	1283.17
1027.898	1267.13
1028.187	1212.44
1028.477	1216.51
1028.766	1226
1029.055	1208.37
1029.344	1202.27
1029.634	1211.99
1029.923	1201.82
1030.212	1190.52
1030.501	1183.97
1030.79	1170.41
1031.078	1152.78
1031.367	1143.74
1031.656	1155.49
1031.945	1153.01
1032.233	1119.33
1032.522	1113.46
1032.81	1124.98
1033.099	1108.49
1033.387	1101.26
1033.675	1074.82
1033.963	1097.64
1034.251	1074.82
1034.54	1079.56
1034.828	1079.79
1035.116	1056.96
1035.403	1076.4
1035.691	1087.02
1035.979	1075.49
1036.267	1049.96
1036.554	1058.32
1036.842	1042.05
1037.129	1035.04
1037.417	1021.03
1037.704	1019.9
1037.992	999.11
1038.279	1006.12
1038.566	1021.71
1038.853	1021.71
1039.14	1021.71
