Data from blue_surface_keyboard_FLMS001491_052.txt Node
Date: Tue Feb 07 11:13:19 GMT 2017
User: dcchb
Spectrometer: FLMS00149
Trigger mode: 0
Integration Time (sec): 2.000000E-2
Scans to average: 10
Electric dark correction enabled: true
Nonlinearity correction enabled: false
Boxcar width: 0
XAxis mode: Wavelengths
Number of Pixels in Spectrum: 2048
>>>>>Begin Spectral Data<<<<<
341.393	14.76
341.776	14.76
342.16	14.76
342.543	-67.5
342.927	-64.56
343.31	-74.96
343.693	-70.66
344.077	-60.94
344.46	-63.88
344.843	-33.37
345.226	-46.71
345.61	-38.8
345.993	-19.59
346.376	11.6
346.759	13.63
347.142	42.78
347.525	30.8
347.908	52.5
348.291	65.83
348.674	93.18
349.057	98.6
349.44	128.43
349.823	159.39
350.206	159.39
350.588	176.79
350.971	171.82
351.354	211.82
351.737	223.34
352.119	219.73
352.502	242.78
352.884	259.27
353.267	255.66
353.65	261.08
354.032	288.2
354.414	284.58
354.797	289.78
355.179	305.15
355.562	323.23
355.944	317.58
356.326	309.22
356.709	302.44
357.091	319.61
357.473	317.35
357.855	320.74
358.238	318.03
358.62	321.64
359.002	299.27
359.384	316.22
359.766	318.25
360.148	315.09
360.53	326.39
360.912	306.73
361.294	321.19
361.676	314.41
362.057	321.64
362.439	319.16
362.821	288.42
363.203	299.05
363.584	333.85
363.966	310.34
364.348	317.12
364.729	294.75
365.111	301.53
365.493	296.79
365.874	294.75
366.256	287.75
366.637	310.8
367.019	302.21
367.4	292.72
367.781	294.75
368.163	309.89
368.544	279.84
368.925	268.76
369.306	276
369.688	281.87
370.069	264.7
370.45	299.27
370.831	276
371.212	295.88
371.593	287.07
371.974	297.69
372.355	271.02
372.736	287.52
373.117	273.74
373.498	290.46
373.879	275.77
374.26	293.85
374.641	298.59
375.021	293.4
375.402	288.2
375.783	304.7
376.163	289.55
376.544	288.42
376.925	308.09
377.305	305.37
377.686	315.54
378.066	284.13
378.447	294.75
378.827	295.88
379.208	295.66
379.588	315.54
379.968	315.54
380.349	294.75
380.729	304.24
381.109	308.76
381.489	309.22
381.87	287.52
382.25	302.44
382.63	323
383.01	306.05
383.39	315.09
383.77	290.46
384.15	276.9
384.53	291.36
384.91	317.58
385.29	287.29
385.67	293.85
386.049	297.46
386.429	315.99
386.809	317.58
387.189	326.16
387.568	313.51
387.948	315.99
388.328	323
388.707	306.96
389.087	316.45
389.466	297.46
389.846	320.51
390.225	322.77
390.605	332.72
390.984	331.14
391.363	323.23
391.743	302.44
392.122	306.05
392.501	322.55
392.881	337.01
393.26	325.94
393.639	313.73
394.018	329.78
394.397	329.33
394.776	330.23
395.155	320.74
395.534	326.62
395.913	314.86
396.292	332.94
396.671	319.61
397.05	324.36
397.429	327.75
397.808	334.3
398.186	342.66
398.565	336.33
398.944	349.44
399.323	328.42
399.701	332.27
400.08	324.58
400.458	350.57
400.837	332.49
401.215	361.42
401.594	349.89
401.972	354.64
402.351	321.42
402.729	344.24
403.107	348.31
403.486	331.36
403.864	333.62
404.242	358.03
404.62	335.88
404.999	356.9
405.377	365.26
405.755	352.83
406.133	352.38
406.511	355.54
406.889	351.25
407.267	342.89
407.645	360.97
408.023	339.5
408.401	351.7
408.779	353.06
409.156	380.85
409.534	369.55
409.912	376.33
410.29	385.6
410.667	371.81
411.045	381.3
411.422	345.37
411.8	367.97
412.178	368.2
412.555	378.14
412.933	372.04
413.31	382.21
413.687	370.68
414.065	390.79
414.442	391.02
414.819	377.69
415.197	377.24
415.574	375.2
415.951	384.24
416.328	381.08
416.705	383.56
417.082	381.3
417.46	399.38
417.837	395.31
418.214	390.79
418.591	412.04
418.967	383.79
419.344	382.89
419.721	391.92
420.098	395.77
420.475	401.42
420.852	407.97
421.228	386.5
421.605	409.55
421.982	393.96
422.358	401.19
422.735	420.17
423.111	395.31
423.488	387.86
423.864	410
424.241	416.1
424.617	421.53
424.994	429.66
425.37	404.81
425.746	397.12
426.123	430.79
426.499	432.15
426.875	430.34
427.251	443.67
427.627	437.35
428.003	429.66
428.379	429.21
428.756	423.56
429.132	434.18
429.507	445.03
429.883	430.34
430.259	452.94
430.635	443.67
431.011	440.96
431.387	478.25
431.763	462.66
432.138	452.71
432.514	463.79
432.89	473.5
433.265	476.22
433.641	468.31
434.016	481.87
434.392	511.47
434.767	488.42
435.143	494.75
435.518	487.06
435.894	472.15
436.269	494.75
436.644	489.55
437.02	487.97
437.395	499.04
437.77	499.94
438.145	500.4
438.52	486.16
438.895	492.26
439.271	511.92
439.646	491.36
440.021	515.31
440.395	501.75
440.77	516.67
441.145	504.46
441.52	529.32
441.895	541.98
442.27	533.16
442.645	533.84
443.019	516.44
443.394	530.45
443.769	521.64
444.143	538.36
444.518	529.77
444.892	524.12
445.267	532.03
445.641	525.48
446.016	537.46
446.39	551.24
446.764	555.76
447.139	551.92
447.513	556.67
447.887	549.89
448.262	574.07
448.636	542.66
449.01	563.67
449.384	538.36
449.758	536.55
450.132	561.41
450.506	564.8
450.88	573.61
451.254	583.78
451.628	555.54
452.002	555.99
452.376	580.62
452.75	576.1
453.123	586.95
453.497	604.35
453.871	599.15
454.244	603.22
454.618	600.51
454.992	608.87
455.365	616.1
455.739	613.84
456.112	613.39
456.486	620.62
456.859	626.49
457.232	608.64
457.606	642.31
457.979	638.92
458.352	629.21
458.725	623.11
459.099	637.79
459.472	654.74
459.845	657.45
460.218	654.97
460.591	648.64
460.964	665.14
461.337	658.36
461.71	657.45
462.083	659.04
462.456	692.93
462.829	660.62
463.201	703.55
463.574	675.99
463.947	671.92
464.32	687.51
464.692	710.11
465.065	694.29
465.438	722.99
465.81	714.63
466.183	716.66
466.555	721.18
466.928	747.85
467.3	754.63
467.672	721.18
468.045	756.21
468.417	735.87
468.789	743.78
469.161	772.93
469.534	776.32
469.906	769.54
470.278	771.35
470.65	761.41
471.022	769.77
471.394	795.76
471.766	805.7
472.138	802.31
472.51	798.02
472.882	824.23
473.253	822.42
473.625	840.95
473.997	842.53
474.369	857.68
474.74	863.32
475.112	860.39
475.484	871.46
475.855	883.21
476.227	888.41
476.598	904.23
476.97	889.99
477.341	924.34
477.713	929.09
478.084	918.92
478.455	936.32
478.827	941.06
479.198	958.01
479.569	962.31
479.94	1011.57
480.311	958.69
480.682	961.4
481.053	1000.27
481.424	1000.04
481.795	1021.96
482.166	1028.07
482.537	1035.07
482.908	1047.5
483.279	1052.47
483.65	1047.05
484.021	1099.25
484.391	1083.88
484.762	1095.41
485.133	1096.09
485.503	1087.73
485.874	1121.85
486.244	1120.95
486.615	1152.36
486.985	1150.55
487.356	1174.5
487.726	1151.45
488.097	1166.59
488.467	1166.37
488.837	1181.96
489.207	1192.81
489.578	1202.52
489.948	1235.29
490.318	1221.51
490.688	1249.08
491.058	1254.5
491.428	1238.46
491.798	1256.76
492.168	1287.95
492.538	1279.36
492.908	1266.03
493.278	1275.97
493.648	1291.56
494.017	1301.05
494.387	1307.61
494.757	1312.58
495.126	1294.27
495.496	1319.13
495.866	1345.12
496.235	1315.52
496.605	1325.23
496.974	1327.27
497.344	1341.5
497.713	1332.92
498.082	1298.57
498.452	1357.1
498.821	1383.09
499.19	1366.14
499.559	1344.44
499.928	1400.26
500.298	1384.89
500.667	1347.61
501.036	1382.86
501.405	1385.57
501.774	1389.41
502.143	1386.93
502.512	1392.12
502.88	1400.94
503.249	1422.41
503.618	1394.16
503.987	1412.01
504.356	1402.07
504.724	1407.72
505.093	1377.89
505.462	1429.86
505.83	1442.74
506.199	1443.87
506.567	1401.39
506.936	1441.84
507.304	1462.86
507.672	1452.24
508.041	1464.89
508.409	1458.34
508.777	1441.84
509.145	1466.92
509.514	1457.43
509.882	1456.98
510.25	1440.48
510.618	1473.7
510.986	1466.47
511.354	1491.33
511.722	1472.35
512.09	1482.29
512.458	1477.09
512.826	1485.23
513.193	1503.53
513.561	1440.26
513.929	1492.23
514.297	1511.44
514.664	1513.25
515.032	1488.39
515.4	1517.32
515.767	1520.26
516.135	1533.14
516.502	1504.21
516.869	1510.54
517.237	1513.93
517.604	1516.41
517.972	1508.51
518.339	1522.06
518.706	1531.33
519.073	1525
519.44	1544.66
519.808	1526.81
520.175	1529.52
520.542	1561.84
520.909	1546.02
521.276	1551.67
521.643	1553.25
522.009	1564.1
522.376	1547.83
522.743	1554.61
523.11	1573.59
523.477	1578.33
523.843	1546.02
524.21	1581.05
524.577	1593.7
524.943	1620.14
525.31	1576.75
525.676	1629.86
526.043	1599.8
526.409	1603.64
526.776	1605.9
527.142	1606.58
527.508	1615.4
527.874	1622.63
528.241	1633.93
528.607	1627.15
528.973	1650.87
529.339	1637.54
529.705	1637.09
530.071	1660.59
530.437	1666.24
530.803	1652.91
531.169	1674.6
531.535	1660.82
531.901	1669.18
532.267	1611.1
532.632	1676.86
532.998	1637.54
533.364	1646.36
533.73	1653.81
534.095	1682.29
534.461	1661.27
534.826	1689.97
535.192	1685
535.557	1672.79
535.923	1642.51
536.288	1672.57
536.653	1684.55
537.019	1660.37
537.384	1688.61
537.749	1685.9
538.114	1696.98
538.479	1678.44
538.845	1693.59
539.21	1687.26
539.575	1656.52
539.94	1732.91
540.305	1685.22
540.67	1680.7
541.034	1683.64
541.399	1699.01
541.764	1694.04
542.129	1698.11
542.494	1683.19
542.858	1698.56
543.223	1717.99
543.587	1694.26
543.952	1727.03
544.316	1686.58
544.681	1690.87
545.045	1706.01
545.41	1708.27
545.774	1714.83
546.138	1692.23
546.503	1703.3
546.867	1696.75
547.231	1719.57
547.595	1748.05
547.959	1692.23
548.324	1703.3
548.688	1725
549.052	1711.21
549.416	1743.98
549.779	1736.75
550.143	1706.24
550.507	1730.65
550.871	1696.3
551.235	1723.42
551.599	1738.56
551.962	1738.33
552.326	1742.17
552.689	1748.95
553.053	1720.48
553.417	1735.17
553.78	1760.02
554.143	1753.92
554.507	1743.75
554.87	1741.95
555.234	1781.94
555.597	1746.01
555.96	1730.19
556.323	1774.04
556.686	1753.7
557.05	1734.26
557.413	1737.88
557.776	1761.83
558.139	1766.8
558.502	1758.44
558.865	1768.39
559.228	1757.31
559.59	1770.19
559.953	1803.41
560.316	1774.71
560.679	1783.53
561.041	1768.39
561.404	1788.27
561.767	1790.98
562.129	1784.43
562.492	1815.62
562.854	1830.98
563.217	1778.1
563.579	1803.41
563.941	1799.8
564.304	1795.5
564.666	1789.4
565.028	1808.84
565.39	1791.66
565.753	1857.2
566.115	1827.82
566.477	1804.99
566.839	1813.58
567.201	1838.21
567.563	1810.19
567.925	1845.22
568.287	1846.12
568.648	1809.51
569.01	1860.59
569.372	1866.24
569.734	1833.02
570.095	1843.41
570.457	1855.16
570.819	1863.75
571.18	1842.28
571.542	1884.77
571.903	1892.45
572.265	1875.05
572.626	1890.19
572.987	1830.53
573.349	1871.43
573.71	1887.93
574.071	1891.09
574.432	1874.15
574.794	1856.07
575.155	1901.94
575.516	1908.5
575.877	1887.48
576.238	1893.13
576.599	1889.06
576.96	1877.08
577.32	1918.44
577.681	1875.28
578.042	1928.16
578.403	1901.26
578.763	1908.27
579.124	1884.99
579.485	1904.43
579.845	1903.98
580.206	1882.28
580.566	1919.57
580.927	1885.67
581.287	1917.76
581.648	1895.61
582.008	1946.69
582.368	1918.21
582.728	1917.99
583.089	1942.62
583.449	1918.21
583.809	1899.91
584.169	1902.62
584.529	1920.02
584.889	1921.83
585.249	1906.91
585.609	1922.96
585.969	1924.09
586.329	1915.05
586.688	1948.04
587.048	1927.03
587.408	1921.38
587.768	1924.31
588.127	1914.6
588.487	1910.3
588.846	1918.44
589.206	1924.31
589.565	1936.74
589.925	1917.76
590.284	1927.25
590.643	1936.97
591.003	1948.04
591.362	1934.93
591.721	1930.87
592.08	1931.09
592.44	1927.7
592.799	1923.86
593.158	1943.75
593.517	1970.41
593.876	1918.66
594.235	1973.35
594.593	1950.53
594.952	1946.01
595.311	1962.5
595.67	1918.44
596.029	1947.82
596.387	1980.36
596.746	1967.48
597.104	1974.03
597.463	1941.94
597.822	1941.04
598.18	1969.06
598.538	1977.19
598.897	1961.6
599.255	1947.59
599.613	1970.87
599.972	1945.56
600.33	1969.28
600.688	1943.3
601.046	1966.12
601.404	1998.44
601.762	1989.4
602.12	1988.04
602.478	1960.25
602.836	1995.27
603.194	2002.28
603.552	1996.4
603.91	1982.84
604.268	2000.24
604.625	1982.17
604.983	2004.99
605.341	1955.27
605.698	2012.45
606.056	1987.36
606.413	1995.05
606.771	2000.24
607.128	1964.99
607.485	2010.87
607.843	2002.5
608.2	2023.97
608.557	2031.66
608.914	2051.77
609.272	2021.03
609.629	2032.56
609.986	2030.07
610.343	2050.86
610.7	2050.64
611.057	2039.11
611.414	2063.29
611.771	2064.88
612.127	2036.85
612.484	2059.45
612.841	2069.62
613.198	2058.55
613.554	2062.84
613.911	2075.95
614.267	2072.33
614.624	2077.76
614.98	2098.32
615.337	2091.32
615.693	2071.43
616.05	2074.37
616.406	2102.16
616.762	2103.52
617.118	2090.64
617.475	2100.35
617.831	2084.08
618.187	2094.48
618.543	2124.31
618.899	2110.3
619.255	2136.29
619.611	2109.17
619.967	2102.61
620.323	2118.21
620.678	2100.58
621.034	2089.51
621.39	2127.25
621.746	2142.84
622.101	2147.13
622.457	2092.67
622.812	2154.82
623.168	2150.97
623.523	2117.53
623.879	2134.25
624.234	2129.28
624.589	2154.59
624.945	2161.82
625.3	2179.45
625.655	2181.71
626.01	2156.17
626.365	2155.49
626.72	2184.42
627.075	2193.23
627.43	2203.18
627.785	2162.73
628.14	2193.46
628.495	2145.55
628.85	2167.7
629.205	2193.01
629.559	2202.72
629.914	2192.33
630.269	2179.22
630.623	2217.19
630.978	2222.61
631.332	2204.76
631.687	2218.09
632.041	2188.94
632.396	2167.7
632.75	2193.91
633.104	2220.13
633.459	2228.71
633.813	2247.92
634.167	2223.74
634.521	2226.9
634.875	2234.59
635.229	2255.15
635.583	2221.03
635.937	2261.03
636.291	2268.71
636.645	2259.45
636.999	2256.28
637.352	2286.79
637.706	2244.76
638.06	2261.93
638.413	2254.93
638.767	2298.32
639.121	2276.39
639.474	2283.85
639.828	2326.11
640.181	2287.02
640.534	2304.42
640.888	2320.91
641.241	2334.02
641.594	2297.19
641.947	2332.21
642.301	2375.15
642.654	2350.97
643.007	2363.17
643.36	2318.2
643.713	2355.04
644.066	2385.09
644.419	2351.65
644.771	2351.87
645.124	2337.64
645.477	2351.42
645.83	2350.97
646.182	2340.57
646.535	2327.02
646.888	2354.81
647.24	2350.29
647.593	2361.82
647.945	2387.13
648.298	2397.52
648.65	2380.8
649.002	2372.44
649.355	2423.96
649.707	2427.58
650.059	2442.04
650.411	2423.96
650.763	2477.07
651.115	2529.27
651.467	2508.93
651.819	2522.72
652.171	2534.69
652.523	2542.83
652.875	2544.18
653.227	2521.36
653.578	2548.7
653.93	2567.01
654.282	2577.18
654.633	2564.75
654.985	2548.48
655.337	2576.73
655.688	2586.44
656.039	2600
656.391	2635.03
656.742	2623.5
657.094	2627.12
657.445	2652.43
657.796	2672.54
658.147	2673.9
658.498	2682.71
658.849	2683.39
659.2	2692.88
659.551	2718.19
659.902	2757.96
660.253	2738.53
660.604	2773.56
660.955	2765.42
661.306	2808.13
661.656	2784.86
662.007	2796.16
662.358	2823.27
662.708	2840.67
663.059	2837.06
663.409	2837.51
663.76	2865.53
664.11	2857.4
664.461	2878.19
664.811	2940.11
665.161	2913.21
665.511	2943.95
665.862	2966.55
666.212	2971.74
666.562	3027.79
666.912	3030.95
667.262	3012.65
667.612	3023.72
667.962	3044.96
668.312	3029.82
668.662	3086.77
669.011	3082.02
669.361	3076.6
669.711	3074.79
670.06	3106.66
670.41	3071.4
670.76	3128.8
671.109	3174
671.459	3130.38
671.808	3153.89
672.157	3193.66
672.507	3177.84
672.856	3183.04
673.205	3211.96
673.554	3244.96
673.904	3235.01
674.253	3269.36
674.602	3221.91
674.951	3262.58
675.3	3252.87
675.649	3286.76
675.998	3309.81
676.346	3357.04
676.695	3336.48
677.044	3302.36
677.393	3348.01
677.741	3370.6
678.09	3363.37
678.438	3393.2
678.787	3408.79
679.135	3415.35
679.484	3428.91
679.832	3418.96
680.181	3435.46
680.529	3427.1
680.877	3444.27
681.225	3489.02
681.573	3465.74
681.922	3469.36
682.27	3479.75
682.618	3514.55
682.966	3512.97
683.314	3565.85
683.661	3506.65
684.009	3540.09
684.357	3568.34
684.705	3573.99
685.053	3564.72
685.4	3583.93
685.748	3571.5
686.095	3572.86
686.443	3571.73
686.79	3609.47
687.138	3596.36
687.485	3597.94
687.832	3618.28
688.18	3659.64
688.527	3634.78
688.874	3603.37
689.221	3619.64
689.568	3659.41
689.915	3655.34
690.262	3662.8
690.609	3653.08
690.956	3677.94
691.303	3666.64
691.65	3652.4
691.997	3662.57
692.344	3638.84
692.69	3633.65
693.037	3703.7
693.383	3655.34
693.73	3656.02
694.077	3677.26
694.423	3697.6
694.769	3673.19
695.116	3653.76
695.462	3701.89
695.808	3678.62
696.155	3705.96
696.501	3647.43
696.847	3667.09
697.193	3685.62
697.539	3696.7
697.885	3614.66
698.231	3643.36
698.577	3638.39
698.923	3660.31
699.269	3645.4
699.614	3638.84
699.96	3646.75
700.306	3682.01
700.651	3594.1
700.997	3671.61
701.342	3621.9
701.688	3643.14
702.033	3641.33
702.379	3645.17
702.724	3637.49
703.069	3627.77
703.415	3624.83
703.76	3629.13
704.105	3593.87
704.45	3644.49
704.795	3608.11
705.14	3574.21
705.485	3599.98
705.83	3580.32
706.175	3634.78
706.52	3591.84
706.865	3573.99
707.209	3571.05
707.554	3558.85
707.899	3602.24
708.243	3588.68
708.588	3587.77
708.932	3597.26
709.277	3557.72
709.621	3550.71
709.966	3557.27
710.31	3592.52
710.654	3548
710.998	3546.19
711.342	3552.75
711.687	3527.21
712.031	3515.23
712.375	3558.62
712.719	3542.35
713.063	3515.23
713.407	3541.9
713.75	3528.57
714.094	3554.33
714.438	3571.95
714.782	3566.08
715.125	3569.24
715.469	3508.9
715.812	3494.67
716.156	3513.2
716.499	3555.23
716.843	3536.02
717.186	3527.21
717.53	3560.43
717.873	3555.68
718.216	3544.84
718.559	3517.04
718.902	3516.36
719.246	3527.21
719.589	3485.4
719.932	3520.43
720.275	3542.8
720.617	3519.07
720.96	3518.62
721.303	3509.81
721.646	3508.9
721.989	3513.42
722.331	3546.64
722.674	3525.4
723.016	3530.6
723.359	3506.42
723.701	3543.03
724.044	3519.3
724.386	3518.85
724.729	3510.03
725.071	3493.99
725.413	3529.7
725.755	3516.36
726.097	3518.17
726.439	3507.77
726.782	3514.1
727.124	3522.24
727.465	3463.93
727.807	3556.36
728.149	3509.36
728.491	3550.26
728.833	3511.84
729.175	3551.84
729.516	3517.49
729.858	3516.14
730.199	3539.19
730.541	3498.74
730.882	3548
731.224	3599.52
731.565	3539.41
731.906	3553.2
732.248	3612.63
732.589	3551.62
732.93	3519.98
733.271	3533.54
733.612	3513.88
733.953	3555.01
734.294	3529.92
734.635	3543.93
734.976	3552.07
735.317	3553.2
735.658	3527.89
735.999	3545.74
736.339	3608.79
736.68	3585.51
737.021	3562.24
737.361	3576.7
737.702	3595
738.042	3589.81
738.383	3585.29
738.723	3625.96
739.063	3641.56
739.404	3630.48
739.744	3613.08
740.084	3618.05
740.424	3637.72
740.764	3603.14
741.104	3626.87
741.444	3684.72
741.784	3643.36
742.124	3673.42
742.464	3653.53
742.804	3678.39
743.143	3657.15
743.483	3690.82
743.823	3697.15
744.162	3746.64
744.502	3756.58
744.841	3732.85
745.181	3752.74
745.52	3754.55
745.86	3759.07
746.199	3771.5
746.538	3819.41
746.877	3816.92
747.216	3845.62
747.556	3807.43
747.895	3858.5
748.234	3879.29
748.573	3846.07
748.911	3876.58
749.25	3901.89
749.589	3890.14
749.928	3935.79
750.267	3969.01
750.605	3988.21
750.944	4002.9
751.283	3969.46
751.621	4028.44
751.96	4017.37
752.298	3997.71
752.636	4069.79
752.975	4042.68
753.313	4080.42
753.651	4073.86
753.989	4134.88
754.327	4171.71
754.666	4116.12
755.004	4204.93
755.342	4161.32
755.679	4204.03
756.017	4235.21
756.355	4289.68
756.693	4270.69
757.031	4275.44
757.368	4286.51
757.706	4346.4
758.044	4344.36
758.381	4350.46
758.719	4348.43
759.056	4361.99
759.394	4364.7
759.731	4393.4
760.068	4367.64
760.405	4447.86
760.743	4375.1
761.08	4468.65
761.417	4484.02
761.754	4504.36
762.091	4449.9
762.428	4493.06
762.765	4462.78
763.102	4534.87
763.438	4507.07
763.775	4522.44
764.112	4482.44
764.449	4496.22
764.785	4489.44
765.122	4496.9
765.458	4526.73
765.795	4561.08
766.131	4520.4
766.467	4518.37
766.804	4512.72
767.14	4538.03
767.476	4542.1
767.812	4547.75
768.148	4547.97
768.485	4527.18
768.821	4488.09
769.157	4510.69
769.492	4490.12
769.828	4560.85
770.164	4515.66
770.5	4461.87
770.836	4563.11
771.171	4508.43
771.507	4520.63
771.842	4482.66
772.178	4518.37
772.513	4441.08
772.849	4419.62
773.184	4478.82
773.519	4444.25
773.855	4488.31
774.19	4459.61
774.525	4410.35
774.86	4434.98
775.195	4475.21
775.53	4406.73
775.865	4393.18
776.2	4378.26
776.535	4355.44
776.87	4359.28
777.205	4379.16
777.539	4318.15
777.874	4359.96
778.209	4303.23
778.543	4339.84
778.878	4291.03
779.212	4303.69
779.547	4262.11
779.881	4325.83
780.215	4282.22
780.55	4264.59
780.884	4241.77
781.218	4234.99
781.552	4259.62
781.886	4231.37
782.22	4205.16
782.554	4187.76
782.888	4175.78
783.222	4157.93
783.556	4142.11
783.889	4131.71
784.223	4138.72
784.557	4114.31
784.89	4163.8
785.224	4133.07
785.557	4106.63
785.891	4068.21
786.224	4050.81
786.558	4070.92
786.891	4057.82
787.224	4001.32
787.557	4058.49
787.891	4006.07
788.224	4014.88
788.557	4011.04
788.89	3985.05
789.223	4029.8
789.556	3985.05
789.888	3971.49
790.221	3933.98
790.554	3917.93
790.887	3898.73
791.219	3899.4
791.552	3922.45
791.884	3878.61
792.217	3879.74
792.549	3875.9
792.882	3849.91
793.214	3806.75
793.546	3874.77
793.879	3808.33
794.211	3787.09
794.543	3850.59
794.875	3787.32
795.207	3796.81
795.539	3766.75
795.871	3809.69
796.203	3729.92
796.535	3753.64
796.867	3732.18
797.198	3735.11
797.53	3733.76
797.862	3723.14
798.193	3725.62
798.525	3674.32
798.856	3694.89
799.188	3606.08
799.519	3605.17
799.85	3602.69
800.182	3622.8
800.513	3656.25
800.844	3562.24
801.175	3609.47
801.506	3599.75
801.837	3587.09
802.168	3555.46
802.499	3539.64
802.83	3533.31
803.161	3570.82
803.491	3531.73
803.822	3519.98
804.153	3520.66
804.483	3461
804.814	3511.39
805.145	3491.05
805.475	3470.71
805.805	3509.81
806.136	3490.37
806.466	3442.92
806.796	3454.9
807.126	3418.29
807.457	3436.82
807.787	3412.41
808.117	3429.81
808.447	3390.04
808.777	3431.39
809.107	3392.98
809.436	3376.93
809.766	3397.5
810.096	3378.96
810.426	3369.47
810.755	3367.44
811.085	3324.5
811.414	3351.39
811.744	3328.12
812.073	3280.89
812.403	3283.83
812.732	3321.79
813.061	3360.66
813.39	3288.8
813.719	3242.7
814.049	3319.53
814.378	3299.64
814.707	3263.49
815.036	3252.87
815.365	3248.12
815.693	3214.68
816.022	3235.24
816.351	3208.8
816.68	3190.04
817.008	3228.46
817.337	3206.31
817.665	3224.62
817.994	3184.85
818.322	3192.53
818.651	3190.95
818.979	3170.16
819.307	3154.56
819.636	3188.46
819.964	3132.64
820.292	3165.41
820.62	3191.4
820.948	3110.5
821.276	3138.52
821.604	3130.38
821.932	3156.6
822.259	3126.99
822.587	3180.1
822.915	3177.84
823.243	3185.52
823.57	3140.33
823.898	3166.32
824.225	3115.47
824.553	3117.95
824.88	3135.58
825.207	3137.39
825.535	3137.84
825.862	3118.41
826.189	3144.62
826.516	3159.31
826.843	3162.7
827.17	3140.78
827.497	3175.58
827.824	3117.95
828.151	3144.39
828.478	3141.46
828.805	3143.04
829.131	3132.64
829.458	3103.94
829.785	3099.2
830.111	3121.34
830.438	3156.37
830.764	3159.76
831.09	3143.72
831.417	3153.43
831.743	3117.95
832.069	3116.37
832.395	3130.61
832.722	3155.69
833.048	3107.33
833.374	3095.13
833.7	3119.76
834.026	3110.05
834.351	3108.92
834.677	3102.36
835.003	3156.6
835.329	3148.91
835.654	3092.19
835.98	3120.67
836.306	3067.11
836.631	3111.85
836.956	3106.43
837.282	3068.01
837.607	3070.72
837.932	3073.89
838.258	3104.4
838.583	3062.81
838.908	3047
839.233	3079.99
839.558	3061.01
839.883	3060.56
840.208	3033.66
840.533	3056.04
840.858	3082.25
841.182	3064.85
841.507	3026.66
841.832	3042.93
842.156	3022.82
842.481	3003.16
842.805	3027.56
843.13	2966.55
843.454	2983.95
843.778	2993.21
844.103	2983.72
844.427	2964.06
844.751	2945.98
845.075	2985.3
845.399	2947.11
845.723	2956.6
846.047	2942.14
846.371	2936.94
846.695	2906.66
847.019	2846.55
847.343	2870.73
847.666	2884.06
847.99	2858.3
848.313	2895.81
848.637	2872.76
848.96	2837.51
849.284	2844.74
849.607	2800
849.931	2819.43
850.254	2839.54
850.577	2792.09
850.9	2771.98
851.223	2769.72
851.546	2748.92
851.869	2739.66
852.192	2720.23
852.515	2719.32
852.838	2752.31
853.161	2727
853.483	2740.11
853.806	2689.49
854.129	2682.71
854.451	2694.01
854.774	2680.23
855.096	2691.53
855.419	2646.55
855.741	2659.44
856.063	2666.22
856.385	2653.56
856.708	2681.13
857.03	2645.88
857.352	2647.46
857.674	2625.31
857.996	2627.35
858.318	2610.85
858.64	2570.17
858.961	2610.85
859.283	2594.13
859.605	2560.68
859.926	2583.51
860.248	2558.2
860.57	2555.03
860.891	2552.77
861.212	2527.46
861.534	2553.68
861.855	2556.61
862.176	2544.86
862.498	2567.23
862.819	2505.32
863.14	2542.38
863.461	2522.72
863.782	2511.64
864.103	2490.85
864.424	2519.1
864.745	2504.19
865.065	2527.01
865.386	2483.62
865.707	2503.51
866.027	2512.32
866.348	2485.43
866.668	2498.99
866.989	2467.12
867.309	2474.81
867.63	2461.7
867.95	2477.29
868.27	2470.06
868.59	2465.99
868.91	2435.49
869.23	2446.79
869.55	2409.95
869.87	2456.28
870.19	2463.51
870.51	2456.28
870.83	2440.68
871.15	2473.23
871.469	2442.49
871.789	2447.69
872.109	2396.84
872.428	2416.5
872.748	2438.2
873.067	2449.05
873.386	2414.02
873.706	2419.44
874.025	2410.85
874.344	2393.45
874.663	2401.59
874.982	2393.91
875.301	2388.48
875.62	2380.35
875.939	2393.91
876.258	2386.67
876.577	2397.75
876.896	2358.43
877.214	2356.17
877.533	2376.73
877.852	2350.52
878.17	2386.67
878.489	2356.84
878.807	2363.62
879.125	2372.89
879.444	2339.22
879.762	2367.01
880.08	2374.92
880.398	2333.79
880.716	2346.9
881.034	2311.65
881.352	2355.49
881.67	2339.67
881.988	2350.52
882.306	2316.85
882.624	2314.13
882.941	2319.11
883.259	2299.67
883.577	2304.42
883.894	2300.8
884.212	2277.75
884.529	2285.43
884.846	2257.86
885.164	2272.78
885.481	2301.93
885.798	2273.91
886.115	2262.84
886.432	2269.39
886.75	2248.83
887.067	2251.99
887.383	2254.93
887.7	2242.05
888.017	2212.89
888.334	2236.4
888.651	2239.56
888.967	2235.49
889.284	2231.65
889.6	2230.29
889.917	2200.01
890.233	2215.61
890.55	2204.53
890.866	2195.95
891.182	2187.81
891.498	2198.88
891.815	2174.93
892.131	2195.72
892.447	2186.91
892.763	2146.68
893.079	2168.15
893.395	2143.74
893.71	2167.47
894.026	2156.4
894.342	2147.81
894.657	2157.75
894.973	2101.94
895.289	2110.75
895.604	2122.73
895.92	2112.11
896.235	2089.73
896.55	2113.69
896.865	2091.99
897.181	2105.55
897.496	2101.71
897.811	2048.38
898.126	2096.06
898.441	2058.1
898.756	2067.59
899.071	2036.4
899.386	2049.51
899.7	2041.37
900.015	2027.14
900.33	2007.02
900.644	2007.7
900.959	2030.3
901.273	2023.07
901.588	1981.26
901.902	1986.69
902.216	1981.94
902.531	1970.87
902.845	1994.82
903.159	1966.8
903.473	1948.95
903.787	1938.32
904.101	1949.4
904.415	1942.84
904.729	1917.99
905.042	1954.82
905.356	1919.34
905.67	1937.42
905.984	1929.96
906.297	1917.76
906.611	1892.45
906.924	1916.18
907.237	1927.7
907.551	1861.04
907.864	1875.73
908.177	1867.37
908.491	1908.5
908.804	1882.73
909.117	1870.3
909.43	1834.6
909.743	1837.76
910.056	1824.88
910.368	1852
910.681	1814.26
910.994	1827.59
911.307	1802.74
911.619	1797.99
911.932	1788.05
912.244	1785.33
912.557	1797.09
912.869	1783.98
913.181	1781.04
913.494	1784.2
913.806	1780.14
914.118	1790.31
914.43	1742.62
914.742	1767.93
915.054	1750.31
915.366	1727.48
915.678	1762.96
915.99	1703.75
916.302	1714.15
916.613	1710.99
916.925	1712.34
917.236	1734.49
917.548	1694.04
917.859	1692.23
918.171	1660.14
918.482	1691.78
918.794	1670.31
919.105	1674.38
919.416	1646.13
919.727	1651.55
920.038	1644.1
920.349	1626.92
920.66	1645.45
920.971	1637.77
921.282	1648.39
921.593	1598.67
921.903	1616.53
922.214	1606.58
922.525	1579.24
922.835	1604.55
923.146	1560.93
923.456	1594.6
923.767	1602.74
924.077	1561.61
924.387	1596.64
924.697	1563.19
925.008	1569.97
925.318	1535.4
925.628	1584.89
925.938	1568.16
926.248	1536.75
926.558	1546.02
926.867	1537.66
927.177	1543.76
927.487	1525.68
927.796	1515.06
928.106	1534.72
928.416	1526.58
928.725	1546.7
929.034	1499.47
929.344	1482.97
929.653	1492.69
929.962	1483.42
930.271	1478
930.581	1478.45
930.89	1440.71
931.199	1460.15
931.508	1490.43
931.817	1446.13
932.125	1475.06
932.434	1463.53
932.743	1449.52
933.051	1426.02
933.36	1402.52
933.669	1424.44
933.977	1413.14
934.286	1403.88
934.594	1409.3
934.902	1404.33
935.21	1398.45
935.519	1407.04
935.827	1410.65
936.135	1406.36
936.443	1385.12
936.751	1378.79
937.059	1373.59
937.367	1370.2
937.674	1394.61
937.982	1358
938.29	1357.55
938.597	1361.39
938.905	1345.57
939.213	1330.88
939.52	1359.36
939.827	1343.54
940.135	1318.91
940.442	1343.09
940.749	1315.97
941.056	1344.22
941.363	1292.01
941.67	1282.07
941.977	1318
942.284	1290.88
942.591	1313.48
942.898	1302.86
943.205	1264.9
943.511	1263.99
943.818	1235.97
944.125	1267.38
944.431	1270.09
944.738	1271.22
945.044	1264.67
945.35	1247.72
945.657	1271.68
945.963	1228.96
946.269	1230.09
946.575	1245.46
946.881	1218.34
947.187	1213.6
947.493	1231.22
947.799	1220.38
948.105	1191.9
948.41	1231.22
948.716	1211.79
949.022	1208.4
949.327	1233.71
949.633	1180.83
949.938	1187.16
950.244	1183.09
950.549	1197.78
950.854	1164.11
951.16	1198.46
951.465	1186.03
951.77	1185.58
952.075	1146.93
952.38	1149.42
952.685	1164.33
952.99	1148.51
953.294	1148.97
953.599	1161.4
953.904	1118.91
954.209	1131.57
954.513	1138.35
954.818	1129.53
955.122	1120.49
955.426	1109.19
955.731	1101.28
956.035	1114.84
956.339	1118.01
956.643	1119.14
956.948	1091.57
957.252	1113.04
957.556	1113.26
957.86	1103.32
958.163	1096.09
958.467	1085.01
958.771	1101.51
959.075	1092.92
959.378	1069.87
959.682	1081.4
959.985	1085.69
960.289	1061.51
960.592	1085.92
960.896	1045.24
961.199	1095.18
961.502	1048.86
961.805	1061.06
962.108	1071.91
962.411	1044.34
962.714	1004.11
963.017	1047.5
963.32	1049.31
963.623	1037.56
963.926	1038.24
964.228	1051.34
964.531	1033.26
964.833	991.01
965.136	1012.25
965.438	1002.53
965.741	998.01
966.043	1024
966.345	1000.04
966.648	1022.87
966.95	1008.63
967.252	987.62
967.554	991.01
967.856	1000.04
968.158	979.93
968.46	987.62
968.761	979.25
969.063	965.92
969.365	970.89
969.666	945.58
969.968	932.48
970.269	951.01
970.571	945.81
970.872	942.19
971.174	948.07
971.475	981.97
971.776	943.55
972.077	928.41
972.378	922.76
972.679	955.07
972.98	932.7
973.281	934.74
973.582	934.74
973.883	929.09
974.183	923.21
974.484	911.69
974.785	923.89
975.085	914.62
975.386	916.2
975.686	916.66
975.986	898.58
976.287	939.03
976.587	879.6
976.887	875.98
977.187	905.13
977.487	901.52
977.787	896.54
978.087	868.75
978.387	882.31
978.687	904.68
978.987	885.47
979.286	880.27
979.586	841.86
979.885	902.87
980.185	861.52
980.484	903.55
980.784	853.16
981.083	872.36
981.382	846.83
981.682	867.84
981.981	847.05
982.28	843.44
982.579	835.08
982.878	846.38
983.177	827.62
983.475	847.51
983.774	836.66
984.073	863.1
984.372	841.4
984.67	833.27
984.969	828.3
985.267	838.47
985.566	817.22
985.864	808.86
986.162	816.77
986.461	796.66
986.759	822.42
987.057	800.73
987.355	807.73
987.653	819.48
987.951	809.31
988.249	803.44
988.547	786.49
988.844	788.52
989.142	802.08
989.44	786.72
989.737	791.01
990.035	785.36
990.332	794.4
990.63	753.27
990.927	769.54
991.224	770.9
991.521	772.93
991.819	772.71
992.116	767.73
992.413	767.96
992.71	744.01
993.006	758.24
993.303	769.32
993.6	762.31
993.897	754.63
994.193	789.43
994.49	749.43
994.787	752.82
995.083	742.65
995.379	739.49
995.676	744.91
995.972	750.56
996.268	731.58
996.565	719.15
996.861	726.38
997.157	717.57
997.453	730.45
997.749	740.39
998.044	736.55
998.34	724.57
998.636	707.85
998.932	708.3
999.227	713.05
999.523	721.86
999.818	716.44
1000.114	694.97
1000.409	706.04
1000.704	696.32
1001	711.69
1001.295	670.79
1001.59	713.95
1001.885	690.22
1002.18	697.23
1002.475	676.44
1002.77	694.52
1003.065	674.86
1003.359	685.48
1003.654	682.09
1003.949	682.09
1004.243	661.75
1004.538	679.37
1004.832	676.21
1005.127	670.34
1005.421	653.39
1005.715	660.17
1006.009	658.58
1006.304	652.26
1006.598	639.15
1006.892	642.77
1007.186	669.66
1007.48	649.09
1007.773	635.08
1008.067	653.16
1008.361	666.04
1008.655	645.25
1008.948	612.94
1009.242	642.09
1009.535	628.98
1009.829	625.59
1010.122	638.92
1010.415	613.84
1010.708	615.42
1011.001	626.04
1011.295	619.72
1011.588	630.56
1011.881	610.45
1012.173	588.3
1012.466	617.46
1012.759	615.87
1013.052	603.22
1013.344	595.31
1013.637	614.97
1013.93	597.12
1014.222	607.51
1014.514	595.99
1014.807	613.61
1015.099	610.45
1015.391	592.15
1015.683	581.3
1015.976	619.72
1016.268	579.94
1016.56	570.45
1016.851	610.9
1017.143	596.89
1017.435	593.28
1017.727	557.34
1018.018	581.98
1018.31	581.98
1018.602	581.07
1018.893	572.26
1019.185	565.03
1019.476	564.58
1019.767	536.1
1020.058	565.48
1020.35	567.06
1020.641	556.89
1020.932	546.04
1021.223	567.51
1021.514	568.42
1021.804	541.3
1022.095	558.02
1022.386	553.95
1022.677	523.9
1022.967	553.73
1023.258	530
1023.548	533.62
1023.839	554.41
1024.129	537.68
1024.419	523.45
1024.709	499.04
1025	525.93
1025.29	526.84
1025.58	532.26
1025.87	524.58
1026.16	520.28
1026.449	526.61
1026.739	516.44
1027.029	531.58
1027.319	503.11
1027.608	520.28
1027.898	525.03
1028.187	518.25
1028.477	510.79
1028.766	507.63
1029.055	506.05
1029.344	506.95
1029.634	501.75
1029.923	483
1030.212	479.38
1030.501	491.36
1030.79	496.1
1031.078	499.27
1031.367	502.2
1031.656	485.71
1031.945	525.48
1032.233	482.32
1032.522	498.36
1032.81	481.64
1033.099	483.22
1033.387	480.96
1033.675	468.31
1033.963	461.75
1034.251	473.96
1034.54	476.22
1034.828	452.94
1035.116	476.22
1035.403	446.61
1035.691	465.37
1035.979	482.32
1036.267	451.13
1036.554	468.76
1036.842	449.78
1037.129	462.43
1037.417	456.1
1037.704	452.04
1037.992	465.6
1038.279	456.1
1038.566	446.16
1038.853	446.16
1039.14	446.16
