Data from blue_clamp_base_FLMS001491_00029.txt Node
Date: Wed Feb 08 15:15:47 GMT 2017
User: dcchb
Spectrometer: FLMS00149
Trigger mode: 0
Integration Time (sec): 2.000000E-2
Scans to average: 10
Electric dark correction enabled: true
Nonlinearity correction enabled: false
Boxcar width: 0
XAxis mode: Wavelengths
Number of Pixels in Spectrum: 2048
>>>>>Begin Spectral Data<<<<<
341.393	-2.54
341.776	-2.54
342.16	-2.54
342.543	-57.46
342.927	-65.82
343.31	-50.9
343.693	-80.28
344.077	-51.35
344.46	-75.53
344.843	-37.34
345.226	-43.9
345.61	-34.18
345.993	-25.14
346.376	-3.22
346.759	12.82
347.142	28.64
347.525	44.46
347.908	50.56
348.291	75.87
348.674	95.99
349.057	93.5
349.44	131.01
349.823	118.13
350.206	155.42
350.588	189.77
350.971	197.68
351.354	222.76
351.737	237.45
352.119	251.91
352.502	253.95
352.884	255.98
353.267	291.46
353.65	295.3
354.032	272.25
354.414	304.57
354.797	320.84
355.179	304.12
355.562	319.94
355.944	301.63
356.326	323.32
356.709	320.16
357.091	317.68
357.473	340.27
357.855	341.18
358.238	332.59
358.62	351.57
359.002	341.18
359.384	322.65
359.766	324.91
360.148	344.12
360.53	341.63
360.912	330.78
361.294	311.35
361.676	346.38
362.057	307.05
362.439	323.1
362.821	303.66
363.203	296.66
363.584	316.55
363.966	302.31
364.348	312.93
364.729	332.36
365.111	307.05
365.493	313.83
365.874	297.56
366.256	307.96
366.637	285.13
367.019	319.03
367.4	318.13
367.781	303.66
368.163	332.14
368.544	302.08
368.925	301.86
369.306	317.22
369.688	302.08
370.069	298.47
370.45	292.14
370.831	315.42
371.212	298.01
371.593	309.09
371.974	300.27
372.355	277.9
372.736	309.99
373.117	310.9
373.498	295.3
373.879	284.68
374.26	295.08
374.641	305.02
375.021	297.56
375.402	321.52
375.783	307.51
376.163	306.38
376.544	309.09
376.925	311.57
377.305	310.44
377.686	325.81
378.066	327.62
378.447	326.04
378.827	328.75
379.208	325.13
379.588	301.4
379.968	336.43
380.349	309.77
380.729	328.75
381.109	338.01
381.489	328.3
381.87	321.52
382.25	329.43
382.63	334.85
383.01	350.89
383.39	338.24
383.77	342.76
384.15	321.07
384.53	339.6
384.91	339.14
385.29	362.87
385.67	319.48
386.049	333.04
386.429	357.22
386.809	344.57
387.189	356.32
387.568	337.79
387.948	360.84
388.328	354.28
388.707	345.7
389.087	354.96
389.466	356.32
389.846	338.47
390.225	345.25
390.605	383.21
390.984	349.99
391.363	366.49
391.743	375.75
392.122	369.43
392.501	372.82
392.881	379.14
393.26	371.91
393.639	386.15
394.018	389.76
394.397	405.58
394.776	414.17
395.155	399.26
395.534	394.74
395.913	404.9
396.292	397.67
396.671	397.45
397.05	425.02
397.429	422.53
397.808	427.73
398.186	408.52
398.565	418.24
398.944	404.68
399.323	430.89
399.701	422.98
400.08	418.69
400.458	432.93
400.837	438.35
401.215	420.5
401.594	447.62
401.972	432.7
402.351	439.93
402.729	463.43
403.107	441.97
403.486	501.17
403.864	482.64
404.242	478.8
404.62	456.65
404.999	468.18
405.377	484.22
405.755	485.35
406.133	502.98
406.511	483.32
406.889	520.83
407.267	509.31
407.645	532.58
408.023	520.38
408.401	521.51
408.779	532.13
409.156	573.94
409.534	561.28
409.912	535.75
410.29	554.73
410.667	568.06
411.045	577.1
411.422	571
411.8	573.26
412.178	599.93
412.555	589.08
412.933	574.17
413.31	609.64
413.687	629.98
414.065	614.84
414.442	616.88
414.819	614.16
415.197	622.07
415.574	642.19
415.951	646.25
416.328	661.17
416.705	660.27
417.082	668.4
417.46	667.27
417.837	675.18
418.214	694.61
418.591	686.25
418.967	699.59
419.344	711.11
419.721	705.01
420.098	699.81
420.475	712.02
420.852	714.95
421.228	720.83
421.605	719.25
421.982	734.16
422.358	746.59
422.735	773.26
423.111	774.16
423.488	773.26
423.864	774.16
424.241	799.47
424.617	795.63
424.994	788.62
425.37	820.26
425.746	828.17
426.123	829.75
426.499	835.63
426.875	826.14
427.251	866.81
427.627	888.73
428.003	886.02
428.379	881.05
428.756	902.97
429.132	903.42
429.507	908.17
429.883	919.24
430.259	946.13
430.635	938.68
431.011	919.92
431.387	980.93
431.763	972.12
432.138	987.94
432.514	993.82
432.89	1033.36
433.265	1040.37
433.641	1069.75
434.016	1065.68
434.392	1059.35
434.767	1085.11
435.143	1110.2
435.518	1105
435.894	1128.28
436.269	1120.14
436.644	1149.97
437.02	1153.59
437.395	1167.6
437.77	1161.95
438.145	1210.76
438.52	1206.47
438.895	1207.37
439.271	1203.3
439.646	1260.48
440.021	1256.86
440.395	1286.92
440.77	1258.89
441.145	1285.11
441.52	1304.77
441.895	1293.47
442.27	1356.97
442.645	1335.05
443.019	1330.08
443.394	1350.64
443.769	1376.63
444.143	1378.21
444.518	1392
444.892	1377.76
445.267	1397.42
445.641	1403.3
446.016	1453.24
446.39	1440.13
446.764	1423.63
447.139	1432.9
447.513	1461.83
447.887	1480.81
448.262	1482.16
448.636	1464.31
449.01	1501.15
449.384	1527.81
449.758	1523.75
450.132	1560.35
450.506	1567.36
450.88	1560.13
451.254	1561.03
451.628	1584.99
452.002	1613.91
452.376	1626.79
452.75	1634.48
453.123	1685.55
453.497	1707.24
453.871	1674.02
454.244	1751.31
454.618	1738.88
454.992	1750.86
455.365	1756.73
455.739	1799.22
456.112	1798.99
456.486	1836.28
456.859	1827.92
457.232	1903.17
457.606	1903.17
457.979	1884.41
458.352	1918.99
458.725	1969.84
459.099	1958.08
459.472	1982.94
459.845	2024.75
460.218	2066.33
460.591	2060.23
460.964	2064.75
461.337	2113.11
461.71	2144.97
462.083	2155.14
462.456	2158.76
462.829	2194.24
463.201	2221.35
463.574	2191.98
463.947	2207.57
464.32	2262.71
464.692	2290.05
465.065	2331.86
465.438	2347.68
465.81	2395.81
466.183	2393.1
466.555	2460.9
466.928	2413.67
467.3	2439.2
467.672	2505.87
468.045	2538.86
468.417	2518.52
468.789	2575.69
469.161	2611.17
469.534	2622.02
469.906	2684.84
470.278	2686.88
470.65	2711.74
471.022	2740.21
471.394	2804.16
471.766	2801.9
472.138	2850.72
472.51	2915.35
472.882	2962.58
473.253	2979.3
473.625	2997.83
473.997	3088.22
474.369	3045.97
474.74	3121.44
475.112	3178.39
475.484	3201.22
475.855	3251.61
476.227	3258.16
476.598	3327.54
476.97	3375
477.341	3444.82
477.713	3499.96
478.084	3482.11
478.455	3571.15
478.827	3579.28
479.198	3703.12
479.569	3710.81
479.94	3794.87
480.311	3811.59
480.682	3799.62
481.053	3897.92
481.424	3968.43
481.795	3960.29
482.166	4049.1
482.537	4075.54
482.908	4126.16
483.279	4172.26
483.65	4212.49
484.021	4302.2
484.391	4306.95
484.762	4351.24
485.133	4380.85
485.503	4440.5
485.874	4529.77
486.244	4520.5
486.615	4614.74
486.985	4631.46
487.356	4688.18
487.726	4729.76
488.097	4831.91
488.467	4849.08
488.837	4894.96
489.207	4910.1
489.578	4959.81
489.948	5018.79
490.318	5063.09
490.688	5038
491.058	5129.3
491.428	5188.28
491.798	5215.63
492.168	5257.88
492.538	5285.23
492.908	5316.87
493.278	5378.79
493.648	5374.49
494.017	5428.05
494.387	5492.68
494.757	5515.05
495.126	5521.61
495.496	5517.09
495.866	5555.73
496.235	5590.98
496.605	5649.96
496.974	5680.92
497.344	5675.27
497.713	5701.94
498.082	5734.48
498.452	5789.85
498.821	5775.16
499.19	5793.92
499.559	5770.64
499.928	5825.78
500.298	5884.31
500.667	5892.9
501.036	5874.14
501.405	5949.39
501.774	5913.69
502.143	5967.24
502.512	5962.27
502.88	6059.45
503.249	5966.79
503.618	5997.07
503.987	6054.02
504.356	6081.37
504.724	6093.34
505.093	6110.97
505.462	6088.15
505.83	6120.91
506.199	6202.04
506.567	6196.16
506.936	6235.71
507.304	6278.42
507.672	6292.43
508.041	6316.61
508.409	6295.82
508.777	6381.92
509.145	6399.32
509.514	6356.39
509.882	6388.93
510.25	6442.71
510.618	6455.59
510.986	6464.63
511.354	6545.76
511.722	6552.54
512.09	6610.39
512.458	6558.19
512.826	6561.13
513.193	6617.62
513.561	6616.72
513.929	6639.77
514.297	6708.69
514.664	6686.77
515.032	6679.09
515.4	6758.18
515.767	6753.21
516.135	6766.77
516.502	6721.35
516.869	6876.6
517.237	6812.87
517.604	6794.79
517.972	6890.38
518.339	6963.38
518.706	6927.44
519.073	6917.05
519.44	6950.27
519.808	7004.28
520.175	6962.7
520.542	7001.57
520.909	7088.12
521.276	7076.37
521.643	7081.11
522.009	7097.61
522.376	7201.79
522.743	7124.73
523.11	7251.73
523.477	7225.29
523.843	7292.41
524.21	7359.75
524.577	7395.68
524.943	7381.44
525.31	7442.01
525.676	7431.84
526.043	7519.97
526.409	7531.5
526.776	7604.94
527.142	7582.57
527.508	7568.56
527.874	7672.96
528.241	7691.49
528.607	7724.71
528.973	7737.82
529.339	7779.4
529.705	7793.18
530.071	7834.31
530.437	7839.96
530.803	7893.75
531.169	7946.4
531.535	7936.91
531.901	7922
532.267	7965.84
532.632	7989.79
532.998	8030.92
533.364	8044.93
533.73	8036.34
534.095	8152.27
534.461	8150.69
534.826	8168.77
535.192	8173.97
535.557	8230.24
535.923	8218.26
536.288	8245.6
536.653	8237.69
537.019	8268.88
537.384	8321.76
537.749	8288.31
538.114	8344.81
538.479	8392.94
538.845	8313.17
539.21	8351.81
539.575	8379.16
539.94	8395.43
540.305	8365.37
540.67	8378.48
541.034	8432.72
541.399	8453.51
541.764	8491.02
542.129	8526.05
542.494	8515.43
542.858	8548.42
543.223	8537.57
543.587	8586.38
543.952	8546.84
544.316	8567.18
544.681	8592.03
545.045	8546.61
545.41	8670.22
545.774	8653.73
546.138	8726.95
546.503	8740.28
546.867	8647.85
547.231	8774.18
547.595	8723.1
547.959	8790.22
548.324	8763.55
548.688	8799.03
549.052	8832.48
549.416	8815.53
549.779	8873.83
550.143	8765.59
550.507	8909.09
550.871	8892.82
551.235	8928.75
551.599	8859.82
551.962	8921.97
552.326	8943.21
552.689	8913.83
553.053	8942.31
553.417	8907.28
553.78	9062.98
554.143	8967.84
554.507	9039.71
554.87	9010.78
555.234	9052.59
555.597	9041.51
555.96	9101.17
556.323	9072.02
556.686	9095.75
557.05	9146.14
557.413	9222.75
557.776	9173.71
558.139	9200.61
558.502	9169.87
558.865	9170.32
559.228	9319.02
559.59	9249.87
559.953	9261.39
560.316	9319.92
560.679	9321.96
561.041	9327.16
561.404	9461.62
561.767	9441.5
562.129	9444.44
562.492	9458.68
562.854	9509.07
563.217	9490.09
563.579	9548.17
563.941	9596.53
564.304	9590.65
564.666	9721.27
565.028	9668.62
565.39	9650.99
565.753	9688.95
566.115	9714.26
566.477	9755.62
566.839	9786.13
567.201	9882.62
567.563	9842.4
567.925	9957.87
568.287	9954.03
568.648	9878.78
569.01	10016.63
569.372	10034.26
569.734	10060.47
570.095	10135.5
570.457	10094.37
570.819	10185.21
571.18	10095.5
571.542	10203.52
571.903	10117.42
572.265	10226.79
572.626	10202.16
572.987	10223.18
573.349	10334.81
573.71	10304.53
574.071	10316.06
574.432	10387.24
574.794	10385.21
575.155	10392.66
575.516	10408.71
575.877	10414.13
576.238	10476.5
576.599	10548.14
576.96	10539.78
577.32	10446.45
577.681	10503.62
578.042	10519.89
578.403	10533.9
578.763	10588.14
579.124	10606.9
579.485	10695.03
579.845	10702.94
580.206	10626.78
580.566	10656.84
580.927	10736.84
581.287	10737.74
581.648	10645.77
582.008	10802.6
582.368	10736.84
582.728	10790.39
583.089	10755.14
583.449	10704.07
583.809	10811.86
584.169	10845.08
584.529	10754.69
584.889	10870.17
585.249	10825.2
585.609	10773.67
585.969	10850.28
586.329	10817.06
586.688	10835.36
587.048	10804.41
587.408	10812.99
587.768	10829.94
588.127	10842.14
588.487	10820.22
588.846	10962.37
589.206	10881.69
589.565	10827
589.925	10925.08
590.284	10864.74
590.643	10909.94
591.003	10875.59
591.362	10940.9
591.721	10935.93
592.08	11042.82
592.44	10989.03
592.799	10959.66
593.158	11012.99
593.517	10995.81
593.876	10995.81
594.235	10964.17
594.593	10989.26
594.952	10997.85
595.311	10962.37
595.67	10981.35
596.029	11098.63
596.387	11103.38
596.746	11110.61
597.104	11007.79
597.463	11072.19
597.822	11108.58
598.18	11024.06
598.538	11029.94
598.897	11112.19
599.255	11030.39
599.613	11159.65
599.972	11128.24
600.33	11092.76
600.688	11072.42
601.046	11078.97
601.404	11190.61
601.762	11162.59
602.12	11257.95
602.478	11232.87
602.836	11162.81
603.194	11153.1
603.552	11164.17
603.91	11110.61
604.268	11163.94
604.625	11081.69
604.983	11163.94
605.341	11149.93
605.698	11193.55
606.056	11220.44
606.413	11255.92
606.771	11260.66
607.128	11328.46
607.485	11194.68
607.843	11267.22
608.2	11346.54
608.557	11381.34
608.914	11284.62
609.272	11310.15
609.629	11371.62
609.986	11417.95
610.343	11373.88
610.7	11429.02
611.057	11432.41
611.414	11358.74
611.771	11331.4
612.127	11512.86
612.484	11482.81
612.841	11479.87
613.198	11367.33
613.554	11463.82
613.911	11493.43
614.267	11526.19
614.624	11499.98
614.98	11512.41
615.337	11627.89
615.693	11514.44
616.05	11525.52
616.406	11549.02
616.762	11570.94
617.118	11631.5
617.475	11595.8
617.831	11638.51
618.187	11611.84
618.543	11633.08
618.899	11705.4
619.255	11651.39
619.611	11739.75
619.967	11740.2
620.323	11669.47
620.678	11703.82
621.034	11710.82
621.39	11740.2
621.746	11695.46
622.101	11850.71
622.457	11755.57
622.812	11734.32
623.168	11843.25
623.523	11844.6
623.879	11913.3
624.234	11742.69
624.589	11847.32
624.945	11921.21
625.3	11892.74
625.655	11896.81
626.01	11959.63
626.365	11930.25
626.72	11863.59
627.075	11863.81
627.43	11903.81
627.785	11977.48
628.14	12056.12
628.495	11956.92
628.85	12024.03
629.205	11938.84
629.559	12014.77
629.914	11923.02
630.269	12017.25
630.623	12040.76
630.978	11930.25
631.332	12102.68
631.687	12023.13
632.041	12003.47
632.396	12050.7
632.75	11965.05
633.104	12040.3
633.459	12045.5
633.813	12006.41
634.167	12064.71
634.521	11999.85
634.875	12010.48
635.229	12011.61
635.583	11952.62
635.937	12021.55
636.291	12024.71
636.645	12018.61
636.999	12086.18
637.352	12086.41
637.706	12097.48
638.06	12111.04
638.413	12064.03
638.767	12071.49
639.121	12137.03
639.474	12041.66
639.828	12033.98
640.181	12062.9
640.534	12073.52
640.888	12093.86
641.241	12040.08
641.594	12111.04
641.947	12193.52
642.301	12158.27
642.654	12145.16
643.007	12183.8
643.36	12146.74
643.713	12124.14
644.066	12221.54
644.419	12123.92
644.771	12151.49
645.124	12073.98
645.477	12006.18
645.83	12082.79
646.182	11914.43
646.535	11940.65
646.888	11900.42
647.24	11853.87
647.593	11883.47
647.945	11841.44
648.298	11773.42
648.65	11762.57
649.002	11770.71
649.355	11925.05
649.707	11979.52
650.059	12062.23
650.411	12230.36
650.763	12154.88
651.115	12290.47
651.467	12132.28
651.819	12276.91
652.171	12257.02
652.523	12300.86
652.875	12290.92
653.227	12193.3
653.578	12393.74
653.93	12384.7
654.282	12392.39
654.633	12332.05
654.985	12395.55
655.337	12366.85
655.688	12361.43
656.039	12403.23
656.391	12314.87
656.742	12381.31
657.094	12391.26
657.445	12495.43
657.796	12469.22
658.147	12341.09
658.498	12404.14
658.849	12281.65
659.2	12504.93
659.551	12490.46
659.902	12479.62
660.253	12509.9
660.604	12466.96
660.955	12501.31
661.306	12512.83
661.656	12516
662.007	12488.88
662.358	12516.9
662.708	12516.68
663.059	12557.58
663.409	12446.62
663.76	12534.3
664.11	12494.98
664.461	12527.07
664.811	12442.78
665.161	12463.12
665.511	12467.19
665.862	12573.17
666.212	12531.14
666.562	12579.95
666.912	12454.08
667.262	12522.55
667.612	12465.15
667.962	12498.6
668.312	12430.8
668.662	12407.3
669.011	12407.07
669.361	12399.84
669.711	12402.1
670.06	12360.3
670.41	12300.41
670.76	12359.39
671.109	12333.86
671.459	12283.46
671.808	12229.45
672.157	12206.63
672.507	12092.96
672.856	12173.86
673.205	12172.05
673.554	12182.9
673.904	12142.22
674.253	12192.39
674.602	12113.3
674.951	12024.49
675.3	11877.6
675.649	12143.58
675.998	12118.49
676.346	12029.91
676.695	12109.23
677.044	11931.16
677.393	11938.84
677.741	12007.09
678.09	11946.75
678.438	11879.63
678.787	11918.5
679.135	11916.69
679.484	11757.6
679.832	11780.2
680.181	11858.39
680.529	11791.27
680.877	11782.46
681.225	11757.83
681.573	11838.73
681.922	11694.55
682.27	11631.28
682.618	11643.71
682.966	11635.57
683.314	11643.48
683.661	11626.3
684.009	11604.61
684.357	11524.61
684.705	11486.87
685.053	11532.97
685.4	11425.18
685.748	11371.62
686.095	11391.73
686.443	11417.04
686.79	11379.76
687.138	11382.7
687.485	11367.78
687.832	11327.56
688.18	11337.27
688.527	11212.76
688.874	11258.63
689.221	11261.12
689.568	11238.74
689.915	11204.17
690.262	11290.72
690.609	11244.17
690.956	11074.91
691.303	11156.94
691.65	11122.14
691.997	11113.32
692.344	11045.3
692.69	11090.95
693.037	11169.37
693.383	10999.88
693.73	11049.82
694.077	10989.94
694.423	10987.23
694.769	10936.61
695.116	10925.31
695.462	10929.15
695.808	10901.13
696.155	10928.02
696.501	10803.5
696.847	10864.52
697.193	10764.63
697.539	10821.58
697.885	10801.24
698.231	10734.58
698.577	10735.48
698.923	10805.99
699.269	10664.07
699.614	10664.52
699.96	10701.13
700.306	10647.35
700.651	10655.48
700.997	10577.52
701.342	10613.9
701.688	10586.78
702.033	10565.99
702.379	10649.38
702.724	10521.25
703.069	10681.92
703.415	10496.62
703.76	10577.29
704.105	10553.79
704.45	10532.55
704.795	10557.18
705.14	10455.71
705.485	10477.41
705.83	10460.46
706.175	10496.16
706.52	10473.57
706.865	10481.02
707.209	10437.64
707.554	10393.79
707.899	10480.57
708.243	10458.88
708.588	10452.32
708.932	10312.44
709.277	10382.04
709.621	10393.12
709.966	10270.63
710.31	10315.15
710.654	10210.97
710.998	10303.85
711.342	10216.62
711.687	10265.66
712.031	10215.49
712.375	10235.83
712.719	10247.81
713.063	10322.84
713.407	10249.62
713.75	10246.68
714.094	10253.91
714.438	10209.62
714.782	10219.11
715.125	10172.56
715.469	10268.6
715.812	10142.95
716.156	10064.09
716.499	10162.84
716.843	10181.37
717.186	10014.14
717.53	10145.44
717.873	10093.69
718.216	10185.89
718.559	10056.4
718.902	10000.58
719.246	10049.4
719.589	9949.29
719.932	9958.78
720.275	10048.27
720.617	9993.58
720.96	10018.44
721.303	10025.67
721.646	10020.25
721.989	9984.54
722.331	10041.26
722.674	10088.72
723.016	10073.58
723.359	10038.78
723.701	9946.8
724.044	9975.27
724.386	9935.5
724.729	10011.21
725.071	9919
725.413	9921.94
725.755	9946.8
726.097	9896.18
726.439	9889.4
726.782	9944.09
727.124	9914.71
727.465	9924.43
727.807	9972.34
728.149	9893.02
728.491	9937.31
728.833	9905.22
729.175	9876.75
729.516	9871.32
729.858	9909.06
730.199	9906.8
730.541	9925.11
730.882	9838.1
731.224	9959.91
731.565	9864.32
731.906	9932.11
732.248	9886.46
732.589	9885.11
732.93	9852.79
733.271	9919
733.612	9922.17
733.953	9891.66
734.294	9909.29
734.635	9935.05
734.976	9948.38
735.317	9870.19
735.658	9902.06
735.999	9934.82
736.339	9955.16
736.68	9959.91
737.021	10019.12
737.361	9951.09
737.702	10036.06
738.042	10005.56
738.383	10000.58
738.723	10038.32
739.063	10029.74
739.404	10062.5
739.744	10026.57
740.084	10015.95
740.424	10107.47
740.764	10111.77
741.104	10192.67
741.444	10081.03
741.784	10116.06
742.124	10139.11
742.464	10168.04
742.804	10142.73
743.143	10094.59
743.483	10166.46
743.823	10122.62
744.162	10278.09
744.502	10301.37
744.841	10249.62
745.181	10328.49
745.52	10307.47
745.86	10360.12
746.199	10348.15
746.538	10402.61
746.877	10392.89
747.216	10385.21
747.556	10373.68
747.895	10413
748.234	10412.55
748.573	10411.87
748.911	10446
749.25	10503.4
749.589	10472.21
749.928	10521.47
750.267	10589.04
750.605	10661.58
750.944	10540.01
751.283	10624.52
751.621	10663.62
751.96	10571.64
752.298	10716.95
752.636	10708.59
752.975	10693.22
753.313	10644.86
753.651	10814.8
753.989	10702.71
754.327	10806.67
754.666	10767.12
755.004	10840.79
755.342	10869.49
755.679	10867.23
756.017	10849.6
756.355	10860.22
756.693	10856.16
757.031	10934.57
757.368	10862.48
757.706	10954.46
758.044	10888.24
758.381	10949.71
758.719	10990.61
759.056	11045.75
759.394	11023.83
759.731	10989.26
760.068	11050.73
760.405	10949.71
760.743	10998.75
761.08	11003.95
761.417	10997.17
761.754	10926.21
762.091	11009.15
762.428	11037.17
762.765	11020.67
763.102	11099.54
763.438	10956.72
763.775	11025.87
764.112	11108.13
764.449	11164.85
764.785	11027.9
765.122	11073.32
765.458	11064.29
765.795	11125.98
766.131	11149.93
766.467	11085.08
766.804	11089.82
767.14	11078.07
767.476	11161.68
767.812	11096.6
768.148	11125.53
768.485	11094.57
768.821	11145.87
769.157	11120.78
769.492	11130.72
769.828	11140.67
770.164	11026.55
770.5	11111.06
770.836	11079.43
771.171	11172.76
771.507	11128.69
771.842	11022.25
772.178	11090.05
772.513	11160.78
772.849	11100.89
773.184	11138.18
773.519	11100.89
773.855	11135.92
774.19	11068.13
774.525	11054.12
774.86	11123.94
775.195	11097.05
775.53	11129.14
775.865	11028.58
776.2	11000.78
776.535	10937.28
776.87	11044.62
777.205	10980.67
777.539	11012.31
777.874	11030.39
778.209	10966.66
778.543	10924.18
778.878	10961.46
779.212	10994.68
779.547	10921.69
779.881	10955.14
780.215	10942.03
780.55	10921.01
780.884	10987
781.218	10879.43
781.552	10933.89
781.886	10869.94
782.22	10853.67
782.554	10846.21
782.888	10793.33
783.222	10783.39
783.556	10815.93
783.889	10770.06
784.223	10696.39
784.557	10743.39
784.89	10833.1
785.224	10730.73
785.557	10787.46
785.891	10721.92
786.224	10671.98
786.558	10698.42
786.891	10727.57
787.224	10644.64
787.557	10575.26
787.891	10679.21
788.224	10688.7
788.557	10634.01
788.89	10605.54
789.223	10670.85
789.556	10639.66
789.888	10636.05
790.221	10604.18
790.554	10500.23
790.887	10536.16
791.219	10567.58
791.552	10497.97
791.884	10462.27
792.217	10478.09
792.549	10431.76
792.882	10448.71
793.214	10376.17
793.546	10522.6
793.879	10420.91
794.211	10360.12
794.543	10402.16
794.875	10391.31
795.207	10415.04
795.539	10342.5
795.871	10371.65
796.203	10361.7
796.535	10281.03
796.867	10243.06
797.198	10208.71
797.53	10249.39
797.862	10194.25
798.193	10170.98
798.525	10199.45
798.856	10246
799.188	10137.3
799.519	10156.96
799.85	10109.73
800.182	10089.62
800.513	10205.1
800.844	10088.27
801.175	10101.6
801.506	10149.96
801.837	10059.57
802.168	10039.68
802.499	10064.99
802.83	10066.12
803.161	10068.61
803.491	10053.92
803.822	9932.79
804.153	9918.1
804.483	9895.95
804.814	9969.85
805.145	9835.62
805.475	9914.03
805.805	9873.81
806.136	9881.94
806.466	9846.69
806.796	9847.82
807.126	9792
807.457	9795.17
807.787	9758.11
808.117	9805.11
808.447	9750.42
808.777	9760.14
809.107	9768.05
809.436	9753.81
809.766	9712.68
810.096	9622.97
810.426	9659.35
810.755	9669.07
811.085	9600.14
811.414	9600.14
811.744	9558.79
812.073	9564.89
812.403	9589.52
812.732	9518.34
813.061	9599.01
813.39	9562.4
813.719	9519.24
814.049	9582.74
814.378	9478.56
814.707	9520.15
815.036	9443.09
815.365	9424.33
815.693	9363.77
816.022	9416.42
816.351	9394.05
816.68	9369.41
817.008	9351.56
817.337	9248.06
817.665	9258.46
817.994	9328.74
818.322	9283.99
818.651	9293.71
818.979	9242.64
819.307	9341.17
819.636	9365.35
819.964	9201.74
820.292	9271.34
820.62	9292.81
820.948	9235.41
821.276	9199.7
821.604	9263.65
821.932	9206.93
822.259	9216.42
822.587	9203.32
822.915	9193.37
823.243	9215.97
823.57	9234.5
823.898	9295.74
824.225	9243.77
824.553	9249.87
824.88	9309.3
825.207	9329.19
825.535	9309.76
825.862	9387.72
826.189	9295.29
826.516	9358.57
826.843	9398.34
827.17	9348.62
827.497	9345.91
827.824	9339.58
828.151	9348.17
828.478	9377.55
828.805	9389.3
829.131	9291.45
829.458	9348.4
829.785	9312.47
830.111	9307.27
830.438	9396.76
830.764	9352.47
831.09	9386.59
831.417	9291.22
831.743	9325.8
832.069	9386.82
832.395	9397.21
832.722	9274.5
833.048	9360.83
833.374	9364.67
833.7	9364.67
834.026	9362.18
834.351	9316.76
834.677	9310.89
835.003	9331.68
835.329	9318.57
835.654	9332.13
835.98	9269.3
836.306	9311.56
836.631	9232.92
836.956	9270.66
837.282	9252.13
837.607	9203.32
837.932	9240.6
838.258	9168.74
838.583	9233.37
838.908	9124.22
839.233	9203.09
839.558	9193.6
839.883	9170.55
840.208	9122.64
840.533	9079.03
840.858	9205.8
841.182	9158.12
841.507	9184.33
841.832	9065.02
842.156	9051.68
842.481	9057.78
842.805	9040.61
843.13	9096.2
843.454	9011.01
843.778	9020.5
844.103	9003.1
844.427	8929.2
844.751	8963.55
845.075	8971.69
845.399	8950.89
845.723	8865.93
846.047	8852.37
846.371	8742.76
846.695	8873.38
847.019	8748.41
847.343	8736.44
847.666	8661.64
847.99	8670.9
848.313	8667.51
848.637	8593.62
848.96	8561.3
849.284	8616.44
849.607	8540.74
849.931	8491.47
850.254	8432.94
850.577	8366.96
850.9	8421.64
851.223	8334.64
851.546	8331.48
851.869	8310.23
852.192	8299.61
852.515	8195.43
852.838	8212.16
853.161	8218.94
853.483	8150.92
853.806	8187.07
854.129	8179.16
854.451	8175.1
854.774	8066.85
855.096	8060.97
855.419	8060.52
855.741	8060.52
856.063	7950.69
856.385	7943.24
856.708	7975.78
857.03	7916.35
857.352	7860.53
857.674	7881.54
857.996	7814.2
858.318	7826.86
858.64	7802.45
858.961	7817.37
859.283	7824.14
859.605	7722.68
859.926	7752.51
860.248	7661.89
860.57	7680.87
860.891	7655.11
861.212	7642.68
861.534	7663.24
861.855	7664.37
862.176	7609.91
862.498	7609.01
862.819	7692.85
863.14	7604.72
863.461	7581.89
863.782	7588.22
864.103	7617.82
864.424	7548.67
864.745	7572.85
865.065	7531.5
865.386	7464.38
865.707	7487.66
866.027	7484.94
866.348	7456.02
866.668	7487.88
866.989	7467.54
867.309	7431.16
867.63	7394.33
867.95	7416.47
868.27	7334.21
868.59	7378.28
868.91	7408.34
869.23	7352.29
869.55	7316.81
869.87	7349.35
870.19	7331.05
870.51	7306.42
870.83	7388.45
871.15	7267.1
871.469	7318.4
871.789	7304.16
872.109	7306.87
872.428	7170.15
872.748	7268.23
873.067	7196.59
873.386	7245.63
873.706	7247.44
874.025	7216.7
874.344	7247.66
874.663	7188
874.982	7235.01
875.301	7166.53
875.62	7151.17
875.939	7134.67
876.258	7188
876.577	7116.59
876.896	7105.07
877.214	7083.6
877.533	7091.28
877.852	7110.94
878.17	7136.25
878.489	7106.42
878.807	7044.96
879.125	7118.85
879.444	7025.3
879.762	7011.96
880.08	7064.16
880.398	6958.86
880.716	7013.54
881.034	7015.58
881.352	6953.21
881.67	6978.52
881.988	6945.98
882.306	6947.33
882.624	6898.07
882.941	6838.18
883.259	6866.43
883.577	6842.48
883.894	6882.25
884.212	6862.14
884.529	6806.09
884.846	6810.61
885.164	6812.65
885.481	6766.09
885.798	6798.41
886.115	6712.31
886.432	6764.74
886.75	6722.93
887.067	6802.02
887.383	6626.66
887.7	6717.73
888.017	6672.99
888.334	6748.47
888.651	6635.93
888.967	6597.74
889.284	6583.73
889.6	6594.12
889.917	6572.2
890.233	6566.1
890.55	6554.8
890.866	6543.27
891.182	6552.31
891.498	6464.63
891.815	6463.28
892.131	6450.62
892.447	6447.01
892.763	6435.48
893.079	6397.06
893.395	6390.28
893.71	6383.96
894.026	6344.86
894.342	6327.69
894.657	6288.82
894.973	6268.03
895.289	6237.75
895.604	6237.52
895.92	6205.2
896.235	6252.21
896.55	6187.13
896.865	6172.21
897.181	6121.36
897.496	6100.12
897.811	6119.1
898.126	6077.75
898.441	6033.46
898.756	6040.91
899.071	5974.02
899.386	6039.56
899.7	5953.46
900.015	6033.91
900.33	5925.89
900.644	5913.91
900.959	5924.08
901.273	5916.85
901.588	5889.73
901.902	5819
902.216	5800.47
902.531	5799.79
902.845	5824.88
903.159	5789.17
903.473	5727.93
903.787	5740.81
904.101	5697.65
904.415	5722.5
904.729	5668.72
905.042	5657.42
905.356	5652
905.67	5608.84
905.984	5608.16
906.297	5579.68
906.611	5518.67
906.924	5513.24
907.237	5505.56
907.551	5535.84
907.864	5531.55
908.177	5461.95
908.491	5473.92
908.804	5389.86
909.117	5383.53
909.43	5349.41
909.743	5300.6
910.056	5353.93
910.368	5308.28
910.681	5245
910.994	5268.28
911.307	5202.52
911.619	5194.16
911.932	5172.24
912.244	5170.88
912.557	5181.95
912.869	5174.5
913.181	5098.11
913.494	5130.88
913.806	5042.97
914.118	5075.06
914.43	5081.84
914.742	5038.68
915.054	5019.25
915.366	4973.82
915.678	4955.52
915.99	4948.74
916.302	4893.15
916.613	4818.57
916.925	4904.9
917.236	4872.13
917.548	4835.07
917.859	4896.31
918.171	4816.54
918.482	4789.2
918.794	4765.69
919.105	4783.09
919.416	4732.47
919.727	4714.85
920.038	4721.18
920.349	4691.8
920.66	4654.74
920.971	4629.43
921.282	4656.32
921.593	4601.18
921.903	4617.9
922.214	4515.98
922.525	4510.56
922.835	4529.54
923.146	4513.05
923.456	4503.33
923.767	4478.47
924.077	4447.06
924.387	4459.26
924.697	4423.33
925.008	4415.19
925.318	4374.29
925.628	4358.25
925.938	4338.81
926.248	4298.36
926.558	4292.03
926.867	4269.66
927.177	4270.57
927.487	4285.03
927.796	4251.13
928.106	4227.4
928.416	4221.98
928.725	4216.56
929.034	4200.29
929.344	4136.56
929.653	4151.02
929.962	4104.02
930.271	4087.07
930.581	4098.37
930.89	4063.11
931.199	4077.8
931.508	4050.91
931.817	3982.89
932.125	4034.64
932.434	4020.18
932.743	3949.67
933.051	3940.63
933.36	3956.68
933.669	3904.93
933.977	3901.99
934.286	3953.96
934.594	3878.26
934.902	3831.48
935.21	3825.61
935.519	3817.02
935.827	3825.83
936.135	3799.17
936.443	3782.89
936.751	3770.69
937.059	3756.91
937.367	3697.25
937.674	3730.24
937.982	3733.86
938.29	3711.03
938.597	3717.13
938.905	3683.69
939.213	3703.8
939.52	3651.15
939.827	3615.22
940.135	3610.92
940.442	3603.92
940.749	3606.85
941.056	3581.77
941.363	3543.81
941.67	3560.08
941.977	3553.75
942.284	3477.14
942.591	3510.13
942.898	3470.36
943.205	3493.86
943.511	3446.18
943.818	3417.48
944.125	3426.07
944.431	3456.35
944.738	3438.5
945.044	3406.63
945.35	3361.21
945.657	3332.74
945.963	3341.32
946.269	3317.82
946.575	3317.14
946.881	3305.39
947.187	3332.96
947.493	3259.29
947.799	3224.04
948.105	3234.21
948.41	3274.21
948.716	3212.97
949.022	3207.77
949.327	3215.45
949.633	3152.63
949.938	3158.28
950.244	3200.99
950.549	3138.84
950.854	3114.44
951.16	3117.38
951.465	3104.72
951.77	3108.56
952.075	3079.41
952.38	3079.18
952.685	3058.62
952.99	3019.53
953.294	2974.1
953.599	3006.19
953.904	2998.51
954.209	2944.95
954.513	2971.62
954.818	2955.12
955.122	2963.03
955.426	2955.57
955.731	2934.33
956.035	2930.49
956.339	2895.46
956.643	2929.81
956.948	2884.84
957.252	2900.43
957.556	2878.06
957.86	2839.64
958.163	2840.77
958.467	2817.04
958.771	2811.62
959.075	2816.82
959.378	2783.37
959.682	2752.19
959.985	2751.28
960.289	2726.2
960.592	2756.71
960.896	2730.04
961.199	2725.52
961.502	2715.8
961.805	2704.51
962.108	2716.93
962.411	2699.08
962.714	2638.07
963.017	2664.73
963.32	2636.26
963.623	2629.48
963.926	2621.34
964.228	2609.37
964.531	2582.02
964.833	2581.57
965.136	2603.72
965.438	2565.75
965.741	2515.58
966.043	2561.91
966.345	2513.55
966.648	2502.02
966.95	2534.79
967.252	2489.37
967.554	2504.74
967.856	2477.39
968.158	2509.03
968.46	2440.33
968.761	2487.56
969.063	2435.59
969.365	2445.08
969.666	2394.23
969.968	2420.22
970.269	2398.98
970.571	2395.81
970.872	2378.86
971.174	2363.27
971.475	2368.69
971.776	2371.63
972.077	2349.26
972.378	2330.73
972.679	2310.17
972.98	2309.71
973.281	2296.38
973.582	2311.3
973.883	2302.48
974.183	2276.04
974.484	2276.04
974.785	2237.4
975.085	2287.57
975.386	2258.64
975.686	2204.86
975.986	2239.21
976.287	2245.99
976.587	2191.98
976.887	2199.21
977.187	2202.6
977.487	2155.59
977.787	2177.06
978.087	2158.53
978.387	2170.73
978.687	2137.74
978.987	2144.97
979.286	2093.9
979.586	2123.5
979.885	2106.55
980.185	2093.67
980.484	2078.53
980.784	2071.75
981.083	2083.05
981.382	2095.26
981.682	2057.52
981.981	2071.98
982.28	2066.33
982.579	2030.62
982.878	2016.61
983.177	1993.79
983.475	2002.38
983.774	2025.2
984.073	1992.89
984.372	1956.5
984.67	1993.34
984.969	1983.85
985.267	1972.77
985.566	1971.42
985.864	1937.07
986.162	1948.14
986.461	1927.58
986.759	1917.86
987.057	1901.59
987.355	1895.49
987.653	1924.64
987.951	1881.02
988.249	1865.88
988.547	1871.31
988.844	1834.92
989.142	1863.17
989.44	1846
989.737	1827.92
990.035	1823.85
990.332	1810.52
990.63	1798.31
990.927	1817.97
991.224	1793.12
991.521	1808.26
991.819	1754.93
992.116	1782.27
992.413	1788.6
992.71	1772.33
993.006	1767.58
993.303	1751.99
993.6	1713.34
993.897	1736.85
994.193	1709.28
994.49	1704.98
994.787	1692.78
995.083	1670.86
995.379	1691.2
995.676	1709.28
995.972	1682.61
996.268	1669.73
996.565	1678.09
996.861	1645.78
997.157	1648.04
997.453	1624.31
997.749	1619.11
998.044	1612.1
998.34	1647.13
998.636	1617.53
998.932	1597.87
999.227	1564.87
999.523	1596.51
999.818	1574.59
1000.114	1575.72
1000.409	1562.84
1000.704	1546.8
1001	1537.76
1001.295	1529.17
1001.59	1505.89
1001.885	1525.55
1002.18	1495.72
1002.475	1496.85
1002.77	1501.6
1003.065	1500.47
1003.359	1465.89
1003.654	1480.58
1003.949	1462.5
1004.243	1470.19
1004.538	1428.83
1004.832	1454.14
1005.127	1455.95
1005.421	1420.7
1005.715	1443.97
1006.009	1427.02
1006.304	1441.94
1006.598	1439.91
1006.892	1384.54
1007.186	1386.35
1007.48	1421.83
1007.773	1369.17
1008.067	1373.24
1008.361	1354.03
1008.655	1343.19
1008.948	1327.37
1009.242	1337.31
1009.535	1355.16
1009.829	1326.24
1010.122	1300.02
1010.415	1315.62
1010.708	1302.73
1011.001	1280.14
1011.295	1309.97
1011.588	1310.42
1011.881	1264.99
1012.173	1297.76
1012.466	1259.12
1012.759	1244.2
1013.052	1246.92
1013.344	1248.27
1013.637	1226.13
1013.93	1236.97
1014.222	1202.17
1014.514	1229.29
1014.807	1222.51
1015.099	1230.87
1015.391	1196.97
1015.683	1200.36
1015.976	1206.47
1016.268	1183.42
1016.56	1166.24
1016.851	1154.94
1017.143	1154.26
1017.435	1167.37
1017.727	1172.57
1018.018	1137.09
1018.31	1137.31
1018.602	1149.74
1018.893	1130.08
1019.185	1113.13
1019.476	1072.68
1019.767	1095.06
1020.058	1101.38
1020.35	1100.03
1020.641	1101.84
1020.932	1081.05
1021.223	1051.22
1021.514	1081.27
1021.804	1024.32
1022.095	1033.14
1022.386	1049.41
1022.677	1062.97
1022.967	1017.54
1023.258	1040.82
1023.548	1039.24
1023.839	1038.33
1024.129	1016.41
1024.419	1014.61
1024.709	1006.24
1025	1001.73
1025.29	1018
1025.58	1001.27
1025.87	974.61
1026.16	973.25
1026.449	982.06
1026.739	984.55
1027.029	966.25
1027.319	935.51
1027.608	956.3
1027.898	938.45
1028.187	947.04
1028.477	926.47
1028.766	929.86
1029.055	905.91
1029.344	905
1029.634	912.01
1029.923	900.94
1030.212	923.76
1030.501	872.69
1030.79	896.42
1031.078	886.25
1031.367	892.8
1031.656	871.11
1031.945	865.46
1032.233	857.32
1032.522	853.25
1032.81	867.94
1033.099	855.06
1033.387	834.05
1033.675	846.93
1033.963	844.89
1034.251	829.53
1034.54	850.77
1034.828	814.84
1035.116	813.03
1035.403	804.44
1035.691	804.22
1035.979	829.53
1036.267	796.31
1036.554	808.74
1036.842	784.56
1037.129	785.01
1037.417	766.93
1037.704	773.48
1037.992	748.85
1038.279	756.99
1038.566	780.26
1038.853	780.26
1039.14	780.26
