Data from blue_shiny_book_FLMS001491_00041.txt Node
Date: Wed Feb 08 15:27:00 GMT 2017
User: dcchb
Spectrometer: FLMS00149
Trigger mode: 0
Integration Time (sec): 2.000000E-2
Scans to average: 10
Electric dark correction enabled: true
Nonlinearity correction enabled: false
Boxcar width: 0
XAxis mode: Wavelengths
Number of Pixels in Spectrum: 2048
>>>>>Begin Spectral Data<<<<<
341.393	-19.15
341.776	-19.15
342.16	-19.15
342.543	-45.37
342.927	-59.83
343.31	-58.7
343.693	-74.07
344.077	-88.08
344.46	-41.07
344.843	-74.29
345.226	-53.05
345.61	-27.97
345.993	-22.99
346.376	-3.33
346.759	6.38
347.142	48.64
347.525	38.25
347.908	54.74
348.291	74.18
348.674	90.68
349.057	130.67
349.44	107.62
349.823	129.32
350.206	177
350.588	210.22
350.971	217.23
351.354	245.47
351.737	246.6
352.119	261.74
352.502	272.59
352.884	286.38
353.267	264.46
353.65	296.55
354.032	303.1
354.414	317.79
354.797	303.55
355.179	314.4
355.562	333.16
355.944	341.06
356.326	351.01
356.709	366.15
357.091	345.58
357.473	341.06
357.855	349.65
358.238	347.17
358.62	344.45
359.002	353.27
359.384	369.31
359.766	362.98
360.148	343.1
360.53	358.01
360.912	368.18
361.294	349.2
361.676	347.84
362.057	359.6
362.439	336.09
362.821	327.51
363.203	348.07
363.584	349.65
363.966	332.93
364.348	339.71
364.729	338.8
365.111	327.96
365.493	339.71
365.874	347.39
366.256	320.05
366.637	331.35
367.019	320.5
367.4	344.23
367.781	345.58
368.163	333.83
368.544	338.58
368.925	333.38
369.306	341.29
369.688	350.33
370.069	333.16
370.45	332.48
370.831	344.68
371.212	346.94
371.593	362.98
371.974	369.99
372.355	352.36
372.736	344.45
373.117	377.67
373.498	346.49
373.879	351.46
374.26	350.1
374.641	359.37
375.021	362.98
375.402	358.92
375.783	370.22
376.163	380.61
376.544	371.57
376.925	372.48
377.305	369.54
377.686	370.67
378.066	374.96
378.447	367.05
378.827	386.94
379.208	393.72
379.588	359.37
379.968	374.28
380.349	374.06
380.729	405.7
381.109	389.88
381.489	426.49
381.87	413.38
382.25	416.32
382.63	418.8
383.01	398.69
383.39	428.52
383.77	426.71
384.15	422.42
384.53	412.48
384.91	403.89
385.29	437.33
385.67	416.32
386.049	450.89
386.429	421.74
386.809	465.58
387.189	456.77
387.568	462.87
387.948	451.8
388.328	456.32
388.707	449.31
389.087	468.74
389.466	491.34
389.846	481.63
390.225	476.65
390.605	500.83
390.984	493.83
391.363	477.78
391.743	490.67
392.122	497.22
392.501	503.55
392.881	514.39
393.26	511.68
393.639	524.56
394.018	535.18
394.397	534.05
394.776	522.08
395.155	544.45
395.534	534.51
395.913	546.26
396.292	541.06
396.671	557.56
397.05	567.5
397.429	570.44
397.808	580.83
398.186	579.93
398.565	573.15
398.944	587.84
399.323	602.75
399.701	574.5
400.08	597.55
400.458	626.03
400.837	627.16
401.215	621.96
401.594	611.34
401.972	637.33
402.351	643.88
402.729	648.63
403.107	644.56
403.486	654.05
403.864	659.7
404.242	672.13
404.62	666.71
404.999	681.85
405.377	671.45
405.755	686.82
406.133	709.64
406.511	739.02
406.889	740.6
407.267	745.8
407.645	757.1
408.023	737.89
408.401	778.34
408.779	770.66
409.156	778.79
409.534	794.39
409.912	808.62
410.29	817.21
410.667	842.52
411.045	817.21
411.422	862.63
411.8	868.73
412.178	875.06
412.555	898.79
412.933	913.7
413.31	902.41
413.687	943.76
414.065	940.14
414.442	937.43
414.819	970.88
415.197	972.01
415.574	1022.18
415.951	1008.62
416.328	991.44
416.705	1013.14
417.082	1010.88
417.46	1039.58
417.837	1043.19
418.214	1040.71
418.591	1072.8
418.967	1060.37
419.344	1091.33
419.721	1108.28
420.098	1106.24
420.475	1140.59
420.852	1133.81
421.228	1150.31
421.605	1164.32
421.982	1165.68
422.358	1222.17
422.735	1223.53
423.111	1226.01
423.488	1241.15
423.864	1243.41
424.241	1269.63
424.617	1280.7
424.994	1273.02
425.37	1286.12
425.746	1307.59
426.123	1341.49
426.499	1325.45
426.875	1359.57
427.251	1384.2
427.627	1421.71
428.003	1416.97
428.379	1477.53
428.756	1455.61
429.132	1466.23
429.507	1502.39
429.883	1529.06
430.259	1556.17
430.635	1535.61
431.011	1597.98
431.387	1614.48
431.763	1644.08
432.138	1659
432.514	1666.91
432.89	1664.65
433.265	1727.47
433.641	1756.85
434.016	1745.1
434.392	1820.12
434.767	1853.79
435.143	1828.93
435.518	1826
435.894	1885.43
436.269	1912.1
436.644	1952.1
437.02	1980.8
437.395	1966.33
437.77	2008.82
438.145	2031.64
438.52	2069.38
438.895	2068.7
439.271	2076.84
439.646	2110.96
440.021	2130.4
440.395	2147.12
440.77	2136.72
441.145	2187.12
441.52	2235.93
441.895	2235.7
442.27	2260.11
442.645	2273.22
443.019	2352.09
443.394	2290.17
443.769	2358.64
444.143	2330.16
444.518	2369.03
444.892	2369.94
445.267	2389.82
445.641	2402.93
446.016	2442.48
446.39	2455.59
446.764	2490.16
447.139	2520.22
447.513	2561.12
447.887	2549.37
448.262	2571.29
448.636	2581.23
449.01	2628.46
449.384	2639.99
449.758	2619.65
450.132	2684.51
450.506	2690.61
450.88	2699.19
451.254	2712.75
451.628	2729.02
452.002	2778.06
452.376	2820.77
452.75	2871.85
453.123	2905.06
453.497	2958.85
453.871	2985.06
454.244	3016.93
454.618	3058.51
454.992	3062.8
455.365	3097.6
455.739	3161.1
456.112	3163.59
456.486	3219.18
456.859	3278.61
457.232	3352.96
457.606	3354.77
457.979	3418.05
458.352	3475.9
458.725	3507.53
459.099	3545.5
459.472	3613.97
459.845	3650.36
460.218	3684.48
460.591	3693.74
460.964	3723.57
461.337	3822.1
461.71	3873.85
462.083	3946.17
462.456	3936.68
462.829	3943
463.201	4068.88
463.574	4094.41
463.947	4168.31
464.32	4269.1
464.692	4237.01
465.065	4294.41
465.438	4347.74
465.81	4374.4
466.183	4460.05
466.555	4514.97
466.928	4551.58
467.3	4565.13
467.672	4638.13
468.045	4820.49
468.417	4815.75
468.789	4892.13
469.161	4950.21
469.534	5045.35
469.906	5138.9
470.278	5171.9
470.65	5235.17
471.022	5324.89
471.394	5409.18
471.766	5457.77
472.138	5509.52
472.51	5622.73
472.882	5720.13
473.253	5780.92
473.625	5841.03
473.997	5977.07
474.369	5996.73
474.74	6147.92
475.112	6247.8
475.484	6370.96
475.855	6469.94
476.227	6485.99
476.598	6731.63
476.97	6772.99
477.341	6901.34
477.713	7002.13
478.084	7027.44
478.455	7250.49
478.827	7336.13
479.198	7493.19
479.569	7530.48
479.94	7759.4
480.311	7823.13
480.682	8061.31
481.053	8255.21
481.424	8295.88
481.795	8421.76
482.166	8578.81
482.537	8635.31
482.908	8875.98
483.279	8970.89
483.65	9051.34
484.021	9323.65
484.391	9346.93
484.762	9456.76
485.133	9528.85
485.503	9738.33
485.874	9911.66
486.244	9958.89
486.615	10246.57
486.985	10455.15
487.356	10567.46
487.726	10682.71
488.097	10932.65
488.467	11026.43
488.837	11197.95
489.207	11330.15
489.578	11460.77
489.948	11609.24
490.318	11806.07
490.688	11725.62
491.058	11989.12
491.428	12176.91
491.798	12279.96
492.168	12578.71
492.538	12677.46
492.908	12795.88
493.278	12919.26
493.648	13028.64
494.017	13269.76
494.387	13369.2
494.757	13517.89
495.126	13699.13
495.496	13673.82
495.866	13733.71
496.235	13990.65
496.605	14081.95
496.974	14184.77
497.344	14359.45
497.713	14407.14
498.082	14487.59
498.452	14740.69
498.821	14798.99
499.19	14896.39
499.559	15108.36
499.928	15196.49
500.298	15221.35
500.667	15304.51
501.036	15348.35
501.405	15584.28
501.774	15570.95
502.143	15840.09
502.512	15903.37
502.88	16110.82
503.249	16028.34
503.618	16200.08
503.987	16356.69
504.356	16415.22
504.724	16539.06
505.093	16556.68
505.462	16715.32
505.83	16932.94
506.199	16957.12
506.567	17138.14
506.936	17135.65
507.304	17437.79
507.672	17426.94
508.041	17584.68
508.409	17716.88
508.777	17747.16
509.145	18084.78
509.514	18017.89
509.882	18160.93
510.25	18341.04
510.618	18521.83
510.986	18537.87
511.354	18707.36
511.722	18885.44
512.09	18955.72
512.458	18971.99
512.826	19177.18
513.193	19266.44
513.561	19368.36
513.929	19596.38
514.297	19699.2
514.664	19795.69
515.032	19878.4
515.4	20137.38
515.767	20129.47
516.135	20410.82
516.502	20262.57
516.869	20649.46
517.237	20835.67
517.604	20656.01
517.972	21033.63
518.339	21131.48
518.706	21191.59
519.073	21429.78
519.44	21545.7
519.808	21670.45
520.175	21785.25
520.542	22109.31
520.909	22141.4
521.276	22044.67
521.643	22415.06
522.009	22488.05
522.376	22745.67
522.743	22828.38
523.11	23189.28
523.477	23326.45
523.843	23505.88
524.21	23818.87
524.577	24004.17
524.943	24107.9
525.31	24222.47
525.676	24387.21
526.043	24659.97
526.409	24864.94
526.776	24938.84
527.142	25113.97
527.508	25228.32
527.874	25436.68
528.241	25457.01
528.607	25668.76
528.973	26025.81
529.339	25933.61
529.705	26110.1
530.071	26456.08
530.437	26496.31
530.803	26886.58
531.169	27020.36
531.535	26920.7
531.901	27094.26
532.267	27165.67
532.632	27448.37
532.998	27644.3
533.364	27806.11
533.73	27927.91
534.095	28101.46
534.461	28212.65
534.826	28413.77
535.192	28426.43
535.557	28580.77
535.923	28524.96
536.288	28686.99
536.653	28926.75
537.019	28789.36
537.384	28947.54
537.749	29319.96
538.114	29406.06
538.479	29293.07
538.845	29509.56
539.21	29488.55
539.575	29672.72
539.94	29911.59
540.305	30111.36
540.67	30023.22
541.034	30178.92
541.399	30231.35
541.764	30285.59
542.129	30415.53
542.494	30490.55
542.858	30523.32
543.223	30652.13
543.587	30789.3
543.952	30802.18
544.316	30882.41
544.681	30877.44
545.045	31070.2
545.41	31144.55
545.774	31187.71
546.138	31348.84
546.503	31530.53
546.867	31497.53
547.231	31908.37
547.595	31871.08
547.959	32014.58
548.324	32050.97
548.688	32264.52
549.052	32434.46
549.416	32521.69
549.779	32522.59
550.143	32431.29
550.507	32644.17
550.871	32698.18
551.235	32658.18
551.599	32808.91
551.962	32854.56
552.326	32942.02
552.689	33013.2
553.053	32890.27
553.417	33121.67
553.78	33488.44
554.143	33321.21
554.507	33617.48
554.87	33719.4
555.234	34122.32
555.597	34100.4
555.96	34138.59
556.323	34299.72
556.686	34577.23
557.05	34742.87
557.413	34819.93
557.776	34846.82
558.139	35037.1
558.502	34948.06
558.865	35030.1
559.228	35147.83
559.59	35098.79
559.953	35190.32
560.316	35471.89
560.679	35512.12
561.041	35698.33
561.404	35864.42
561.767	36071.42
562.129	35923.63
562.492	36367.24
562.854	36427.35
563.217	36531.98
563.579	36818.98
563.941	37005.19
564.304	37231.17
564.666	37589.8
565.028	37414.89
565.39	37575.34
565.753	37883.35
566.115	37906.63
566.477	38225.94
566.839	38223.23
567.201	38396.11
567.563	38182.56
567.925	38454.64
568.287	38493.73
568.648	38494.86
569.01	38633.84
569.372	38756.55
569.734	38560.85
570.095	38894.4
570.457	39086.49
570.819	39115.41
571.18	39095.3
571.542	39467.04
571.903	39661.39
572.265	39742.06
572.626	39862.06
572.987	40076.29
573.349	40338.43
573.71	40488.48
574.071	40671.76
574.432	40857.29
574.794	40994.46
575.155	40802.37
575.516	40664.52
575.877	40861.13
576.238	40815.48
576.599	40838.08
576.96	40963.05
577.32	40884.41
577.681	41064.51
578.042	41065.19
578.403	41149.48
578.763	41100.67
579.124	41203.04
579.485	41395.8
579.845	41545.4
580.206	41402.13
580.566	41586.99
580.927	41642.13
581.287	41966.86
581.648	41846.87
582.008	42102.45
582.368	42134.77
582.728	42239.85
583.089	42247.76
583.449	42176.12
583.809	42255.44
584.169	42382.44
584.529	42334.54
584.889	42589.67
585.249	42359.62
585.609	42184.94
585.969	42264.48
586.329	42078.95
586.688	42110.36
587.048	42142.45
587.408	41993.3
587.768	42011.83
588.127	41947.43
588.487	41835.11
588.846	42304.25
589.206	42067.65
589.565	42016.8
589.925	42390.81
590.284	42302.67
590.643	42396.23
591.003	42564.36
591.362	42566.17
591.721	42669.67
592.08	42785.15
592.44	42904.69
592.799	42901.53
593.158	42816.56
593.517	42951.47
593.876	43013.61
594.235	42916.67
594.593	42884.13
594.952	42943.33
595.311	42754.19
595.67	42701.53
596.029	42896.56
596.387	42869.21
596.746	42845.26
597.104	42449.79
597.463	42654.53
597.822	42750.12
598.18	42521.65
598.538	42693.17
598.897	42850.23
599.255	42588.99
599.613	43172.03
599.972	42872.15
600.33	43165.7
600.688	43003.9
601.046	43386.03
601.404	43568.63
601.762	43547.16
602.12	43725.01
602.478	43836.87
602.836	43879.58
603.194	43681.62
603.552	43706.25
603.91	43640.49
604.268	43769.75
604.625	43459.93
604.983	43588.51
605.341	43228.52
605.698	43451.12
606.056	43618.57
606.413	43497.67
606.771	43615.18
607.128	43531.79
607.485	43221.07
607.843	43289.77
608.2	43610.44
608.557	43729.75
608.914	43686.37
609.272	43943.31
609.629	43911.9
609.986	44230.98
610.343	44003.87
610.7	44405.67
611.057	44421.71
611.414	44632.78
611.771	44694.7
612.127	44931.08
612.484	44608.38
612.841	44964.52
613.198	44784.87
613.554	44813.79
613.911	45163.61
614.267	44935.82
614.624	44976.28
614.98	45040.91
615.337	45078.42
615.693	45093.33
616.05	44845.21
616.406	45096.72
616.762	44760.46
617.118	44891.08
617.475	44745.32
617.831	44764.3
618.187	44961.81
618.543	44831.42
618.899	45048.59
619.255	44880.23
619.611	44999.1
619.967	45236.16
620.323	45220.34
620.678	45243.84
621.034	45320.45
621.39	45448.8
621.746	45391.41
622.101	45879.75
622.457	45543.27
622.812	45671.17
623.168	45734.9
623.523	45744.62
623.879	45802.47
624.234	45649.93
624.589	45851.51
624.945	45783.71
625.3	45738.06
625.655	45572.64
626.01	45557.28
626.365	45498.52
626.72	45457.62
627.075	45308.7
627.43	45359.99
627.785	45054.47
628.14	45101.7
628.495	45157.29
628.85	45102.15
629.205	44983.28
629.559	45192.09
629.914	45063.28
630.269	45091.07
630.623	44961.36
630.978	45107.57
631.332	45343.05
631.687	45446.55
632.041	45259.21
632.396	45404.51
632.75	45250.39
633.104	45292.65
633.459	45250.62
633.813	45281.35
634.167	45437.28
634.521	45367.45
634.875	45261.01
635.229	45224.63
635.583	45172.43
635.937	45092.88
636.291	45027.57
636.645	45080.91
636.999	44729.05
637.352	44768.37
637.706	44503.07
638.06	44675.94
638.413	44609.96
638.767	44322.28
639.121	44121.83
639.474	43874.16
639.828	43930.65
640.181	44012.68
640.534	43906.02
640.888	43854.95
641.241	43737.66
641.594	43793.26
641.947	44026.7
642.301	44021.95
642.654	44067.82
643.007	43982.18
643.36	44030.09
643.713	43950.31
644.066	44143.75
644.419	44176.07
644.771	44051.55
645.124	43978.56
645.477	44014.72
645.83	43627.84
646.182	43128.41
646.535	42923.9
646.888	42777.01
647.24	42410.92
647.593	42644.81
647.945	42435.1
648.298	42275.1
648.65	42193.75
649.002	42001.21
649.355	42219.06
649.707	42239.17
650.059	42254.54
650.411	42829.66
650.763	42980.17
651.115	43199.15
651.467	43035.08
651.819	42953.96
652.171	42749.44
652.523	42786.05
652.875	42706.73
653.227	42754.86
653.578	43005.48
653.93	43009.32
654.282	42803.45
654.633	42632.16
654.985	42802.55
655.337	42784.47
655.688	42876.22
656.039	43073.27
656.391	42744.47
656.742	42932.49
657.094	42981.3
657.445	43269.43
657.796	43127.51
658.147	43100.62
658.498	43028.98
658.849	43171.12
659.2	43010
659.551	42913.05
659.902	43020.17
660.253	42858.82
660.604	42882.77
660.955	42624.7
661.306	42766.84
661.656	42530.92
662.007	42553.97
662.358	42394.65
662.708	42299.06
663.059	42298.38
663.409	41980.65
663.76	42209.34
664.11	42150.81
664.461	42104.71
664.811	42084.83
665.161	42010.25
665.511	42040.08
665.862	42187.65
666.212	42362.11
666.562	42339.28
666.912	42327.98
667.262	42257.48
667.612	42476.45
667.962	42549.9
668.312	42491.82
668.662	42780.17
669.011	42713.96
669.361	42699.05
669.711	42731.59
670.06	42617.69
670.41	42688.43
670.76	42463.57
671.109	42623.79
671.459	42543.57
671.808	42480.3
672.157	42495.21
672.507	42198.72
672.856	42254.99
673.205	42292.5
673.554	42245.73
673.904	41922.57
674.253	42268.55
674.602	41854.78
674.951	41223.38
675.3	41029.49
675.649	41616.36
675.998	41402.81
676.346	41320.78
676.695	41255.24
677.044	41060.22
677.393	41157.39
677.741	41273.77
678.09	41171.4
678.438	41063.16
678.787	40997.4
679.135	41144.29
679.484	40856.16
679.832	41202.14
680.181	41072.65
680.529	41352.64
680.877	41235.13
681.225	41252.53
681.573	41410.49
681.922	41182.93
682.27	41186.09
682.618	41297.73
682.966	41142.03
683.314	41116.72
683.661	41172.53
684.009	40950.39
684.357	40871.98
684.705	40639.67
685.053	40683.28
685.4	40622.94
685.748	40437.19
686.095	40377.75
686.443	40056.86
686.79	40043.52
687.138	39886.24
687.485	39737.99
687.832	39630.65
688.18	39560.15
688.527	39464.56
688.874	39230.89
689.221	39061.85
689.568	39100.05
689.915	38835.87
690.262	38858.7
690.609	38695.99
690.956	38639.49
691.303	38606.27
691.65	38610.34
691.997	38606.5
692.344	38313.4
692.69	38238.37
693.037	38280.41
693.383	38067.98
693.73	38294.87
694.077	38154.99
694.423	38317.02
694.769	38133.29
695.116	37966.52
695.462	38076.8
695.808	37866.63
696.155	38095.55
696.501	37718.39
696.847	37793.87
697.193	37591.84
697.539	37679.29
697.885	37366.31
698.231	37182.13
698.577	37131.74
698.923	37022.36
699.269	36851.97
699.614	36421.47
699.96	36532.66
700.306	36354.13
700.651	36098.54
700.997	35793.69
701.342	35807.7
701.688	35786.23
702.033	35545.11
702.379	35487.48
702.724	35436.19
703.069	35397.54
703.415	34859.48
703.76	34972.7
704.105	34957.56
704.45	34825.13
704.795	34668.98
705.14	34615.64
705.485	34595.53
705.83	34439.83
706.175	34520.28
706.52	34386.27
706.865	34416.78
707.209	34522.09
707.554	34412.71
707.899	34545.59
708.243	34318.7
708.588	34381.3
708.932	34222.66
709.277	34226.28
709.621	34292.71
709.966	34120.74
710.31	34133.4
710.654	33927.75
710.998	33935.89
711.342	34045.26
711.687	33852.27
712.031	33876.91
712.375	33459.29
712.719	33586.07
713.063	33430.82
713.407	33468.78
713.75	33222.01
714.094	33128
714.438	32931.39
714.782	32932.3
715.125	32801.45
715.469	32757.39
715.812	32516.04
716.156	32270.85
716.499	32185.42
716.843	32163.28
717.186	31933.45
717.53	31964.87
717.873	31902.49
718.216	31858.65
718.559	31822.72
718.902	31609.39
719.246	31826.34
719.589	31738.88
719.932	31730.75
720.275	31773.91
720.617	31777.07
720.96	31923.06
721.303	31834.25
721.646	31866.56
721.989	31840.35
722.331	31944.75
722.674	31865.43
723.016	31955.15
723.359	31905.88
723.701	31912.66
724.044	31598.32
724.386	31503.86
724.729	31821.14
725.071	31800.12
725.413	31701.14
725.755	31823.4
726.097	31577.98
726.439	31489.85
726.782	31379.57
727.124	31415.73
727.465	31313.58
727.807	31211.21
728.149	30980.94
728.491	31008.51
728.833	31175.73
729.175	30898.91
729.516	30763.77
729.858	30819.13
730.199	30784.33
730.541	30755.63
730.882	30670.21
731.224	30793.37
731.565	30384.79
731.906	30468.41
732.248	30674.96
732.589	30332.37
732.93	30398.35
733.271	30479.48
733.612	30382.99
733.953	30508.63
734.294	30408.52
734.635	30412.14
734.976	30531.91
735.317	30334.63
735.658	30436.09
735.999	30569.42
736.339	30509.08
736.68	30690.77
737.021	30446.71
737.361	30628.63
737.702	30685.8
738.042	30651.68
738.383	30556.99
738.723	30764.22
739.063	30622.53
739.404	30795.63
739.744	30707.27
740.084	30585.24
740.424	30806.7
740.764	30827.27
741.104	30795.4
741.444	30576.65
741.784	30568.52
742.124	30713.37
742.464	30536.2
742.804	30606.71
743.143	30445.13
743.483	30461.4
743.823	30378.24
744.162	30408.75
744.502	30402.42
744.841	30233.84
745.181	30287.4
745.52	30038.14
745.86	30103.67
746.199	30106.84
746.538	30133.95
746.877	30115.65
747.216	30108.87
747.556	30089.21
747.895	30173.73
748.234	30001.53
748.573	30034.3
748.911	30148.19
749.25	30199.94
749.589	30153.84
749.928	30254.18
750.267	30351.35
750.605	30295.31
750.944	30137.57
751.283	30262.76
751.621	30421.4
751.96	30357.22
752.298	30320.16
752.636	30597.22
752.975	30465.47
753.313	30427.96
753.651	30749.98
753.989	30490.78
754.327	30540.27
754.666	30471.12
755.004	30671.57
755.342	30707.05
755.679	30700.27
756.017	30745.46
756.355	30629.76
756.693	30578.46
757.031	30714.28
757.368	30502.76
757.706	30545.47
758.044	30380.95
758.381	30614.17
758.719	30487.16
759.056	30473.15
759.394	30487.62
759.731	30360.16
760.068	30239.49
760.405	30162.88
760.743	30011.92
761.08	30272.48
761.417	30099.83
761.754	29988.87
762.091	30144.57
762.428	30012.6
762.765	29731.48
763.102	30098.02
763.438	29879.04
763.775	29683.57
764.112	29812.61
764.449	29763.12
764.785	29708.88
765.122	29638.37
765.458	29470.02
765.795	29614.65
766.131	29638.83
766.467	29619.39
766.804	29572.84
767.14	29491.03
767.476	29506.85
767.812	29406.74
768.148	29547.75
768.485	29316.57
768.821	29372.84
769.157	29428.21
769.492	29380.3
769.828	29305.73
770.164	29064.15
770.5	29001.55
770.836	29241.77
771.171	29010.14
771.507	28957.94
771.842	28857.6
772.178	28889.47
772.513	28766.76
772.849	28613.54
773.184	28482.47
773.519	28488.57
773.855	28317.96
774.19	28169.71
774.525	28097.62
774.86	28138.3
775.195	28048.13
775.53	28084.29
775.865	27786.22
776.2	27753.23
776.535	27594.36
776.87	27485.21
777.205	27380.58
777.539	27139.68
777.874	27211.32
778.209	27028.5
778.543	26941.72
778.878	26694.95
779.212	26793.25
779.547	26600.26
779.881	26658.56
780.215	26539.7
780.55	26471.22
780.884	26370.89
781.218	26153.72
781.552	26078.69
781.886	26097.68
782.22	25892.26
782.554	25831.47
782.888	25611.59
783.222	25643.9
783.556	25526.16
783.889	25502.89
784.223	25375.89
784.557	25266.28
784.89	25256.57
785.224	25148.1
785.557	25058.15
785.891	25050.92
786.224	25170.92
786.558	25156.91
786.891	24954.43
787.224	24780.42
787.557	24829.91
787.891	24858.16
788.224	24754.66
788.557	24680.31
788.89	24628.11
789.223	24563.48
789.556	24504.27
789.888	24366.65
790.221	24447.32
790.554	24175.69
790.887	24241.23
791.219	24158.52
791.552	23958.97
791.884	23889.82
792.217	23751.52
792.549	23593.33
792.882	23499.55
793.214	23587.91
793.546	23544.3
793.879	23331.42
794.211	23283.51
794.543	23290.97
794.875	23104.53
795.207	23135.95
795.539	22914.48
795.871	22907.7
796.203	22573.7
796.535	22501.84
796.867	22413.93
797.198	22335.74
797.53	22410.99
797.862	22278.57
798.193	22299.13
798.525	22072.02
798.856	22135.97
799.188	21952.93
799.519	22010.78
799.85	21735.3
800.182	21872.93
800.513	21785.02
800.844	21624.35
801.175	21788.64
801.506	21742.31
801.837	21707.06
802.168	21643.1
802.499	21492.37
802.83	21445.59
803.161	21369.89
803.491	21368.31
803.822	21286.5
804.153	21182.32
804.483	21047.19
804.814	21145.49
805.145	21050.8
805.475	21115.66
805.805	20941.2
806.136	21139.84
806.466	21054.19
806.796	21015.1
807.126	20755.67
807.457	20849
807.787	20848.32
808.117	20723.58
808.447	20685.16
808.777	20627.31
809.107	20566.52
809.436	20445.85
809.766	20443.13
810.096	20444.72
810.426	20278.39
810.755	20277.94
811.085	20230.26
811.414	20217.15
811.744	19917.27
812.073	19966.76
812.403	19859.65
812.732	19808.35
813.061	19666.21
813.39	19602.93
813.719	19522.03
814.049	19638.86
814.378	19447
814.707	19444.29
815.036	19386.44
815.365	19208.82
815.693	19096.05
816.022	19168.14
816.351	19111.42
816.68	18997.52
817.008	19098.76
817.337	18890.86
817.665	18867.36
817.994	18909.84
818.322	18820.8
818.651	18705.1
818.979	18714.37
819.307	18717.08
819.636	18721.6
819.964	18505.11
820.292	18680.02
820.62	18658.32
820.948	18589.85
821.276	18762.5
821.604	18638.44
821.932	18707.14
822.259	18672.56
822.587	18651.09
822.915	18630.98
823.243	18766.79
823.57	18638.21
823.898	18791.2
824.225	18689.73
824.553	18650.64
824.88	18724.76
825.207	18852.67
825.535	18780.35
825.862	18754.14
826.189	18645.44
826.516	18800.01
826.843	18834.36
827.17	18817.41
827.497	18865.78
827.824	18852.22
828.151	18821.71
828.478	18891.31
828.805	18836.4
829.131	18687.02
829.458	18770.41
829.785	18713.46
830.111	18787.36
830.438	18720.92
830.764	18542.39
831.09	18680.24
831.417	18528.38
831.743	18659.45
832.069	18764.08
832.395	18577.65
832.722	18553.92
833.048	18510.98
833.374	18475.95
833.7	18282.97
834.026	18305.11
834.351	18237.77
834.677	18317.31
835.003	18335.39
835.329	18352.12
835.654	18264.89
835.98	18126.36
836.306	18191.44
836.631	17991.9
836.956	18148.96
837.282	18092.01
837.607	17990.09
837.932	17887.5
838.258	17915.74
838.583	17907.61
838.908	17797.78
839.233	17881.17
839.558	17845.24
839.883	17798.46
840.208	17694.73
840.533	17780.61
840.858	17791.23
841.182	17771.34
841.507	17782.41
841.832	17645.47
842.156	17682.08
842.481	17737.22
842.805	17719.59
843.13	17744.22
843.454	17594.62
843.778	17521.63
844.103	17484.57
844.427	17549.65
844.751	17609.76
845.075	17471.24
845.399	17397.34
845.723	17341.07
846.047	17502.42
846.371	17254.74
846.695	17226.04
847.019	17073.96
847.343	17087.52
847.666	16942.66
847.99	16920.52
848.313	16932.04
848.637	16775.89
848.96	16678.04
849.284	16733.63
849.607	16564.82
849.931	16497.48
850.254	16326.86
850.577	16256.35
850.9	16084.38
851.223	16055.23
851.546	16071.05
851.869	15925.74
852.192	16027.21
852.515	15751.28
852.838	15731.62
853.161	15624.28
853.483	15572.53
853.806	15488.91
854.129	15540.21
854.451	15507.22
854.774	15420.44
855.096	15301.35
855.419	15204.85
855.741	15139.32
856.063	15103.84
856.385	15038.53
856.708	14991.98
857.03	14969.61
857.352	14888.48
857.674	14973.22
857.996	14894.81
858.318	14777.3
858.64	14797.63
858.961	14704.98
859.283	14689.61
859.605	14722.38
859.926	14702.95
860.248	14633.34
860.57	14610.29
860.891	14629.05
861.212	14603.29
861.534	14524.42
861.855	14532.56
862.176	14521.71
862.498	14511.54
862.819	14441.03
863.14	14443.74
863.461	14446.91
863.782	14449.17
864.103	14487.59
864.424	14508.38
864.745	14507.7
865.065	14445.78
865.386	14365.55
865.707	14324.65
866.027	14372.79
866.348	14311.32
866.668	14314.26
866.989	14241.49
867.309	14152.45
867.63	14235.39
867.95	14206.69
868.27	14038.56
868.59	14156.75
868.91	14152.45
869.23	14063.42
869.55	14031.33
869.87	14042.63
870.19	14010.54
870.51	14104.77
870.83	14000.37
871.15	13906.36
871.469	13862.97
871.789	13957.66
872.109	13776.87
872.428	13731.45
872.748	13734.16
873.067	13736.19
873.386	13677.66
873.706	13640.15
874.025	13538.68
874.344	13527.84
874.663	13627.27
874.982	13443.54
875.301	13408.29
875.62	13391.57
875.939	13354.06
876.258	13310.21
876.577	13279.26
876.896	13280.39
877.214	13235.64
877.533	13279.71
877.852	13170.33
878.17	13187.51
878.489	13183.21
878.807	13109.32
879.125	13096.66
879.444	13185.92
879.762	13083.1
880.08	13019.15
880.398	12947.29
880.716	12990.68
881.034	12993.39
881.352	13009.88
881.67	12865.25
881.988	12972.82
882.306	12900.96
882.624	12874.75
882.941	12848.31
883.259	12750.68
883.577	12893.73
883.894	12853.73
884.212	12816.22
884.529	12781.87
884.846	12768.08
885.164	12787.97
885.481	12806.5
885.798	12848.76
886.115	12699.16
886.432	12624.13
886.75	12676.11
887.067	12623.45
887.383	12627.75
887.7	12641.98
888.017	12535.09
888.334	12610.35
888.651	12559.27
888.967	12515.43
889.284	12456.45
889.6	12478.15
889.917	12364.48
890.233	12325.61
890.55	12279.73
890.866	12255.78
891.182	12256.68
891.498	12204.93
891.815	12199.51
892.131	12114.54
892.447	12093.75
892.763	12020.08
893.079	11990.7
893.395	11874.55
893.71	11829.58
894.026	11879.97
894.342	11764.04
894.657	11741.22
894.973	11724.95
895.289	11649.47
895.604	11646.98
895.92	11493.09
896.235	11520.21
896.55	11464.16
896.865	11511.39
897.181	11357.95
897.496	11340.55
897.811	11232.76
898.126	11203.38
898.441	11179.88
898.756	11111.18
899.071	11065.53
899.386	11135.81
899.7	11007
900.015	10946.89
900.33	10882.71
900.644	10897.4
900.959	10927
901.273	10803.39
901.588	10829.15
901.902	10760.68
902.216	10758.64
902.531	10697.18
902.845	10637.29
903.159	10577.18
903.473	10579.67
903.787	10510.06
904.101	10473.68
904.415	10468.03
904.729	10384.87
905.042	10354.81
905.356	10359.56
905.67	10332.21
905.984	10292.89
906.297	10313.01
906.611	10297.19
906.924	10337.86
907.237	10176.74
907.551	10182.39
907.864	10154.14
908.177	10150.75
908.491	10124.76
908.804	10064.2
909.117	10074.14
909.43	9990.08
909.743	9961.15
910.056	9969.51
910.368	9903.3
910.681	9841.15
910.994	9788.95
911.307	9791.21
911.619	9668.73
911.932	9774.49
912.244	9663.31
912.557	9621.95
912.869	9644.32
913.181	9566.58
913.494	9535.17
913.806	9442.07
914.118	9467.38
914.43	9370.43
914.742	9378.34
915.054	9376.99
915.366	9311.9
915.678	9246.59
915.99	9165.47
916.302	9129.53
916.613	9109.65
916.925	9070.1
917.236	9013.83
917.548	8895.64
917.859	8924.12
918.171	8849.32
918.482	8829.65
918.794	8767.51
919.105	8745.82
919.416	8638.02
919.727	8672.14
920.038	8641.41
920.349	8526.16
920.66	8474.86
920.971	8476.67
921.282	8487.52
921.593	8398.25
921.903	8328.2
922.214	8315.32
922.525	8325.26
922.835	8291.59
923.146	8198.71
923.456	8156
923.767	8109
924.077	8156
924.387	8124.14
924.697	8006.4
925.008	8016.34
925.318	7979.28
925.628	7949.68
925.938	7920.53
926.248	7854.09
926.558	7860.41
926.867	7802.56
927.177	7866.97
927.487	7737.25
927.796	7696.58
928.106	7702.9
928.416	7662.68
928.725	7597.14
929.034	7645.28
929.344	7628.33
929.653	7598.73
929.962	7545.85
930.271	7481.89
930.581	7457.71
930.89	7446.64
931.199	7379.75
931.508	7418.84
931.817	7394.89
932.125	7370.26
932.434	7327.32
932.743	7297.27
933.051	7277.83
933.36	7270.83
933.669	7213.2
933.977	7191.28
934.286	7206.19
934.594	7148.8
934.902	7082.13
935.21	7111.06
935.519	7023.83
935.827	7076.48
936.135	7024.28
936.443	6934.11
936.751	6930.72
937.059	6959.65
937.367	6882.36
937.674	6886.2
937.982	6867.45
938.29	6822.7
938.597	6811.18
938.905	6679.88
939.213	6668.36
939.52	6664.06
939.827	6627.68
940.135	6634.68
940.442	6608.02
940.749	6508.36
941.056	6524.86
941.363	6455.93
941.67	6439.21
941.977	6364.18
942.284	6300.91
942.591	6310.4
942.898	6237.86
943.205	6264.3
943.511	6232.21
943.818	6184.98
944.125	6090.74
944.431	6127.8
944.738	6095.94
945.044	6131.19
945.35	6026.79
945.657	6005.1
945.963	6004.87
946.269	5981.82
946.575	5935.27
946.881	5930.3
947.187	5959.9
947.493	5919.22
947.799	5849.62
948.105	5780.24
948.41	5792.22
948.716	5766.23
949.022	5739.79
949.327	5757.42
949.633	5664.54
949.938	5595.16
950.244	5639.91
950.549	5625.9
950.854	5577.54
951.16	5540.48
951.465	5574.83
951.77	5524.43
952.075	5515.84
952.38	5436.98
952.685	5478.78
952.99	5423.64
953.294	5439.46
953.599	5374.6
953.904	5354.49
954.209	5375.73
954.513	5316.98
954.818	5345.45
955.122	5298.67
955.426	5309.3
955.731	5279.92
956.035	5269.3
956.339	5277.88
956.643	5262.97
956.948	5209.19
957.252	5188.62
957.556	5203.76
957.86	5154.5
958.163	5171.22
958.467	5187.72
958.771	5058.91
959.075	5107.04
959.378	5056.87
959.682	5078.12
959.985	5003.77
960.289	5003.77
960.592	4982.3
960.896	4914.05
961.199	4923.77
961.502	4913.15
961.805	4869.53
962.108	4836.77
962.411	4863.43
962.714	4872.47
963.017	4769.65
963.32	4767.39
963.623	4775.3
963.926	4798.12
964.228	4702.08
964.531	4699.37
964.833	4677
965.136	4585.25
965.438	4597.45
965.741	4590.44
966.043	4559.48
966.345	4579.82
966.648	4533.72
966.95	4530.11
967.252	4485.14
967.554	4484.01
967.856	4425.02
968.158	4405.14
968.46	4416.21
968.761	4334.41
969.063	4398.81
969.365	4300.51
969.666	4310
969.968	4264.35
970.269	4222.09
970.571	4251.02
970.872	4216.44
971.174	4223.45
971.475	4194.07
971.776	4209.66
972.077	4113.85
972.378	4117.91
972.679	4143
972.98	4130.8
973.281	4062.77
973.582	4075.2
973.883	4027.97
974.183	3982.1
974.484	3968.77
974.785	3975.32
975.085	3936.9
975.386	3966.96
975.686	3901.65
975.986	3884.02
976.287	3904.81
976.587	3895.1
976.887	3853.51
977.187	3845.38
977.487	3877.69
977.787	3801.31
978.087	3800.86
978.387	3757.47
978.687	3795.66
978.987	3745.04
979.286	3768.54
979.586	3749.56
979.885	3694.2
980.185	3695.1
980.484	3707.53
980.784	3655.1
981.083	3651.49
981.382	3658.72
981.682	3604.26
981.981	3613.29
982.28	3608.78
982.579	3574.43
982.878	3606.29
983.177	3576.91
983.475	3562.9
983.774	3545.73
984.073	3562.45
984.372	3491.49
984.67	3547.53
984.969	3491.72
985.267	3492.39
985.566	3496.46
985.864	3463.92
986.162	3473.64
986.461	3436.35
986.759	3405.62
987.057	3374.66
987.355	3367.2
987.653	3381.21
987.951	3339.4
988.249	3340.53
988.547	3314.32
988.844	3314.77
989.142	3275.22
989.44	3240.2
989.737	3220.76
990.035	3219.41
990.332	3225.06
990.63	3209.69
990.927	3182.12
991.224	3137.83
991.521	3156.13
991.819	3124.27
992.116	3090.82
992.413	3053.54
992.71	3081.11
993.006	3041.56
993.303	3035.23
993.6	3025.29
993.897	3021.22
994.193	3003.14
994.49	2994.55
994.787	2975.57
995.083	2954.33
995.379	2931.5
995.676	2921.56
995.972	2926.76
996.268	2849.02
996.565	2887.21
996.861	2879.53
997.157	2836.59
997.453	2827.1
997.749	2805.18
998.044	2758.85
998.34	2741.91
998.636	2785.29
998.932	2722.47
999.227	2738.06
999.523	2713.43
999.818	2705.52
1000.114	2661.68
1000.409	2667.33
1000.704	2643.38
1001	2623.49
1001.295	2592.76
1001.59	2600.89
1001.885	2618.29
1002.18	2606.99
1002.475	2582.36
1002.77	2578.07
1003.065	2502.36
1003.359	2556.83
1003.654	2542.36
1003.949	2507.79
1004.243	2502.14
1004.538	2467.11
1004.832	2468.69
1005.127	2458.97
1005.421	2441.57
1005.715	2435.25
1006.009	2446.77
1006.304	2366.1
1006.598	2387.11
1006.892	2385.3
1007.186	2376.94
1007.48	2347.11
1007.773	2330.62
1008.067	2350.05
1008.361	2309.15
1008.655	2289.71
1008.948	2296.72
1009.242	2268.25
1009.535	2266.66
1009.829	2275.25
1010.122	2295.82
1010.415	2253.78
1010.708	2219.89
1011.001	2209.26
1011.295	2209.26
1011.588	2169.94
1011.881	2150.96
1012.173	2154.35
1012.466	2169.26
1012.759	2153.9
1013.052	2129.72
1013.344	2122.26
1013.637	2094.69
1013.93	2095.37
1014.222	2118.19
1014.514	2051.53
1014.807	2076.16
1015.099	2085.43
1015.391	2066.22
1015.683	2010.85
1015.976	2021.47
1016.268	2014.01
1016.56	1963.17
1016.851	1988.25
1017.143	1949.84
1017.435	1970.17
1017.727	1969.72
1018.018	1904.64
1018.31	1922.49
1018.602	1911.42
1018.893	1879.33
1019.185	1891.98
1019.476	1884.75
1019.767	1852.44
1020.058	1846.11
1020.35	1827.13
1020.641	1794.13
1020.932	1795.26
1021.223	1780.35
1021.514	1746.45
1021.804	1731.08
1022.095	1756.39
1022.386	1736.51
1022.677	1714.81
1022.967	1731.08
1023.258	1703.51
1023.548	1698.77
1023.839	1684.98
1024.129	1654.48
1024.419	1640.47
1024.709	1614.03
1025	1625.55
1025.29	1610.64
1025.58	1610.86
1025.87	1622.39
1026.16	1594.59
1026.449	1577.42
1026.739	1558.89
1027.029	1540.58
1027.319	1542.61
1027.608	1529.06
1027.898	1518.21
1028.187	1517.08
1028.477	1522.5
1028.766	1501.26
1029.055	1478.66
1029.344	1490.41
1029.634	1437.53
1029.923	1449.51
1030.212	1443.41
1030.501	1426.46
1030.79	1404.99
1031.078	1393.69
1031.367	1409.96
1031.656	1362.51
1031.945	1394.6
1032.233	1355.28
1032.522	1359.12
1032.81	1343.52
1033.099	1328.38
1033.387	1329.74
1033.675	1334.03
1033.963	1323.19
1034.251	1303.98
1034.54	1283.64
1034.828	1282.28
1035.116	1279.12
1035.403	1281.15
1035.691	1295.62
1035.979	1260.81
1036.267	1273.24
1036.554	1243.19
1036.842	1246.13
1037.129	1238.44
1037.417	1247.26
1037.704	1233.92
1037.992	1217.88
1038.279	1214.71
1038.566	1197.99
1038.853	1197.99
1039.14	1197.99
