Data from blue_chair_FLMS001491_00042.txt Node
Date: Wed Feb 08 10:30:53 GMT 2017
User: dcchb
Spectrometer: FLMS00149
Trigger mode: 0
Integration Time (sec): 2.000000E-2
Scans to average: 10
Electric dark correction enabled: true
Nonlinearity correction enabled: false
Boxcar width: 0
XAxis mode: Wavelengths
Number of Pixels in Spectrum: 2048
>>>>>Begin Spectral Data<<<<<
341.393	-1.1
341.776	-1.1
342.16	-1.1
342.543	-58.73
342.927	-86.07
343.31	-64.6
343.693	-66.64
344.077	-59.86
344.46	-60.99
344.843	-19.86
345.226	-54.66
345.61	-53.08
345.993	-11.04
346.376	-10.37
346.759	3.42
347.142	13.59
347.525	39.35
347.908	53.36
348.291	83.19
348.674	93.13
349.057	115.05
349.44	123.41
349.823	134.49
350.206	137.43
350.588	169.29
350.971	182.85
351.354	203.86
351.737	211.32
352.119	226.24
352.502	248.61
352.884	250.42
353.267	256.97
353.65	263.3
354.032	273.24
354.414	289.06
354.797	301.04
355.179	299.23
355.562	299.91
355.944	307.36
356.326	322.51
356.709	305.1
357.091	309.17
357.473	323.86
357.855	307.82
358.238	322.51
358.62	323.86
359.002	315.27
359.384	314.14
359.766	308.27
360.148	299.68
360.53	311.88
360.912	282.96
361.294	299.46
361.676	301.94
362.057	320.7
362.439	291.77
362.821	310.08
363.203	306.23
363.584	322.05
363.966	275.73
364.348	291.09
364.729	304.43
365.111	284.09
365.493	302.39
365.874	292
366.256	310.53
366.637	292.22
367.019	287.93
367.4	280.92
367.781	299.46
368.163	284.99
368.544	286.8
368.925	284.31
369.306	284.77
369.688	283.64
370.069	263.98
370.45	282.28
370.831	276.63
371.212	304.65
371.593	285.67
371.974	301.94
372.355	288.38
372.736	280.47
373.117	295.16
373.498	293.58
373.879	301.04
374.26	284.54
374.641	293.58
375.021	305.78
375.402	300.13
375.783	314.82
376.163	294.26
376.544	275.5
376.925	290.19
377.305	307.14
377.686	291.77
378.066	301.04
378.447	317.31
378.827	301.72
379.208	297.65
379.588	285.67
379.968	290.87
380.349	297.42
380.729	286.12
381.109	330.64
381.489	325.9
381.87	299.46
382.25	315.27
382.63	329.29
383.01	316.4
383.39	308.95
383.77	286.8
384.15	300.59
384.53	318.89
384.91	303.07
385.29	323.86
385.67	320.7
386.049	331.77
386.429	319.57
386.809	329.29
387.189	313.24
387.568	318.89
387.948	319.57
388.328	309.62
388.707	308.04
389.087	339.45
389.466	320.02
389.846	336.74
390.225	319.79
390.605	322.73
390.984	325.67
391.363	317.53
391.743	305.1
392.122	341.71
392.501	315.5
392.881	320.02
393.26	349.85
393.639	333.8
394.018	337.65
394.397	346.01
394.776	331.54
395.155	344.43
395.534	349.4
395.913	361.83
396.292	360.02
396.671	343.97
397.05	357.98
397.429	345.33
397.808	348.49
398.186	345.56
398.565	334.71
398.944	349.4
399.323	360.92
399.701	340.81
400.08	367.48
400.458	341.04
400.837	376.74
401.215	367.02
401.594	393.24
401.972	358.21
402.351	370.19
402.729	364.99
403.107	365.22
403.486	376.52
403.864	381.26
404.242	362.05
404.62	399.79
404.999	382.39
405.377	379.45
405.755	384.42
406.133	413.12
406.511	391.66
406.889	398.44
407.267	406.8
407.645	385.1
408.023	404.31
408.401	387.81
408.779	409.96
409.156	397.53
409.534	417.19
409.912	416.51
410.29	430.75
410.667	404.09
411.045	434.59
411.422	430.98
411.8	430.75
412.178	435.72
412.555	455.16
412.933	447.25
413.31	454.48
413.687	453.12
414.065	449.28
414.442	472.78
414.819	456.06
415.197	458.77
415.574	462.39
415.951	471.2
416.328	460.13
416.705	495.83
417.082	462.84
417.46	475.5
417.837	477.76
418.214	490.18
418.591	494.7
418.967	500.35
419.344	475.5
419.721	481.15
420.098	499.45
420.475	489.28
420.852	489.73
421.228	493.8
421.605	523.18
421.982	501.94
422.358	517.75
422.735	503.29
423.111	539
423.488	524.31
423.864	542.84
424.241	561.6
424.617	556.85
424.994	529.28
425.37	557.98
425.746	575.38
426.123	572.67
426.499	562.5
426.875	578.77
427.251	589.39
427.627	596.85
428.003	575.38
428.379	606.11
428.756	617.64
429.132	606.11
429.507	602.27
429.883	618.77
430.259	626
430.635	609.28
431.011	629.16
431.387	645.44
431.763	651.99
432.138	652.44
432.514	672.55
432.89	657.64
433.265	683.4
433.641	698.77
434.016	691.54
434.392	712.33
434.767	719.56
435.143	739.22
435.518	733.12
435.894	755.71
436.269	756.84
436.644	761.59
437.02	760.23
437.395	762.04
437.77	784.87
438.145	813.79
438.52	827.58
438.895	790.74
439.271	859.21
439.646	839.78
440.021	854.92
440.395	836.39
440.77	878.65
441.145	876.16
441.52	905.09
441.895	882.72
442.27	923.85
442.645	895.82
443.019	922.49
443.394	933.11
443.769	922.49
444.143	945.54
444.518	948.25
444.892	972.21
445.267	969.49
445.641	957.07
446.016	989.15
446.39	972.43
446.764	992.54
447.139	1013.33
447.513	985.54
447.887	1007.91
448.262	1007.91
448.636	1011.75
449.01	1027.8
449.384	1029.61
449.758	1033.22
450.132	1045.42
450.506	1059.21
450.88	1073.22
451.254	1083.39
451.628	1101.24
452.002	1073.45
452.376	1109.6
452.75	1108.47
453.123	1113.67
453.497	1129.94
453.871	1135.14
454.244	1160.9
454.618	1157.74
454.992	1169.94
455.365	1170.84
455.739	1200
456.112	1184.18
456.486	1241.58
456.859	1244.74
457.232	1208.58
457.606	1237.06
457.979	1235.02
458.352	1280.45
458.725	1263.05
459.099	1306.89
459.472	1321.58
459.845	1310.28
460.218	1320.9
460.591	1333.78
460.964	1348.24
461.337	1370.39
461.71	1372.2
462.083	1423.27
462.456	1432.53
462.829	1397.28
463.201	1412.87
463.574	1473.44
463.947	1460.1
464.32	1495.81
464.692	1499.42
465.065	1502.36
465.438	1517.28
465.81	1527.22
466.183	1560.44
466.555	1553.43
466.928	1578.07
467.3	1565.64
467.672	1604.05
468.045	1658.06
468.417	1596.82
468.789	1664.17
469.161	1664.17
469.534	1697.84
469.906	1707.55
470.278	1703.03
470.65	1739.42
471.022	1743.49
471.394	1787.55
471.766	1788.68
472.138	1811.05
472.51	1851.05
472.882	1846.99
473.253	1858.28
473.625	1900.32
473.997	1941.9
474.369	1933.31
474.74	1944.38
475.112	1969.47
475.484	1979.41
475.855	2010.37
476.227	2042.01
476.598	2088.11
476.97	2085.85
477.341	2127.66
477.713	2174.21
478.084	2198.39
478.455	2207.88
478.827	2211.04
479.198	2263.7
479.569	2251.72
479.94	2293.3
480.311	2334.66
480.682	2360.87
481.053	2411.26
481.424	2423.69
481.795	2435.67
482.166	2458.72
482.537	2490.81
482.908	2513.63
483.279	2550.92
483.65	2575.78
484.021	2634.54
484.391	2630.69
484.762	2630.24
485.133	2646.74
485.503	2669.11
485.874	2720.18
486.244	2734.87
486.615	2799.28
486.985	2803.34
487.356	2831.82
487.726	2851.03
488.097	2862.33
488.467	2893.96
488.837	2889.22
489.207	2960.4
489.578	2954.07
489.948	2972.38
490.318	3006.5
490.688	3028.42
491.058	3042.43
491.428	3103.68
491.798	3106.84
492.168	3140.51
492.538	3153.17
492.908	3126.05
493.278	3164.69
493.648	3162.88
494.017	3223.9
494.387	3210.79
494.757	3237.91
495.126	3233.39
495.496	3250.34
495.866	3252.15
496.235	3302.31
496.605	3256.21
496.974	3265.71
497.344	3266.38
497.713	3332.37
498.082	3306.61
498.452	3332.82
498.821	3345.25
499.19	3321.97
499.559	3326.95
499.928	3323.56
500.298	3375.76
500.667	3368.75
501.036	3392.71
501.405	3381.86
501.774	3372.82
502.143	3357.45
502.512	3382.99
502.88	3401.07
503.249	3398.36
503.618	3366.04
503.987	3381.86
504.356	3440.62
504.724	3442.65
505.093	3383.89
505.462	3391.8
505.83	3390
506.199	3420.73
506.567	3453.5
506.936	3400.39
507.304	3441.75
507.672	3450.33
508.041	3394.29
508.409	3412.82
508.777	3418.92
509.145	3425.47
509.514	3436.1
509.882	3436.77
510.25	3429.54
510.618	3444.68
510.986	3438.36
511.354	3443.33
511.722	3407.62
512.09	3369.66
512.458	3438.36
512.826	3451.01
513.193	3466.83
513.561	3451.24
513.929	3432.48
514.297	3433.84
514.664	3434.74
515.032	3412.37
515.4	3399.94
515.767	3398.36
516.135	3373.27
516.502	3362.2
516.869	3399.03
517.237	3418.24
517.604	3371.92
517.972	3391.8
518.339	3391.58
518.706	3345.03
519.073	3341.18
519.44	3363.78
519.808	3405.59
520.175	3391.13
520.542	3388.41
520.909	3353.16
521.276	3332.37
521.643	3332.6
522.009	3329.66
522.376	3337.34
522.743	3360.62
523.11	3360.17
523.477	3399.71
523.843	3335.31
524.21	3336.21
524.577	3325.36
524.943	3359.26
525.31	3351.13
525.676	3363.78
526.043	3340.05
526.409	3369.43
526.776	3323.56
527.142	3315.65
527.508	3357
527.874	3342.31
528.241	3281.98
528.607	3338.92
528.973	3309.32
529.339	3277.68
529.705	3303.22
530.071	3314.29
530.437	3310.22
530.803	3264.12
531.169	3327.17
531.535	3251.02
531.901	3268.19
532.267	3284.91
532.632	3275.65
532.998	3263.22
533.364	3258.7
533.73	3214.41
534.095	3258.02
534.461	3239.94
534.826	3234.75
535.192	3194.52
535.557	3202.43
535.923	3176.22
536.288	3220.96
536.653	3213.05
537.019	3152.94
537.384	3160.85
537.749	3191.81
538.114	3116.78
538.479	3109.55
538.845	3127.4
539.21	3114.3
539.575	3097.35
539.94	3100.06
540.305	3104.81
540.67	3070.91
541.034	3064.81
541.399	3050.8
541.764	3067.29
542.129	3060.51
542.494	3073.62
542.858	3037.24
543.223	3004.92
543.587	3065.71
543.952	2972.38
544.316	3018.03
544.681	2944.36
545.045	2976.9
545.41	2945.94
545.774	2934.64
546.138	2903
546.503	2884.7
546.867	2924.02
547.231	2904.13
547.595	2912.04
547.959	2919.05
548.324	2813.06
548.688	2858.94
549.052	2878.6
549.416	2828.2
549.779	2816.23
550.143	2813.74
550.507	2780.75
550.871	2818.26
551.235	2790.01
551.599	2785.72
551.962	2788.43
552.326	2794.08
552.689	2773.97
553.053	2727.64
553.417	2731.93
553.78	2743.68
554.143	2730.13
554.507	2698.49
554.87	2724.7
555.234	2744.14
555.597	2696.68
555.96	2708.66
556.323	2683.57
556.686	2695.78
557.05	2699.84
557.413	2658.26
557.776	2671.82
558.139	2693.06
558.502	2665.72
558.865	2664.59
559.228	2629.79
559.59	2661.2
559.953	2660.3
560.316	2655.33
560.679	2639.96
561.041	2662.33
561.404	2654.65
561.767	2644.93
562.129	2626.63
562.492	2647.19
562.854	2677.02
563.217	2658.04
563.579	2660.3
563.941	2640.64
564.304	2646.74
564.666	2686.06
565.028	2651.94
565.39	2643.12
565.753	2639.05
566.115	2667.98
566.477	2648.32
566.839	2650.81
567.201	2675.66
567.563	2655.33
567.925	2674.08
568.287	2675.89
568.648	2669.79
569.01	2716.57
569.372	2730.58
569.734	2711.37
570.095	2709.11
570.457	2704.36
570.819	2666.62
571.18	2702.1
571.542	2690.13
571.903	2714.76
572.265	2772.84
572.626	2724.02
572.987	2753.85
573.349	2767.41
573.71	2772.38
574.071	2793.4
574.432	2743.68
574.794	2806.73
575.155	2786.4
575.516	2795.21
575.877	2774.42
576.238	2821.87
576.599	2808.99
576.96	2780.52
577.32	2784.59
577.681	2835.21
578.042	2845.83
578.403	2822.1
578.763	2803.12
579.124	2806.96
579.485	2853.51
579.845	2871.59
580.206	2865.72
580.566	2869.11
580.927	2855.77
581.287	2897.13
581.648	2881.76
582.008	2864.36
582.368	2901.87
582.728	2884.02
583.089	2905.04
583.449	2896.22
583.809	2901.87
584.169	2879.27
584.529	2920.86
584.889	2900.06
585.249	2913.62
585.609	2904.36
585.969	2919.95
586.329	2916.56
586.688	2959.95
587.048	2923.79
587.408	2959.72
587.768	2935.77
588.127	2938.26
588.487	2916.79
588.846	2961.31
589.206	2938.03
589.565	2976.67
589.925	3016.9
590.284	2940.74
590.643	2946.84
591.003	2962.66
591.362	2975.09
591.721	2953.85
592.08	2956.79
592.44	2942.1
592.799	2959.95
593.158	2959.95
593.517	2931.25
593.876	2949.56
594.235	2943.91
594.593	2918.82
594.952	2963.34
595.311	2971.02
595.67	2922.21
596.029	2931.93
596.387	2933.28
596.746	2933.51
597.104	2912.72
597.463	2935.77
597.822	2951.82
598.18	2947.75
598.538	2939.61
598.897	2934.64
599.255	2903.91
599.613	2958.37
599.972	2939.16
600.33	2941.87
600.688	2930.35
601.046	2938.71
601.404	2959.95
601.762	2967.63
602.12	2990.46
602.478	2954.75
602.836	2939.84
603.194	2950.01
603.552	2930.35
603.91	2952.94
604.268	2975.54
604.625	2991.59
604.983	2934.41
605.341	2928.54
605.698	2935.32
606.056	2952.04
606.413	2938.93
606.771	2931.02
607.128	2949.56
607.485	2969.67
607.843	2932.83
608.2	2926.5
608.557	2981.64
608.914	2920.18
609.272	2949.56
609.629	2964.24
609.986	3008.54
610.343	2941.65
610.7	2983.68
611.057	2973.28
611.414	2959.05
611.771	2948.2
612.127	2974.64
612.484	2972.38
612.841	2945.49
613.198	2972.61
613.554	2953.85
613.911	2970.8
614.267	2990.68
614.624	2996.79
614.98	2999.05
615.337	2985.71
615.693	2973.51
616.05	2988.42
616.406	2987.29
616.762	2992.94
617.118	2979.38
617.475	2994.07
617.831	3012.6
618.187	2958.82
618.543	3012.83
618.899	2998.37
619.255	2984.13
619.611	3025.71
619.967	3015.09
620.323	3035.2
620.678	3036.78
621.034	3028.88
621.39	3013.73
621.746	2957.24
622.101	3001.08
622.457	2988.42
622.812	2994.07
623.168	3001.98
623.523	2994.53
623.879	3029.78
624.234	2974.19
624.589	2994.3
624.945	3021.42
625.3	3025.03
625.655	2968.31
626.01	3001.31
626.365	3010.34
626.72	3005.82
627.075	3023.23
627.43	2986.39
627.785	3020.06
628.14	3001.53
628.495	3027.52
628.85	3001.31
629.205	3004.47
629.559	3029.1
629.914	3063.68
630.269	3006.05
630.623	3009.44
630.978	2962.66
631.332	3012.6
631.687	3024.13
632.041	3013.06
632.396	2990.46
632.75	3010.34
633.104	3007.63
633.459	2985.94
633.813	2974.19
634.167	2974.19
634.521	2986.62
634.875	2992.72
635.229	2952.27
635.583	2956.11
635.937	2955.43
636.291	2947.75
636.645	2910.46
636.999	2950.69
637.352	2981.42
637.706	2945.94
638.06	2939.39
638.413	2947.07
638.767	2951.59
639.121	2979.16
639.474	2960.63
639.828	2964.24
640.181	2945.04
640.534	2941.19
640.888	2971.25
641.241	2930.12
641.594	2926.5
641.947	2951.82
642.301	2947.07
642.654	2948.65
643.007	2936.67
643.36	2947.52
643.713	2923.57
644.066	2962.66
644.419	2927.86
644.771	2906.84
645.124	2916.79
645.477	2909.1
645.83	2869.11
646.182	2870.46
646.535	2905.94
646.888	2873.17
647.24	2854.19
647.593	2880.4
647.945	2902.78
648.298	2866.39
648.65	2847.19
649.002	2849.22
649.355	2910.01
649.707	2858.26
650.059	2867.98
650.411	2917.92
650.763	2919.95
651.115	2950.46
651.467	2921.31
651.819	2918.14
652.171	2965.6
652.523	2899.39
652.875	2923.57
653.227	2914.98
653.578	2975.09
653.93	2947.97
654.282	2907.52
654.633	2883.57
654.985	2916.56
655.337	2905.94
655.688	2928.54
656.039	2943.68
656.391	2926.28
656.742	2914.98
657.094	2924.92
657.445	2957.46
657.796	2922.21
658.147	2947.52
658.498	2925.83
658.849	2945.26
659.2	2947.07
659.551	2944.13
659.902	2962.89
660.253	2949.33
660.604	2957.69
660.955	2948.65
661.306	2934.87
661.656	2930.12
662.007	2964.24
662.358	2976.45
662.708	2953.85
663.059	2952.49
663.409	2946.17
663.76	2939.61
664.11	2960.85
664.461	2911.14
664.811	2970.12
665.161	2957.69
665.511	2949.56
665.862	2947.3
666.212	2955.43
666.562	2948.65
666.912	2940.52
667.262	2937.13
667.612	2943.68
667.962	2935.54
668.312	2942.78
668.662	2934.87
669.011	2933.74
669.361	2914.75
669.711	2930.35
670.06	2898.03
670.41	2940.29
670.76	2924.25
671.109	2942.32
671.459	2914.08
671.808	2894.19
672.157	2946.62
672.507	2902.32
672.856	2887.18
673.205	2917.47
673.554	2874.75
673.904	2911.59
674.253	2924.25
674.602	2908.43
674.951	2847.19
675.3	2843.34
675.649	2874.53
675.998	2882.89
676.346	2857.58
676.695	2875.88
677.044	2870.91
677.393	2824.36
677.741	2889.9
678.09	2872.95
678.438	2850.8
678.787	2844.25
679.135	2822.55
679.484	2809.22
679.832	2827.3
680.181	2810.8
680.529	2843.12
680.877	2830.91
681.225	2837.92
681.573	2826.17
681.922	2802.67
682.27	2758.15
682.618	2783.46
682.966	2790.01
683.314	2806.73
683.661	2745.27
684.009	2771.25
684.357	2763.8
684.705	2778.03
685.053	2762.22
685.4	2799.05
685.748	2772.16
686.095	2751.82
686.443	2745.27
686.79	2750.46
687.138	2750.24
687.485	2736
687.832	2688.77
688.18	2694.19
688.527	2754.31
688.874	2691.93
689.221	2710.24
689.568	2655.1
689.915	2692.61
690.262	2670.47
690.609	2661.65
690.956	2630.24
691.303	2637.47
691.65	2641.54
691.997	2630.92
692.344	2618.49
692.69	2618.26
693.037	2620.98
693.383	2587.08
693.73	2608.32
694.077	2572.62
694.423	2601.09
694.769	2561.99
695.116	2542.56
695.462	2522.22
695.808	2545.95
696.155	2545.27
696.501	2540.07
696.847	2555.67
697.193	2507.76
697.539	2509.11
697.885	2507.98
698.231	2505.05
698.577	2489.91
698.923	2492.62
699.269	2451.72
699.614	2460.3
699.96	2451.94
700.306	2452.17
700.651	2452.85
700.997	2463.01
701.342	2485.39
701.688	2451.04
702.033	2437.48
702.379	2439.96
702.724	2455.78
703.069	2404.71
703.415	2402.9
703.76	2407.2
704.105	2408.78
704.45	2428.66
704.795	2404.94
705.14	2420.08
705.485	2402.45
705.83	2398.16
706.175	2354.54
706.52	2390.02
706.865	2416.24
707.209	2430.92
707.554	2389.12
707.899	2407.65
708.243	2418.72
708.588	2360.87
708.932	2383.02
709.277	2369.23
709.621	2425.05
709.966	2387.54
710.31	2381.66
710.654	2376.69
710.998	2367.42
711.342	2402.45
711.687	2386.41
712.031	2374.66
712.375	2379.17
712.719	2393.19
713.063	2378.27
713.407	2415.33
713.75	2394.54
714.094	2381.66
714.438	2387.76
714.782	2424.82
715.125	2385.5
715.469	2427.08
715.812	2394.99
716.156	2343.24
716.499	2434.09
716.843	2405.61
717.186	2421.21
717.53	2461.43
717.873	2457.14
718.216	2439.74
718.559	2445.39
718.902	2428.44
719.246	2431.83
719.589	2403.13
719.932	2406.52
720.275	2445.61
720.617	2432.96
720.96	2446.07
721.303	2455.56
721.646	2453.98
721.989	2469.57
722.331	2439.74
722.674	2445.39
723.016	2469.12
723.359	2471.83
723.701	2506.85
724.044	2441.77
724.386	2449.91
724.729	2510.47
725.071	2482
725.413	2514.76
725.755	2501.66
726.097	2540.75
726.439	2507.76
726.782	2497.82
727.124	2547.53
727.465	2528.1
727.807	2531.26
728.149	2510.7
728.491	2526.29
728.833	2537.36
729.175	2572.39
729.516	2571.26
729.858	2585.27
730.199	2574.88
730.541	2606.51
730.882	2607.87
731.224	2631.37
731.565	2600.86
731.906	2632.95
732.248	2660.3
732.589	2627.76
732.93	2626.17
733.271	2641.99
733.612	2667.53
733.953	2662.78
734.294	2653.74
734.635	2684.7
734.976	2695.55
735.317	2707.3
735.658	2714.31
735.999	2747.53
736.339	2720.18
736.68	2782.1
737.021	2790.69
737.361	2791.82
737.702	2773.06
738.042	2795.43
738.383	2793.63
738.723	2869.56
739.063	2881.53
739.404	2927.18
739.744	2890.35
740.084	2893.74
740.424	2950.46
740.764	2946.17
741.104	2953.17
741.444	2976.22
741.784	3000.63
742.124	3025.49
742.464	3070
742.804	3082.21
743.143	3136.89
743.483	3135.31
743.823	3181.64
744.162	3189.55
744.502	3223.22
744.841	3260.73
745.181	3297.57
745.52	3324.01
745.86	3351.8
746.199	3388.19
746.538	3424.34
746.877	3467.28
747.216	3513.61
747.556	3513.16
747.895	3578.92
748.234	3631.35
748.573	3691
748.911	3725.58
749.25	3780.49
749.589	3810.55
749.928	3882.19
750.267	3894.84
750.605	3953.6
750.944	4040.83
751.283	4038.79
751.621	4167.38
751.96	4208.51
752.298	4258.9
752.636	4337.99
752.975	4398.1
753.313	4448.95
753.651	4553.81
753.989	4585.22
754.327	4727.81
754.666	4727.36
755.004	4823.63
755.342	4860.01
755.679	4992.67
756.017	5099.33
756.355	5179.33
756.693	5193.56
757.031	5342.49
757.368	5386.78
757.706	5517.17
758.044	5548.13
758.381	5627.45
758.719	5759.65
759.056	5868.8
759.394	5923.94
759.731	5995.35
760.068	6080.55
760.405	6165.97
760.743	6255.91
761.08	6343.59
761.417	6445.96
761.754	6477.15
762.091	6654.32
762.428	6696.58
762.765	6754.43
763.102	6791.71
763.438	6876.68
763.775	6998.94
764.112	7073.51
764.449	7160.97
764.785	7255.88
765.122	7300.63
765.458	7359.83
765.795	7403.45
766.131	7486.16
766.467	7608.64
766.804	7618.81
767.14	7672.37
767.476	7731.12
767.812	7801.18
768.148	7869.88
768.485	7930.22
768.821	7976.54
769.157	8014.51
769.492	8105.8
769.828	8193.49
770.164	8223.31
770.5	8295.86
770.836	8300.15
771.171	8368.17
771.507	8406.36
771.842	8398.9
772.178	8461.95
772.513	8478.22
772.849	8534.95
773.184	8537.88
773.519	8595.73
773.855	8642.29
774.19	8682.06
774.525	8653.36
774.86	8644.32
775.195	8795.96
775.53	8733.36
775.865	8743.98
776.2	8758.67
776.535	8783.98
776.87	8805.45
777.205	8799.8
777.539	8850.87
777.874	8892.22
778.209	8785.79
778.543	8838.89
778.878	8822.17
779.212	8873.69
779.547	8871.43
779.881	9008.15
780.215	8888.38
780.55	9008.15
780.884	8971.54
781.218	8967.25
781.552	8997.31
781.886	8977.65
782.22	8945.1
782.554	8967.93
782.888	8906.01
783.222	8938.78
783.556	8945.56
783.889	8959.34
784.223	8863.98
784.557	8857.2
784.89	8929.96
785.224	8922.28
785.557	8899.68
785.891	8872.34
786.224	8926.35
786.558	8951.43
786.891	8844.54
787.224	8927.03
787.557	8846.12
787.891	8886.35
788.224	8897.42
788.557	8883.64
788.89	8957.98
789.223	8892.22
789.556	8886.12
789.888	8886.57
790.221	8824.43
790.554	8802.06
790.887	8823.53
791.219	8820.14
791.552	8822.62
791.884	8822.62
792.217	8768.16
792.549	8779.01
792.882	8736.52
793.214	8707.37
793.546	8743.3
793.879	8740.36
794.211	8628.28
794.543	8725.45
794.875	8768.16
795.207	8717.31
795.539	8691.55
795.871	8692.23
796.203	8652.68
796.535	8606.13
796.867	8569.97
797.198	8578.79
797.53	8659.24
797.862	8583.76
798.193	8608.84
798.525	8526.13
798.856	8537.88
799.188	8450.43
799.519	8466.25
799.85	8461.95
800.182	8506.7
800.513	8442.97
800.844	8360.03
801.175	8414.04
801.506	8438.22
801.837	8399.13
802.168	8347.15
802.499	8375.4
802.83	8333.37
803.161	8407.94
803.491	8305.35
803.822	8346.02
804.153	8253.14
804.483	8263.54
804.814	8259.02
805.145	8312.35
805.475	8259.02
805.805	8199.36
806.136	8221.51
806.466	8207.95
806.796	8239.13
807.126	8167.5
807.457	8095.86
807.787	8174.05
808.117	8122.98
808.447	8115.97
808.777	8116.2
809.107	8099.02
809.436	8027.39
809.766	8069.87
810.096	8104.9
810.426	7992.36
810.755	7991.68
811.085	8016.54
811.414	8051.57
811.744	8016.31
812.073	7976.99
812.403	7994.85
812.732	7990.33
813.061	7919.82
813.39	7929.76
813.719	7956.88
814.049	7986.71
814.378	7986.48
814.707	7913.94
815.036	7931.57
815.365	7862.65
815.693	7794.4
816.022	7845.25
816.351	7787.39
816.68	7741.75
817.008	7804.34
817.337	7788.3
817.665	7725.25
817.994	7799.6
818.322	7753.27
818.651	7745.36
818.979	7703.55
819.307	7725.25
819.636	7726.15
819.964	7645.7
820.292	7701.75
820.62	7699.26
820.948	7700.62
821.276	7752.14
821.604	7661.07
821.932	7677.57
822.259	7755.3
822.587	7700.62
822.915	7684.57
823.243	7711.92
823.57	7713.05
823.898	7742.88
824.225	7755.53
824.553	7703.78
824.88	7732.93
825.207	7740.16
825.535	7728.86
825.862	7744.23
826.189	7709.43
826.516	7753.95
826.843	7789.88
827.17	7737.23
827.497	7807.28
827.824	7717.57
828.151	7778.58
828.478	7754.63
828.805	7845.92
829.131	7749.88
829.458	7799.6
829.785	7757.79
830.111	7797.11
830.438	7821.29
830.764	7869.43
831.09	7808.64
831.417	7793.95
831.743	7789.43
832.069	7808.64
832.395	7776.55
832.722	7774.97
833.048	7740.84
833.374	7756.66
833.7	7712.14
834.026	7700.62
834.351	7667.4
834.677	7777.9
835.003	7751.69
835.329	7752.82
835.654	7721.18
835.98	7650
836.306	7764.12
836.631	7622.65
836.956	7751.24
837.282	7739.26
837.607	7656.78
837.932	7652.71
838.258	7646.15
838.583	7669.21
838.908	7618.36
839.233	7624.69
839.558	7652.93
839.883	7637.34
840.208	7638.25
840.533	7662.65
840.858	7593.05
841.182	7598.02
841.507	7651.13
841.832	7535.42
842.156	7576.78
842.481	7525.25
842.805	7548.53
843.13	7542.43
843.454	7479.61
843.778	7512.6
844.103	7487.29
844.427	7462.88
844.751	7435.09
845.075	7413.17
845.399	7400.51
845.723	7381.76
846.047	7388.31
846.371	7357.8
846.695	7351.25
847.019	7266.28
847.343	7260.85
847.666	7195.09
847.99	7188.99
848.313	7204.81
848.637	7152.61
848.96	7153.06
849.284	7090.46
849.607	7035.55
849.931	7038.49
850.254	7033.06
850.577	6935.44
850.9	6896.34
851.223	6938.15
851.546	6902.45
851.869	6868.32
852.192	6932.28
852.515	6839.17
852.838	6773.64
853.161	6791.26
853.483	6719.63
853.806	6766.63
854.129	6724.82
854.451	6751.72
854.774	6670.81
855.096	6667.42
855.419	6610.48
855.741	6642.57
856.063	6647.76
856.385	6599.18
856.708	6541.78
857.03	6513.98
857.352	6549.91
857.674	6553.3
857.996	6509.91
858.318	6437.83
858.64	6484.38
858.961	6457.71
859.283	6514.66
859.605	6445.06
859.926	6388.33
860.248	6425.62
860.57	6356.25
860.891	6339.07
861.212	6374.1
861.534	6319.41
861.855	6273.76
862.176	6320.31
862.498	6333.65
862.819	6315.57
863.14	6301.11
863.461	6315.79
863.782	6201.9
864.103	6243.03
864.424	6264.27
864.745	6306.98
865.065	6224.05
865.386	6229.02
865.707	6194.89
866.027	6218.4
866.348	6168.91
866.668	6152.18
866.989	6160.09
867.309	6120.09
867.63	6138.4
867.95	6102.47
868.27	6141.34
868.59	6095.01
868.91	6130.71
869.23	6108.34
869.55	6044.84
869.87	6116.7
870.19	6096.37
870.51	6109.92
870.83	6080.09
871.15	6072.41
871.469	5989.02
871.789	6042.58
872.109	6052.3
872.428	5995.8
872.748	6064.95
873.067	6019.53
873.386	5995.35
873.706	5987.89
874.025	5967.78
874.344	5938.4
874.663	5939.08
874.982	5979.31
875.301	5967.33
875.62	5920.32
875.939	5916.03
876.258	5918.06
876.577	5942.02
876.896	5877.39
877.214	5915.58
877.533	5914
877.852	5917.61
878.17	5884.17
878.489	5892.98
878.807	5846.2
879.125	5865.86
879.444	5825.86
879.762	5802.59
880.08	5851.4
880.398	5803.72
880.716	5821.12
881.034	5776.83
881.352	5779.76
881.67	5728.24
881.988	5757.84
882.306	5725.53
882.624	5705.41
882.941	5674.46
883.259	5672.2
883.577	5700.22
883.894	5692.76
884.212	5635.81
884.529	5636.94
884.846	5629.26
885.164	5646.21
885.481	5601.01
885.798	5589.49
886.115	5591.97
886.432	5596.04
886.75	5541.35
887.067	5525.31
887.383	5516.72
887.7	5561.46
888.017	5521.24
888.334	5539.77
888.651	5501.13
888.967	5471.07
889.284	5443.5
889.6	5411.64
889.917	5382.26
890.233	5392.88
890.55	5408.02
890.866	5386.78
891.182	5394.91
891.498	5310.62
891.815	5339.77
892.131	5305.65
892.447	5320.79
892.763	5294.8
893.079	5302.94
893.395	5276.27
893.71	5220
894.026	5272.88
894.342	5213.22
894.657	5202.38
894.973	5201.7
895.289	5135.26
895.604	5194.69
895.92	5118.54
896.235	5071.08
896.55	5077.86
896.865	5056.39
897.181	5051.19
897.496	5046.68
897.811	5027.69
898.126	5036.96
898.441	4979.56
898.756	4966.68
899.071	4947.02
899.386	4959.22
899.7	4947.92
900.015	4910.63
900.33	4858.43
900.644	4842.16
900.959	4924.87
901.273	4887.81
901.588	4821.14
901.902	4810.07
902.216	4779.34
902.531	4756.97
902.845	4766
903.159	4771.43
903.473	4717.42
903.787	4674.93
904.101	4694.14
904.415	4677.87
904.729	4680.36
905.042	4615.73
905.356	4595.84
905.67	4592.9
905.984	4593.35
906.297	4560.36
906.611	4577.76
906.924	4614.37
907.237	4542.73
907.551	4515.62
907.864	4506.8
908.177	4507.48
908.491	4481.94
908.804	4469.52
909.117	4400.82
909.43	4385.45
909.743	4364.43
910.056	4367.15
910.368	4351.78
910.681	4319.69
910.994	4326.24
911.307	4272.68
911.619	4297.77
911.932	4262.29
912.244	4239.24
912.557	4237.43
912.869	4211.22
913.181	4195.4
913.494	4211.22
913.806	4169.18
914.118	4156.3
914.43	4108.62
914.742	4109.75
915.054	4098.45
915.366	4068.4
915.678	4066.59
915.99	4078.57
916.302	4038.57
916.613	4021.84
916.925	4021.84
917.236	4006.02
917.548	3977.32
917.859	3997.44
918.171	3959.7
918.482	3940.94
918.794	3900.72
919.105	3922.19
919.416	3854.16
919.727	3911.79
920.038	3856.65
920.349	3854.39
920.66	3881.96
920.971	3850.1
921.282	3829.53
921.593	3755.18
921.903	3777.1
922.214	3712.47
922.525	3732.59
922.835	3726.48
923.146	3729.65
923.456	3717.44
923.767	3700.95
924.077	3634.28
924.387	3668.86
924.697	3603.55
925.008	3639.48
925.318	3592.02
925.628	3622.53
925.938	3625.24
926.248	3583.21
926.558	3550.44
926.867	3569.65
927.177	3519.26
927.487	3509.09
927.796	3491.69
928.106	3502.76
928.416	3484
928.725	3457.34
929.034	3439.94
929.344	3465.25
929.653	3422.76
929.962	3432.71
930.271	3375.08
930.581	3354.29
930.89	3364.91
931.199	3333.95
931.508	3340.73
931.817	3355.65
932.125	3313.84
932.434	3343.22
932.743	3319.94
933.051	3300.96
933.36	3296.44
933.669	3315.65
933.977	3247.17
934.286	3238.14
934.594	3239.04
934.902	3209.21
935.21	3204.69
935.519	3207.63
935.827	3182.32
936.135	3135.54
936.443	3122.88
936.751	3126.73
937.059	3145.48
937.367	3116.56
937.674	3096.9
937.982	3105.48
938.29	3079.72
938.597	3070.46
938.905	3056.45
939.213	3038.37
939.52	3017.35
939.827	3037.01
940.135	3025.26
940.442	3001.31
940.749	2986.62
941.056	2980.74
941.363	2959.27
941.67	2950.01
941.977	2928.76
942.284	2936.22
942.591	2922.21
942.898	2906.17
943.205	2872.04
943.511	2873.63
943.818	2897.58
944.125	2834.3
944.431	2837.02
944.738	2858.94
945.044	2848.54
945.35	2837.69
945.657	2793.4
945.963	2775.77
946.269	2771.71
946.575	2780.97
946.881	2780.07
947.187	2736.45
947.493	2733.74
947.799	2751.37
948.105	2704.14
948.41	2718.15
948.716	2702.78
949.022	2674.76
949.327	2702.1
949.633	2658.94
949.938	2652.61
950.244	2636.12
950.549	2579.4
950.854	2598.15
951.16	2592.95
951.465	2596.34
951.77	2574.2
952.075	2545.27
952.38	2541.43
952.685	2539.62
952.99	2551.83
953.294	2546.63
953.599	2532.17
953.904	2545.5
954.209	2497.36
954.513	2498.72
954.818	2474.31
955.122	2511.37
955.426	2490.58
955.731	2439.74
956.035	2430.92
956.339	2446.52
956.643	2455.1
956.948	2428.89
957.252	2432.05
957.556	2404.26
957.86	2388.44
958.163	2387.54
958.467	2377.82
958.771	2383.47
959.075	2361.32
959.378	2367.65
959.682	2343.24
959.985	2310.25
960.289	2327.42
960.592	2306.41
960.896	2273.87
961.199	2316.35
961.502	2305.73
961.805	2264.38
962.108	2251.72
962.411	2246.52
962.714	2262.57
963.017	2231.16
963.32	2224.15
963.623	2213.08
963.926	2205.17
964.228	2224.38
964.531	2204.49
964.833	2185.06
965.136	2202.23
965.438	2177.6
965.741	2164.49
966.043	2151.16
966.345	2135.11
966.648	2134.21
966.95	2117.94
967.252	2106.41
967.554	2094.21
967.856	2098.73
968.158	2061.67
968.46	2111.61
968.761	2073.65
969.063	2047.88
969.365	2092.63
969.666	2059.41
969.968	2016.02
970.269	2044.04
970.571	2060.77
970.872	2025.06
971.174	2026.64
971.475	1977.15
971.776	1984.61
972.077	1991.16
972.378	1973.08
972.679	1960.2
972.98	1981.45
973.281	1945.29
973.582	1944.61
973.883	1923.37
974.183	1904.38
974.484	1937.38
974.785	1896.02
975.085	1911.62
975.386	1919.3
975.686	1860.54
975.986	1876.59
976.287	1882.69
976.587	1881.33
976.887	1828.45
977.187	1873.43
977.487	1853.09
977.787	1825.74
978.087	1829.13
978.387	1819.42
978.687	1822.58
978.987	1808.34
979.286	1793.43
979.586	1799.08
979.885	1808.57
980.185	1773.77
980.484	1771.51
980.784	1774.22
981.083	1747.33
981.382	1758.4
981.682	1763.6
981.981	1740.55
982.28	1727.21
982.579	1733.54
982.878	1713.88
983.177	1719.31
983.475	1712.3
983.774	1695.58
984.073	1704.16
984.372	1695.8
984.67	1650.15
984.969	1665.75
985.267	1690.83
985.566	1645.18
985.864	1602.02
986.162	1628.91
986.461	1621
986.759	1655.8
987.057	1593.66
987.355	1604.96
987.653	1626.88
987.951	1597.73
988.249	1589.82
988.547	1557.05
988.844	1564.28
989.142	1572.64
989.44	1583.72
989.737	1555.92
990.035	1552.98
990.332	1551.4
990.63	1518.86
990.927	1544.62
991.224	1538.29
991.521	1505.07
991.819	1486.09
992.116	1496.94
992.413	1471.18
992.71	1500.1
993.006	1497.16
993.303	1506.88
993.6	1505.53
993.897	1457.84
994.193	1448.58
994.49	1438.18
994.787	1439.76
995.083	1444.74
995.379	1454
995.676	1431.86
995.972	1430.5
996.268	1394.57
996.565	1407.22
996.861	1390.5
997.157	1401.57
997.453	1381.46
997.749	1378.98
998.044	1354.79
998.34	1371.07
998.636	1379.65
998.932	1365.42
999.227	1351.41
999.523	1358.41
999.818	1340.56
1000.114	1353.21
1000.409	1330.61
1000.704	1324.74
1001	1323.38
1001.295	1309.82
1001.59	1320.45
1001.885	1318.86
1002.18	1300.11
1002.475	1296.94
1002.77	1306.89
1003.065	1286.55
1003.359	1251.29
1003.654	1258.07
1003.949	1252.88
1004.243	1258.53
1004.538	1255.36
1004.832	1228.92
1005.127	1228.7
1005.421	1264.4
1005.715	1235.48
1006.009	1200
1006.304	1211.75
1006.598	1218.98
1006.892	1207.91
1007.186	1180.56
1007.48	1178.3
1007.773	1201.8
1008.067	1157.29
1008.361	1156.61
1008.655	1166.78
1008.948	1145.31
1009.242	1129.26
1009.535	1160.68
1009.829	1124.52
1010.122	1136.72
1010.415	1147.79
1010.708	1127.68
1011.001	1116.38
1011.295	1099.66
1011.588	1129.94
1011.881	1088.36
1012.173	1084.97
1012.466	1082.26
1012.759	1075.48
1013.052	1062.83
1013.344	1078.64
1013.637	1054.46
1013.93	1072.09
1014.222	1068.25
1014.514	1033.45
1014.807	1027.8
1015.099	1028.02
1015.391	1020.79
1015.683	1048.36
1015.976	1026.22
1016.268	1006.1
1016.56	1019.89
1016.851	1010.4
1017.143	998.87
1017.435	990.28
1017.727	992.77
1018.018	975.82
1018.31	974.47
1018.602	957.97
1018.893	979.66
1019.185	964.3
1019.476	942.83
1019.767	966.78
1020.058	950.74
1020.35	940.79
1020.641	930.17
1020.932	926.33
1021.223	910.74
1021.514	921.13
1021.804	913.45
1022.095	925.88
1022.386	894.92
1022.677	877.97
1022.967	894.47
1023.258	871.87
1023.548	890.85
1023.839	891.53
1024.129	863.28
1024.419	875.94
1024.709	870.51
1025	871.87
1025.29	849.5
1025.58	840.01
1025.87	834.13
1026.16	853.57
1026.449	840.68
1026.739	830.51
1027.029	845.66
1027.319	822.15
1027.608	842.72
1027.898	806.33
1028.187	810.18
1028.477	793
1028.766	792.78
1029.055	779.44
1029.344	799.33
1029.634	793.23
1029.923	791.65
1030.212	776.28
1030.501	786.9
1030.79	760.23
1031.078	765.88
1031.367	772.89
1031.656	772.21
1031.945	782.61
1032.233	742.83
1032.522	751.19
1032.81	755.49
1033.099	756.62
1033.387	736.05
1033.675	739.9
1033.963	731.31
1034.251	710.97
1034.54	713.91
1034.828	716.85
1035.116	701.93
1035.403	695.15
1035.691	695.15
1035.979	708.71
1036.267	700.12
1036.554	688.37
1036.842	718.65
1037.129	687.24
1037.417	693.8
1037.704	689.73
1037.992	657.86
1038.279	662.16
1038.566	666
1038.853	666
1039.14	666
