Data from blue_chair_FLMS001491_00024.txt Node
Date: Wed Feb 08 10:30:03 GMT 2017
User: dcchb
Spectrometer: FLMS00149
Trigger mode: 0
Integration Time (sec): 2.000000E-2
Scans to average: 10
Electric dark correction enabled: true
Nonlinearity correction enabled: false
Boxcar width: 0
XAxis mode: Wavelengths
Number of Pixels in Spectrum: 2048
>>>>>Begin Spectral Data<<<<<
341.393	-1.91
341.776	-1.91
342.16	-1.91
342.543	-50.94
342.927	-50.04
343.31	-72.41
343.693	-58.85
344.077	-59.76
344.46	-52.07
344.843	-42.81
345.226	-54.33
345.61	-26.54
345.993	-34.9
346.376	19.34
346.759	16.17
347.142	16.62
347.525	29.28
347.908	64.53
348.291	58.43
348.674	79.45
349.057	117.86
349.44	120.12
349.823	156.28
350.206	134.59
350.588	180.69
350.971	195.6
351.354	207.58
351.737	216.62
352.119	230.86
352.502	234.47
352.884	267.24
353.267	245.77
353.65	252.78
354.032	288.71
354.414	295.03
354.797	297.52
355.179	302.27
355.562	301.14
355.944	296.16
356.326	317.41
356.709	320.8
357.091	307.92
357.473	328.25
357.855	316.28
358.238	317.41
358.62	310.18
359.002	325.54
359.384	325.99
359.766	307.24
360.148	313.11
360.53	330.51
360.912	299.1
361.294	306.11
361.676	308.82
362.057	330.29
362.439	315.83
362.821	314.7
363.203	297.97
363.584	289.39
363.966	283.74
364.348	306.56
364.729	305.43
365.111	312.21
365.493	301.14
365.874	271.31
366.256	311.08
366.637	283.96
367.019	321.02
367.4	289.16
367.781	293.45
368.163	307.69
368.544	303.62
368.925	282.61
369.306	294.36
369.688	258.88
370.069	286.22
370.45	268.59
370.831	295.49
371.212	311.08
371.593	297.29
371.974	295.49
372.355	262.04
372.736	292.1
373.117	302.72
373.498	291.19
373.879	290.74
374.26	286.45
374.641	286.45
375.021	312.44
375.402	283.06
375.783	293.68
376.163	278.09
376.544	300.46
376.925	272.66
377.305	289.84
377.686	287.8
378.066	300.23
378.447	298.88
378.827	316.95
379.208	302.49
379.588	304.3
379.968	300.46
380.349	291.19
380.729	318.99
381.109	289.16
381.489	319.67
381.87	320.8
382.25	286.22
382.63	302.94
383.01	297.29
383.39	292.1
383.77	302.27
384.15	309.27
384.53	299.78
384.91	316.73
385.29	330.29
385.67	307.01
386.049	315.6
386.429	322.83
386.809	330.51
387.189	314.47
387.568	321.47
387.948	291.19
388.328	349.72
388.707	336.39
389.087	313.11
389.466	362.15
389.846	317.41
390.225	333.23
390.605	333.9
390.984	322.38
391.363	338.2
391.743	321.47
392.122	323.96
392.501	340.68
392.881	314.24
393.26	330.97
393.639	337.52
394.018	325.54
394.397	364.19
394.776	344.75
395.155	332.77
395.534	341.59
395.913	334.58
396.292	352.66
396.671	357.18
397.05	363.96
397.429	355.15
397.808	357.41
398.186	351.76
398.565	353.34
398.944	383.62
399.323	366.67
399.701	384.3
400.08	367.8
400.458	363.28
400.837	370.96
401.215	377.97
401.594	365.99
401.972	355.82
402.351	380.23
402.729	387.69
403.107	383.39
403.486	368.48
403.864	402.83
404.242	375.48
404.62	394.69
404.999	412.55
405.377	380.68
405.755	401.25
406.133	405.77
406.511	419.1
406.889	429.95
407.267	385.65
407.645	439.89
408.023	406.22
408.401	419.55
408.779	437.4
409.156	406.67
409.534	421.58
409.912	450.74
410.29	429.72
410.667	428.14
411.045	449.83
411.422	459.32
411.8	453
412.178	466.33
412.555	467.23
412.933	469.27
413.31	455.93
413.687	459.55
414.065	498.42
414.442	476.5
414.819	475.59
415.197	506.1
415.574	509.27
415.951	506.33
416.328	498.87
416.705	483.73
417.082	515.59
417.46	506.78
417.837	496.61
418.214	507.46
418.591	496.84
418.967	525.99
419.344	486.89
419.721	532.32
420.098	518.98
420.475	520.11
420.852	516.5
421.228	538.87
421.605	539.77
421.982	535.25
422.358	542.71
422.735	546.33
423.111	552.65
423.488	545.65
423.864	545.88
424.241	570.96
424.617	570.96
424.994	583.39
425.37	595.14
425.746	580.22
426.123	585.65
426.499	591.3
426.875	600.79
427.251	634.23
427.627	624.07
428.003	619.09
428.379	654.35
428.756	607.79
429.132	674.91
429.507	657.74
429.883	645.76
430.259	674.69
430.635	653.44
431.011	676.04
431.387	671.52
431.763	680.56
432.138	698.41
432.514	696.38
432.89	703.84
433.265	707.91
433.641	713.55
434.016	723.5
434.392	741.35
434.767	731.63
435.143	754.68
435.518	765.08
435.894	786.32
436.269	800.78
436.644	803.04
437.02	808.69
437.395	802.59
437.77	808.02
438.145	836.26
438.52	846.43
438.895	855.47
439.271	863.83
439.646	853.44
440.021	876.49
440.395	892.98
440.77	905.41
441.145	890.27
441.52	902.7
441.895	907.67
442.27	915.58
442.645	923.04
443.019	932.08
443.394	947.45
443.769	949.03
444.143	929.82
444.518	978.63
444.892	956.94
445.267	968.46
445.641	985.86
446.016	1005.3
446.39	996.26
446.764	1007.56
447.139	1002.13
447.513	1012.08
447.887	1050.72
448.262	1022.7
448.636	1030.83
449.01	1040.1
449.384	1051.62
449.758	1035.35
450.132	1066.77
450.506	1055.47
450.88	1057.73
451.254	1110.61
451.628	1104.96
452.002	1103.15
452.376	1136.37
452.75	1128.69
453.123	1137.05
453.497	1129.81
453.871	1133.2
454.244	1171.17
454.618	1185.41
454.992	1187.89
455.365	1190.15
455.739	1202.81
456.112	1208
456.486	1239.19
456.859	1225.63
457.232	1250.94
457.606	1235.8
457.979	1258.85
458.352	1293.2
458.725	1297.49
459.099	1295.23
459.472	1325.74
459.845	1332.75
460.218	1363.03
460.591	1375.91
460.964	1339.53
461.337	1381.79
461.71	1405.97
462.083	1406.19
462.456	1412.29
462.829	1396.7
463.201	1455
463.574	1418.39
463.947	1460.2
464.32	1470.6
464.692	1477.38
465.065	1497.71
465.438	1517.83
465.81	1516.7
466.183	1509.01
466.555	1555.11
466.928	1534.78
467.3	1581.78
467.672	1572.52
468.045	1607.32
468.417	1623.14
468.789	1628.11
469.161	1596.92
469.534	1642.34
469.906	1673.53
470.278	1706.07
470.65	1697.94
471.022	1716.01
471.394	1772.28
471.766	1762.11
472.138	1796.01
472.51	1799.63
472.882	1823.58
473.253	1871.72
473.625	1889.12
473.997	1853.19
474.369	1886.63
474.74	1927.53
475.112	1911.04
475.484	1969.34
475.855	1968.21
476.227	1965.05
476.598	2004.37
476.97	2021.77
477.341	2036.23
477.713	2092.05
478.084	2078.94
478.455	2146.74
478.827	2108.55
479.198	2179.96
479.569	2187.41
479.94	2197.13
480.311	2205.72
480.682	2268.77
481.053	2306.96
481.424	2310.8
481.795	2326.85
482.166	2343.34
482.537	2356.22
482.908	2380.63
483.279	2392.83
483.65	2462.44
484.021	2469.21
484.391	2459.05
484.762	2481.64
485.133	2498.37
485.503	2514.64
485.874	2565.03
486.244	2568.42
486.615	2574.3
486.985	2577.46
487.356	2616.78
487.726	2615.2
488.097	2663.11
488.467	2669.44
488.837	2689.77
489.207	2694.29
489.578	2735.2
489.948	2752.82
490.318	2759.6
490.688	2774.97
491.058	2768.87
491.428	2812.93
491.798	2792.37
492.168	2817.23
492.538	2804.8
492.908	2835.98
493.278	2877.11
493.648	2871.92
494.017	2872.14
494.387	2895.42
494.757	2888.19
495.126	2909.66
495.496	2870.56
495.866	2878.92
496.235	2901.97
496.605	2921.86
496.974	2924.8
497.344	2908.53
497.713	2934.97
498.082	2946.26
498.452	2926.38
498.821	2923.44
499.19	2924.57
499.559	2920.73
499.928	2919.6
500.298	2927.51
500.667	2927.51
501.036	2924.57
501.405	2928.19
501.774	2897
502.143	2899.49
502.512	2915.98
502.88	2965.47
503.249	2925.7
503.618	2874.18
503.987	2967.05
504.356	2908.53
504.724	2910.56
505.093	2923.21
505.462	2915.53
505.83	2911.69
506.199	2892.03
506.567	2934.06
506.936	2902.88
507.304	2967.73
507.672	2902.42
508.041	2889.77
508.409	2901.97
508.777	2917.11
509.145	2900.84
509.514	2930.45
509.882	2924.12
510.25	2910.11
510.618	2889.09
510.986	2903.78
511.354	2914.4
511.722	2905.14
512.09	2889.77
512.458	2894.06
512.826	2934.51
513.193	2888.19
513.561	2913.27
513.929	2902.88
514.297	2914.4
514.664	2904.01
515.032	2860.39
515.4	2876.21
515.767	2881.41
516.135	2875.98
516.502	2816.55
516.869	2900.16
517.237	2859.49
517.604	2848.41
517.972	2845.93
518.339	2843.67
518.706	2812.03
519.073	2809.54
519.44	2831.47
519.808	2854.97
520.175	2803.22
520.542	2821.75
520.909	2828.53
521.276	2777.68
521.643	2792.14
522.009	2823.56
522.376	2796.89
522.743	2835.98
523.11	2852.48
523.477	2809.77
523.843	2824.01
524.21	2832.82
524.577	2827.17
524.943	2805.7
525.31	2775.42
525.676	2831.01
526.043	2840.28
526.409	2825.36
526.776	2860.39
527.142	2826.95
527.508	2829.43
527.874	2817.68
528.241	2862.42
528.607	2824.69
528.973	2854.52
529.339	2850.45
529.705	2834.18
530.071	2885.47
530.437	2860.84
530.803	2865.14
531.169	2893.16
531.535	2877.11
531.901	2861.75
532.267	2804.35
532.632	2848.19
532.998	2826.04
533.364	2852.48
533.73	2854.52
534.095	2887.51
534.461	2856.78
534.826	2889.09
535.192	2881.63
535.557	2885.93
535.923	2868.98
536.288	2844.57
536.653	2855.42
537.019	2864.46
537.384	2855.42
537.749	2858.81
538.114	2827.4
538.479	2860.62
538.845	2866.27
539.21	2870.56
539.575	2845.25
539.94	2829.21
540.305	2864.91
540.67	2870.11
541.034	2858.36
541.399	2841.41
541.764	2874.18
542.129	2875.98
542.494	2865.81
542.858	2853.61
543.223	2835.76
543.587	2840.5
543.952	2842.76
544.316	2864.68
544.681	2864.01
545.045	2844.35
545.41	2837.11
545.774	2841.86
546.138	2862.88
546.503	2865.81
546.867	2869.88
547.231	2851.8
547.595	2857.91
547.959	2836.66
548.324	2834.63
548.688	2805.03
549.052	2854.06
549.416	2835.31
549.779	2804.57
550.143	2793.27
550.507	2851.13
550.871	2821.97
551.235	2799.6
551.599	2845.7
551.962	2814.06
552.326	2835.76
552.689	2823.1
553.053	2833.27
553.417	2824.46
553.78	2834.4
554.143	2830.34
554.507	2803.9
554.87	2795.53
555.234	2809.32
555.597	2799.38
555.96	2783.1
556.323	2800.05
556.686	2775.65
557.05	2826.49
557.413	2805.25
557.776	2820.84
558.139	2808.41
558.502	2815.87
558.865	2775.87
559.228	2777.91
559.59	2805.93
559.953	2816.55
560.316	2824.46
560.679	2805.03
561.041	2818.36
561.404	2809.54
561.767	2798.7
562.129	2789.43
562.492	2838.7
562.854	2842.99
563.217	2843.67
563.579	2860.62
563.941	2845.93
564.304	2845.02
564.666	2859.49
565.028	2844.35
565.39	2851.35
565.753	2876.89
566.115	2891.35
566.477	2874.85
566.839	2873.5
567.201	2919.15
567.563	2919.82
567.925	2909.43
568.287	2907.62
568.648	2875.53
569.01	2948.3
569.372	2993.49
569.734	2918.02
570.095	2959.15
570.457	2968.41
570.819	2959.6
571.18	2974.51
571.542	2948.07
571.903	2995.53
572.265	3032.82
572.626	3009.54
572.987	2995.53
573.349	3033.27
573.71	2987.85
574.071	2993.49
574.432	3046.83
574.794	3033.04
575.155	3081.4
575.516	3068.75
575.877	3090.89
576.238	3055.19
576.599	3091.12
576.96	3090.22
577.32	3117.79
577.681	3114.62
578.042	3138.58
578.403	3112.14
578.763	3126.82
579.124	3129.54
579.485	3164.34
579.845	3133.83
580.206	3139.48
580.566	3152.59
580.927	3130.44
581.287	3215.41
581.648	3171.12
582.008	3195.75
582.368	3189.65
582.728	3209.99
583.089	3160.04
583.449	3188.97
583.809	3196.88
584.169	3187.39
584.529	3221.96
584.889	3224.22
585.249	3216.54
585.609	3210.89
585.969	3217.22
586.329	3215.18
586.688	3206.37
587.048	3242.08
587.408	3201.62
587.768	3240.49
588.127	3204.11
588.487	3231.23
588.846	3255.41
589.206	3253.83
589.565	3216.77
589.925	3251.79
590.284	3234.84
590.643	3195.98
591.003	3261.51
591.362	3263.09
591.721	3261.06
592.08	3247.27
592.44	3256.54
592.799	3261.28
593.158	3236.43
593.517	3268.97
593.876	3252.24
594.235	3214.51
594.593	3292.7
594.952	3255.63
595.311	3221.29
595.67	3207.05
596.029	3231.68
596.387	3249.99
596.746	3244.34
597.104	3219.93
597.463	3252.02
597.822	3220.38
598.18	3249.76
598.538	3214.51
598.897	3250.44
599.255	3255.41
599.613	3283.66
599.972	3269.42
600.33	3240.04
600.688	3228.74
601.046	3256.99
601.404	3251.34
601.762	3302.19
602.12	3239.59
602.478	3258.12
602.836	3303.32
603.194	3219.48
603.552	3276.65
603.91	3279.14
604.268	3246.82
604.625	3236.43
604.983	3283.66
605.341	3239.59
605.698	3268.29
606.056	3256.54
606.413	3275.97
606.771	3244.56
607.128	3329.08
607.485	3229.87
607.843	3221.29
608.2	3243.88
608.557	3272.13
608.914	3244.11
609.272	3271
609.629	3269.42
609.986	3317.33
610.343	3307.61
610.7	3325.92
611.057	3319.14
611.414	3273.71
611.771	3271.23
612.127	3306.48
612.484	3271.45
612.841	3273.26
613.198	3289.53
613.554	3315.97
613.911	3295.41
614.267	3334.5
614.624	3312.36
614.98	3361.17
615.337	3340.15
615.693	3293.37
616.05	3302.87
616.406	3323.66
616.762	3306.03
617.118	3306.71
617.475	3287.72
617.831	3365.46
618.187	3302.19
618.543	3290.89
618.899	3377.21
619.255	3365.91
619.611	3372.69
619.967	3360.94
620.323	3344.67
620.678	3334.05
621.034	3308.29
621.39	3319.59
621.746	3346.48
622.101	3353.49
622.457	3339.7
622.812	3308.29
623.168	3364.33
623.523	3300.83
623.879	3360.04
624.234	3328.63
624.589	3408.4
624.945	3349.87
625.3	3358.46
625.655	3379.7
626.01	3367.72
626.365	3376.76
626.72	3355.07
627.075	3393.03
627.43	3375.41
627.785	3356.88
628.14	3364.56
628.495	3403.2
628.85	3337.21
629.205	3352.58
629.559	3353.03
629.914	3344.67
630.269	3405.46
630.623	3370.21
630.978	3359.13
631.332	3400.72
631.687	3409.98
632.041	3374.05
632.396	3380.83
632.75	3372.92
633.104	3395.74
633.459	3394.61
633.813	3345.35
634.167	3343.09
634.521	3380.15
634.875	3376.31
635.229	3400.72
635.583	3379.02
635.937	3380.83
636.291	3357.55
636.645	3392.81
636.999	3408.17
637.352	3381.28
637.706	3368.4
638.06	3416.53
638.413	3375.41
638.767	3377.21
639.121	3392.35
639.474	3360.04
639.828	3362.75
640.181	3328.4
640.534	3374.95
640.888	3361.39
641.241	3355.29
641.594	3353.71
641.947	3374.73
642.301	3399.81
642.654	3386.93
643.007	3387.83
643.36	3367.95
643.713	3331.56
644.066	3366.59
644.419	3372.02
644.771	3349.42
645.124	3349.42
645.477	3318.01
645.83	3315.52
646.182	3332.02
646.535	3292.92
646.888	3290.21
647.24	3285.46
647.593	3311.23
647.945	3314.62
648.298	3279.14
648.65	3327.5
649.002	3321.4
649.355	3306.25
649.707	3296.54
650.059	3309.64
650.411	3350.32
650.763	3346.03
651.115	3445.23
651.467	3426.25
651.819	3401.17
652.171	3437.78
652.523	3436.19
652.875	3455.4
653.227	3453.82
653.578	3454.05
653.93	3439.36
654.282	3438.91
654.633	3407.5
654.985	3419.7
655.337	3482.75
655.688	3461.28
656.039	3477.1
656.391	3432.81
656.742	3443.2
657.094	3463.09
657.445	3485.91
657.796	3467.15
658.147	3485.46
658.498	3481.39
658.849	3518.68
659.2	3483.88
659.551	3464.89
659.902	3506.25
660.253	3500.15
660.604	3500.6
660.955	3454.27
661.306	3524.33
661.656	3519.36
662.007	3525.46
662.358	3537.21
662.708	3542.86
663.059	3544.89
663.409	3521.84
663.76	3541.73
664.11	3562.75
664.461	3523.2
664.811	3507.38
665.161	3526.14
665.511	3581.5
665.862	3532.01
666.212	3519.13
666.562	3537.21
666.912	3494.05
667.262	3483.65
667.612	3511.22
667.962	3534.05
668.312	3496.53
668.662	3525.91
669.011	3546.47
669.361	3527.49
669.711	3533.37
670.06	3504.44
670.41	3520.49
670.76	3486.59
671.109	3516.42
671.459	3496.76
671.808	3494.5
672.157	3468.96
672.507	3456.76
672.856	3468.96
673.205	3468.96
673.554	3510.77
673.904	3472.35
674.253	3528.62
674.602	3540.82
674.951	3462.86
675.3	3409.98
675.649	3462.41
675.998	3486.36
676.346	3456.99
676.695	3490.88
677.044	3429.87
677.393	3441.17
677.741	3419.25
678.09	3408.17
678.438	3451.11
678.787	3410.43
679.135	3398.23
679.484	3346.71
679.832	3364.56
680.181	3368.85
680.529	3360.72
680.877	3382.19
681.225	3373.37
681.573	3399.13
681.922	3327.5
682.27	3337.67
682.618	3332.02
682.966	3344.45
683.314	3302.41
683.661	3334.28
684.009	3285.46
684.357	3293.15
684.705	3290.89
685.053	3292.7
685.4	3301.96
685.748	3285.01
686.095	3239.82
686.443	3254.5
686.79	3252.92
687.138	3217.67
687.485	3200.72
687.832	3208.18
688.18	3238.01
688.527	3200.95
688.874	3223.55
689.221	3168.41
689.568	3167.5
689.915	3136.77
690.262	3179.03
690.609	3160.04
690.956	3111.91
691.303	3129.08
691.65	3108.97
691.997	3130.21
692.344	3098.35
692.69	3064.91
693.037	3055.19
693.383	3060.84
693.73	3037.34
694.077	3014.29
694.423	3047.73
694.769	3034.62
695.116	3020.61
695.462	3035.53
695.808	2993.04
696.155	2987.85
696.501	3018.35
696.847	2960.5
697.193	2964.12
697.539	2969.09
697.885	2944.46
698.231	2959.82
698.577	2955.98
698.923	2931.8
699.269	2896.77
699.614	2897
699.96	2864.23
700.306	2886.15
700.651	2910.33
700.997	2853.39
701.342	2813.16
701.688	2840.96
702.033	2885.02
702.379	2842.09
702.724	2856.1
703.069	2859.71
703.415	2846.15
703.76	2852.71
704.105	2808.64
704.45	2833.5
704.795	2825.59
705.14	2810.9
705.485	2798.92
705.83	2801.18
706.175	2800.05
706.52	2778.36
706.865	2783.1
707.209	2793.5
707.554	2796.21
707.899	2792.6
708.243	2754.63
708.588	2800.51
708.932	2782.2
709.277	2783.1
709.621	2769.77
709.966	2765.25
710.31	2805.25
710.654	2778.36
710.998	2770.68
711.342	2793.95
711.687	2741.75
712.031	2756.21
712.375	2761.64
712.719	2758.92
713.063	2777.23
713.407	2792.37
713.75	2776.55
714.094	2757.79
714.438	2760.73
714.782	2758.25
715.125	2731.58
715.469	2805.93
715.812	2841.18
716.156	2805.25
716.499	2791.47
716.843	2764.8
717.186	2772.94
717.53	2788.98
717.873	2814.97
718.216	2802.31
718.559	2804.12
718.902	2800.51
719.246	2799.15
719.589	2790.56
719.932	2802.54
720.275	2799.15
720.617	2831.92
720.96	2817.23
721.303	2856.1
721.646	2856.55
721.989	2825.82
722.331	2863.55
722.674	2861.52
723.016	2885.93
723.359	2928.19
723.701	2882.76
724.044	2917.56
724.386	2887.73
724.729	2921.41
725.071	2912.37
725.413	2910.33
725.755	2939.71
726.097	2947.62
726.439	2893.16
726.782	2929.32
727.124	2974.96
727.465	2954.85
727.807	2975.42
728.149	2966.15
728.491	2986.94
728.833	3015.64
729.175	3008.18
729.516	2989.43
729.858	3028.97
730.199	3023.32
730.541	3048.63
730.882	3068.07
731.224	3090.67
731.565	3093.83
731.906	3104.45
732.248	3120.27
732.589	3104.9
732.93	3139.93
733.271	3127.05
733.612	3128.63
733.953	3146.71
734.294	3177.44
734.635	3192.59
734.976	3213.83
735.317	3207.27
735.658	3243.21
735.999	3290.44
736.339	3287.27
736.68	3316.65
737.021	3295.18
737.361	3304.67
737.702	3379.7
738.042	3390.77
738.383	3387.83
738.723	3439.13
739.063	3426.03
739.404	3441.17
739.744	3500.37
740.084	3511.22
740.424	3505.8
740.764	3549.86
741.104	3588.06
741.444	3579.69
741.784	3646.81
742.124	3684.78
742.464	3711.44
742.804	3727.03
743.143	3754.15
743.483	3806.35
743.823	3812.46
744.162	3874.15
744.502	3944.2
744.841	3934.71
745.181	3985.33
745.52	3972.68
745.86	4072.34
746.199	4114.14
746.538	4150.07
746.877	4155.95
747.216	4210.86
747.556	4239.79
747.895	4333.57
748.234	4381.25
748.573	4440.24
748.911	4478.88
749.25	4514.58
749.589	4574.47
749.928	4597.29
750.267	4708.03
750.605	4749.61
750.944	4798.19
751.283	4859.21
751.621	4945.76
751.96	5000.67
752.298	5083.16
752.636	5148.92
752.975	5180.1
753.313	5236.83
753.651	5326.99
753.989	5386.43
754.327	5462.58
754.666	5530.38
755.004	5616.02
755.342	5696.25
755.679	5760.43
756.017	5823.48
756.355	5936.02
756.693	5956.58
757.031	6037.93
757.368	6132.4
757.706	6251.71
758.044	6286.74
758.381	6354.99
758.719	6358.15
759.056	6515.21
759.394	6588.43
759.731	6638.37
760.068	6670.01
760.405	6769.67
760.743	6839.72
761.08	6936.44
761.417	7026.16
761.754	7045.14
762.091	7123.1
762.428	7186.38
762.765	7208.98
763.102	7263.66
763.438	7374.85
763.775	7420.27
764.112	7477.44
764.449	7599.25
764.785	7603.32
765.122	7578.23
765.458	7620.49
765.795	7745.23
766.131	7777.32
766.467	7916.08
766.804	7923.76
767.14	7964.21
767.476	8015.96
767.812	8068.16
768.148	8118.56
768.485	8098.22
768.821	8179.12
769.157	8237.88
769.492	8272.9
769.828	8252.34
770.164	8285.33
770.5	8316.74
770.836	8333.02
771.171	8436.29
771.507	8442.39
771.842	8393.35
772.178	8472.22
772.513	8554.03
772.849	8522.39
773.184	8494.37
773.519	8584.53
773.855	8530.07
774.19	8573.01
774.525	8601.71
774.86	8651.65
775.195	8694.36
775.53	8676.74
775.865	8616.85
776.2	8624.31
776.535	8662.95
776.87	8756.73
777.205	8736.62
777.539	8690.97
777.874	8842.83
778.209	8727.36
778.543	8803.06
778.878	8705.89
779.212	8765.77
779.547	8723.74
779.881	8833.79
780.215	8777.07
780.55	8869.5
780.884	8837.63
781.218	8893
781.552	8779.56
781.886	8817.97
782.22	8818.88
782.554	8881.02
782.888	8808.94
783.222	8821.14
783.556	8791.31
783.889	8758.99
784.223	8689.84
784.557	8778.88
784.89	8786.79
785.224	8796.96
785.557	8688.49
785.891	8766
786.224	8733.46
786.558	8762.38
786.891	8689.39
787.224	8714.02
787.557	8733.46
787.891	8744.98
788.224	8654.14
788.557	8730.97
788.89	8674.25
789.223	8749.05
789.556	8655.27
789.888	8703.4
790.221	8682.38
790.554	8658.88
790.887	8695.27
791.219	8706.56
791.552	8657.75
791.884	8638.77
792.217	8636.51
792.549	8613.23
792.882	8658.88
793.214	8608.26
793.546	8594.48
793.879	8537.53
794.211	8570.98
794.543	8639
794.875	8548.6
795.207	8611.88
795.539	8579.11
795.871	8570.52
796.203	8530.75
796.535	8521.48
796.867	8409.62
797.198	8446.23
797.53	8464.76
797.862	8465.89
798.193	8516.06
798.525	8329.17
798.856	8439.45
799.188	8394.03
799.519	8363.3
799.85	8397.87
800.182	8341.83
800.513	8357.2
800.844	8385.67
801.175	8320.13
801.506	8349.51
801.837	8345.9
802.168	8294.37
802.499	8338.21
802.83	8223.41
803.161	8252.34
803.491	8197.65
803.822	8274.49
804.153	8250.31
804.483	8139.57
804.814	8152.46
805.145	8207.14
805.475	8238.78
805.805	8150.42
806.136	8162.4
806.466	8132.79
806.796	8156.52
807.126	8053.7
807.457	8039.46
807.787	8154.26
808.117	8052.34
808.447	8078.11
808.777	8083.98
809.107	8050.54
809.436	8015.74
809.766	8031.55
810.096	8018
810.426	7999.92
810.755	8054.15
811.085	8031.55
811.414	7935.51
811.744	7961.73
812.073	7969.64
812.403	7971.67
812.732	7884.44
813.061	7867.26
813.39	7908.17
813.719	7903.42
814.049	7931.9
814.378	7838.34
814.707	7756.99
815.036	7904.1
815.365	7792.92
815.693	7696.42
816.022	7753.82
816.351	7769.41
816.68	7695.74
817.008	7767.15
817.337	7664.56
817.665	7702.52
817.994	7699.36
818.322	7707.04
818.651	7638.57
818.979	7665.24
819.307	7705.24
819.636	7685.35
819.964	7599.02
820.292	7716.76
820.62	7639.93
820.948	7603.99
821.276	7683.99
821.604	7684.22
821.932	7672.69
822.259	7689.19
822.587	7659.36
822.915	7720.15
823.243	7673.37
823.57	7658.68
823.898	7681.51
824.225	7628.18
824.553	7646.48
824.88	7625.69
825.207	7692.13
825.535	7622.98
825.862	7703.65
826.189	7702.75
826.516	7735.52
826.843	7688.74
827.17	7693.71
827.497	7739.36
827.824	7734.84
828.151	7712.92
828.478	7786.82
828.805	7815.97
829.131	7729.64
829.458	7671.56
829.785	7667.27
830.111	7745.91
830.438	7729.19
830.764	7794.05
831.09	7750.21
831.417	7737.32
831.743	7802.86
832.069	7734.84
832.395	7712.69
832.722	7726.48
833.048	7695.97
833.374	7722.18
833.7	7729.64
834.026	7719.7
834.351	7725.57
834.677	7697.33
835.003	7758.12
835.329	7811.67
835.654	7721.51
835.98	7695.97
836.306	7730.55
836.631	7692.13
836.956	7726.93
837.282	7705.24
837.607	7663.43
837.932	7608.74
838.258	7683.77
838.583	7625.69
838.908	7595.18
839.233	7644.22
839.558	7639.93
839.883	7608.06
840.208	7590.44
840.533	7573.71
840.858	7571.45
841.182	7573.94
841.507	7545.01
841.832	7545.47
842.156	7551.57
842.481	7506.14
842.805	7505.24
843.13	7467.28
843.454	7443.77
843.778	7450.78
844.103	7444.68
844.427	7443.55
844.751	7432.02
845.075	7384.57
845.399	7351.57
845.723	7315.41
846.047	7310.67
846.371	7269.77
846.695	7239.94
847.019	7215.98
847.343	7230.67
847.666	7129.66
847.99	7162.42
848.313	7168.53
848.637	7092.14
848.96	7056.89
849.284	7105.7
849.607	7004.24
849.931	7064.8
850.254	7005.37
850.577	6909.32
850.9	6925.82
851.223	6920.17
851.546	6877.01
851.869	6799.72
852.192	6819.83
852.515	6738.26
852.838	6737.58
853.161	6750.91
853.483	6733.06
853.806	6675.66
854.129	6688.09
854.451	6664.13
854.774	6647.18
855.096	6612.61
855.419	6680.4
855.741	6596.56
856.063	6608.54
856.385	6562.21
856.708	6611.7
857.03	6530.35
857.352	6581.65
857.674	6507.53
857.996	6498.26
858.318	6469.34
858.64	6438.15
858.961	6399.96
859.283	6457.81
859.605	6320.41
859.926	6399.28
860.248	6400.64
860.57	6359.51
860.891	6373.74
861.212	6269.79
861.534	6314.31
861.855	6264.37
862.176	6302.33
862.498	6261.66
862.819	6305.5
863.14	6254.88
863.461	6245.61
863.782	6218.49
864.103	6244.93
864.424	6229.12
864.745	6221.66
865.065	6176.69
865.386	6170.59
865.707	6168.78
866.027	6147.99
866.348	6133.07
866.668	6160.64
866.989	6137.59
867.309	6133.98
867.63	6088.33
867.95	6086.07
868.27	6070.7
868.59	6135.56
868.91	6129.68
869.23	6060.98
869.55	6038.16
869.87	6070.48
870.19	5982.79
870.51	6033.64
870.83	6059.85
871.15	6006.75
871.469	6022.34
871.789	6018.5
872.109	6059.63
872.428	6002
872.748	5997.26
873.067	5945.51
873.386	5983.25
873.706	5919.52
874.025	5939.41
874.344	5936.69
874.663	5938.5
874.982	5913.64
875.301	5904.6
875.62	5851.5
875.939	5883.14
876.258	5908.45
876.577	5858.73
876.896	5840.43
877.214	5836.36
877.533	5831.39
877.852	5836.13
878.17	5868
878.489	5844.49
878.807	5776.02
879.125	5795.23
879.444	5843.59
879.762	5756.36
880.08	5805.4
880.398	5791.39
880.716	5729.24
881.034	5735.8
881.352	5753.65
881.67	5693.54
881.988	5741.45
882.306	5742.35
882.624	5674.78
882.941	5668
883.259	5679.75
883.577	5639.3
883.894	5615.12
884.212	5658.06
884.529	5609.7
884.846	5647.21
885.164	5568.79
885.481	5569.7
885.798	5574.22
886.115	5552.52
886.432	5532.19
886.75	5523.82
887.067	5498.97
887.383	5540.09
887.7	5506.42
888.017	5473.88
888.334	5486.31
888.651	5450.38
888.967	5463.71
889.284	5398.86
889.6	5371.96
889.917	5347.56
890.233	5390.49
890.55	5326.31
890.866	5331.96
891.182	5337.84
891.498	5296.03
891.815	5331.51
892.131	5289.25
892.447	5260.78
892.763	5261.68
893.079	5251.51
893.395	5246.54
893.71	5218.75
894.026	5212.87
894.342	5148.24
894.657	5145.53
894.973	5202.02
895.289	5159.77
895.604	5111.41
895.92	5102.14
896.235	5084.51
896.55	5056.49
896.865	5076.15
897.181	5029.83
897.496	5051.75
897.811	4995.93
898.126	4972.43
898.441	4969.04
898.756	4983.95
899.071	4971.07
899.386	4895.82
899.7	4885.65
900.015	4854.91
900.33	4817.85
900.644	4853.78
900.959	4821.02
901.273	4770.4
901.588	4800.45
901.902	4738.99
902.216	4736.05
902.531	4716.16
902.845	4728.59
903.159	4687.69
903.473	4679.1
903.787	4636.62
904.101	4677.52
904.415	4665.99
904.729	4642.49
905.042	4593.45
905.356	4594.36
905.67	4613.11
905.984	4574.92
906.297	4534.7
906.611	4517.3
906.924	4546.9
907.237	4484.75
907.551	4458.09
907.864	4486.79
908.177	4449.28
908.491	4502.16
908.804	4426.45
909.117	4382.84
909.43	4369.96
909.743	4340.35
910.056	4350.3
910.368	4350.75
910.681	4305.78
910.994	4301.26
911.307	4307.36
911.619	4238.66
911.932	4232.33
912.244	4217.19
912.557	4172.67
912.869	4164.54
913.181	4171.77
913.494	4205.67
913.806	4167.25
914.118	4136.74
914.43	4056.52
914.742	4084.09
915.054	4105.1
915.366	4082.51
915.678	4030.98
915.99	4021.72
916.302	4010.64
916.613	3987.14
916.925	3987.37
917.236	3986.24
917.548	3947.37
917.859	3940.14
918.171	3912.34
918.482	3885
918.794	3890.87
919.105	3916.18
919.416	3882.96
919.727	3860.36
920.038	3833.92
920.349	3822.85
920.66	3759.58
920.971	3814.94
921.282	3788.05
921.593	3773.14
921.903	3739.69
922.214	3725.9
922.525	3685.68
922.835	3691.1
923.146	3704.89
923.456	3683.19
923.767	3682.29
924.077	3621.27
924.387	3675.51
924.697	3590.32
925.008	3623.76
925.318	3561.16
925.628	3572.01
925.938	3586.7
926.248	3533.37
926.558	3582.18
926.867	3505.12
927.177	3505.12
927.487	3509.19
927.796	3443.2
928.106	3465.8
928.416	3463.99
928.725	3464.22
929.034	3415.86
929.344	3439.36
929.653	3411.79
929.962	3385.12
930.271	3322.3
930.581	3320.49
930.89	3318.01
931.199	3330.21
931.508	3338.57
931.817	3328.63
932.125	3276.43
932.434	3272.58
932.743	3266.48
933.051	3279.36
933.36	3238.23
933.669	3194.39
933.977	3195.75
934.286	3206.6
934.594	3208.18
934.902	3173.38
935.21	3166.6
935.519	3120.72
935.827	3136.09
936.135	3149.65
936.443	3129.08
936.751	3078.01
937.059	3074.4
937.367	3083.89
937.674	3093.61
937.982	3060.61
938.29	3043.66
938.597	3052.93
938.905	3028.3
939.213	3019.71
939.52	2950.33
939.827	2961.63
940.135	2963.67
940.442	2939.03
940.749	2969.99
941.056	2955.98
941.363	2897
941.67	2901.97
941.977	2878.47
942.284	2880.73
942.591	2874.4
942.898	2862.2
943.205	2851.8
943.511	2838.7
943.818	2826.49
944.125	2829.43
944.431	2839.6
944.738	2821.07
945.044	2790.11
945.35	2760.73
945.657	2726.16
945.963	2758.47
946.269	2728.64
946.575	2729.77
946.881	2752.6
947.187	2725.48
947.493	2705.82
947.799	2654.52
948.105	2669.44
948.41	2626.27
948.716	2646.16
949.022	2677.57
949.327	2665.37
949.633	2615.65
949.938	2588.99
950.244	2603
950.549	2557.8
950.854	2554.41
951.16	2543.79
951.465	2565.03
951.77	2552.83
952.075	2515.99
952.38	2566.84
952.685	2520.74
952.99	2476.45
953.294	2497.24
953.599	2515.32
953.904	2476.9
954.209	2458.82
954.513	2464.24
954.818	2442.1
955.122	2457.92
955.426	2447.75
955.731	2442.1
956.035	2415.66
956.339	2412.95
956.643	2375.66
956.948	2358.94
957.252	2411.36
957.556	2374.53
957.86	2336.79
958.163	2365.71
958.467	2369.1
958.771	2356.9
959.075	2324.59
959.378	2288.88
959.682	2307.64
959.985	2267.19
960.289	2297.47
960.592	2273.06
960.896	2239.62
961.199	2251.82
961.502	2236
961.805	2217.92
962.108	2238.94
962.411	2242.78
962.714	2213.18
963.017	2146.96
963.32	2170.01
963.623	2172.95
963.926	2179.73
964.228	2160.75
964.531	2153.29
964.833	2139.28
965.136	2159.62
965.438	2108.77
965.741	2086.4
966.043	2092.5
966.345	2107.64
966.648	2133.86
966.95	2127.53
967.252	2086.63
967.554	2096.8
967.856	2080.52
968.158	2035.78
968.46	2035.78
968.761	2050.02
969.063	2037.14
969.365	2028.77
969.666	2019.74
969.968	1994.2
970.269	1972.96
970.571	1991.26
970.872	1979.51
971.174	1963.24
971.475	1968.21
971.776	1946.97
972.077	1948.32
972.378	1936.35
972.679	1912.62
972.98	1943.8
973.281	1915.11
973.582	1918.95
973.883	1920.3
974.183	1897.93
974.484	1895.22
974.785	1893.18
975.085	1854.99
975.386	1882.34
975.686	1898.83
975.986	1832.62
976.287	1851.83
976.587	1829.68
976.887	1820.87
977.187	1819.74
977.487	1808.67
977.787	1791.49
978.087	1809.8
978.387	1783.58
978.687	1797.14
978.987	1764.83
979.286	1780.87
979.586	1761.44
979.885	1774.09
980.185	1729.8
980.484	1713.53
980.784	1721.21
981.083	1747.65
981.382	1729.35
981.682	1725.28
981.981	1725.51
982.28	1714.66
982.579	1694.77
982.878	1706.97
983.177	1690.48
983.475	1691.38
983.774	1662
984.073	1669.91
984.372	1633.08
984.67	1661.1
984.969	1633.3
985.267	1661.78
985.566	1653.64
985.864	1598.73
986.162	1624.49
986.461	1621.1
986.759	1605.51
987.057	1574.32
987.355	1591.5
987.653	1599.41
987.951	1568
988.249	1570.26
988.547	1556.7
988.844	1567.77
989.142	1550.14
989.44	1555.79
989.737	1543.36
990.035	1504.04
990.332	1504.04
990.63	1494.1
990.927	1510.14
991.224	1483.03
991.521	1490.71
991.819	1471.5
992.116	1476.92
992.413	1480.09
992.71	1461.11
993.006	1473.08
993.303	1469.02
993.6	1449.58
993.897	1451.16
994.193	1470.14
994.49	1404.84
994.787	1437.38
995.083	1421.33
995.379	1407.77
995.676	1414.55
995.972	1391.28
996.268	1410.26
996.565	1406.19
996.861	1384.72
997.157	1363.26
997.453	1353.09
997.749	1380.2
998.044	1358.96
998.34	1358.51
998.636	1348.11
998.932	1349.02
999.227	1312.18
999.523	1342.69
999.818	1300.21
1000.114	1301.56
1000.409	1304.27
1000.704	1316.02
1001	1294.56
1001.295	1288.45
1001.59	1286.87
1001.885	1297.95
1002.18	1269.02
1002.475	1248.23
1002.77	1258.17
1003.065	1251.85
1003.359	1259.08
1003.654	1221.34
1003.949	1216.14
1004.243	1227.21
1004.538	1201.68
1004.832	1225.86
1005.127	1207.78
1005.421	1185.18
1005.715	1182.69
1006.009	1203.26
1006.304	1178.4
1006.598	1178.63
1006.892	1183.82
1007.186	1179.76
1007.48	1169.14
1007.773	1155.35
1008.067	1148.8
1008.361	1155.12
1008.655	1158.51
1008.948	1142.92
1009.242	1128.23
1009.535	1125.97
1009.829	1143.15
1010.122	1113.54
1010.415	1103.83
1010.708	1084.62
1011.001	1102.7
1011.295	1082.81
1011.588	1092.53
1011.881	1089.14
1012.173	1062.47
1012.466	1054.11
1012.759	1077.61
1013.052	1064.51
1013.344	1039.65
1013.637	1033.32
1013.93	1041.46
1014.222	1032.87
1014.514	1021.8
1014.807	1022.02
1015.099	1008.46
1015.391	1019.76
1015.683	1009.14
1015.976	1024.73
1016.268	1002.81
1016.56	994.68
1016.851	998.97
1017.143	978.41
1017.435	990.38
1017.727	956.26
1018.018	980.21
1018.31	968.24
1018.602	960.1
1018.893	961.01
1019.185	935.92
1019.476	953.1
1019.767	935.7
1020.058	915.81
1020.35	928.92
1020.641	892.76
1020.932	924.62
1021.223	904.06
1021.514	914
1021.804	912.87
1022.095	896.15
1022.386	901.8
1022.677	884.85
1022.967	861.57
1023.258	846.66
1023.548	857.51
1023.839	870.39
1024.129	848.69
1024.419	871.97
1024.709	855.25
1025	842.82
1025.29	850.05
1025.58	816.15
1025.87	830.16
1026.16	823.16
1026.449	825.64
1026.739	801.24
1027.029	802.82
1027.319	822.03
1027.608	807.34
1027.898	787
1028.187	810.05
1028.477	805.3
1028.766	777.51
1029.055	775.7
1029.344	756.04
1029.634	787
1029.923	751.07
1030.212	757.4
1030.501	781.35
1030.79	743.16
1031.078	763.72
1031.367	764.4
1031.656	755.14
1031.945	741.12
1032.233	717.4
1032.522	747.45
1032.81	745.42
1033.099	716.49
1033.387	707
1033.675	715.59
1033.963	723.05
1034.251	730.05
1034.54	710.84
1034.828	721.69
1035.116	710.16
1035.403	716.04
1035.691	691.18
1035.979	682.6
1036.267	708.58
1036.554	679.88
1036.842	675.14
1037.129	682.37
1037.417	671.75
1037.704	687.34
1037.992	682.37
1038.279	682.14
1038.566	650.05
1038.853	650.05
1039.14	650.05
