Data from blue_surface_keyboard_FLMS001491_071.txt Node
Date: Tue Feb 07 11:13:37 GMT 2017
User: dcchb
Spectrometer: FLMS00149
Trigger mode: 0
Integration Time (sec): 2.000000E-2
Scans to average: 10
Electric dark correction enabled: true
Nonlinearity correction enabled: false
Boxcar width: 0
XAxis mode: Wavelengths
Number of Pixels in Spectrum: 2048
>>>>>Begin Spectral Data<<<<<
341.393	-5.68
341.776	-5.68
342.16	-5.68
342.543	-48.39
342.927	-77.77
343.31	-66.92
343.693	-67.37
344.077	-51.55
344.46	-61.04
344.843	-52.91
345.226	-40.93
345.61	-41.61
345.993	-10.42
346.376	5.17
346.759	-10.2
347.142	39.97
347.525	52.4
347.908	41.55
348.291	74.77
348.674	87.2
349.057	101.89
349.44	117.03
349.823	160.19
350.206	141.21
350.588	178.27
350.971	176.24
351.354	183.7
351.737	215.79
352.119	212.62
352.502	245.62
352.884	253.3
353.267	242
353.65	275.22
354.032	275.9
354.414	307.53
354.797	265.95
355.179	285.16
355.562	287.87
355.944	277.48
356.326	314.09
356.709	292.17
357.091	298.49
357.473	311.83
357.855	290.59
358.238	294.2
358.62	309.79
359.002	316.35
359.384	310.92
359.766	314.31
360.148	307.53
360.53	310.47
360.912	317.03
361.294	301.21
361.676	321.09
362.057	300.98
362.439	283.13
362.821	298.04
363.203	300.53
363.584	302.34
363.966	295.56
364.348	304.6
364.729	281.32
365.111	308.66
365.493	301.43
365.874	296.69
366.256	258.5
366.637	304.14
367.019	267.08
367.4	287.65
367.781	294.43
368.163	289.46
368.544	260.76
368.925	274.09
369.306	286.74
369.688	285.84
370.069	272.96
370.45	293.3
370.831	284.48
371.212	298.04
371.593	290.81
371.974	285.16
372.355	292.39
372.736	282.68
373.117	291.94
373.498	279.96
373.879	274.09
374.26	266.41
374.641	274.54
375.021	277.7
375.402	293.3
375.783	287.42
376.163	290.59
376.544	298.27
376.925	291.94
377.305	305.73
377.686	295.33
378.066	294.65
378.447	285.16
378.827	290.13
379.208	277.25
379.588	291.94
379.968	295.11
380.349	302.79
380.729	267.08
381.109	293.98
381.489	295.33
381.87	308.21
382.25	279.96
382.63	288.78
383.01	286.29
383.39	284.03
383.77	275.67
384.15	296.01
384.53	297.37
384.91	316.57
385.29	296.24
385.67	295.11
386.049	290.59
386.429	289.91
386.809	280.64
387.189	305.95
387.568	300.98
387.948	274.09
388.328	325.16
388.707	331.26
389.087	317.93
389.466	304.6
389.846	311.83
390.225	315.22
390.605	321.55
390.984	309.12
391.363	300.08
391.743	314.31
392.122	303.01
392.501	310.92
392.881	329.45
393.26	319.96
393.639	313.18
394.018	303.47
394.397	310.47
394.776	321.55
395.155	314.77
395.534	333.3
395.913	323.13
396.292	334.43
396.671	322.22
397.05	313.86
397.429	304.37
397.808	308.21
398.186	311.15
398.565	324.26
398.944	331.26
399.323	339.62
399.701	323.58
400.08	328.32
400.458	329.91
400.837	345.05
401.215	324.93
401.594	342.11
401.972	312.96
402.351	305.95
402.729	335.1
403.107	340.75
403.486	345.5
403.864	333.07
404.242	346.18
404.62	317.7
404.999	344.37
405.377	343.92
405.755	341.66
406.133	339.62
406.511	325.61
406.889	329.23
407.267	351.83
407.645	356.8
408.023	349.34
408.401	353.86
408.779	338.49
409.156	366.06
409.534	360.64
409.912	364.03
410.29	366.74
410.667	387.98
411.045	348.89
411.422	349.34
411.8	349.34
412.178	368.78
412.555	342.34
412.933	372.84
413.31	377.59
413.687	359.96
414.065	370.81
414.442	376.01
414.819	362
415.197	364.71
415.574	392.96
415.951	383.46
416.328	407.64
416.705	380.07
417.082	362
417.46	386.18
417.837	392.96
418.214	371.94
418.591	400.87
418.967	355.22
419.344	384.59
419.721	379.62
420.098	399.96
420.475	381.2
420.852	395.89
421.228	402.9
421.605	385.05
421.982	386.63
422.358	371.49
422.735	396.8
423.111	396.35
423.488	408.55
423.864	384.14
424.241	397.25
424.617	402.45
424.994	404.48
425.37	405.38
425.746	406.74
426.123	394.09
426.499	417.36
426.875	405.84
427.251	414.42
427.627	425.05
428.003	434.08
428.379	427.31
428.756	421.2
429.132	422.33
429.507	410.81
429.883	432.05
430.259	432.95
430.635	433.86
431.011	424.59
431.387	439.28
431.763	419.17
432.138	434.99
432.514	445.84
432.89	458.26
433.265	450.36
433.641	430.02
434.016	449.68
434.392	441.32
434.767	460.98
435.143	457.59
435.518	463.91
435.894	451.26
436.269	463.24
436.644	458.26
437.02	451.94
437.395	464.37
437.77	488.09
438.145	499.62
438.52	491.26
438.895	456.68
439.271	484.48
439.646	474.76
440.021	468.21
440.395	488.77
440.77	492.61
441.145	489.9
441.52	524.93
441.895	505.5
442.27	492.84
442.645	498.72
443.019	513.4
443.394	478.15
443.769	510.01
444.143	500.3
444.518	544.14
444.892	499.85
445.267	520.18
445.641	530.58
446.016	510.01
446.39	519.28
446.764	513.4
447.139	506.63
447.513	530.13
447.887	504.37
448.262	513.86
448.636	521.09
449.01	512.05
449.384	514.99
449.758	520.86
450.132	536.45
450.506	555.44
450.88	528.09
451.254	538.71
451.628	538.26
452.002	534.42
452.376	535.32
452.75	586.4
453.123	575.78
453.497	547.53
453.871	576
454.244	577.13
454.618	586.4
454.992	561.09
455.365	568.54
455.739	568.32
456.112	582.78
456.486	581.88
456.859	571.03
457.232	577.36
457.606	600.18
457.979	595.21
458.352	609
458.725	602.89
459.099	609
459.472	580.97
459.845	615.77
460.218	634.76
460.591	621.88
460.964	625.04
461.337	625.49
461.71	624.81
462.083	629.79
462.456	640.63
462.829	631.59
463.201	642.89
463.574	635.21
463.947	650.12
464.32	637.47
464.692	663.01
465.065	646.96
465.438	657.36
465.81	690.12
466.183	663.46
466.555	706.17
466.928	694.42
467.3	690.12
467.672	698.03
468.045	691.93
468.417	707.52
468.789	719.95
469.161	714.08
469.534	720.86
469.906	729.44
470.278	740.29
470.65	726.73
471.022	752.27
471.394	729.22
471.766	740.97
472.138	768.09
472.51	767.64
472.882	770.12
473.253	794.3
473.625	778.48
473.997	776.67
474.369	795.43
474.74	790.23
475.112	780.97
475.484	813.74
475.855	823.23
476.227	842.89
476.598	846.96
476.97	839.27
477.341	863
477.713	841.98
478.084	836.33
478.455	876.56
478.827	895.99
479.198	907.52
479.569	920.63
479.94	892.6
480.311	916.33
480.682	896.9
481.053	911.59
481.424	925.82
481.795	947.97
482.166	978.93
482.537	959.49
482.908	989.1
483.279	965.82
483.65	1005.6
484.021	995.43
484.391	1020.28
484.762	1008.31
485.133	1038.14
485.503	1026.39
485.874	1019.83
486.244	1048.08
486.615	1046.95
486.985	1056.22
487.356	1086.04
487.726	1077.01
488.097	1097.8
488.467	1107.29
488.837	1108.64
489.207	1121.98
489.578	1088.98
489.948	1136.89
490.318	1135.99
490.688	1113.61
491.058	1156.78
491.428	1163.56
491.798	1147.74
492.168	1150
492.538	1155.65
492.908	1182.54
493.278	1167.85
493.648	1163.78
494.017	1190.9
494.387	1216.44
494.757	1216.21
495.126	1197.68
495.496	1211.47
495.866	1214.86
496.235	1236.78
496.605	1217.34
496.974	1245.36
497.344	1242.42
497.713	1238.36
498.082	1231.13
498.452	1239.49
498.821	1253.27
499.19	1231.35
499.559	1222.31
499.928	1238.36
500.298	1287.4
500.667	1266.38
501.036	1239.04
501.405	1274.06
501.774	1275.19
502.143	1279.94
502.512	1279.49
502.88	1284.23
503.249	1269.32
503.618	1291.01
503.987	1277.9
504.356	1294.4
504.724	1302.76
505.093	1302.08
505.462	1295.76
505.83	1286.27
506.199	1300.28
506.567	1295.3
506.936	1307.73
507.304	1298.02
507.672	1316.77
508.041	1319.03
508.409	1369.2
508.777	1335.53
509.145	1359.94
509.514	1326.04
509.882	1330.11
510.25	1361.29
510.618	1353.38
510.986	1329.43
511.354	1349.09
511.722	1352.7
512.09	1352.93
512.458	1339.15
512.826	1350.67
513.193	1372.14
513.561	1343.44
513.929	1365.36
514.297	1366.94
514.664	1366.49
515.032	1397.45
515.4	1390.9
515.767	1374.85
516.135	1403.55
516.502	1382.08
516.869	1353.16
517.237	1374.85
517.604	1403.78
517.972	1400.39
518.339	1396.77
518.706	1398.35
519.073	1369.88
519.44	1394.51
519.808	1405.13
520.175	1397.22
520.542	1408.52
520.909	1416.88
521.276	1398.81
521.643	1416.88
522.009	1447.62
522.376	1420.5
522.743	1427.05
523.11	1429.31
523.477	1459.14
523.843	1422.31
524.21	1442.65
524.577	1457.11
524.943	1441.06
525.31	1462.53
525.676	1458.69
526.043	1461.18
526.409	1473.38
526.776	1488.97
527.142	1467.96
527.508	1486.26
527.874	1501.63
528.241	1468.41
528.607	1471.35
528.973	1479.48
529.339	1480.16
529.705	1491.91
530.071	1507.5
530.437	1482.64
530.803	1497.33
531.169	1519.93
531.535	1520.84
531.901	1492.81
532.267	1545.69
532.632	1511.34
532.998	1526.71
533.364	1527.39
533.73	1490.55
534.095	1518.58
534.461	1522.87
534.826	1566.26
535.192	1513.38
535.557	1552.93
535.923	1522.42
536.288	1530.55
536.653	1552.7
537.019	1554.06
537.384	1548.18
537.749	1530.33
538.114	1535.52
538.479	1556.09
538.845	1542.3
539.21	1524.9
539.575	1549.31
539.94	1542.3
540.305	1559.48
540.67	1565.35
541.034	1565.35
541.399	1568.29
541.764	1562.64
542.129	1561.29
542.494	1559.03
542.858	1588.18
543.223	1560.61
543.587	1563.77
543.952	1568.07
544.316	1560.38
544.681	1561.06
545.045	1560.83
545.41	1572.13
545.774	1566.94
546.138	1569.42
546.503	1564.22
546.867	1556.54
547.231	1564.68
547.595	1563.09
547.959	1581.63
548.324	1539.82
548.688	1570.1
549.052	1570.78
549.416	1562.42
549.779	1564.9
550.143	1570.33
550.507	1569.65
550.871	1599.93
551.235	1596.31
551.599	1570.1
551.962	1608.97
552.326	1615.75
552.689	1602.87
553.053	1609.19
553.417	1608.74
553.78	1620.95
554.143	1631.79
554.507	1626.6
554.87	1595.18
555.234	1618.91
555.597	1618.46
555.96	1596.31
556.323	1624.56
556.686	1594.05
557.05	1616.88
557.413	1617.33
557.776	1629.76
558.139	1615.97
558.502	1618.23
558.865	1597.67
559.228	1636.54
559.59	1615.97
559.953	1627.27
560.316	1637.22
560.679	1641.06
561.041	1632.92
561.404	1596.77
561.767	1625.92
562.129	1645.8
562.492	1669.53
562.854	1647.61
563.217	1640.15
563.579	1637.22
563.941	1653.71
564.304	1647.39
564.666	1658.01
565.028	1669.98
565.39	1672.92
565.753	1674.28
566.115	1687.84
566.477	1660.27
566.839	1662.98
567.201	1710.21
567.563	1692.36
567.925	1694.84
568.287	1691.23
568.648	1712.47
569.01	1691.68
569.372	1701.62
569.734	1718.34
570.095	1712.92
570.457	1690.55
570.819	1723.54
571.18	1700.27
571.542	1712.02
571.903	1703.88
572.265	1733.94
572.626	1700.04
572.987	1720.83
573.349	1722.86
573.71	1728.97
574.071	1757.21
574.432	1718.12
574.794	1749.3
575.155	1727.38
575.516	1717.67
575.877	1736.42
576.238	1733.49
576.599	1746.37
576.96	1762.86
577.32	1775.97
577.681	1750.21
578.042	1749.76
578.403	1743.65
578.763	1779.81
579.124	1790.43
579.485	1758.12
579.845	1767.16
580.206	1748.17
580.566	1748.17
580.927	1747.72
581.287	1782.07
581.648	1757.89
582.008	1749.08
582.368	1764.9
582.728	1778.23
583.089	1763.77
583.449	1785.46
583.809	1750.43
584.169	1767.61
584.529	1762.19
584.889	1807.83
585.249	1769.19
585.609	1786.59
585.969	1788.17
586.329	1765.35
586.688	1790.21
587.048	1780.04
587.408	1782.75
587.768	1798.57
588.127	1792.92
588.487	1770.55
588.846	1794.95
589.206	1787.27
589.565	1774.84
589.925	1794.5
590.284	1808.06
590.643	1742.52
591.003	1807.38
591.362	1774.39
591.721	1757.21
592.08	1790.66
592.44	1787.95
592.799	1838.34
593.158	1803.77
593.517	1808.96
593.876	1830.88
594.235	1802.41
594.593	1810.32
594.952	1808.96
595.311	1803.77
595.67	1787.95
596.029	1811.9
596.387	1827.49
596.746	1833.37
597.104	1814.16
597.463	1800.6
597.822	1803.09
598.18	1837.44
598.538	1803.77
598.897	1821.84
599.255	1817.33
599.613	1825.91
599.972	1820.26
600.33	1838.34
600.688	1815.52
601.046	1824.78
601.404	1826.36
601.762	1836.31
602.12	1836.53
602.478	1861.39
602.836	1803.31
603.194	1829.75
603.552	1825.91
603.91	1848.96
604.268	1833.14
604.625	1847.61
604.983	1858.68
605.341	1827.72
605.698	1863.2
606.056	1840.83
606.413	1868.17
606.771	1854.84
607.128	1859.81
607.485	1878.11
607.843	1852.58
608.2	1873.37
608.557	1850.54
608.914	1882.18
609.272	1863.43
609.629	1889.87
609.986	1886.7
610.343	1890.54
610.7	1902.07
611.057	1865.91
611.414	1859.81
611.771	1896.65
612.127	1918.11
612.484	1893.03
612.841	1896.87
613.198	1907.49
613.554	1890.09
613.911	1909.53
614.267	1920.37
614.624	1895.06
614.98	1919.24
615.337	1934.61
615.693	1938.23
616.05	1898.45
616.406	1932.35
616.762	1926.25
617.118	1935.51
617.475	1921.5
617.831	1941.84
618.187	1948.17
618.543	1965.34
618.899	1972.58
619.255	1942.29
619.611	1949.53
619.967	1941.16
620.323	1956.53
620.678	1921.73
621.034	1958.34
621.39	1914.95
621.746	1961.28
622.101	1958.79
622.457	1953.59
622.812	1960.15
623.168	1973.25
623.523	1960.6
623.879	1984.33
624.234	1970.32
624.589	1981.84
624.945	1981.61
625.3	1976.19
625.655	1986.36
626.01	1990.65
626.365	1970.32
626.72	1977.55
627.075	1989.75
627.43	2012.35
627.785	1972.35
628.14	1967.83
628.495	1981.39
628.85	1976.64
629.205	1977.55
629.559	1993.59
629.914	1993.82
630.269	1997.66
630.623	2002.18
630.978	2026.81
631.332	2021.61
631.687	2052.35
632.041	2022.07
632.396	2020.48
632.75	2027.26
633.104	2014.16
633.459	1996.98
633.813	2044.89
634.167	2038.56
634.521	2038.79
634.875	2027.72
635.229	2034.04
635.583	2053.25
635.937	2053.25
636.291	2039.69
636.645	2051.44
636.999	2041.95
637.352	2091.44
637.706	2087.83
638.06	2079.01
638.413	2044.89
638.767	2040.37
639.121	2081.5
639.474	2068.84
639.828	2065.45
640.181	2082.18
640.534	2102.06
640.888	2107.49
641.241	2115.4
641.594	2127.15
641.947	2099.58
642.301	2095.74
642.654	2101.84
643.007	2097.32
643.36	2107.71
643.713	2114.27
644.066	2121.95
644.419	2101.84
644.771	2122.63
645.124	2119.69
645.477	2126.02
645.83	2116.75
646.182	2105.45
646.535	2130.31
646.888	2129.63
647.24	2124.89
647.593	2158.56
647.945	2163.08
648.298	2155.85
648.65	2172.8
649.002	2154.49
649.355	2183.42
649.707	2180.25
650.059	2177.99
650.411	2196.3
650.763	2249.63
651.115	2254.83
651.467	2275.17
651.819	2280.59
652.171	2281.72
652.523	2278.33
652.875	2304.32
653.227	2304.09
653.578	2299.35
653.93	2317.65
654.282	2310.87
654.633	2315.84
654.985	2299.8
655.337	2321.27
655.688	2363.98
656.039	2366.01
656.391	2355.62
656.742	2393.36
657.094	2326.46
657.445	2394.03
657.796	2414.15
658.147	2417.99
658.498	2394.49
658.849	2437.65
659.2	2469.51
659.551	2437.87
659.902	2472.22
660.253	2462.96
660.604	2515.16
660.955	2441.49
661.306	2469.06
661.656	2507.02
662.007	2514.93
662.358	2530.07
662.708	2535.5
663.059	2536.63
663.409	2523.75
663.76	2595.61
664.11	2570.98
664.461	2595.38
664.811	2615.04
665.161	2583.63
665.511	2620.69
665.862	2627.25
666.212	2655.5
666.562	2663.63
666.912	2648.72
667.262	2661.82
667.612	2666.12
667.962	2700.01
668.312	2716.51
668.662	2706.57
669.011	2696.85
669.361	2724.65
669.711	2754.25
670.06	2723.29
670.41	2769.84
670.76	2747.24
671.109	2764.87
671.459	2792.89
671.808	2772.55
672.157	2815.26
672.507	2786.57
672.856	2783.85
673.205	2806.45
673.554	2810.52
673.904	2843.96
674.253	2891.87
674.602	2856.39
674.951	2828.15
675.3	2810.29
675.649	2858.65
675.998	2878.31
676.346	2920.57
676.695	2928.93
677.044	2901.36
677.393	2928.26
677.741	2929.16
678.09	2939.78
678.438	2956.28
678.787	2975.94
679.135	3026.56
679.484	2966.9
679.832	3042.6
680.181	2985.43
680.529	3047.8
680.877	2983.4
681.225	3007.58
681.573	3046.45
681.922	2989.05
682.27	3012.77
682.618	3065.88
682.966	3023.62
683.314	3046.9
683.661	3055.48
684.009	3016.16
684.357	3042.6
684.705	3069.04
685.053	3076.73
685.4	3074.24
685.748	3092.09
686.095	3080.34
686.443	3050.29
686.79	3098.42
687.138	3103.62
687.485	3083.73
687.832	3097.97
688.18	3096.16
688.527	3080.79
688.874	3108.36
689.221	3128.7
689.568	3113.11
689.915	3124.86
690.262	3114.69
690.609	3169.15
690.956	3133
691.303	3109.27
691.65	3093.22
691.997	3163.73
692.344	3092.55
692.69	3155.82
693.037	3151.75
693.383	3137.29
693.73	3142.71
694.077	3126.9
694.423	3145.88
694.769	3108.14
695.116	3138.19
695.462	3117.86
695.808	3104.97
696.155	3117.18
696.501	3117.86
696.847	3133.67
697.193	3071.08
697.539	3116.73
697.885	3105.65
698.231	3075.37
698.577	3122.38
698.923	3124.18
699.269	3131.41
699.614	3081.25
699.96	3070.85
700.306	3086.44
700.651	3041.7
700.997	3065.43
701.342	3097.97
701.688	3094.35
702.033	3094.81
702.379	3097.29
702.724	3100.23
703.069	3050.96
703.415	3023.85
703.76	3019.55
704.105	3013.45
704.45	3048.03
704.795	3054.58
705.14	3013.68
705.485	3030.17
705.83	3020.91
706.175	3037.18
706.52	3018.88
706.865	3004.41
707.209	3038.76
707.554	3017.07
707.899	3015.03
708.243	3005.99
708.588	2976.84
708.932	2989.27
709.277	2990.63
709.621	3021.59
709.966	2959.89
710.31	3006.22
710.654	2984.98
710.998	2985.66
711.342	2973.45
711.687	2970.06
712.031	2986.11
712.375	2983.4
712.719	2984.75
713.063	2973
713.407	2969.39
713.75	2951.08
714.094	2959.67
714.438	2949.95
714.782	2988.37
715.125	2941.14
715.469	2978.42
715.812	2973.45
716.156	2943.4
716.499	2971.87
716.843	2933.91
717.186	2936.17
717.53	2966
717.873	2971.19
718.216	2975.49
718.559	2954.24
718.902	2945.43
719.246	2930.29
719.589	2924.87
719.932	2923.06
720.275	2974.36
720.617	2949.72
720.96	2919.89
721.303	2930.52
721.646	2918.31
721.989	2942.95
722.331	2948.14
722.674	2908.6
723.016	2951.53
723.359	2947.46
723.701	2896.84
724.044	2917.41
724.386	2929.16
724.729	2921.7
725.071	2922.15
725.413	2930.97
725.755	2924.41
726.097	2943.4
726.439	2953.34
726.782	2921.7
727.124	2924.41
727.465	2924.64
727.807	2965.32
728.149	2955.15
728.491	2966.9
728.833	2913.57
729.175	2968.93
729.516	2949.27
729.858	2932.55
730.199	2972.55
730.541	3016.16
730.882	2949.05
731.224	2975.49
731.565	2903.85
731.906	2955.37
732.248	2964.64
732.589	2964.41
732.93	2957.86
733.271	2978.65
733.612	2977.29
733.953	3001.02
734.294	2981.81
734.635	2953.34
734.976	3010.51
735.317	2997.41
735.658	2980.91
735.999	3007.35
736.339	2971.65
736.68	3023.62
737.021	2988.14
737.361	3009.38
737.702	3024.75
738.042	3015.71
738.383	3004.64
738.723	3050.29
739.063	2990.18
739.404	3060
739.744	3033.79
740.084	3038.31
740.424	3036.28
740.764	3049.16
741.104	3078.31
741.444	3074.24
741.784	3086.22
742.124	3111.08
742.464	3118.76
742.804	3133
743.143	3101.13
743.483	3135.93
743.823	3144.07
744.162	3147.46
744.502	3178.19
744.841	3154.24
745.181	3182.71
745.52	3168.48
745.86	3229.27
746.199	3206.67
746.538	3180.45
746.877	3263.16
747.216	3275.82
747.556	3286.66
747.895	3311.98
748.234	3291.86
748.573	3277.63
748.911	3311.75
749.25	3363.73
749.589	3335.48
749.928	3365.31
750.267	3396.94
750.605	3394.46
750.944	3398.07
751.283	3456.15
751.621	3471.07
751.96	3475.59
752.298	3508.58
752.636	3484.85
752.975	3502.7
753.313	3513.33
753.651	3544.51
753.989	3556.49
754.327	3589.26
754.666	3561.23
755.004	3621.35
755.342	3628.58
755.679	3670.38
756.017	3722.13
756.355	3742.7
756.693	3723.04
757.031	3708.12
757.368	3733.66
757.706	3753.09
758.044	3762.58
758.381	3789.7
758.719	3837.84
759.056	3863.37
759.394	3842.13
759.731	3817.5
760.068	3911.73
760.405	3880.77
760.743	3870.15
761.08	3912.86
761.417	3915.12
761.754	3892.07
762.091	3939.98
762.428	3926.2
762.765	3902.02
763.102	3976.82
763.438	3976.59
763.775	3923.48
764.112	3980.88
764.449	4048.45
764.785	4000.54
765.122	3977.27
765.458	4016.59
765.795	4041.67
766.131	3989.02
766.467	4052.97
766.804	3984.73
767.14	3963.03
767.476	4005.06
767.812	4065.4
768.148	4049.13
768.485	4026.53
768.821	4044.39
769.157	4079.41
769.492	3996.93
769.828	4082.12
770.164	3996.48
770.5	4036.48
770.836	4004.84
771.171	4022.46
771.507	4035.8
771.842	4015.91
772.178	4005.29
772.513	3963.94
772.849	4016.14
773.184	4016.36
773.519	3982.01
773.855	3983.6
774.19	3958.96
774.525	3987.66
774.86	3985.63
775.195	3938.4
775.53	3933.88
775.865	3965.97
776.2	3916.25
776.535	3892.52
776.87	3905.86
777.205	3913.09
777.539	3909.47
777.874	3896.37
778.209	3923.26
778.543	3865.63
778.878	3879.19
779.212	3862.92
779.547	3845.52
779.881	3869.47
780.215	3806.43
780.55	3842.58
780.884	3790.83
781.218	3841
781.552	3826.09
781.886	3767.56
782.22	3782.92
782.554	3819.98
782.888	3785.86
783.222	3785.63
783.556	3681.46
783.889	3695.24
784.223	3678.29
784.557	3737.05
784.89	3740.44
785.224	3652.08
785.557	3694.34
785.891	3628.58
786.224	3643.94
786.558	3659.99
786.891	3641.91
787.224	3640.55
787.557	3630.38
787.891	3593.1
788.224	3628.58
788.557	3608.46
788.89	3542.48
789.223	3573.21
789.556	3510.39
789.888	3538.86
790.221	3561.46
790.554	3492.54
790.887	3576.37
791.219	3552.42
791.552	3509.48
791.884	3495.7
792.217	3459.09
792.549	3497.51
792.882	3449.37
793.214	3452.99
793.546	3496.6
793.879	3436.49
794.211	3405.08
794.543	3447.11
794.875	3398.75
795.207	3442.37
795.539	3432.65
795.871	3445.3
796.203	3381.35
796.535	3369.83
796.867	3361.47
797.198	3357.4
797.53	3323.95
797.862	3329.6
798.193	3330.73
798.525	3309.04
798.856	3288.92
799.188	3288.92
799.519	3283.5
799.85	3273.56
800.182	3270.39
800.513	3267.68
800.844	3238.53
801.175	3255.48
801.506	3243.5
801.837	3257.74
802.168	3218.42
802.499	3206.22
802.83	3209.15
803.161	3190.62
803.491	3144.97
803.822	3168.48
804.153	3145.2
804.483	3183.39
804.814	3143.39
805.145	3181.36
805.475	3136.39
805.805	3146.78
806.136	3136.39
806.466	3107.23
806.796	3105.43
807.126	3114.69
807.457	3105.65
807.787	3111.53
808.117	3036.73
808.447	3092.09
808.777	3052.55
809.107	3054.81
809.436	3050.51
809.766	3062.49
810.096	3041.25
810.426	3048.93
810.755	3053
811.085	3007.58
811.414	2984.3
811.744	2998.99
812.073	2994.7
812.403	3029.72
812.732	2983.17
813.061	2993.79
813.39	2976.16
813.719	2952.21
814.049	2972.55
814.378	2965.09
814.707	2963.06
815.036	2968.03
815.365	2936.39
815.693	2906.79
816.022	2879.9
816.351	2912.66
816.68	2906.79
817.008	2908.6
817.337	2860.24
817.665	2891.65
817.994	2895.94
818.322	2899.33
818.651	2839.9
818.979	2848.71
819.307	2881.25
819.636	2825.21
819.964	2803.29
820.292	2848.03
820.62	2816.17
820.948	2851.87
821.276	2821.82
821.604	2885.32
821.932	2850.29
822.259	2845.32
822.587	2819.78
822.915	2854.13
823.243	2829.5
823.57	2826.11
823.898	2831.31
824.225	2836.06
824.553	2824.53
824.88	2848.26
825.207	2824.53
825.535	2828.37
825.862	2828.37
826.189	2842.38
826.516	2848.03
826.843	2846
827.17	2862.27
827.497	2841.48
827.824	2839.9
828.151	2843.29
828.478	2841.7
828.805	2853
829.131	2839.22
829.458	2840.35
829.785	2801.48
830.111	2835.6
830.438	2853.91
830.764	2827.24
831.09	2823.4
831.417	2798.54
831.743	2836.96
832.069	2832.89
832.395	2822.5
832.722	2830.18
833.048	2798.77
833.374	2819.78
833.7	2805.32
834.026	2834.02
834.351	2818.2
834.677	2823.4
835.003	2813.01
835.329	2834.02
835.654	2797.19
835.98	2808.26
836.306	2780.24
836.631	2774.36
836.956	2803.29
837.282	2800.12
837.607	2798.32
837.932	2747.24
838.258	2801.93
838.583	2755.61
838.908	2792.67
839.233	2757.19
839.558	2770.75
839.883	2780.69
840.208	2746.57
840.533	2739.11
840.858	2734.14
841.182	2791.99
841.507	2742.95
841.832	2712.44
842.156	2740.69
842.481	2721.03
842.805	2696.62
843.13	2719.45
843.454	2682.16
843.778	2725.32
844.103	2681.71
844.427	2653.24
844.751	2716.96
845.075	2670.86
845.399	2649.17
845.723	2671.09
846.047	2646.68
846.371	2657.75
846.695	2648.94
847.019	2638.55
847.343	2620.92
847.666	2616.63
847.99	2591.77
848.313	2591.09
848.637	2591.09
848.96	2591.32
849.284	2573.01
849.607	2536.85
849.931	2582.73
850.254	2523.07
850.577	2546.57
850.9	2497.08
851.223	2502.96
851.546	2496.86
851.869	2490.75
852.192	2518.1
852.515	2490.98
852.838	2461.83
853.161	2497.08
853.483	2461.15
853.806	2487.36
854.129	2455.73
854.451	2422.51
854.774	2422.05
855.096	2436.52
855.419	2383.41
855.741	2393.58
856.063	2372.56
856.385	2401.04
856.708	2370.3
857.03	2393.81
857.352	2365.11
857.674	2371.43
857.996	2380.93
858.318	2341.15
858.64	2360.36
858.961	2361.72
859.283	2334.83
859.605	2333.7
859.926	2369.85
860.248	2308.61
860.57	2306.58
860.891	2304.54
861.212	2303.64
861.534	2325.79
861.855	2293.7
862.176	2307.71
862.498	2309.97
862.819	2293.47
863.14	2263.42
863.461	2276.75
863.782	2269.29
864.103	2281.72
864.424	2310.87
864.745	2301.83
865.065	2236.75
865.386	2272.23
865.707	2271.55
866.027	2276.52
866.348	2269.52
866.668	2277.2
866.989	2230.2
867.309	2242.4
867.63	2302.51
867.95	2212.34
868.27	2240.14
868.59	2212.34
868.91	2256.86
869.23	2207.6
869.55	2194.49
869.87	2232.68
870.19	2232
870.51	2234.49
870.83	2215.51
871.15	2211.44
871.469	2184.32
871.789	2180.03
872.109	2176.19
872.428	2212.34
872.748	2206.69
873.067	2197.65
873.386	2171.44
873.706	2168.05
874.025	2195.62
874.344	2180.93
874.663	2221.61
874.982	2147.71
875.301	2152.01
875.62	2178.45
875.939	2197.43
876.258	2153.81
876.577	2167.6
876.896	2144.55
877.214	2157.88
877.533	2128.28
877.852	2133.02
878.17	2157.2
878.489	2171.44
878.807	2144.1
879.125	2152.46
879.444	2152.46
879.762	2113.59
880.08	2139.58
880.398	2141.84
880.716	2157.2
881.034	2130.09
881.352	2126.7
881.67	2129.63
881.988	2105.45
882.306	2082.85
882.624	2083.53
882.941	2067.94
883.259	2074.72
883.577	2128.96
883.894	2054.83
884.212	2115.4
884.529	2084.21
884.846	2081.72
885.164	2073.59
885.481	2050.99
885.798	2048.73
886.115	2086.24
886.432	2066.58
886.75	2027.49
887.067	2071.33
887.383	2050.54
887.7	2046.92
888.017	2055.28
888.334	2003.53
888.651	2027.26
888.967	2015.74
889.284	2025
889.6	2049.86
889.917	1963.99
890.233	1971.67
890.55	2019.35
890.866	1994.72
891.182	1988.85
891.498	1985.23
891.815	1979.13
892.131	1966.02
892.447	1982.74
892.763	1932.8
893.079	1975.29
893.395	1935.29
893.71	1953.14
894.026	1963.08
894.342	1921.73
894.657	1944.1
894.973	1923.09
895.289	1910.66
895.604	1921.28
895.92	1905.91
896.235	1884.22
896.55	1927.38
896.865	1912.69
897.181	1893.03
897.496	1871.56
897.811	1858.68
898.126	1870.43
898.441	1891.9
898.756	1893.71
899.071	1882.86
899.386	1855.29
899.7	1849.41
900.015	1823.2
900.33	1846.93
900.644	1844.67
900.959	1842.86
901.273	1829.75
901.588	1822.52
901.902	1818.68
902.216	1793.82
902.531	1802.41
902.845	1796.76
903.159	1785.69
903.473	1808.74
903.787	1795.4
904.101	1775.29
904.415	1815.07
904.729	1787.04
905.042	1775.52
905.356	1775.97
905.67	1729.64
905.984	1726.03
906.297	1742.52
906.611	1719.93
906.924	1757.89
907.237	1743.65
907.551	1744.56
907.864	1726.93
908.177	1718.12
908.491	1726.71
908.804	1693.49
909.117	1690.32
909.43	1678.57
909.743	1706.59
910.056	1670.21
910.368	1668.85
910.681	1658.91
910.994	1653.49
911.307	1670.21
911.619	1657.33
911.932	1641.06
912.244	1644.67
912.557	1606.03
912.869	1617.1
913.181	1609.65
913.494	1650.1
913.806	1639.25
914.118	1609.42
914.43	1584.11
914.742	1588.63
915.054	1580.04
915.366	1605.81
915.678	1584.79
915.99	1577.33
916.302	1584.56
916.613	1554.96
916.925	1555.64
917.236	1562.87
917.548	1552.47
917.859	1556.32
918.171	1553.15
918.482	1526.71
918.794	1537.56
919.105	1533.94
919.416	1528.97
919.727	1506.6
920.038	1515.86
920.349	1491.01
920.66	1526.03
920.971	1510.89
921.282	1470.89
921.593	1478.58
921.903	1478.12
922.214	1485.36
922.525	1495.53
922.835	1447.39
923.146	1460.5
923.456	1449.65
923.767	1462.76
924.077	1448.3
924.387	1403.32
924.697	1433.61
925.008	1429.09
925.318	1397.68
925.628	1420.95
925.938	1422.76
926.248	1432.48
926.558	1404.23
926.867	1391.35
927.177	1421.18
927.487	1421.63
927.796	1408.97
928.106	1376.21
928.416	1381.4
928.725	1376.66
929.034	1357.9
929.344	1345.47
929.653	1373.27
929.962	1336.21
930.271	1371.69
930.581	1359.71
930.89	1337.11
931.199	1332.82
931.508	1335.98
931.817	1350.9
932.125	1324.23
932.434	1346.15
932.743	1318.13
933.051	1298.24
933.36	1314.06
933.669	1326.94
933.977	1310.45
934.286	1313.38
934.594	1311.35
934.902	1276.32
935.21	1303.21
935.519	1283.1
935.827	1303.89
936.135	1260.05
936.443	1270.9
936.751	1262.99
937.059	1270.67
937.367	1284.68
937.674	1262.09
937.982	1245.81
938.29	1207.62
938.597	1245.14
938.905	1244.91
939.213	1229.32
939.52	1244.23
939.827	1215.31
940.135	1222.31
940.442	1231.13
940.749	1213.73
941.056	1208.98
941.363	1203.56
941.67	1213.95
941.977	1176.89
942.284	1204.46
942.591	1192.48
942.898	1174.63
943.205	1204.69
943.511	1194.06
943.818	1184.57
944.125	1165.14
944.431	1174.86
944.738	1151.81
945.044	1152.94
945.35	1152.94
945.657	1129.21
945.963	1181.64
946.269	1143.22
946.575	1173.73
946.881	1137.12
947.187	1135.99
947.493	1114.97
947.799	1111.81
948.105	1112.48
948.41	1118.13
948.716	1124.69
949.022	1114.74
949.327	1087.85
949.633	1086.72
949.938	1097.34
950.244	1092.82
950.549	1119.26
950.854	1060.73
951.16	1105.93
951.465	1095.08
951.77	1087.17
952.075	1068.87
952.38	1062.77
952.685	1060.73
952.99	1090.11
953.294	1045.82
953.599	1088.76
953.904	1043.79
954.209	1065.93
954.513	1072.26
954.818	1041.07
955.122	1036.55
955.426	1022.32
955.731	1016.67
956.035	1032.94
956.339	1022.09
956.643	1020.06
956.948	1036.55
957.252	1022.54
957.556	1008.53
957.86	1019.83
958.163	1019.61
958.467	1003.79
958.771	990.91
959.075	990.23
959.378	1015.54
959.682	1017.12
959.985	996.56
960.289	1020.74
960.592	987.52
960.896	987.52
961.199	1004.24
961.502	976.44
961.805	988.65
962.108	961.75
962.411	926.73
962.714	932.15
963.017	940.06
963.32	963.56
963.623	944.35
963.926	958.36
964.228	977.12
964.531	944.35
964.833	925.15
965.136	923.34
965.438	910.91
965.741	921.76
966.043	943.45
966.345	909.1
966.648	924.92
966.95	920.63
967.252	910.23
967.554	938.03
967.856	913.85
968.158	918.82
968.46	907.07
968.761	916.78
969.063	900.51
969.365	899.61
969.666	909.55
969.968	887.63
970.269	912.72
970.571	899.84
970.872	917.69
971.174	866.62
971.475	907.07
971.776	872.94
972.077	869.78
972.378	878.59
972.679	884.02
972.98	844.02
973.281	859.38
973.582	865.94
973.883	865.03
974.183	863.45
974.484	849.89
974.785	860.74
975.085	843.79
975.386	860.06
975.686	854.19
975.986	826.16
976.287	858.03
976.587	831.59
976.887	846.28
977.187	812.15
977.487	838.37
977.787	840.85
978.087	821.87
978.387	829.55
978.687	824.13
978.987	833.17
979.286	813.06
979.586	812.83
979.885	818.03
980.185	812.83
980.484	790.91
980.784	792.04
981.083	818.93
981.382	811.7
981.682	814.87
981.981	760.63
982.28	808.09
982.579	793.85
982.878	792.27
983.177	796.11
983.475	804.47
983.774	787.75
984.073	783.91
984.372	766.73
984.67	756.56
984.969	784.58
985.267	775.32
985.566	763.12
985.864	748.88
986.162	779.84
986.461	774.64
986.759	775.54
987.057	751.59
987.355	728.54
987.653	757.92
987.951	739.61
988.249	749.33
988.547	756.34
988.844	743.23
989.142	732.16
989.44	740.07
989.737	753.85
990.035	731.7
990.332	734.64
990.63	729.67
990.927	725.83
991.224	736.45
991.521	733.96
991.819	734.64
992.116	718.6
992.413	722.44
992.71	706.62
993.006	681.99
993.303	693.96
993.6	705.49
993.897	708.88
994.193	700.74
994.49	705.49
994.787	696.22
995.083	706.85
995.379	703.46
995.676	697.58
995.972	688.99
996.268	670.24
996.565	695.77
996.861	685.38
997.157	695.55
997.453	657.36
997.749	660.52
998.044	650.8
998.34	689.22
998.636	679.28
998.932	646.73
999.227	655.55
999.523	669.11
999.818	669.56
1000.114	655.77
1000.409	634.98
1000.704	651.03
1001	642.89
1001.295	640.63
1001.59	654.87
1001.885	643.12
1002.18	647.86
1002.475	660.75
1002.77	645.83
1003.065	646.06
1003.359	637.47
1003.654	645.15
1003.949	670.46
1004.243	639.73
1004.538	622.55
1004.832	647.19
1005.127	620.52
1005.421	635.21
1005.715	622.33
1006.009	624.59
1006.304	627.75
1006.598	620.52
1006.892	571.26
1007.186	593.18
1007.48	584.36
1007.773	612.84
1008.067	598.83
1008.361	602.44
1008.655	595.89
1008.948	609
1009.242	612.16
1009.535	601.76
1009.829	588.43
1010.122	582.56
1010.415	576.45
1010.708	590.46
1011.001	590.01
1011.295	575.32
1011.588	567.19
1011.881	580.97
1012.173	586.85
1012.466	549.79
1012.759	597.02
1013.052	579.17
1013.344	571.93
1013.637	577.58
1013.93	584.14
1014.222	562.89
1014.514	585.27
1014.807	584.59
1015.099	557.7
1015.391	557.25
1015.683	539.62
1015.976	563.8
1016.268	550.92
1016.56	553.63
1016.851	547.98
1017.143	543.23
1017.435	540.07
1017.727	559.51
1018.018	572.61
1018.31	550.24
1018.602	531.03
1018.893	559.51
1019.185	517.47
1019.476	525.83
1019.767	544.36
1020.058	540.75
1020.35	533.07
1020.641	539.84
1020.932	545.27
1021.223	514.08
1021.514	502.11
1021.804	507.76
1022.095	543.69
1022.386	530.58
1022.677	507.3
1022.967	521.77
1023.258	518.15
1023.548	517.25
1023.839	509.56
1024.129	521.99
1024.419	506.4
1024.709	504.82
1025	521.77
1025.29	490.58
1025.58	511.6
1025.87	486.29
1026.16	478.15
1026.449	488.09
1026.739	486.51
1027.029	480.19
1027.319	479.73
1027.608	461.65
1027.898	475.44
1028.187	487.42
1028.477	476.8
1028.766	469.34
1029.055	481.99
1029.344	505.27
1029.634	499.85
1029.923	476.12
1030.212	471.15
1030.501	465.95
1030.79	463.01
1031.078	466.85
1031.367	465.95
1031.656	467.53
1031.945	447.64
1032.233	454.2
1032.522	458.72
1032.81	467.08
1033.099	447.87
1033.387	464.59
1033.675	457.36
1033.963	464.37
1034.251	446.51
1034.54	448.1
1034.828	468.66
1035.116	442.9
1035.403	449.45
1035.691	450.81
1035.979	449.68
1036.267	443.58
1036.554	426.63
1036.842	434.08
1037.129	449.9
1037.417	429.34
1037.704	421.43
1037.992	430.92
1038.279	429.34
1038.566	455.33
1038.853	455.33
1039.14	455.33
