Data from blue_surface_keyboard_FLMS001491_047.txt Node
Date: Tue Feb 07 11:13:10 GMT 2017
User: dcchb
Spectrometer: FLMS00149
Trigger mode: 0
Integration Time (sec): 2.000000E-2
Scans to average: 10
Electric dark correction enabled: true
Nonlinearity correction enabled: false
Boxcar width: 0
XAxis mode: Wavelengths
Number of Pixels in Spectrum: 2048
>>>>>Begin Spectral Data<<<<<
341.393	-28.43
341.776	-28.43
342.16	-28.43
342.543	-52.39
342.927	-61.42
343.31	-79.28
343.693	-67.98
344.077	-66.4
344.46	-51.48
344.843	-60.3
345.226	-48.54
345.61	-32.27
345.993	-16.45
346.376	8.86
346.759	3.43
347.142	37.56
347.525	41.62
347.908	68.29
348.291	63.32
348.674	94.96
349.057	104.67
349.44	90.21
349.823	134.05
350.206	180.6
350.588	186.93
350.971	194.39
351.354	219.7
351.737	220.38
352.119	228.06
352.502	254.5
352.884	258.79
353.267	249.08
353.65	286.81
354.032	281.39
354.414	279.81
354.797	284.33
355.179	295.18
355.562	300.83
355.944	315.29
356.326	314.84
356.709	313.71
357.091	300.15
357.473	322.97
357.855	315.74
358.238	316.19
358.62	342.63
359.002	308.28
359.384	320.26
359.766	338.34
360.148	306.47
360.53	309.41
360.912	309.64
361.294	317.77
361.676	293.14
362.057	305.8
362.439	308.28
362.821	310.99
363.203	321.62
363.584	299.02
363.966	322.07
364.348	311.22
364.729	313.48
365.111	292.69
365.493	288.17
365.874	302.41
366.256	291.33
366.637	311.67
367.019	273.26
367.4	281.84
367.781	290.66
368.163	255.18
368.544	285.68
368.925	282.97
369.306	289.07
369.688	292.46
370.069	285.23
370.45	280.04
370.831	274.84
371.212	292.69
371.593	293.37
371.974	289.53
372.355	296.31
372.736	275.74
373.117	301.05
373.498	278.91
373.879	281.16
374.26	284.55
374.641	299.7
375.021	294.72
375.402	286.36
375.783	309.64
376.163	283.2
376.544	285.23
376.925	285.46
377.305	293.37
377.686	292.46
378.066	311.9
378.447	309.64
378.827	298.79
379.208	284.78
379.588	282.75
379.968	294.5
380.349	290.88
380.729	306.93
381.109	299.24
381.489	299.47
381.87	318.9
382.25	298.34
382.63	291.79
383.01	289.75
383.39	279.36
383.77	310.99
384.15	321.84
384.53	328.4
384.91	295.4
385.29	316.19
385.67	303.54
386.049	311.9
386.429	303.54
386.809	305.12
387.189	319.13
387.568	301.5
387.948	308.06
388.328	313.93
388.707	315.29
389.087	301.28
389.466	288.17
389.846	311.9
390.225	313.48
390.605	316.87
390.984	315.06
391.363	321.62
391.743	323.2
392.122	316.64
392.501	320.94
392.881	304.44
393.26	326.59
393.639	329.3
394.018	318.68
394.397	317.55
394.776	326.36
395.155	314.84
395.534	321.84
395.913	313.48
396.292	324.33
396.671	322.97
397.05	337.43
397.429	333.59
397.808	330.43
398.186	337.43
398.565	317.77
398.944	326.14
399.323	354.38
399.701	362.07
400.08	345.8
400.458	327.04
400.837	368.62
401.215	331.11
401.594	334.95
401.972	333.82
402.351	340.6
402.729	358.45
403.107	341.5
403.486	329.75
403.864	313.48
404.242	336.53
404.62	351.67
404.999	348.28
405.377	361.61
405.755	342.86
406.133	344.21
406.511	363.42
406.889	360.71
407.267	349.64
407.645	348.73
408.023	359.81
408.401	366.81
408.779	380.37
409.156	353.71
409.534	380.37
409.912	366.81
410.29	363.87
410.667	370.65
411.045	370.2
411.422	381.5
411.8	361.16
412.178	371.33
412.555	363.87
412.933	374.95
413.31	343.54
413.687	369.98
414.065	378.56
414.442	394.61
414.819	394.16
415.197	365.46
415.574	367.49
415.951	389.86
416.328	373.37
416.705	374.27
417.082	378.79
417.46	383.99
417.837	411.78
418.214	401.84
418.591	392.57
418.967	393.93
419.344	377.21
419.721	396.87
420.098	400.03
420.475	402.97
420.852	396.87
421.228	402.52
421.605	405.68
421.982	405.68
422.358	399.58
422.735	404.1
423.111	394.38
423.488	396.42
423.864	420.82
424.241	421.05
424.617	424.21
424.994	417.66
425.37	400.71
425.746	418.79
426.123	412.69
426.499	404.1
426.875	423.53
427.251	432.8
427.627	425.57
428.003	432.35
428.379	454.49
428.756	452.46
429.132	462.86
429.507	435.51
429.883	447.49
430.259	459.01
430.635	439.13
431.011	455.85
431.387	470.09
431.763	453.82
432.138	440.71
432.514	488.62
432.89	444.1
433.265	452.46
433.641	466.92
434.016	472.8
434.392	463.76
434.767	466.24
435.143	463.08
435.518	492.91
435.894	471.67
436.269	484.32
436.644	485
437.02	481.16
437.395	503.76
437.77	481.84
438.145	495.4
438.52	499.24
438.895	492.68
439.271	492.46
439.646	508.73
440.021	519.58
440.395	502.4
440.77	508.96
441.145	506.92
441.52	490.88
441.895	516.19
442.27	526.81
442.645	508.05
443.019	509.18
443.394	516.86
443.769	520.03
444.143	541.05
444.518	538.33
444.892	536.75
445.267	523.42
445.641	534.27
446.016	511.67
446.39	532.23
446.764	539.24
447.139	531.1
447.513	549.86
447.887	536.53
448.262	536.75
448.636	571.78
449.01	550.31
449.384	555.06
449.758	560.71
450.132	551.89
450.506	565.9
450.88	576.3
451.254	571.1
451.628	576.3
452.002	573.36
452.376	592.8
452.75	559.8
453.123	586.69
453.497	573.59
453.871	588.05
454.244	581.95
454.618	587.37
454.992	583.53
455.365	609.74
455.739	594.38
456.112	597.99
456.486	574.26
456.859	611.78
457.232	615.39
457.606	605.45
457.979	607.26
458.352	620.82
458.725	644.55
459.099	631.66
459.472	627.6
459.845	640.03
460.218	641.16
460.591	642.29
460.964	647.03
461.337	641.61
461.71	650.19
462.083	654.71
462.456	661.49
462.829	660.14
463.201	682.51
463.574	677.76
463.947	670.53
464.32	689.74
464.692	672.79
465.065	671.89
465.438	702.17
465.81	716.41
466.183	688.84
466.555	706.92
466.928	741.94
467.3	725.9
467.672	746.24
468.045	718.67
468.417	727.25
468.789	745.56
469.161	746.46
469.534	743.98
469.906	744.66
470.278	751.66
470.65	769.74
471.022	777.42
471.394	762.73
471.766	771.55
472.138	800.02
472.51	815.84
472.882	795.05
473.253	803.19
473.625	840.47
473.997	826.01
474.369	828.27
474.74	831.43
475.112	835.05
475.484	837.99
475.855	853.35
476.227	861.26
476.598	879.12
476.97	857.19
477.341	910.53
477.713	893.13
478.084	927.93
478.455	912.79
478.827	923.41
479.198	938.55
479.569	945.78
479.94	936.06
480.311	955.5
480.682	941.71
481.053	980.36
481.424	979.9
481.795	1020.81
482.166	996.4
482.537	1006.8
482.908	1012.45
483.279	1031.43
483.65	1030.3
484.021	1040.69
484.391	1061.26
484.762	1068.94
485.133	1076.4
485.503	1075.72
485.874	1099.67
486.244	1104.42
486.615	1125.89
486.985	1103.29
487.356	1124.76
487.726	1124.53
488.097	1134.93
488.467	1137.87
488.837	1157.07
489.207	1160.69
489.578	1181.03
489.948	1198.65
490.318	1203.85
490.688	1179.9
491.058	1215.6
491.428	1201.14
491.798	1204.08
492.168	1265.32
492.538	1242.5
492.908	1221.48
493.278	1233
493.648	1258.31
494.017	1258.31
494.387	1270.97
494.757	1275.49
495.126	1276.84
495.496	1290.4
495.866	1261.48
496.235	1251.53
496.605	1270.52
496.974	1323.85
497.344	1280.91
497.713	1340.8
498.082	1327.01
498.452	1320.46
498.821	1297.86
499.19	1310.06
499.559	1328.37
499.928	1320.46
500.298	1319.78
500.667	1340.8
501.036	1329.95
501.405	1330.85
501.774	1334.7
502.143	1363.4
502.512	1352.78
502.88	1336.5
503.249	1343.74
503.618	1353.68
503.987	1346.45
504.356	1339.22
504.724	1350.06
505.093	1361.81
505.462	1362.27
505.83	1360.23
506.199	1394.36
506.567	1377.41
506.936	1385.32
507.304	1377.86
507.672	1395.94
508.041	1400.23
508.409	1393.23
508.777	1421.7
509.145	1405.66
509.514	1413.56
509.882	1388.71
510.25	1379.44
510.618	1434.35
510.986	1402.49
511.354	1449.72
511.722	1409.27
512.09	1441.36
512.458	1411.08
512.826	1417.86
513.193	1423.28
513.561	1449.5
513.929	1442.94
514.297	1411.08
514.664	1439.33
515.032	1429.38
515.4	1416.28
515.767	1420.12
516.135	1427.8
516.502	1453.56
516.869	1443.62
517.237	1491.98
517.604	1471.19
517.972	1479.78
518.339	1469.38
518.706	1471.64
519.073	1482.72
519.44	1465.99
519.808	1461.92
520.175	1466.22
520.542	1488.59
520.909	1481.59
521.276	1485.2
521.643	1491.53
522.009	1528.36
522.376	1470.74
522.743	1505.31
523.11	1526.33
523.477	1548.25
523.843	1552.77
524.21	1553.67
524.577	1529.27
524.943	1533.11
525.31	1543.5
525.676	1559.78
526.043	1556.61
526.409	1524.07
526.776	1525.43
527.142	1555.03
527.508	1565.88
527.874	1572.2
528.241	1586.22
528.607	1562.94
528.973	1558.19
529.339	1564.3
529.705	1574.46
530.071	1572.66
530.437	1593.22
530.803	1592.09
531.169	1585.31
531.535	1574.92
531.901	1611.75
532.267	1586.67
532.632	1602.71
532.998	1602.94
533.364	1602.94
533.73	1599.32
534.095	1599.1
534.461	1623.5
534.826	1590.06
535.192	1606.55
535.557	1605.2
535.923	1636.38
536.288	1612.66
536.653	1624.63
537.019	1613.11
537.384	1612.43
537.749	1600.23
538.114	1586.44
538.479	1610.4
538.845	1614.92
539.21	1605.42
539.575	1623.73
539.94	1628.25
540.305	1613.56
540.67	1629.15
541.034	1637.29
541.399	1642.49
541.764	1610.17
542.129	1630.51
542.494	1648.13
542.858	1637.74
543.223	1625.08
543.587	1632.77
543.952	1622.82
544.316	1633.22
544.681	1617.63
545.045	1644.52
545.41	1611.98
545.774	1670.05
546.138	1645.65
546.503	1635.03
546.867	1605.2
547.231	1634.8
547.595	1645.42
547.959	1667.57
548.324	1673.67
548.688	1644.74
549.052	1639.77
549.416	1632.09
549.779	1663.73
550.143	1654.24
550.507	1655.37
550.871	1657.4
551.235	1630.28
551.599	1652.43
551.962	1661.02
552.326	1671.86
552.689	1646.78
553.053	1644.74
553.417	1636.61
553.78	1670.51
554.143	1699.66
554.507	1669.6
554.87	1635.93
555.234	1647.46
555.597	1681.35
555.96	1662.82
556.323	1665.08
556.686	1640.9
557.05	1656.72
557.413	1668.25
557.776	1665.99
558.139	1656.95
558.502	1676.61
558.865	1648.81
559.228	1666.89
559.59	1676.16
559.953	1690.39
560.316	1692.65
560.679	1696.49
561.041	1708.92
561.404	1710.28
561.767	1735.36
562.129	1717.29
562.492	1679.55
562.854	1722.26
563.217	1722.71
563.579	1686.78
563.941	1724.06
564.304	1744.18
564.666	1708.7
565.028	1724.97
565.39	1713.44
565.753	1731.75
566.115	1743.05
566.477	1755.25
566.839	1736.95
567.201	1744.63
567.563	1707.12
567.925	1741.01
568.287	1731.97
568.648	1705.76
569.01	1755.02
569.372	1782.14
569.734	1751.86
570.095	1762.03
570.457	1778.98
570.819	1764.06
571.18	1776.27
571.542	1758.19
571.903	1774.91
572.265	1774.23
572.626	1775.59
572.987	1786.21
573.349	1789.37
573.71	1802.93
574.071	1792.54
574.432	1797.28
574.794	1825.76
575.155	1793.22
575.516	1800
575.877	1819.2
576.238	1831.41
576.599	1815.14
576.96	1821.01
577.32	1818.3
577.681	1820.11
578.042	1836.15
578.403	1802.48
578.763	1826.89
579.124	1825.31
579.485	1839.99
579.845	1870.73
580.206	1833.44
580.566	1839.77
580.927	1838.19
581.287	1853.78
581.648	1847.9
582.008	1863.95
582.368	1838.41
582.728	1824.85
583.089	1795.48
583.449	1843.61
583.809	1836.6
584.169	1835.25
584.529	1838.86
584.889	1845.87
585.249	1858.07
585.609	1833.21
585.969	1832.08
586.329	1843.16
586.688	1867.56
587.048	1836.83
587.408	1874.8
587.768	1849.49
588.127	1849.49
588.487	1842.93
588.846	1846.32
589.206	1820.11
589.565	1848.13
589.925	1855.81
590.284	1840.45
590.643	1853.55
591.003	1864.63
591.362	1865.08
591.721	1866.66
592.08	1865.76
592.44	1886.77
592.799	1858.3
593.158	1849.71
593.517	1848.81
593.876	1859.2
594.235	1848.13
594.593	1857.17
594.952	1860.56
595.311	1872.08
595.67	1843.16
596.029	1894.23
596.387	1879.54
596.746	1869.82
597.104	1870.73
597.463	1881.8
597.822	1869.82
598.18	1869.82
598.538	1866.21
598.897	1888.13
599.255	1876.83
599.613	1866.21
599.972	1882.7
600.33	1879.77
600.688	1884.51
601.046	1904.4
601.404	1898.75
601.762	1889.71
602.12	1906.21
602.478	1869.15
602.836	1893.33
603.194	1919.99
603.552	1940.78
603.91	1927.45
604.268	1929.26
604.625	1901.91
604.983	1906.43
605.341	1898.75
605.698	1923.61
606.056	1905.98
606.413	1918.86
606.771	1924.74
607.128	1930.61
607.485	1929.48
607.843	1923.16
608.2	1939.2
608.557	1946.88
608.914	1935.81
609.272	1946.21
609.629	1939.65
609.986	1929.03
610.343	1943.72
610.7	1979.2
611.057	1957.73
611.414	1929.26
611.771	1984.85
612.127	1956.83
612.484	1929.94
612.841	1943.72
613.198	1987.56
613.554	1947.11
613.911	1975.13
614.267	1983.49
614.624	2007.9
614.98	1993.89
615.337	1984.4
615.693	1974.45
616.05	1991.85
616.406	1966.77
616.762	2018.07
617.118	2002.02
617.475	2001.35
617.831	2014
618.187	2020.1
618.543	2012.87
618.899	2011.06
619.255	2021.23
619.611	2007.45
619.967	2041.57
620.323	2009.71
620.678	2042.47
621.034	2021.68
621.39	2022.59
621.746	2003.38
622.101	2081.8
622.457	2025.07
622.812	2058.52
623.168	2064.62
623.523	2056.03
623.879	2062.14
624.234	2051.51
624.589	2050.84
624.945	2063.49
625.3	2076.15
625.655	2039.76
626.01	2060.1
626.365	2063.04
626.72	2069.82
627.075	2067.56
627.43	2090.83
627.785	2085.64
628.14	2054.45
628.495	2092.87
628.85	2075.47
629.205	2102.36
629.559	2124.96
629.914	2096.26
630.269	2101.91
630.623	2096.26
630.978	2105.75
631.332	2111.85
631.687	2104.85
632.041	2101.68
632.396	2134.45
632.75	2104.85
633.104	2106.88
633.459	2114.56
633.813	2111.85
634.167	2134.22
634.521	2139.87
634.875	2140.33
635.229	2147.56
635.583	2125.18
635.937	2132.42
636.291	2147.1
636.645	2155.69
636.999	2176.26
637.352	2171.28
637.706	2135.58
638.06	2163.6
638.413	2173.77
638.767	2191.17
639.121	2198.85
639.474	2173.54
639.828	2197.05
640.181	2206.54
640.534	2222.36
640.888	2173.77
641.241	2182.13
641.594	2211.74
641.947	2227.55
642.301	2217.39
642.654	2218.74
643.007	2248.34
643.36	2251.51
643.713	2223.94
644.066	2246.76
644.419	2242.47
644.771	2272.98
645.124	2227.1
645.477	2226.65
645.83	2255.35
646.182	2244.73
646.535	2256.71
646.888	2266.65
647.24	2258.74
647.593	2278.85
647.945	2268.46
648.298	2210.15
648.65	2249.25
649.002	2289.25
649.355	2319.76
649.707	2319.53
650.059	2296.03
650.411	2331.05
650.763	2358.4
651.115	2382.58
651.467	2363.6
651.819	2357.27
652.171	2415.35
652.523	2420.09
652.875	2402.47
653.227	2419.87
653.578	2440.66
653.93	2457.38
654.282	2452.18
654.633	2441.56
654.985	2471.84
655.337	2476.81
655.688	2539.18
656.039	2522.69
656.391	2522.69
656.742	2526.53
657.094	2550.26
657.445	2566.08
657.796	2568.56
658.147	2545.06
658.498	2572.18
658.849	2558.85
659.2	2611.5
659.551	2570.14
659.902	2617.15
660.253	2618.28
660.604	2627.77
660.955	2644.04
661.306	2677.71
661.656	2689.46
662.007	2700.31
662.358	2696.02
662.708	2707.77
663.059	2745.05
663.409	2720.87
663.76	2762.23
664.11	2753.19
664.461	2777.37
664.811	2798.61
665.161	2792.74
665.511	2795.9
665.862	2823.7
666.212	2807.43
666.562	2829.12
666.912	2853.75
667.262	2884.26
667.612	2850.14
667.962	2936.46
668.312	2916.8
668.662	2901.89
669.011	2925.84
669.361	2960.19
669.711	2976.91
670.06	2982.79
670.41	2979.63
670.76	3008.78
671.109	2997.48
671.459	3013.52
671.808	3052.17
672.157	3041.32
672.507	3031.6
672.856	3079.96
673.205	3056.69
673.554	3103.01
673.904	3117.02
674.253	3094.42
674.602	3129.23
674.951	3105.5
675.3	3094.42
675.649	3150.69
675.998	3164.25
676.346	3215.55
676.695	3155.89
677.044	3205.83
677.393	3245.15
677.741	3275.89
678.09	3284.02
678.438	3226.85
678.787	3252.16
679.135	3288.09
679.484	3246.51
679.832	3302.55
680.181	3293.97
680.529	3289.22
680.877	3300.29
681.225	3349.11
681.573	3331.93
681.922	3333.06
682.27	3384.81
682.618	3362.89
682.966	3350.01
683.314	3389.11
683.661	3374.42
684.009	3373.96
684.357	3385.04
684.705	3396.11
685.053	3437.47
685.4	3434.3
685.748	3425.49
686.095	3450.12
686.443	3469.56
686.79	3453.51
687.138	3447.86
687.485	3467.75
687.832	3488.76
688.18	3466.84
688.527	3468.88
688.874	3498.71
689.221	3492.61
689.568	3523.34
689.915	3511.81
690.262	3495.32
690.609	3536.45
690.956	3507.07
691.303	3478.59
691.65	3549.33
691.997	3525.83
692.344	3508.2
692.69	3535.54
693.037	3556.11
693.383	3502.32
693.73	3549.78
694.077	3514.07
694.423	3504.58
694.769	3483.79
695.116	3550.68
695.462	3548.42
695.808	3528.09
696.155	3564.47
696.501	3553.4
696.847	3476.56
697.193	3531.47
697.539	3528.54
697.885	3510.91
698.231	3485.15
698.577	3511.59
698.923	3544.81
699.269	3535.99
699.614	3543.68
699.96	3495.32
700.306	3493.96
700.651	3489.67
700.997	3537.58
701.342	3509.78
701.688	3508.65
702.033	3517.69
702.379	3504.13
702.724	3509.1
703.069	3488.31
703.415	3497.35
703.76	3487.63
704.105	3481.98
704.45	3472.49
704.795	3507.29
705.14	3439.5
705.485	3507.29
705.83	3438.37
706.175	3465.49
706.52	3466.62
706.865	3462.78
707.209	3452.15
707.554	3443.34
707.899	3435.88
708.243	3476.79
708.588	3481.31
708.932	3421.87
709.277	3428.65
709.621	3423.23
709.966	3425.26
710.31	3412.83
710.654	3360.41
710.998	3423.68
711.342	3423.46
711.687	3398.82
712.031	3357.69
712.375	3380.52
712.719	3400.63
713.063	3441.31
713.407	3376.9
713.75	3390.46
714.094	3393.4
714.438	3376.22
714.782	3413.51
715.125	3358.82
715.469	3407.64
715.812	3403.57
716.156	3416
716.499	3377.13
716.843	3411.7
717.186	3389.11
717.53	3393.63
717.873	3362.67
718.216	3390.69
718.559	3386.85
718.902	3388.65
719.246	3389.33
719.589	3374.87
719.932	3370.35
720.275	3368.54
720.617	3377.58
720.96	3355.89
721.303	3371.93
721.646	3367.19
721.989	3408.09
722.331	3413.74
722.674	3373.29
723.016	3413.96
723.359	3387.07
723.701	3369.22
724.044	3366.06
724.386	3391.14
724.729	3435.66
725.071	3401.31
725.413	3348.88
725.755	3406.28
726.097	3403.79
726.439	3372.84
726.782	3416
727.124	3422.55
727.465	3387.75
727.807	3362.67
728.149	3389.78
728.491	3418.26
728.833	3404.92
729.175	3442.21
729.516	3398.6
729.858	3392.72
730.199	3405.38
730.541	3422.33
730.882	3406.05
731.224	3417.81
731.565	3435.43
731.906	3408.31
732.248	3451.25
732.589	3406.96
732.93	3403.57
733.271	3436.34
733.612	3424.36
733.953	3430.01
734.294	3408.99
734.635	3430.23
734.976	3465.71
735.317	3464.36
735.658	3425.72
735.999	3440.18
736.339	3463.68
736.68	3439.95
737.021	3479.05
737.361	3481.08
737.702	3474.53
738.042	3435.66
738.383	3474.08
738.723	3502.55
739.063	3526.73
739.404	3525.37
739.744	3547.07
740.084	3500.97
740.424	3513.4
740.764	3532.15
741.104	3573.06
741.444	3535.09
741.784	3528.76
742.124	3599.95
742.464	3540.74
742.804	3577.58
743.143	3574.64
743.483	3611.47
743.823	3604.24
744.162	3622.77
744.502	3672.26
744.841	3611.92
745.181	3682.43
745.52	3656.44
745.86	3686.5
746.199	3656.44
746.538	3678.82
746.877	3718.59
747.216	3713.17
747.556	3744.58
747.895	3753.84
748.234	3763.11
748.573	3790.45
748.911	3772.15
749.25	3823.44
749.589	3824.8
749.928	3803.11
750.267	3853.5
750.605	3877.91
750.944	3862.31
751.283	3858.47
751.621	3890.79
751.96	3935.08
752.298	3955.64
752.636	4002.2
752.975	3990.45
753.313	3942.99
753.651	4029.54
753.989	4026.38
754.327	4003.1
754.666	4063.89
755.004	4136.66
755.342	4130.56
755.679	4144.34
756.017	4125.81
756.355	4142.98
756.693	4180.95
757.031	4222.76
757.368	4148.41
757.706	4204
758.044	4201.29
758.381	4254.39
758.719	4301.4
759.056	4331.45
759.394	4300.49
759.731	4315.86
760.068	4342.75
760.405	4388.4
760.743	4332.58
761.08	4328.29
761.417	4385.69
761.754	4405.8
762.091	4386.82
762.428	4394.96
762.765	4398.12
763.102	4438.8
763.438	4411.68
763.775	4427.72
764.112	4402.19
764.449	4463.88
764.785	4453.26
765.122	4455.07
765.458	4433.6
765.795	4437.67
766.131	4453.94
766.467	4482.64
766.804	4473.6
767.14	4441.51
767.476	4483.09
767.812	4501.39
768.148	4460.49
768.485	4475.86
768.821	4427.5
769.157	4446.93
769.492	4449.87
769.828	4483.77
770.164	4453.26
770.5	4456.42
770.836	4481.28
771.171	4395.63
771.507	4441.96
771.842	4395.18
772.178	4419.59
772.513	4436.08
772.849	4418.01
773.184	4430.43
773.519	4426.37
773.855	4406.48
774.19	4379.36
774.525	4427.27
774.86	4398.12
775.195	4421.4
775.53	4365.13
775.865	4342.08
776.2	4325.13
776.535	4304.56
776.87	4325.58
777.205	4275.41
777.539	4299.14
777.874	4275.86
778.209	4312.02
778.543	4257.33
778.878	4268.4
779.212	4245.13
779.547	4261.17
779.881	4269.31
780.215	4222.53
780.55	4233.15
780.884	4244.68
781.218	4232.47
781.552	4219.59
781.886	4196.99
782.22	4131.69
782.554	4161.74
782.888	4156.09
783.222	4122.42
783.556	4130.56
783.889	4118.8
784.223	4087.84
784.557	4102.08
784.89	4084.91
785.224	4050.11
785.557	4041.97
785.891	4033.61
786.224	4006.04
786.558	4040.61
786.891	4023.67
787.224	3977.34
787.557	3976.43
787.891	3982.31
788.224	3980.73
788.557	3961.97
788.89	3958.81
789.223	4002.87
789.556	3930.79
789.888	3905.02
790.221	3876.32
790.554	3868.19
790.887	3858.92
791.219	3870.45
791.552	3808.08
791.884	3860.73
792.217	3842.2
792.549	3834.74
792.882	3803.33
793.214	3796.33
793.546	3805.82
793.879	3762.66
794.211	3773.95
794.543	3775.08
794.875	3760.4
795.207	3749.77
795.539	3737.12
795.871	3747.29
796.203	3712.04
796.535	3685.37
796.867	3708.87
797.198	3692.15
797.53	3685.37
797.862	3653.96
798.193	3668.65
798.525	3641.53
798.856	3652.83
799.188	3633.39
799.519	3619.61
799.85	3609.44
800.182	3629.78
800.513	3574.86
800.844	3597.24
801.175	3574.64
801.506	3575.77
801.837	3564.69
802.168	3566.5
802.499	3556.79
802.83	3528.54
803.161	3531.7
803.491	3517.46
803.822	3488.54
804.153	3511.36
804.483	3469.33
804.814	3484.7
805.145	3449.67
805.475	3452.15
805.805	3431.36
806.136	3470.01
806.466	3446.73
806.796	3460.06
807.126	3438.14
807.457	3405.6
807.787	3406.96
808.117	3403.79
808.447	3382.55
808.777	3377.58
809.107	3368.99
809.436	3384.36
809.766	3368.99
810.096	3355.43
810.426	3321.54
810.755	3325.6
811.085	3331.25
811.414	3402.44
811.744	3285.15
812.073	3316.34
812.403	3271.59
812.732	3276.34
813.061	3256
813.39	3286.74
813.719	3260.97
814.049	3280.18
814.378	3289.22
814.707	3270.46
815.036	3265.27
815.365	3217.13
815.693	3227.53
816.022	3209
816.351	3196.79
816.68	3204.48
817.008	3227.53
817.337	3196.79
817.665	3155.67
817.994	3149.79
818.322	3161.77
818.651	3164.7
818.979	3157.25
819.307	3129.9
819.636	3146.4
819.964	3151.82
820.292	3139.62
820.62	3147.3
820.948	3143.91
821.276	3168.55
821.604	3132.39
821.932	3159.28
822.259	3078.38
822.587	3131.94
822.915	3109.11
823.243	3137.36
823.57	3119.51
823.898	3104.14
824.225	3091.94
824.553	3100.53
824.88	3129.9
825.207	3096.46
825.535	3103.92
825.862	3132.62
826.189	3109.79
826.516	3157.25
826.843	3119.28
827.17	3133.07
827.497	3123.35
827.824	3135.78
828.151	3160.41
828.478	3107.76
828.805	3126.29
829.131	3102.79
829.458	3114.76
829.785	3110.47
830.111	3096.01
830.438	3140.07
830.764	3144.14
831.09	3125.84
831.417	3080.87
831.743	3084.26
832.069	3129
832.395	3079.74
832.722	3039.28
833.048	3136.68
833.374	3108.89
833.7	3077.93
834.026	3117.02
834.351	3107.53
834.677	3068.44
835.003	3126.97
835.329	3079.06
835.654	3050.13
835.98	3088.77
836.306	3107.53
836.631	3076.8
836.956	3062.11
837.282	3066.63
837.607	3049.45
837.932	3076.8
838.258	3037.7
838.583	3040.41
838.908	3028.89
839.233	3052.17
839.558	3065.5
839.883	3005.39
840.208	3005.16
840.533	3038.83
840.858	3012.17
841.182	3026.18
841.507	3003.81
841.832	2985.73
842.156	2978.95
842.481	2966.29
842.805	2997.7
843.13	2954.31
843.454	2997.03
843.778	2974.88
844.103	2949.57
844.427	2945.28
844.751	2968.33
845.075	2930.81
845.399	2917.03
845.723	2940.08
846.047	2950.47
846.371	2911.15
846.695	2922.23
847.019	2893.98
847.343	2860.98
847.666	2840.65
847.99	2823.47
848.313	2863.02
848.637	2842.23
848.96	2825.5
849.284	2783.02
849.607	2774.66
849.931	2833.19
850.254	2821.89
850.577	2764.72
850.9	2769.91
851.223	2755
851.546	2736.02
851.869	2698.5
852.192	2783.47
852.515	2741.89
852.838	2721.1
853.161	2691.27
853.483	2707.32
853.806	2654.21
854.129	2673.87
854.451	2709.58
854.774	2642.46
855.096	2603.36
855.419	2660.09
855.741	2628
856.063	2625.28
856.385	2623.7
856.708	2641.1
857.03	2612.4
857.352	2619.18
857.674	2594.32
857.996	2574.89
858.318	2561.78
858.64	2575.57
858.961	2586.64
859.283	2594.78
859.605	2541.44
859.926	2577.15
860.248	2576.25
860.57	2564.72
860.891	2517.04
861.212	2561.1
861.534	2545.96
861.855	2540.99
862.176	2489.02
862.498	2525.85
862.819	2531.95
863.14	2506.42
863.461	2499.19
863.782	2481.33
864.103	2500.54
864.424	2496.7
864.745	2514.55
865.065	2464.61
865.386	2494.44
865.707	2474.33
866.027	2482.69
866.348	2483.14
866.668	2490.15
866.989	2498.96
867.309	2462.8
867.63	2437.72
867.95	2432.52
868.27	2453.99
868.59	2439.98
868.91	2430.26
869.23	2400.66
869.55	2433.2
869.87	2437.04
870.19	2425.06
870.51	2465.06
870.83	2414.44
871.15	2415.35
871.469	2411.5
871.789	2411.5
872.109	2422.35
872.428	2403.59
872.748	2421.22
873.067	2421.22
873.386	2417.61
873.706	2389.58
874.025	2416.7
874.344	2385.52
874.663	2374.67
874.982	2383.26
875.301	2365.4
875.62	2377.83
875.939	2346.65
876.258	2347.55
876.577	2361.56
876.896	2330.38
877.214	2346.65
877.533	2367.66
877.852	2371.05
878.17	2365.4
878.489	2334.22
878.807	2398.85
879.125	2315.69
879.444	2344.16
879.762	2356.82
880.08	2308.46
880.398	2280.66
880.716	2306.87
881.034	2298.74
881.352	2318.17
881.67	2319.98
881.988	2311.85
882.306	2315.24
882.624	2282.92
882.941	2293.32
883.259	2283.15
883.577	2285.18
883.894	2245.86
884.212	2283.82
884.529	2274.11
884.846	2258.97
885.164	2263.26
885.481	2249.02
885.798	2242.92
886.115	2244.96
886.432	2235.46
886.75	2221.9
887.067	2232.3
887.383	2237.05
887.7	2240.66
888.017	2199.53
888.334	2218.74
888.651	2200.66
888.967	2164.51
889.284	2204.96
889.6	2210.15
889.917	2182.13
890.233	2189.82
890.55	2197.05
890.866	2185.75
891.182	2176.48
891.498	2182.81
891.815	2132.42
892.131	2184.62
892.447	2144.39
892.763	2148.91
893.079	2137.61
893.395	2165.86
893.71	2123.15
894.026	2122.47
894.342	2133.09
894.657	2119.08
894.973	2069.37
895.289	2096.48
895.604	2105.52
895.92	2093.32
896.235	2105.52
896.55	2040.67
896.865	2073.66
897.181	2071.63
897.496	2083.15
897.811	2051.06
898.126	2050.84
898.441	2043.15
898.756	2054.68
899.071	2042.93
899.386	2018.97
899.7	1997.5
900.015	2028.01
900.33	2010.61
900.644	2011.29
900.959	2007.45
901.273	2019.2
901.588	1981.46
901.902	1964.06
902.216	1985.98
902.531	1993.21
902.845	2007.67
903.159	1974.68
903.473	1949.14
903.787	1946.43
904.101	1945.75
904.415	1931.29
904.729	1937.62
905.042	1905.98
905.356	1879.09
905.67	1902.37
905.984	1957.73
906.297	1893.1
906.611	1893.1
906.924	1896.04
907.237	1887.68
907.551	1853.78
907.864	1862.37
908.177	1866.21
908.491	1887
908.804	1861.69
909.117	1847
909.43	1834.57
909.743	1828.47
910.056	1846.32
910.368	1842.48
910.681	1816.27
910.994	1825.08
911.307	1777.85
911.619	1798.19
911.932	1791.63
912.244	1783.27
912.557	1788.47
912.869	1783.27
913.181	1737.85
913.494	1776.04
913.806	1760.22
914.118	1731.97
914.43	1701.69
914.742	1730.84
915.054	1706.89
915.366	1737.62
915.678	1714.57
915.99	1701.01
916.302	1686.78
916.613	1692.88
916.925	1706.89
917.236	1727.68
917.548	1711.64
917.859	1675.93
918.171	1696.72
918.482	1655.59
918.794	1669.6
919.105	1653.78
919.416	1684.74
919.727	1660.79
920.038	1629.6
920.349	1627.34
920.66	1632.09
920.971	1653.78
921.282	1628.7
921.593	1614.92
921.903	1625.08
922.214	1621.92
922.525	1595.03
922.835	1596.38
923.146	1590.74
923.456	1597.74
923.767	1575.14
924.077	1596.16
924.387	1570.85
924.697	1553.22
925.008	1569.49
925.318	1549.83
925.628	1551.19
925.938	1540.34
926.248	1524.75
926.558	1548.25
926.867	1513.45
927.177	1520
927.487	1530.17
927.796	1520.23
928.106	1498.31
928.416	1509.61
928.725	1491.3
929.034	1485.65
929.344	1486.56
929.653	1491.75
929.962	1459.44
930.271	1452.66
930.581	1459.89
930.89	1444.52
931.199	1451.53
931.508	1475.03
931.817	1451.3
932.125	1437.07
932.434	1459.21
932.743	1444.75
933.051	1431.19
933.36	1400.01
933.669	1421.25
933.977	1417.63
934.286	1431.87
934.594	1424.19
934.902	1400.23
935.21	1385.99
935.519	1387.12
935.827	1409.27
936.135	1368.14
936.443	1365.43
936.751	1386.67
937.059	1366.33
937.367	1375.15
937.674	1366.79
937.982	1362.04
938.29	1343.96
938.597	1363.17
938.905	1339.22
939.213	1331.08
939.52	1324.53
939.827	1327.01
940.135	1304.87
940.442	1349.61
940.749	1318.43
941.056	1346.67
941.363	1321.36
941.67	1287.47
941.977	1274.81
942.284	1284.98
942.591	1297.64
942.898	1262.61
943.205	1261.93
943.511	1256.96
943.818	1275.94
944.125	1270.74
944.431	1234.81
944.738	1229.16
945.044	1254.25
945.35	1257.86
945.657	1230.52
945.963	1244.08
946.269	1201.59
946.575	1259.67
946.881	1223.06
947.187	1198.43
947.493	1195.04
947.799	1212.89
948.105	1191.2
948.41	1191.65
948.716	1217.19
949.022	1198.43
949.327	1211.54
949.633	1186
949.938	1201.82
950.244	1205.43
950.549	1180.8
950.854	1189.84
951.16	1164.31
951.465	1168.15
951.77	1151.88
952.075	1165.66
952.38	1174.25
952.685	1169.05
952.99	1173.57
953.294	1146.45
953.599	1164.08
953.904	1146.68
954.209	1132.67
954.513	1127.92
954.818	1126.34
955.122	1141.93
955.426	1115.27
955.731	1136.74
956.035	1108.71
956.339	1100.13
956.643	1118.88
956.948	1111.65
957.252	1116.17
957.556	1099.45
957.86	1089.28
958.163	1078.43
958.467	1097.41
958.771	1047.7
959.075	1088.15
959.378	1061.71
959.682	1074.59
959.985	1072.33
960.289	1066.23
960.592	1060.13
960.896	1044.76
961.199	1064.87
961.502	1064.42
961.805	1037.08
962.108	1035.95
962.411	1044.08
962.714	1036.63
963.017	1035.27
963.32	1022.61
963.623	1022.61
963.926	1039.79
964.228	1025.1
964.531	996.4
964.833	1002.28
965.136	1014.93
965.438	1009.73
965.741	1004.99
966.043	991.65
966.345	1003.63
966.648	987.14
966.95	986.68
967.252	969.96
967.554	997.53
967.856	989.39
968.158	1003.63
968.46	967.25
968.761	970.86
969.063	1000.69
969.365	981.71
969.666	981.49
969.968	946.68
970.269	939.23
970.571	921.6
970.872	940.36
971.174	935.61
971.475	936.51
971.776	955.27
972.077	962.95
972.378	924.76
972.679	947.59
972.98	903.3
973.281	925.44
973.582	916.18
973.883	911.43
974.183	918.44
974.484	917.98
974.785	906.46
975.085	912.56
975.386	914.82
975.686	899.68
975.986	913.46
976.287	880.25
976.587	878.44
976.887	903.97
977.187	898.78
977.487	865.1
977.787	893.13
978.087	881.38
978.387	876.4
978.687	871.66
978.987	899
979.286	877.31
979.586	887.25
979.885	869.4
980.185	873.47
980.484	866.91
980.784	863.97
981.083	849.29
981.382	854.71
981.682	864.2
981.981	851.09
982.28	853.81
982.579	847.48
982.878	831.43
983.177	835.73
983.475	822.17
983.774	819
984.073	851.77
984.372	816.74
984.67	804.32
984.969	819.91
985.267	820.13
985.566	828.5
985.864	824.43
986.162	806.12
986.461	815.16
986.759	802.06
987.057	814.48
987.355	794.6
987.653	801.6
987.951	835.73
988.249	802.96
988.547	771.1
988.844	776.97
989.142	790.98
989.44	798.44
989.737	780.59
990.035	789.17
990.332	796.63
990.63	774.94
990.927	773.36
991.224	785.33
991.521	761.38
991.819	763.64
992.116	767.25
992.413	766.12
992.71	756.18
993.006	764.99
993.303	743.3
993.6	770.87
993.897	770.87
994.193	759.34
994.49	738.55
994.787	758.21
995.083	739.23
995.379	746.69
995.676	745.11
995.972	744.2
996.268	729.51
996.565	720.02
996.861	721.83
997.157	719.35
997.453	710.53
997.749	722.28
998.044	712.34
998.34	707.59
998.636	701.04
998.932	706.69
999.227	715.73
999.523	714.15
999.818	707.14
1000.114	710.31
1000.409	696.07
1000.704	701.72
1001	713.47
1001.295	679.8
1001.59	681.83
1001.885	698.78
1002.18	674.83
1002.475	675.73
1002.77	673.02
1003.065	694.04
1003.359	686.35
1003.654	680.48
1003.949	682.96
1004.243	669.4
1004.538	661.04
1004.832	668.73
1005.127	630.99
1005.421	645.68
1005.715	685.22
1006.009	659.91
1006.304	652.23
1006.598	658.1
1006.892	667.14
1007.186	650.87
1007.48	661.27
1007.773	617.43
1008.067	630.08
1008.361	650.19
1008.655	636.86
1008.948	643.42
1009.242	620.59
1009.535	664.21
1009.829	611.33
1010.122	623.08
1010.415	638.9
1010.708	625.34
1011.001	632.79
1011.295	609.07
1011.588	629.18
1011.881	603.87
1012.173	607.26
1012.466	613.36
1012.759	623.98
1013.052	611.55
1013.344	610.65
1013.637	600.25
1013.93	602.96
1014.222	593.02
1014.514	611.1
1014.807	589.18
1015.099	596.64
1015.391	587.82
1015.683	591.44
1015.976	600.48
1016.268	585.79
1016.56	578.33
1016.851	583.53
1017.143	578.11
1017.435	577.43
1017.727	574.04
1018.018	596.41
1018.31	562.29
1018.602	579.01
1018.893	565.9
1019.185	563.87
1019.476	554.83
1019.767	561.84
1020.058	572.46
1020.35	565.9
1020.641	540.14
1020.932	572.68
1021.223	545.79
1021.514	550.54
1021.804	562.51
1022.095	563.19
1022.386	554.83
1022.677	542.18
1022.967	554.6
1023.258	518.67
1023.548	512.57
1023.839	525.68
1024.129	521.16
1024.419	542.63
1024.709	516.86
1025	535.17
1025.29	537.2
1025.58	506.47
1025.87	512.35
1026.16	533.36
1026.449	533.81
1026.739	524.1
1027.029	511.67
1027.319	507.37
1027.608	519.58
1027.898	524.77
1028.187	510.99
1028.477	520.48
1028.766	498.33
1029.055	499.01
1029.344	510.76
1029.634	486.81
1029.923	498.33
1030.212	512.57
1030.501	483.87
1030.79	504.21
1031.078	476.19
1031.367	492.23
1031.656	494.94
1031.945	481.84
1032.233	494.27
1032.522	496.53
1032.81	468.05
1033.099	472.8
1033.387	466.47
1033.675	472.12
1033.963	483.65
1034.251	470.54
1034.54	471.89
1034.828	472.8
1035.116	457.21
1035.403	479.8
1035.691	477.54
1035.979	464.44
1036.267	450.88
1036.554	466.47
1036.842	463.53
1037.129	456.53
1037.417	458.11
1037.704	453.14
1037.992	466.24
1038.279	467.6
1038.566	466.24
1038.853	466.24
1039.14	466.24
