Data from blue_surface_keyboard_FLMS001491_058.txt Node
Date: Tue Feb 07 11:13:20 GMT 2017
User: dcchb
Spectrometer: FLMS00149
Trigger mode: 0
Integration Time (sec): 2.000000E-2
Scans to average: 10
Electric dark correction enabled: true
Nonlinearity correction enabled: false
Boxcar width: 0
XAxis mode: Wavelengths
Number of Pixels in Spectrum: 2048
>>>>>Begin Spectral Data<<<<<
341.393	-3.76
341.776	-3.76
342.16	-3.76
342.543	-45.79
342.927	-58.22
343.31	-65
343.693	-81.04
344.077	-69.74
344.46	-69.74
344.843	-55.51
345.226	-47.15
345.61	-32.91
345.993	-2.85
346.376	7.32
346.759	9.12
347.142	30.59
347.525	33.53
347.908	61.33
348.291	80.76
348.674	88.9
349.057	112.4
349.44	115.79
349.823	133.19
350.206	144.94
350.588	170.02
350.971	190.81
351.354	196.92
351.737	205.05
352.119	241.43
352.502	240.76
352.884	249.8
353.267	242.56
353.65	278.95
354.032	267.42
354.414	291.83
354.797	298.61
355.179	297.48
355.562	297.93
355.944	326.86
356.326	296.35
356.709	318.72
357.091	293.64
357.473	330.92
357.855	309
358.238	297.03
358.62	312.84
359.002	307.87
359.384	309.46
359.766	307.42
360.148	319.85
360.53	329.57
360.912	331.83
361.294	302
361.676	293.64
362.057	307.2
362.439	320.08
362.821	320.08
363.203	294.09
363.584	286.4
363.966	290.47
364.348	311.26
364.729	304.03
365.111	294.31
365.493	293.18
365.874	294.09
366.256	285.05
366.637	293.64
367.019	280.3
367.4	303.58
367.781	300.87
368.163	297.93
368.544	285.95
368.925	263.81
369.306	291.6
369.688	285.05
370.069	296.35
370.45	263.35
370.831	282.56
371.212	283.69
371.593	282.11
371.974	279.63
372.355	266.07
372.736	291.6
373.117	283.47
373.498	284.6
373.879	273.52
374.26	283.47
374.641	290.92
375.021	283.02
375.402	296.35
375.783	302.45
376.163	306.97
376.544	297.48
376.925	293.86
377.305	290.7
377.686	291.6
378.066	285.73
378.447	306.07
378.827	303.13
379.208	278.72
379.588	297.93
379.968	277.37
380.349	306.29
380.729	286.63
381.109	305.16
381.489	305.84
381.87	292.51
382.25	320.98
382.63	299.74
383.01	298.38
383.39	307.42
383.77	309.91
384.15	294.99
384.53	316.01
384.91	313.07
385.29	327.31
385.67	310.13
386.049	324.14
386.429	317.36
386.809	330.92
387.189	307.65
387.568	315.78
387.948	294.31
388.328	312.84
388.707	314.65
389.087	305.61
389.466	299.96
389.846	317.82
390.225	313.3
390.605	330.92
390.984	328.89
391.363	315.1
391.743	311.49
392.122	311.71
392.501	305.39
392.881	336.35
393.26	348.55
393.639	313.07
394.018	314.65
394.397	310.36
394.776	329.57
395.155	328.66
395.534	318.04
395.913	326.18
396.292	339.51
396.671	325.73
397.05	331.6
397.429	327.31
397.808	342
398.186	342.67
398.565	337.7
398.944	343.35
399.323	342.45
399.701	334.99
400.08	322.34
400.458	337.7
400.837	347.87
401.215	329.57
401.594	351.04
401.972	341.77
402.351	365.72
402.729	333.41
403.107	326.63
403.486	347.19
403.864	356.23
404.242	344.71
404.62	349.91
404.999	338.61
405.377	368.89
405.755	336.35
406.133	352.62
406.511	360.08
406.889	346.29
407.267	355.33
407.645	342
408.023	358.49
408.401	365.95
408.779	364.59
409.156	356.01
409.534	342.22
409.912	363.69
410.29	354.65
410.667	375.22
411.045	372.5
411.422	366.85
411.8	362.56
412.178	357.82
412.555	363.47
412.933	379.74
413.31	380.64
413.687	391.26
414.065	382.9
414.442	393.75
414.819	378.15
415.197	391.03
415.574	391.94
415.951	369.34
416.328	347.19
416.705	391.71
417.082	389.23
417.46	384.93
417.837	413.86
418.214	396.01
418.591	398.72
418.967	380.64
419.344	385.39
419.721	392.84
420.098	396.91
420.475	400.3
420.852	401.66
421.228	406.85
421.605	391.71
421.982	387.65
422.358	396.46
422.735	396.91
423.111	414.54
423.488	410.02
423.864	397.81
424.241	442.33
424.617	422.67
424.994	418.83
425.37	435.33
425.746	404.82
426.123	445.27
426.499	429.45
426.875	422.45
427.251	421.09
427.627	421.54
428.003	434.88
428.379	442.56
428.756	446.17
429.132	422.9
429.507	427.64
429.883	441.2
430.259	457.93
430.635	443.46
431.011	443.24
431.387	466.74
431.763	440.3
432.138	447.08
432.514	466.29
432.89	464.71
433.265	490.69
433.641	484.37
434.016	462.22
434.392	479.39
434.767	464.71
435.143	480.52
435.518	486.63
435.894	487.98
436.269	481.2
436.644	511.94
437.02	492.5
437.395	500.18
437.77	484.59
438.145	485.5
438.52	500.64
438.895	516.23
439.271	509.68
439.646	510.13
440.021	501.77
440.395	496.12
440.77	504.03
441.145	505.83
441.52	520.07
441.895	517.13
442.27	488.43
442.645	501.31
443.019	525.95
443.394	520.07
443.769	530.24
444.143	538.6
444.518	547.64
444.892	518.04
445.267	550.58
445.641	546.96
446.016	552.16
446.39	542.22
446.764	535.21
447.139	545.16
447.513	562.1
447.887	554.19
448.262	570.47
448.636	550.13
449.01	544.03
449.384	550.58
449.758	556.91
450.132	589.45
450.506	569.79
450.88	582.89
451.254	558.49
451.628	572.73
452.002	570.92
452.376	580.86
452.75	583.12
453.123	576.34
453.497	605.49
453.871	585.61
454.244	590.13
454.618	626.28
454.992	619.28
455.365	601.42
455.739	589.45
456.112	612.5
456.486	618.37
456.859	619.05
457.232	628.99
457.606	598.49
457.979	631.93
458.352	630.8
458.725	637.58
459.099	641.65
459.472	655.66
459.845	656.56
460.218	638.03
460.591	657.02
460.964	653.63
461.337	679.39
461.71	692.72
462.083	680.07
462.456	666.51
462.829	675.32
463.201	676
463.574	678.94
463.947	693.17
464.32	699.28
464.692	700.41
465.065	689.56
465.438	708.99
465.81	712.38
466.183	722.55
466.555	725.04
466.928	729.78
467.3	733.4
467.672	730.46
468.045	745.83
468.417	748.54
468.789	742.66
469.161	753.74
469.534	773.62
469.906	776.56
470.278	765.49
470.65	784.02
471.022	794.41
471.394	814.07
471.766	792.15
472.138	812.94
472.51	812.94
472.882	838.25
473.253	841.64
473.625	843.68
473.997	841.87
474.369	855.66
474.74	852.72
475.112	862.21
475.484	873.73
475.855	903.11
476.227	882.1
476.598	901.98
476.97	902.21
477.341	905.15
477.713	923.22
478.084	895.43
478.455	934.75
478.827	952.83
479.198	950.79
479.569	948.53
479.94	998.02
480.311	991.25
480.682	1006.39
481.053	998.93
481.424	1033.05
481.795	1010.23
482.166	1025.14
482.537	1025.14
482.908	1087.97
483.279	1077.12
483.65	1061.75
484.021	1089.1
484.391	1096.55
484.762	1096.33
485.133	1106.95
485.503	1097.01
485.874	1087.06
486.244	1128.19
486.615	1140.62
486.985	1152.37
487.356	1174.97
487.726	1167.74
488.097	1177
488.467	1209.32
488.837	1186.04
489.207	1200.96
489.578	1215.65
489.948	1219.71
490.318	1235.31
490.688	1231.01
491.058	1228.98
491.428	1245.25
491.798	1276.44
492.168	1261.75
492.538	1256.1
492.908	1264.91
493.278	1297.45
493.648	1302.2
494.017	1309.65
494.387	1298.13
494.757	1329.54
495.126	1324.57
495.496	1303.78
495.866	1342.87
496.235	1321.86
496.605	1323.89
496.974	1330.9
497.344	1346.94
497.713	1335.64
498.082	1354.85
498.452	1360.5
498.821	1365.02
499.19	1360.73
499.559	1384
499.928	1369.77
500.298	1385.13
500.667	1367.73
501.036	1352.59
501.405	1372.7
501.774	1386.26
502.143	1398.47
502.512	1382.87
502.88	1391.91
503.249	1412.48
503.618	1394.62
503.987	1402.76
504.356	1402.99
504.724	1438.92
505.093	1406.83
505.462	1412.7
505.83	1442.76
506.199	1415.64
506.567	1435.98
506.936	1420.61
507.304	1449.99
507.672	1446.37
508.041	1448.41
508.409	1453.15
508.777	1449.09
509.145	1431.91
509.514	1454.28
509.882	1461.74
510.25	1461.52
510.618	1454.28
510.986	1450.67
511.354	1456.32
511.722	1486.15
512.09	1495.19
512.458	1496.54
512.826	1492.47
513.193	1487.05
513.561	1490.44
513.929	1502.64
514.297	1510.78
514.664	1515.75
515.032	1491.12
515.4	1526.37
515.767	1522.3
516.135	1531.57
516.502	1523.21
516.869	1531.34
517.237	1521.17
517.604	1504.45
517.972	1534.96
518.339	1530.67
518.706	1520.04
519.073	1525.69
519.44	1547.84
519.808	1530.67
520.175	1532.93
520.542	1563.43
520.909	1547.16
521.276	1558.91
521.643	1574.05
522.009	1579.48
522.376	1572.25
522.743	1555.3
523.11	1584.45
523.477	1596.2
523.843	1585.81
524.21	1568.18
524.577	1608.63
524.943	1612.25
525.31	1605.47
525.676	1595.75
526.043	1624.45
526.409	1632.13
526.776	1619.25
527.142	1631.45
527.508	1611.79
527.874	1624.22
528.241	1619.93
528.607	1640.49
528.973	1614.73
529.339	1623.32
529.705	1632.36
530.071	1618.8
530.437	1650.44
530.803	1636.43
531.169	1614.51
531.535	1645.24
531.901	1636.43
532.267	1616.77
532.632	1680.27
532.998	1676.65
533.364	1679.81
533.73	1668.52
534.095	1666.48
534.461	1672.36
534.826	1654.73
535.192	1679.81
535.557	1694.5
535.923	1703.09
536.288	1693.83
536.653	1715.97
537.019	1679.14
537.384	1693.83
537.749	1672.81
538.114	1670.55
538.479	1695.86
538.845	1692.7
539.21	1654.5
539.575	1653.6
539.94	1700.38
540.305	1681.85
540.67	1681.62
541.034	1671.91
541.399	1664.9
541.764	1693.15
542.129	1706.48
542.494	1722.3
542.858	1712.81
543.223	1706.48
543.587	1722.98
543.952	1700.38
544.316	1708.97
544.681	1731.79
545.045	1703.54
545.41	1722.98
545.774	1705.12
546.138	1683.2
546.503	1704.67
546.867	1706.71
547.231	1712.36
547.595	1722.3
547.959	1727.5
548.324	1690.21
548.688	1736.54
549.052	1696.76
549.416	1720.49
549.779	1715.07
550.143	1734.05
550.507	1725.69
550.871	1718.68
551.235	1733.37
551.599	1748.51
551.962	1712.36
552.326	1738.57
552.689	1744.9
553.053	1748.29
553.417	1744.67
553.78	1765.46
554.143	1747.38
554.507	1746.25
554.87	1733.6
555.234	1744.45
555.597	1730.21
555.96	1747.84
556.323	1759.59
556.686	1728.17
557.05	1747.38
557.413	1747.84
557.776	1746.25
558.139	1744.9
558.502	1767.5
558.865	1755.97
559.228	1768.4
559.59	1762.52
559.953	1788.96
560.316	1768.4
560.679	1762.3
561.041	1782.86
561.404	1786.93
561.767	1794.16
562.129	1788.06
562.492	1799.13
562.854	1805.91
563.217	1783.77
563.579	1781.05
563.941	1819.47
564.304	1810.88
564.666	1793.26
565.028	1810.21
565.39	1793.48
565.753	1823.31
566.115	1822.64
566.477	1819.02
566.839	1823.54
567.201	1830.55
567.563	1801.62
567.925	1831.45
568.287	1848.62
568.648	1849.3
569.01	1822.18
569.372	1843.65
569.734	1825.8
570.095	1833.03
570.457	1878.91
570.819	1878.91
571.18	1862.86
571.542	1859.47
571.903	1863.09
572.265	1847.27
572.626	1890.66
572.987	1866.02
573.349	1901.73
573.71	1890.88
574.071	1851.56
574.432	1876.87
574.794	1915.74
575.155	1852.47
575.516	1872.35
575.877	1894.5
576.238	1868.06
576.599	1899.47
576.96	1856.53
577.32	1896.08
577.681	1909.19
578.042	1895.63
578.403	1910.54
578.763	1932.46
579.124	1912.8
579.485	1892.92
579.845	1937.66
580.206	1904.89
580.566	1948.51
580.927	1874.61
581.287	1908.96
581.648	1918.45
582.008	1914.61
582.368	1924.55
582.728	1918.23
583.089	1922.29
583.449	1900.6
583.809	1914.16
584.169	1921.62
584.529	1893.37
584.889	1941.28
585.249	1901.05
585.609	1905.35
585.969	1909.87
586.329	1914.61
586.688	1943.31
587.048	1920.03
587.408	1915.06
587.768	1910.32
588.127	1908.51
588.487	1920.49
588.846	1946.47
589.206	1928.62
589.565	1907.15
589.925	1974.04
590.284	1933.37
590.643	1927.49
591.003	1918.23
591.362	1948.96
591.721	1955.74
592.08	1934.72
592.44	1942.63
592.799	1968.39
593.158	1935.18
593.517	1960.94
593.876	1942.41
594.235	1948.06
594.593	1935.85
594.952	1953.25
595.311	1956.64
595.67	1970.2
596.029	1944.67
596.387	1943.54
596.746	1967.49
597.104	1952.8
597.463	1931.11
597.822	1965.23
598.18	1983.99
598.538	1959.81
598.897	1979.92
599.255	1907.15
599.613	1974.5
599.972	1973.14
600.33	1979.24
600.688	1967.94
601.046	1974.27
601.404	1982.63
601.762	1986.7
602.12	1974.95
602.478	1986.7
602.836	1980.6
603.194	1961.16
603.552	1976.98
603.91	2005.46
604.268	1987.38
604.625	1986.47
604.983	2029.41
605.341	1994.83
605.698	2027.15
606.056	1972.46
606.413	2026.47
606.771	2004.33
607.128	2019.47
607.485	2002.07
607.843	2002.74
608.2	2024.21
608.557	2050.43
608.914	2020.14
609.272	2037.32
609.629	2061.27
609.986	2029.64
610.343	2017.66
610.7	2044.1
611.057	2040.03
611.414	2074.83
611.771	2074.61
612.127	2069.63
612.484	2066.47
612.841	2054.27
613.198	2040.48
613.554	2055.62
613.911	2056.08
614.267	2063.76
614.624	2053.14
614.98	2056.98
615.337	2070.09
615.693	2074.38
616.05	2090.65
616.406	2091.78
616.762	2115.06
617.118	2096.3
617.475	2122.97
617.831	2083.65
618.187	2087.04
618.543	2111.67
618.899	2142.4
619.255	2100.59
619.611	2109.63
619.967	2123.19
620.323	2116.87
620.678	2146.47
621.034	2131.78
621.39	2122.06
621.746	2126.58
622.101	2153.02
622.457	2162.97
622.812	2121.61
623.168	2133.36
623.523	2169.52
623.879	2181.04
624.234	2182.63
624.589	2131.55
624.945	2157.99
625.3	2179.91
625.655	2196.41
626.01	2163.42
626.365	2173.13
626.72	2151.44
627.075	2191.21
627.43	2159.35
627.785	2181.04
628.14	2183.08
628.495	2198.67
628.85	2241.38
629.205	2205
629.559	2214.72
629.914	2217.43
630.269	2193.7
630.623	2177.65
630.978	2192.8
631.332	2168.84
631.687	2214.04
632.041	2214.26
632.396	2219.24
632.75	2192.57
633.104	2253.13
633.459	2254.71
633.813	2214.26
634.167	2248.16
634.521	2214.49
634.875	2252
635.229	2246.13
635.583	2262.4
635.937	2265.34
636.291	2275.73
636.645	2272.34
636.999	2243.87
637.352	2264.21
637.706	2235.05
638.06	2284.77
638.413	2256.3
638.767	2277.31
639.121	2246.81
639.474	2296.75
639.828	2288.61
640.181	2294.04
640.534	2275.96
640.888	2295.17
641.241	2300.82
641.594	2295.62
641.947	2337.2
642.301	2369.74
642.654	2353.7
643.007	2340.14
643.36	2361.6
643.713	2386.24
644.066	2353.7
644.419	2371.55
644.771	2337.88
645.124	2323.87
645.477	2341.04
645.83	2340.59
646.182	2337.42
646.535	2334.71
646.888	2351.66
647.24	2345.11
647.593	2400.02
647.945	2416.52
648.298	2403.19
648.65	2374.49
649.002	2381.49
649.355	2394.82
649.707	2390.53
650.059	2435.95
650.411	2457.65
650.763	2449.51
651.115	2487.25
651.467	2531.09
651.819	2509.4
652.171	2543.29
652.523	2541.49
652.875	2527.93
653.227	2554.82
653.578	2588.94
653.93	2546.01
654.282	2536.52
654.633	2587.36
654.985	2604.31
655.337	2610.41
655.688	2631.2
656.039	2639.34
656.391	2629.39
656.742	2595.5
657.094	2660.13
657.445	2686.34
657.796	2665.55
658.147	2663.52
658.498	2666
658.849	2700.35
659.2	2731.09
659.551	2720.69
659.902	2773.35
660.253	2737.19
660.604	2784.64
660.955	2777.19
661.306	2828.94
661.656	2828.48
662.007	2807.02
662.358	2803.4
662.708	2870.07
663.059	2826.45
663.409	2851.54
663.76	2872.55
664.11	2879.11
664.461	2917.52
664.811	2910.74
665.161	2913.91
665.511	2927.47
665.862	2954.36
666.212	2991.19
666.562	2990.29
666.912	2981.48
667.262	3020.57
667.612	3024.41
667.962	3022.6
668.312	3019.89
668.662	3067.8
669.011	3066.22
669.361	3074.35
669.711	3105.99
670.06	3067.8
670.41	3109.16
670.76	3145.76
671.109	3184.41
671.459	3141.92
671.808	3172.2
672.157	3190.06
672.507	3157.74
672.856	3194.13
673.205	3233.45
673.554	3263.5
673.904	3229.83
674.253	3276.83
674.602	3290.85
674.951	3241.13
675.3	3239.1
675.649	3284.52
675.998	3288.81
676.346	3331.07
676.695	3343.05
677.044	3334.01
677.393	3357.51
677.741	3399.09
678.09	3363.61
678.438	3414.23
678.787	3408.81
679.135	3367
679.484	3404.97
679.832	3426.21
680.181	3436.38
680.529	3428.47
680.877	3487.9
681.225	3481.12
681.573	3499.65
681.922	3492.42
682.27	3504.4
682.618	3476.15
682.966	3520.22
683.314	3562.93
683.661	3502.59
684.009	3514.79
684.357	3508.92
684.705	3565.64
685.053	3565.41
685.4	3551.63
685.748	3558.64
686.095	3562.7
686.443	3619.65
686.79	3558.18
687.138	3585.75
687.485	3606.09
687.832	3592.08
688.18	3631.18
688.527	3661.68
688.874	3627.11
689.221	3620.55
689.568	3664.17
689.915	3624.62
690.262	3649.71
690.609	3595.24
690.956	3610.61
691.303	3645.86
691.65	3635.24
691.997	3649.48
692.344	3627.79
692.69	3645.64
693.037	3676.6
693.383	3685.19
693.73	3628.92
694.077	3610.16
694.423	3689.48
694.769	3663.27
695.116	3654.23
695.462	3672.3
695.808	3664.4
696.155	3689.03
696.501	3665.75
696.847	3661.68
697.193	3675.69
697.539	3661.23
697.885	3671.63
698.231	3680.67
698.577	3684.06
698.923	3666.2
699.269	3636.37
699.614	3635.24
699.96	3697.61
700.306	3712.08
700.651	3623.04
700.997	3617.62
701.342	3656.94
701.688	3689.48
702.033	3657.16
702.379	3646.99
702.724	3621.01
703.069	3655.58
703.415	3602.48
703.76	3613.55
704.105	3664.4
704.45	3601.35
704.795	3608.8
705.14	3609.93
705.485	3579.2
705.83	3638.86
706.175	3621.46
706.52	3626.2
706.865	3608.13
707.209	3593.21
707.554	3551.86
707.899	3576.26
708.243	3565.19
708.588	3571.97
708.932	3563.83
709.277	3560.67
709.621	3572.19
709.966	3549.37
710.31	3549.14
710.654	3569.48
710.998	3532.42
711.342	3556.83
711.687	3527.9
712.031	3538.3
712.375	3547.34
712.719	3529.71
713.063	3555.25
713.407	3574.45
713.75	3565.41
714.094	3581.46
714.438	3500.11
714.782	3494
715.125	3523.83
715.469	3536.94
715.812	3527.22
716.156	3537.39
716.499	3524.29
716.843	3528.58
717.186	3512.08
717.53	3528.58
717.873	3555.92
718.216	3506.89
718.559	3495.81
718.902	3499.65
719.246	3541.23
719.589	3525.42
719.932	3509.6
720.275	3508.24
720.617	3498.98
720.96	3534.46
721.303	3524.51
721.646	3529.48
721.989	3480.45
722.331	3496.04
722.674	3526.55
723.016	3525.64
723.359	3509.82
723.701	3503.27
724.044	3505.98
724.386	3487.45
724.729	3511.86
725.071	3524.29
725.413	3564.51
725.755	3534.23
726.097	3499.43
726.439	3506.21
726.782	3505.98
727.124	3530.16
727.465	3573.32
727.807	3548.01
728.149	3524.29
728.491	3525.42
728.833	3547.11
729.175	3498.52
729.516	3522.93
729.858	3520.9
730.199	3525.19
730.541	3514.57
730.882	3514.79
731.224	3538.75
731.565	3524.29
731.906	3550.05
732.248	3527.22
732.589	3545.53
732.93	3554.57
733.271	3524.74
733.612	3583.72
733.953	3525.87
734.294	3531.07
734.635	3552.08
734.976	3571.74
735.317	3549.37
735.658	3548.47
735.999	3604.51
736.339	3564.28
736.68	3554.79
737.021	3559.99
737.361	3561.57
737.702	3604.51
738.042	3621.91
738.383	3627.33
738.723	3639.76
739.063	3612.42
739.404	3608.58
739.744	3599.76
740.084	3626.2
740.424	3670.5
740.764	3635.47
741.104	3646.32
741.444	3670.27
741.784	3662.36
742.124	3684.96
742.464	3681.57
742.804	3691.06
743.143	3708.46
743.483	3721.79
743.823	3703.49
744.162	3708.46
744.502	3738.52
744.841	3782.13
745.181	3783.94
745.52	3743.72
745.86	3746.2
746.199	3773.09
746.538	3806.09
746.877	3799.53
747.216	3852.86
747.556	3838.4
747.895	3851.28
748.234	3889.7
748.573	3891.28
748.911	3855.12
749.25	3932.86
749.589	3921.11
749.928	3906.42
750.267	3969.92
750.605	3978.74
750.944	3997.27
751.283	4039.98
751.621	4051.5
751.96	4005.4
752.298	4067.32
752.636	4064.61
752.975	4072.07
753.313	4036.81
753.651	4119.75
753.989	4101.67
754.327	4159.07
754.666	4128.11
755.004	4171.05
755.342	4206.3
755.679	4225.74
756.017	4205.62
756.355	4288.56
756.693	4200.43
757.031	4282.01
757.368	4274.55
757.706	4357.03
758.044	4317.03
758.381	4312.29
758.719	4356.13
759.056	4354.32
759.394	4399.97
759.731	4356.81
760.068	4352.06
760.405	4381.66
760.743	4436.8
761.08	4418.95
761.417	4440.87
761.754	4454.43
762.091	4439.97
762.428	4479.29
762.765	4486.97
763.102	4469.12
763.438	4506.41
763.775	4490.36
764.112	4517.48
764.449	4510.25
764.785	4577.59
765.122	4491.04
765.458	4479.74
765.795	4508.21
766.131	4583.02
766.467	4527.2
766.804	4545.95
767.14	4503.7
767.476	4563.13
767.812	4522.23
768.148	4525.16
768.485	4573.52
768.821	4515.67
769.157	4521.55
769.492	4553.41
769.828	4540.98
770.164	4525.62
770.5	4534.88
770.836	4517.03
771.171	4508.67
771.507	4509.34
771.842	4464.83
772.178	4493.53
772.513	4453.98
772.849	4500.53
773.184	4486.97
773.519	4466.18
773.855	4526.07
774.19	4438.16
774.525	4449.91
774.86	4409.23
775.195	4439.52
775.53	4397.03
775.865	4435.67
776.2	4426.41
776.535	4355.22
776.87	4406.97
777.205	4370.14
777.539	4310.93
777.874	4356.58
778.209	4316.81
778.543	4298.5
778.878	4318.39
779.212	4303.93
779.547	4247.88
779.881	4257.83
780.215	4247.66
780.55	4251.05
780.884	4266.19
781.218	4248.33
781.552	4205.17
781.886	4221.89
782.22	4226.64
782.554	4201.56
782.888	4188.9
783.222	4169.69
783.556	4145.51
783.889	4131.73
784.223	4150.26
784.557	4148.45
784.89	4128.34
785.224	4073.42
785.557	4081.79
785.891	4099.19
786.224	4056.25
786.558	4097.38
786.891	4039.3
787.224	4073.2
787.557	4009.7
787.891	4030.26
788.224	4002.47
788.557	3979.42
788.89	3971.28
789.223	4000.88
789.556	3935.8
789.888	3973.31
790.221	3954.33
790.554	3911.85
790.887	3905.97
791.219	3897.16
791.552	3905.97
791.884	3876.37
792.217	3872.3
792.549	3873.43
792.882	3824.84
793.214	3835.69
793.546	3814.67
793.879	3815.8
794.211	3788.23
794.543	3795.47
794.875	3802.47
795.207	3814.22
795.539	3781.45
795.871	3741
796.203	3748.46
796.535	3743.04
796.867	3767.44
797.198	3708.69
797.53	3731.51
797.862	3705.3
798.193	3693.55
798.525	3660.78
798.856	3650.16
799.188	3672.98
799.519	3637.05
799.85	3655.58
800.182	3644.28
800.513	3599.54
800.844	3586.88
801.175	3597.28
801.506	3563.83
801.837	3571.29
802.168	3561.8
802.499	3573.55
802.83	3548.47
803.161	3482.03
803.491	3562.25
803.822	3534
804.153	3463.72
804.483	3498.3
804.814	3486.77
805.145	3494
805.475	3471.86
805.805	3490.39
806.136	3469.82
806.466	3447.9
806.796	3427.11
807.126	3397.06
807.457	3433.44
807.787	3392.54
808.117	3418.75
808.447	3402.03
808.777	3360.45
809.107	3415.36
809.436	3339.88
809.766	3414.01
810.096	3338.53
810.426	3355.25
810.755	3332.88
811.085	3354.57
811.414	3328.58
811.744	3331.3
812.073	3325.87
812.403	3325.65
812.732	3282.48
813.061	3292.2
813.39	3290.17
813.719	3285.87
814.049	3309.83
814.378	3291.3
814.707	3288.59
815.036	3276.16
815.365	3287.23
815.693	3246.78
816.022	3266.44
816.351	3234.12
816.68	3189.83
817.008	3212.43
817.337	3185.54
817.665	3201.36
817.994	3193
818.322	3229.15
818.651	3169.27
818.979	3145.09
819.307	3187.12
819.636	3167.69
819.964	3148.02
820.292	3158.65
820.62	3186.22
820.948	3144.18
821.276	3158.87
821.604	3170.4
821.932	3146.22
822.259	3159.1
822.587	3174.69
822.915	3157.74
823.243	3133.34
823.57	3164.07
823.898	3146.67
824.225	3113.9
824.553	3165.88
824.88	3131.98
825.207	3144.86
825.535	3122.94
825.862	3169.72
826.189	3125.43
826.516	3190.96
826.843	3144.18
827.17	3149.15
827.497	3163.84
827.824	3122.71
828.151	3186.22
828.478	3146.44
828.805	3179.21
829.131	3138.31
829.458	3121.58
829.785	3145.99
830.111	3143.28
830.438	3140.79
830.764	3140.57
831.09	3160
831.417	3135.82
831.743	3130.4
832.069	3133.79
832.395	3136.95
832.722	3162.94
833.048	3105.31
833.374	3095.6
833.7	3147.8
834.026	3128.36
834.351	3099.89
834.677	3107.35
835.003	3131.53
835.329	3101.92
835.654	3091.3
835.98	3090.62
836.306	3089.72
836.631	3096.05
836.956	3113.45
837.282	3117.74
837.607	3043.39
837.932	3098.76
838.258	3075.26
838.583	3053.11
838.908	3050.17
839.233	3060.8
839.558	3056.95
839.883	3013.79
840.208	3068.48
840.533	3051.98
840.858	3075.03
841.182	3048.59
841.507	3048.82
841.832	3026.67
842.156	3004.75
842.481	3002.72
842.805	3004.53
843.13	2993.68
843.454	3013.34
843.778	3002.27
844.103	2993.68
844.427	2960.46
844.751	3009.5
845.075	2950.29
845.399	2934.24
845.723	2928.14
846.047	2957.07
846.371	2931.53
846.695	2921.36
847.019	2849.95
847.343	2920.23
847.666	2867.81
847.99	2829.61
848.313	2872.33
848.637	2870.52
848.96	2817.64
849.284	2815.83
849.607	2857.41
849.931	2808.15
850.254	2802.95
850.577	2825.1
850.9	2762.5
851.223	2740.35
851.546	2768.83
851.869	2764.76
852.192	2723.18
852.515	2736.74
852.838	2716.85
853.161	2728.6
853.483	2735.83
853.806	2713.69
854.129	2714.14
854.451	2670.75
854.774	2709.39
855.096	2644.99
855.419	2679.34
855.741	2673.46
856.063	2666.46
856.385	2615.16
856.708	2656.74
857.03	2666.23
857.352	2642.5
857.674	2656.06
857.996	2610.19
858.318	2613.12
858.64	2591.88
858.961	2579.45
859.283	2590.3
859.605	2583.52
859.926	2637.3
860.248	2586.23
860.57	2572.67
860.891	2575.84
861.212	2558.66
861.534	2569.96
861.855	2521.37
862.176	2571.77
862.498	2568.6
862.819	2526.8
863.14	2508.27
863.461	2539.68
863.782	2542.39
864.103	2529.96
864.424	2529.51
864.745	2508.27
865.065	2493.58
865.386	2483.64
865.707	2508.49
866.027	2569.96
866.348	2519.11
866.668	2503.3
866.989	2461.94
867.309	2475.05
867.63	2467.36
867.95	2461.49
868.27	2460.13
868.59	2450.64
868.91	2457.2
869.23	2490.41
869.55	2435.27
869.87	2490.41
870.19	2437.76
870.51	2445.67
870.83	2446.35
871.15	2470.53
871.469	2420.59
871.789	2456.74
872.109	2407.93
872.428	2407.48
872.748	2426.91
873.067	2434.82
873.386	2427.82
873.706	2370.42
874.025	2413.13
874.344	2395.28
874.663	2424.2
874.982	2412.22
875.301	2404.54
875.62	2427.14
875.939	2399.8
876.258	2390.98
876.577	2404.54
876.896	2395.28
877.214	2360.93
877.533	2362.96
877.852	2346.46
878.17	2362.73
878.489	2342.4
878.807	2370.19
879.125	2351.89
879.444	2383.75
879.762	2354.37
880.08	2347.82
880.398	2359.8
880.716	2353.47
881.034	2327.71
881.352	2322.74
881.67	2343.98
881.988	2323.64
882.306	2327.93
882.624	2313.92
882.941	2320.7
883.259	2283.87
883.577	2285.22
883.894	2273.92
884.212	2282.74
884.529	2265.79
884.846	2287.03
885.164	2308.72
885.481	2263.75
885.798	2318.89
886.115	2277.99
886.432	2280.48
886.75	2231.44
887.067	2287.03
887.383	2259.01
887.7	2259.91
888.017	2250.65
888.334	2237.77
888.651	2222.85
888.967	2255.39
889.284	2217.2
889.6	2200.93
889.917	2223.53
890.233	2167.49
890.55	2178.33
890.866	2171.1
891.182	2180.14
891.498	2193.93
891.815	2186.69
892.131	2174.72
892.447	2160.25
892.763	2146.69
893.079	2146.92
893.395	2150.08
893.71	2156.64
894.026	2136.98
894.342	2145.34
894.657	2110.76
894.973	2135.4
895.289	2152.8
895.604	2104.89
895.92	2091.1
896.235	2087.49
896.55	2106.47
896.865	2092.01
897.181	2071.89
897.496	2078.67
897.811	2068.73
898.126	2084.55
898.441	2044.1
898.756	2040.03
899.071	2033.93
899.386	2039.13
899.7	2036.42
900.015	2024.66
900.33	2045.91
900.644	1998.22
900.959	2003.65
901.273	1998.45
901.588	2026.02
901.902	1967.26
902.216	1993.48
902.531	2011.78
902.845	1970.65
903.159	1980.82
903.473	1970.43
903.787	1945.34
904.101	1950.99
904.415	1936.98
904.729	1941.95
905.042	1926.36
905.356	1941.95
905.67	1938.79
905.984	1923.65
906.297	1936.76
906.611	1914.61
906.924	1898.11
907.237	1905.57
907.551	1884.1
907.864	1891.79
908.177	1870.77
908.491	1881.39
908.804	1866.02
909.117	1874.39
909.43	1857.89
909.743	1833.48
910.056	1804.33
910.368	1815.4
910.681	1830.09
910.994	1811.56
911.307	1788.06
911.619	1829.87
911.932	1825.8
912.244	1787.16
912.557	1776.76
912.869	1829.64
913.181	1805.46
913.494	1769.76
913.806	1747.16
914.118	1781.28
914.43	1752.58
914.742	1740.6
915.054	1738.8
915.366	1728.4
915.678	1746.48
915.99	1730.21
916.302	1668.29
916.613	1722.07
916.925	1699.93
917.236	1680.49
917.548	1662.19
917.859	1693.6
918.171	1681.62
918.482	1673.04
918.794	1647.73
919.105	1689.53
919.416	1647.27
919.727	1644.56
920.038	1647.73
920.349	1627.84
920.66	1647.27
920.971	1623.77
921.282	1629.87
921.593	1639.14
921.903	1634.39
922.214	1599.82
922.525	1620.38
922.835	1586.03
923.146	1597.33
923.456	1592.36
923.767	1555.3
924.077	1600.95
924.387	1560.5
924.697	1574.28
925.008	1551
925.318	1552.59
925.628	1553.26
925.938	1539.25
926.248	1510.1
926.558	1536.32
926.867	1507.16
927.177	1538.58
927.487	1519.59
927.796	1518.24
928.106	1511.23
928.416	1518.69
928.725	1495.86
929.034	1502.64
929.344	1496.77
929.653	1519.14
929.962	1490.89
930.271	1471.23
930.581	1485.24
930.89	1476.2
931.199	1468.75
931.508	1456.77
931.817	1482.31
932.125	1428.07
932.434	1461.52
932.743	1449.54
933.051	1443.21
933.36	1413.61
933.669	1398.01
933.977	1416.54
934.286	1388.97
934.594	1439.37
934.902	1416.77
935.21	1391.69
935.519	1415.41
935.827	1415.64
936.135	1406.38
936.443	1366.15
936.751	1351.46
937.059	1358.02
937.367	1366.38
937.674	1338.58
937.982	1340.84
938.29	1380.39
938.597	1362.99
938.905	1331.58
939.213	1347.62
939.52	1322.76
939.827	1333.16
940.135	1337.9
940.442	1326.15
940.749	1321.18
941.056	1348.98
941.363	1296.55
941.67	1315.53
941.977	1301.29
942.284	1278.7
942.591	1307.85
942.898	1298.81
943.205	1276.44
943.511	1284.57
943.818	1294.51
944.125	1277.57
944.431	1279.37
944.738	1264.23
945.044	1231.69
945.35	1257.45
945.657	1270.79
945.963	1243.22
946.269	1233.5
946.575	1243.67
946.881	1252.26
947.187	1242.76
947.493	1246.38
947.799	1226.04
948.105	1251.35
948.41	1177.68
948.716	1207.96
949.022	1168.64
949.327	1208.64
949.633	1183.56
949.938	1191.47
950.244	1212.93
950.549	1176.78
950.854	1178.13
951.16	1176.78
951.465	1173.39
951.77	1184.91
952.075	1162.31
952.38	1166.38
952.685	1152.37
952.99	1167.96
953.294	1156.66
953.599	1130.45
953.904	1127.96
954.209	1142.2
954.513	1163.9
954.818	1123.67
955.122	1119.6
955.426	1111.92
955.731	1111.47
956.035	1117.57
956.339	1127.29
956.643	1104.91
956.948	1096.33
957.252	1097.01
957.556	1099.04
957.86	1107.4
958.163	1104.91
958.467	1092.94
958.771	1101.52
959.075	1103.56
959.378	1073.5
959.682	1073.28
959.985	1047.51
960.289	1085.48
960.592	1057.01
960.896	1070.34
961.199	1076.21
961.502	1039.83
961.805	1076.21
962.108	1038.7
962.411	1033.28
962.714	1049.32
963.017	1032.83
963.32	1051.58
963.623	1017.46
963.926	1035.54
964.228	1036.89
964.531	1029.44
964.833	1002.77
965.136	1034.86
965.438	1014.3
965.741	1019.72
966.043	1006.61
966.345	1013.62
966.648	1000.28
966.95	972.94
967.252	964.58
967.554	989.66
967.856	983.79
968.158	983.56
968.46	1002.09
968.761	982.21
969.063	981.08
969.365	997.8
969.666	958.7
969.968	957.57
970.269	970.23
970.571	973.62
970.872	959.38
971.174	954.41
971.475	944.01
971.776	930.91
972.077	949.89
972.378	952.6
972.679	921.87
972.98	925.94
973.281	937.01
973.582	940.4
973.883	920.51
974.183	941.75
974.484	935.2
974.785	939.27
975.085	926.39
975.386	902.43
975.686	909.21
975.986	883
976.287	902.21
976.587	900.85
976.887	910.8
977.187	907.18
977.487	857.46
977.787	881.42
978.087	893.85
978.387	899.04
978.687	898.14
978.987	875.09
979.286	868.31
979.586	870.12
979.885	878.03
980.185	886.84
980.484	863.79
980.784	852.27
981.083	869.89
981.382	852.72
981.682	893.17
981.981	853.62
982.28	857.69
982.579	848.88
982.878	843.23
983.177	844.58
983.475	862.21
983.774	844.36
984.073	830.35
984.372	811.36
984.67	823.79
984.969	809.55
985.267	835.77
985.566	802.55
985.864	780.63
986.162	808.2
986.461	826.5
986.759	834.87
987.057	789.67
987.355	791.02
987.653	796.67
987.951	803.91
988.249	785.37
988.547	804.58
988.844	794.19
989.142	798.26
989.44	785.6
989.737	778.82
990.035	781.31
990.332	768.65
990.63	765.94
990.927	786.28
991.224	777.24
991.521	743.12
991.819	772.95
992.116	777.01
992.413	765.26
992.71	771.14
993.006	761.19
993.303	768.43
993.6	754.87
993.897	735.21
994.193	741.99
994.49	739.73
994.787	751.48
995.083	744.7
995.379	740.18
995.676	740.63
995.972	735.43
996.268	732.72
996.565	740.63
996.861	718.03
997.157	736.11
997.453	723.23
997.749	746.73
998.044	745.6
998.34	720.74
998.636	692.27
998.932	713.74
999.227	713.74
999.523	720.97
999.818	706.51
1000.114	695.21
1000.409	723.46
1000.704	711.25
1001	688.65
1001.295	690.69
1001.59	682.55
1001.885	680.74
1002.18	692.04
1002.475	698.6
1002.77	694.98
1003.065	682.55
1003.359	684.59
1003.654	681.42
1003.949	683.68
1004.243	682.78
1004.538	658.6
1004.832	669.67
1005.127	649.33
1005.421	649.79
1005.715	661.08
1006.009	662.89
1006.304	668.09
1006.598	676.23
1006.892	660.18
1007.186	661.99
1007.48	636.68
1007.773	646.62
1008.067	642.55
1008.361	650.24
1008.655	632.84
1008.948	624.02
1009.242	628.54
1009.535	627.86
1009.829	635.1
1010.122	620.18
1010.415	619.05
1010.708	631.03
1011.001	646.17
1011.295	645.94
1011.588	628.77
1011.881	620.41
1012.173	623.35
1012.466	597.58
1012.759	602.78
1013.052	600.97
1013.344	614.76
1013.637	600.97
1013.93	616.34
1014.222	580.86
1014.514	577.24
1014.807	583.12
1015.099	593.29
1015.391	618.37
1015.683	576.79
1015.976	592.61
1016.268	577.02
1016.56	572.5
1016.851	559.84
1017.143	577.7
1017.435	577.02
1017.727	572.5
1018.018	550.58
1018.31	573.63
1018.602	584.48
1018.893	579.5
1019.185	551.48
1019.476	586.06
1019.767	570.92
1020.058	559.62
1020.35	541.09
1020.641	538.38
1020.932	552.61
1021.223	543.12
1021.514	557.58
1021.804	565.04
1022.095	560.97
1022.386	539.05
1022.677	540.86
1022.967	563.01
1023.258	524.59
1023.548	537.7
1023.839	549.22
1024.129	556.91
1024.419	521.2
1024.709	520.07
1025	540.86
1025.29	549.67
1025.58	531.14
1025.87	520.98
1026.16	525.27
1026.449	546.51
1026.739	523.69
1027.029	534.76
1027.319	510.58
1027.608	511.03
1027.898	503.35
1028.187	510.13
1028.477	513.74
1028.766	499.05
1029.055	506.51
1029.344	505.16
1029.634	483.69
1029.923	512.16
1030.212	511.48
1030.501	487.53
1030.79	506.06
1031.078	470.35
1031.367	499.28
1031.656	495.89
1031.945	478.04
1032.233	481.88
1032.522	485.95
1032.81	470.58
1033.099	466.06
1033.387	488.21
1033.675	487.08
1033.963	453.41
1034.251	480.3
1034.54	482.33
1034.828	458.38
1035.116	450.92
1035.403	473.29
1035.691	473.29
1035.979	471.48
1036.267	468.55
1036.554	436.23
1036.842	464.93
1037.129	441.43
1037.417	455.67
1037.704	439.4
1037.992	446.85
1038.279	448.43
1038.566	442.33
1038.853	442.33
1039.14	442.33
