Data from blue_chair_FLMS001491_00035.txt Node
Date: Wed Feb 08 10:30:36 GMT 2017
User: dcchb
Spectrometer: FLMS00149
Trigger mode: 0
Integration Time (sec): 2.000000E-2
Scans to average: 10
Electric dark correction enabled: true
Nonlinearity correction enabled: false
Boxcar width: 0
XAxis mode: Wavelengths
Number of Pixels in Spectrum: 2048
>>>>>Begin Spectral Data<<<<<
341.393	-15.54
341.776	-15.54
342.16	-15.54
342.543	-53.05
342.927	-81.52
343.31	-73.39
343.693	-53.5
344.077	-68.64
344.46	-63.22
344.843	-62.09
345.226	-47.63
345.61	-28.64
345.993	-11.02
346.376	-1.53
346.759	12.94
347.142	29.43
347.525	24.91
347.908	57
348.291	70.11
348.674	96.33
349.057	118.92
349.44	108.53
349.823	146.04
350.206	139.04
350.588	172.03
350.971	183.78
351.354	182.88
351.737	226.94
352.119	214.51
352.502	235.98
352.884	227.85
353.267	256.55
353.65	258.13
354.032	292.03
354.414	256.55
354.797	285.47
355.179	293.61
355.562	300.61
355.944	301.97
356.326	297.45
356.709	298.13
357.091	317.11
357.473	313.04
357.855	309.43
358.238	318.47
358.62	292.03
359.002	302.87
359.384	303.33
359.766	327.96
360.148	323.66
360.53	323.44
360.912	308.75
361.294	297.22
361.676	286.83
362.057	293.61
362.439	292.7
362.821	299.48
363.203	303.78
363.584	299.26
363.966	297.9
364.348	288.41
364.729	297
365.111	288.41
365.493	269.88
365.874	282.99
366.256	276.43
366.637	285.02
367.019	288.86
367.4	287.05
367.781	292.93
368.163	258.13
368.544	279.15
368.925	274.4
369.306	292.03
369.688	262.2
370.069	271.91
370.45	259.94
370.831	290.44
371.212	267.85
371.593	277.56
371.974	292.93
372.355	291.12
372.736	277.34
373.117	276.43
373.498	280.05
373.879	293.61
374.26	264.68
374.641	281.63
375.021	290.67
375.402	272.82
375.783	288.41
376.163	276.21
376.544	264.23
376.925	282.99
377.305	296.77
377.686	295.87
378.066	298.35
378.447	288.86
378.827	284.12
379.208	278.92
379.588	278.69
379.968	319.82
380.349	298.81
380.729	287.51
381.109	292.03
381.489	299.71
381.87	291.57
382.25	293.16
382.63	276.89
383.01	309.2
383.39	280.28
383.77	291.8
384.15	296.77
384.53	288.64
384.91	305.36
385.29	299.94
385.67	296.09
386.049	301.74
386.429	305.81
386.809	298.35
387.189	275.08
387.568	311.69
387.948	320.5
388.328	311.23
388.707	303.55
389.087	301.07
389.466	314.17
389.846	306.26
390.225	308.97
390.605	321.86
390.984	315.08
391.363	298.13
391.743	312.82
392.122	313.49
392.501	307.39
392.881	307.39
393.26	306.26
393.639	319.82
394.018	311.91
394.397	317.11
394.776	311.23
395.155	310.78
395.534	308.97
395.913	315.75
396.292	318.92
396.671	313.49
397.05	342.42
397.429	325.7
397.808	334.06
398.186	327.51
398.565	337.67
398.944	351.46
399.323	330.44
399.701	331.12
400.08	306.26
400.458	315.08
400.837	325.92
401.215	353.72
401.594	332.93
401.972	334.51
402.351	337.45
402.729	331.12
403.107	354.17
403.486	334.06
403.864	330.67
404.242	327.96
404.62	351.91
404.999	341.06
405.377	351.91
405.755	350.1
406.133	345.81
406.511	338.35
406.889	338.58
407.267	355.75
407.645	362.53
408.023	347.62
408.401	355.08
408.779	369.99
409.156	371.57
409.534	375.87
409.912	366.6
410.29	363.66
410.667	355.53
411.045	382.19
411.422	384.68
411.8	373.38
412.178	370.89
412.555	380.84
412.933	373.83
413.31	387.16
413.687	391.23
414.065	382.65
414.442	379.26
414.819	385.81
415.197	377.45
415.574	386.71
415.951	394.62
416.328	388.07
416.705	390.1
417.082	384.68
417.46	379.48
417.837	384.91
418.214	385.58
418.591	399.14
418.967	399.37
419.344	412.7
419.721	402.31
420.098	418.58
420.475	407.5
420.852	383.32
421.228	404.34
421.605	398.92
421.982	427.84
422.358	420.38
422.735	412.7
423.111	403.44
423.488	416.32
423.864	410.44
424.241	432.59
424.617	427.16
424.994	423.1
425.37	430.55
425.746	435.07
426.123	447.5
426.499	439.59
426.875	434.85
427.251	445.02
427.627	454.96
428.003	448.63
428.379	462.87
428.756	451.12
429.132	457.67
429.507	466.94
429.883	454.51
430.259	463.32
430.635	475.52
431.011	470.1
431.387	459.48
431.763	479.82
432.138	479.82
432.514	467.84
432.89	471.23
433.265	495.18
433.641	500.38
434.016	494.05
434.392	500.61
434.767	532.7
435.143	482.3
435.518	526.6
435.894	515.98
436.269	543.77
436.644	543.32
437.02	543.32
437.395	529.99
437.77	563.88
438.145	548.29
438.52	554.17
438.895	555.3
439.271	567.27
439.646	555.07
440.021	605.24
440.395	551
440.77	572.7
441.145	573.37
441.52	595.07
441.895	580.15
442.27	610.21
442.645	588.74
443.019	601.17
443.394	564.79
443.769	626.03
444.143	614.96
444.518	615.86
444.892	618.57
445.267	623.32
445.641	602.98
446.016	618.35
446.39	622.19
446.764	615.18
447.139	640.27
447.513	629.42
447.887	623.54
448.262	639.14
448.636	646.59
449.01	653.82
449.384	678.46
449.758	655.86
450.132	648.63
450.506	683.43
450.88	645.24
451.254	642.3
451.628	681.17
452.002	703.31
452.376	673.03
452.75	673.26
453.123	692.02
453.497	692.47
453.871	699.7
454.244	704.67
454.618	698.34
454.992	708.96
455.365	736.76
455.739	713.94
456.112	729.98
456.486	734.05
456.859	728.85
457.232	761.39
457.606	741.51
457.979	734.05
458.352	768.4
458.725	769.53
459.099	768.4
459.472	780.83
459.845	793.48
460.218	787.38
460.591	786.25
460.964	785.12
461.337	818.79
461.71	823.76
462.083	820.83
462.456	801.62
462.829	812.92
463.201	866.47
463.574	842.29
463.947	853.37
464.32	880.94
464.692	864.44
465.065	877.1
465.438	885.46
465.81	861.05
466.183	870.09
466.555	880.94
466.928	869.86
467.3	906.02
467.672	921.16
468.045	927.26
468.417	940.82
468.789	971.56
469.161	944.66
469.534	937.88
469.906	957.09
470.278	954.38
470.65	972.46
471.022	997.77
471.394	1006.36
471.766	980.14
472.138	1005.23
472.51	1027.6
472.882	1040.71
473.253	1011.1
473.625	1032.12
473.997	1067.15
474.369	1056.3
474.74	1069.63
475.112	1086.58
475.484	1102.85
475.855	1093.59
476.227	1109.86
476.598	1131.55
476.97	1133.13
477.341	1162.51
477.713	1167.94
478.084	1151.44
478.455	1191.44
478.827	1197.31
479.198	1198.44
479.569	1221.49
479.94	1233.7
480.311	1230.31
480.682	1236.41
481.053	1251.32
481.424	1317.76
481.795	1292
482.166	1318.44
482.537	1312.79
482.908	1343.98
483.279	1301.94
483.65	1340.36
484.021	1369.74
484.391	1378.1
484.762	1367.25
485.133	1376.74
485.503	1402.05
485.874	1395.73
486.244	1412.45
486.615	1429.85
486.985	1480.02
487.356	1453.8
487.726	1480.7
488.097	1449.51
488.467	1500.13
488.837	1510.3
489.207	1513.01
489.578	1529.51
489.948	1544.65
490.318	1523.63
490.688	1551.43
491.058	1554.14
491.428	1607.25
491.798	1571.31
492.168	1594.82
492.538	1604.08
492.908	1598.21
493.278	1618.09
493.648	1588.04
494.017	1630.52
494.387	1629.62
494.757	1640.69
495.126	1642.95
495.496	1649.28
495.866	1670.97
496.235	1642.05
496.605	1637.53
496.974	1666
497.344	1653.35
497.713	1688.37
498.082	1688.83
498.452	1666.45
498.821	1679.11
499.19	1676.17
499.559	1687.02
499.928	1663.52
500.298	1690.18
500.667	1717.3
501.036	1709.39
501.405	1684.98
501.774	1689.05
502.143	1675.04
502.512	1708.49
502.88	1701.25
503.249	1706.23
503.618	1729.28
503.987	1705.1
504.356	1701.48
504.724	1723.63
505.093	1720.92
505.462	1711.42
505.83	1717.07
506.199	1684.98
506.567	1746.68
506.936	1754.13
507.304	1714.14
507.672	1741.48
508.041	1725.21
508.409	1722.72
508.777	1748.94
509.145	1748.26
509.514	1748.26
509.882	1768.15
510.25	1733.57
510.618	1737.19
510.986	1754.81
511.354	1778.77
511.722	1734.47
512.09	1768.6
512.458	1733.34
512.826	1746.45
513.193	1726.34
513.561	1737.64
513.929	1741.03
514.297	1763.17
514.664	1742.16
515.032	1747.58
515.4	1751.42
515.767	1774.47
516.135	1768.37
516.502	1735.83
516.869	1802.04
517.237	1763.85
517.604	1747.36
517.972	1760.46
518.339	1727.02
518.706	1747.36
519.073	1747.36
519.44	1726.79
519.808	1734.93
520.175	1737.86
520.542	1763.63
520.909	1783.06
521.276	1754.13
521.643	1737.41
522.009	1768.37
522.376	1734.7
522.743	1766.56
523.11	1793.91
523.477	1742.61
523.843	1761.37
524.21	1760.69
524.577	1766.34
524.943	1758.88
525.31	1762.95
525.676	1741.93
526.043	1808.14
526.409	1784.87
526.776	1757.98
527.142	1771.08
527.508	1736.51
527.874	1778.54
528.241	1777.41
528.607	1753.68
528.973	1750.97
529.339	1746.23
529.705	1762.95
530.071	1765.89
530.437	1773.8
530.803	1755.04
531.169	1770.41
531.535	1783.06
531.901	1774.02
532.267	1769.95
532.632	1773.57
532.998	1754.59
533.364	1760.24
533.73	1755.26
534.095	1740.8
534.461	1755.94
534.826	1791.65
535.192	1775.15
535.557	1764.3
535.923	1770.41
536.288	1740.35
536.653	1767.92
537.019	1740.8
537.384	1756.17
537.749	1753.23
538.114	1760.24
538.479	1743.06
538.845	1728.82
539.21	1744.42
539.575	1772.21
539.94	1729.05
540.305	1721.37
540.67	1737.19
541.034	1720.01
541.399	1721.59
541.764	1715.72
542.129	1702.61
542.494	1706.23
542.858	1736.96
543.223	1709.62
543.587	1699.9
543.952	1706.9
544.316	1691.09
544.681	1687.02
545.045	1717.98
545.41	1682.95
545.774	1723.4
546.138	1696.06
546.503	1680.24
546.867	1708.26
547.231	1667.58
547.595	1706.23
547.959	1696.74
548.324	1672.1
548.688	1690.41
549.052	1682.95
549.416	1677.75
549.779	1636.17
550.143	1653.8
550.507	1650.41
550.871	1637.3
551.235	1660.58
551.599	1670.3
551.962	1643.86
552.326	1670.3
552.689	1641.6
553.053	1629.84
553.417	1624.19
553.78	1620.8
554.143	1648.37
554.507	1636.4
554.87	1627.13
555.234	1642.73
555.597	1655.61
555.96	1623.06
556.323	1643.63
556.686	1619.22
557.05	1652.89
557.413	1646.11
557.776	1602.95
558.139	1635.72
558.502	1637.53
558.865	1639.34
559.228	1629.62
559.59	1627.81
559.953	1614.03
560.316	1630.3
560.679	1641.14
561.041	1631.43
561.404	1648.6
561.767	1645.44
562.129	1630.97
562.492	1649.05
562.854	1683.4
563.217	1652.44
563.579	1647.02
563.941	1637.3
564.304	1640.01
564.666	1660.58
565.028	1662.16
565.39	1640.69
565.753	1622.39
566.115	1659.9
566.477	1636.85
566.839	1669.62
567.201	1685.44
567.563	1652.44
567.925	1668.94
568.287	1670.07
568.648	1651.99
569.01	1677.3
569.372	1684.98
569.734	1674.14
570.095	1695.15
570.457	1682.05
570.819	1729.95
571.18	1655.15
571.542	1686.34
571.903	1711.42
572.265	1693.12
572.626	1691.09
572.987	1706.9
573.349	1720.24
573.71	1733.34
574.071	1741.25
574.432	1709.84
574.794	1765.43
575.155	1716.17
575.516	1735.15
575.877	1720.69
576.238	1730.86
576.599	1739.9
576.96	1735.15
577.32	1744.87
577.681	1769.28
578.042	1762.27
578.403	1765.89
578.763	1748.26
579.124	1746.45
579.485	1757.3
579.845	1788.71
580.206	1787.35
580.566	1773.12
580.927	1786.9
581.287	1793.23
581.648	1776.28
582.008	1835.71
582.368	1770.63
582.728	1815.83
583.089	1779.9
583.449	1793.23
583.809	1795.49
584.169	1796.17
584.529	1785.77
584.889	1806.79
585.249	1828.48
585.609	1819.9
585.969	1809.95
586.329	1804.3
586.688	1794.36
587.048	1795.04
587.408	1801.37
587.768	1803.85
588.127	1816.05
588.487	1790.52
588.846	1800.91
589.206	1831.19
589.565	1794.59
589.925	1788.26
590.284	1786
590.643	1815.15
591.003	1776.73
591.362	1799.11
591.721	1814.02
592.08	1801.82
592.44	1793.91
592.799	1831.65
593.158	1815.6
593.517	1800.69
593.876	1788.71
594.235	1832.32
594.593	1792.55
594.952	1797.3
595.311	1804.3
595.67	1795.49
596.029	1830.52
596.387	1826.68
596.746	1791.65
597.104	1800.24
597.463	1795.49
597.822	1815.38
598.18	1803.62
598.538	1811.53
598.897	1811.08
599.255	1801.37
599.613	1822.83
599.972	1798.88
600.33	1785.32
600.688	1786.9
601.046	1794.81
601.404	1810.4
601.762	1805.88
602.12	1809.05
602.478	1790.97
602.836	1796.39
603.194	1808.6
603.552	1785.77
603.91	1796.17
604.268	1776.28
604.625	1807.92
604.983	1813.57
605.341	1826.22
605.698	1820.57
606.056	1793.91
606.413	1840.01
606.771	1806.56
607.128	1799.11
607.485	1806.34
607.843	1791.87
608.2	1805.21
608.557	1819.22
608.914	1807.24
609.272	1832.32
609.629	1807.24
609.986	1815.15
610.343	1808.14
610.7	1817.64
611.057	1815.38
611.414	1791.2
611.771	1848.6
612.127	1832.32
612.484	1837.07
612.841	1836.84
613.198	1821.93
613.554	1801.82
613.911	1861.7
614.267	1796.17
614.624	1833
614.98	1854.02
615.337	1831.87
615.693	1822.38
616.05	1824.19
616.406	1854.92
616.762	1847.01
617.118	1858.31
617.475	1856.28
617.831	1883.85
618.187	1844.98
618.543	1836.17
618.899	1874.36
619.255	1833.23
619.611	1858.09
619.967	1879.33
620.323	1844.53
620.678	1860.12
621.034	1821.7
621.39	1819.9
621.746	1858.31
622.101	1856.96
622.457	1836.17
622.812	1847.92
623.168	1830.29
623.523	1855.83
623.879	1842.04
624.234	1870.97
624.589	1877.52
624.945	1857.18
625.3	1875.94
625.655	1871.65
626.01	1852.21
626.365	1891.08
626.72	1847.01
627.075	1873.23
627.43	1862.61
627.785	1842.49
628.14	1856.5
628.495	1898.31
628.85	1882.04
629.205	1871.65
629.559	1872.32
629.914	1855.6
630.269	1887.69
630.623	1884.53
630.978	1892.66
631.332	1849.95
631.687	1835.26
632.041	1833.91
632.396	1858.31
632.75	1848.6
633.104	1857.41
633.459	1848.37
633.813	1848.37
634.167	1849.05
634.521	1853.57
634.875	1839.56
635.229	1833
635.583	1822.16
635.937	1870.52
636.291	1861.93
636.645	1852.21
636.999	1840.91
637.352	1832.78
637.706	1848.14
638.06	1820.57
638.413	1845.21
638.767	1825.32
639.121	1851.76
639.474	1831.19
639.828	1849.73
640.181	1862.15
640.534	1830.97
640.888	1855.15
641.241	1866.45
641.594	1847.69
641.947	1848.6
642.301	1847.69
642.654	1831.87
643.007	1842.72
643.36	1828.26
643.713	1838.65
644.066	1801.37
644.419	1840.01
644.771	1832.32
645.124	1807.01
645.477	1823.51
645.83	1814.92
646.182	1810.18
646.535	1789.39
646.888	1830.29
647.24	1830.74
647.593	1812.21
647.945	1789.16
648.298	1799.78
648.65	1795.94
649.002	1777.64
649.355	1825.77
649.707	1778.54
650.059	1840.01
650.411	1819.44
650.763	1856.5
651.115	1840.23
651.467	1858.31
651.819	1835.49
652.171	1842.95
652.523	1825.32
652.875	1858.99
653.227	1872.1
653.578	1842.72
653.93	1838.43
654.282	1833.68
654.633	1870.97
654.985	1840.01
655.337	1855.83
655.688	1861.93
656.039	1829.16
656.391	1837.97
656.742	1853.57
657.094	1833.23
657.445	1828.26
657.796	1847.92
658.147	1842.49
658.498	1840.91
658.849	1862.61
659.2	1862.38
659.551	1844.98
659.902	1887.69
660.253	1866.9
660.604	1880.01
660.955	1853.12
661.306	1856.73
661.656	1863.06
662.007	1839.78
662.358	1884.3
662.708	1861.25
663.059	1856.05
663.409	1854.25
663.76	1895.37
664.11	1869.39
664.461	1865.77
664.811	1863.28
665.161	1843.17
665.511	1847.69
665.862	1883.4
666.212	1847.01
666.562	1851.31
666.912	1858.76
667.262	1873.68
667.612	1849.95
667.962	1856.5
668.312	1861.25
668.662	1853.12
669.011	1838.2
669.361	1846.79
669.711	1858.09
670.06	1869.16
670.41	1852.89
670.76	1850.63
671.109	1858.09
671.459	1859.89
671.808	1850.4
672.157	1835.04
672.507	1854.25
672.856	1851.08
673.205	1846.56
673.554	1852.21
673.904	1864.87
674.253	1830.29
674.602	1846.34
674.951	1839.78
675.3	1799.56
675.649	1842.49
675.998	1826.45
676.346	1811.76
676.695	1829.61
677.044	1832.55
677.393	1829.39
677.741	1826
678.09	1809.73
678.438	1794.81
678.787	1837.3
679.135	1802.49
679.484	1829.16
679.832	1826.68
680.181	1818.77
680.529	1800.24
680.877	1802.49
681.225	1795.72
681.573	1820.57
681.922	1788.26
682.27	1775.15
682.618	1780.8
682.966	1764.3
683.314	1781.25
683.661	1762.72
684.009	1783.29
684.357	1788.48
684.705	1746.9
685.053	1739.45
685.4	1755.26
685.748	1739.22
686.095	1724.3
686.443	1744.87
686.79	1742.61
687.138	1724.08
687.485	1732.44
687.832	1708.26
688.18	1706.45
688.527	1709.84
688.874	1733.12
689.221	1727.24
689.568	1689.96
689.915	1703.51
690.262	1697.86
690.609	1707.36
690.956	1693.12
691.303	1661.71
691.65	1677.07
691.997	1674.81
692.344	1669.84
692.69	1679.33
693.037	1673.68
693.383	1654.48
693.73	1667.81
694.077	1652.67
694.423	1639.79
694.769	1657.87
695.116	1622.61
695.462	1633.23
695.808	1624.65
696.155	1643.18
696.501	1635.49
696.847	1616.51
697.193	1638.21
697.539	1618.55
697.885	1604.76
698.231	1577.42
698.577	1613.8
698.923	1605.21
699.269	1602.95
699.614	1590.98
699.96	1610.18
700.306	1599.79
700.651	1590.52
700.997	1586.68
701.342	1557.08
701.688	1553.46
702.033	1588.72
702.379	1565.44
702.724	1575.16
703.069	1572.9
703.415	1582.84
703.76	1566.12
704.105	1561.37
704.45	1565.89
704.795	1570.86
705.14	1590.07
705.485	1543.29
705.83	1539.45
706.175	1565.67
706.52	1560.02
706.865	1520.47
707.209	1571.99
707.554	1554.59
707.899	1559.11
708.243	1527.02
708.588	1566.79
708.932	1542.16
709.277	1523.41
709.621	1534.93
709.966	1533.58
710.31	1524.31
710.654	1534.71
710.998	1546.23
711.342	1523.86
711.687	1543.52
712.031	1522.28
712.375	1568.38
712.719	1548.49
713.063	1534.25
713.407	1532.67
713.75	1542.39
714.094	1527.93
714.438	1564.08
714.782	1537.42
715.125	1581.71
715.469	1568.38
715.812	1546.68
716.156	1560.47
716.499	1561.6
716.843	1561.37
717.186	1568.83
717.53	1568.6
717.873	1562.28
718.216	1552.56
718.559	1569.96
718.902	1541.03
719.246	1577.87
719.589	1563.18
719.932	1576.96
720.275	1558.21
720.617	1584.2
720.96	1566.34
721.303	1553.46
721.646	1590.3
721.989	1591.88
722.331	1602.05
722.674	1592.11
723.016	1577.42
723.359	1623.97
723.701	1593.46
724.044	1594.82
724.386	1585.1
724.729	1620.8
725.071	1605.44
725.413	1649.5
725.755	1629.17
726.097	1614.7
726.439	1574.93
726.782	1622.39
727.124	1621.03
727.465	1646.11
727.807	1623.52
728.149	1646.11
728.491	1633.01
728.833	1665.1
729.175	1656.06
729.516	1676.4
729.858	1664.65
730.199	1646.79
730.541	1701.48
730.882	1692.22
731.224	1673.46
731.565	1642.5
731.906	1726.79
732.248	1713.91
732.589	1683.63
732.93	1679.56
733.271	1724.3
733.612	1727.92
733.953	1743.06
734.294	1749.84
734.635	1746.68
734.976	1750.97
735.317	1762.72
735.658	1703.06
735.999	1740.35
736.339	1739.9
736.68	1761.14
737.021	1804.98
737.361	1768.82
737.702	1815.6
738.042	1803.85
738.383	1810.86
738.723	1815.83
739.063	1829.16
739.404	1834.13
739.744	1848.14
740.084	1861.02
740.424	1860.8
740.764	1884.07
741.104	1942.83
741.444	1905.09
741.784	1923.17
742.124	1955.26
742.464	1963.85
742.804	1981.93
743.143	1993.22
743.483	1997.74
743.823	1991.42
744.162	2031.64
744.502	2033.22
744.841	2052.21
745.181	2080.91
745.52	2077.29
745.86	2128.59
746.199	2131.53
746.538	2140.79
746.877	2164.97
747.216	2179.43
747.556	2199.77
747.895	2203.61
748.234	2218.3
748.573	2252.88
748.911	2289.94
749.25	2330.39
749.589	2363.38
749.928	2376.27
750.267	2407.45
750.605	2409.71
750.944	2459.43
751.283	2482.48
751.621	2516.83
751.96	2544.62
752.298	2584.4
752.636	2642.02
752.975	2638.63
753.313	2648.35
753.651	2736.03
753.989	2759.31
754.327	2828.91
754.666	2838.63
755.004	2881.34
755.342	2925.63
755.679	2928.57
756.017	3015.12
756.355	3023.93
756.693	3075.91
757.031	3153.42
757.368	3173.98
757.706	3178.73
758.044	3231.61
758.381	3273.42
758.719	3300.99
759.056	3357.03
759.394	3376.69
759.731	3446.75
760.068	3506.18
760.405	3481.77
760.743	3563.35
761.08	3592.05
761.417	3613.75
761.754	3669.11
762.091	3701.43
762.428	3691.03
762.765	3775.55
763.102	3804.48
763.438	3841.09
763.775	3846.28
764.112	3907.07
764.449	3947.75
764.785	3946.39
765.122	4009.44
765.458	4050.35
765.795	4077.46
766.131	4086.73
766.467	4095.77
766.804	4168.99
767.14	4159.5
767.476	4205.37
767.812	4194.75
768.148	4284.01
768.485	4312.49
768.821	4265.48
769.157	4309.77
769.492	4360.85
769.828	4350.9
770.164	4394.52
770.5	4401.07
770.836	4453.05
771.171	4408.98
771.507	4450.33
771.842	4427.28
772.178	4432.48
772.513	4459.6
772.849	4546.15
773.184	4518.58
773.519	4544.8
773.855	4517
774.19	4565.81
774.525	4521.75
774.86	4591.57
775.195	4583.21
775.53	4560.84
775.865	4571.01
776.2	4559.03
776.535	4552.03
776.87	4542.08
777.205	4592.25
777.539	4588.86
777.874	4586.83
778.209	4542.54
778.543	4618.92
778.878	4578.69
779.212	4610.33
779.547	4575.98
779.881	4648.97
780.215	4614.85
780.55	4609.2
780.884	4619.6
781.218	4590.67
781.552	4611.46
781.886	4633.83
782.22	4593.16
782.554	4603.78
782.888	4553.16
783.222	4602.42
783.556	4565.81
783.889	4564.46
784.223	4514.97
784.557	4555.42
784.89	4548.64
785.224	4534.85
785.557	4531.24
785.891	4540.05
786.224	4546.6
786.558	4533.04
786.891	4542.54
787.224	4499.83
787.557	4567.39
787.891	4501.18
788.224	4492.37
788.557	4519.26
788.89	4504.12
789.223	4545.47
789.556	4445.14
789.888	4486.49
790.221	4483.55
790.554	4407.17
790.887	4479.26
791.219	4397.91
791.552	4449.66
791.884	4412.37
792.217	4463.89
792.549	4423.67
792.882	4374.18
793.214	4396.55
793.546	4401.97
793.879	4345.48
794.211	4338.02
794.543	4374.63
794.875	4369.89
795.207	4400.39
795.539	4368.76
795.871	4341.64
796.203	4331.69
796.535	4328.98
796.867	4325.14
797.198	4306.16
797.53	4346.38
797.862	4245.14
798.193	4301.64
798.525	4275.2
798.856	4252.83
799.188	4246.95
799.519	4252.83
799.85	4238.14
800.182	4214.18
800.513	4240.17
800.844	4218.02
801.175	4186.16
801.506	4225.03
801.837	4154.07
802.168	4180.96
802.499	4159.27
802.83	4166.95
803.161	4172.6
803.491	4175.54
803.822	4170.12
804.153	4158.14
804.483	4144.13
804.814	4099.38
805.145	4110.46
805.475	4125.82
805.805	4102.55
806.136	4104.13
806.466	4061.64
806.796	4088.99
807.126	4041.08
807.457	4045.15
807.787	4035.43
808.117	4013.06
808.447	4047.18
808.777	4048.76
809.107	4008.99
809.436	3999.95
809.766	4018.48
810.096	3975.55
810.426	3946.17
810.755	3964.92
811.085	3965.83
811.414	3971.25
811.744	3950.24
812.073	3928.99
812.403	3963.79
812.732	3930.35
813.061	3915.66
813.39	3922.44
813.719	3882.67
814.049	3902.1
814.378	3881.99
814.707	3928.09
815.036	3867.53
815.365	3897.13
815.693	3865.27
816.022	3839.96
816.351	3842.44
816.68	3830.92
817.008	3862.78
817.337	3820.3
817.665	3789.11
817.994	3824.14
818.322	3806.06
818.651	3825.94
818.979	3793.86
819.307	3809.67
819.636	3793.86
819.964	3769.67
820.292	3808.32
820.62	3790.69
820.948	3753.63
821.276	3778.26
821.604	3775.32
821.932	3780.75
822.259	3781.65
822.587	3738.26
822.915	3807.64
823.243	3782.78
823.57	3768.77
823.898	3757.02
824.225	3770.35
824.553	3753.86
824.88	3801.54
825.207	3771.26
825.535	3794.76
825.862	3772.16
826.189	3781.43
826.516	3757.92
826.843	3795.44
827.17	3774.87
827.497	3805.38
827.824	3805.38
828.151	3826.85
828.478	3811.48
828.805	3808.54
829.131	3794.98
829.458	3765.83
829.785	3776.91
830.111	3776.68
830.438	3758.6
830.764	3785.27
831.09	3829.33
831.417	3745.49
831.743	3806.28
832.069	3797.47
832.395	3769.22
832.722	3793.4
833.048	3790.01
833.374	3803.8
833.7	3740.52
834.026	3726.51
834.351	3777.13
834.677	3764.7
835.003	3802.67
835.329	3745.27
835.654	3748.66
835.98	3749.34
836.306	3759.05
836.631	3751.14
836.956	3783.69
837.282	3691.71
837.607	3729.45
837.932	3721.54
838.258	3710.69
838.583	3733.97
838.908	3703.91
839.233	3706.63
839.558	3694.87
839.883	3712.05
840.208	3676.8
840.533	3706.63
840.858	3683.8
841.182	3656.91
841.507	3645.84
841.832	3632.05
842.156	3615.78
842.481	3666.4
842.805	3622.56
843.13	3659.85
843.454	3634.76
843.778	3627.08
844.103	3610.58
844.427	3624.59
844.751	3611.03
845.075	3584.14
845.399	3561.32
845.723	3561.77
846.047	3557.25
846.371	3543.24
846.695	3531.72
847.019	3525.16
847.343	3524.71
847.666	3493.52
847.99	3446.75
848.313	3465.05
848.637	3414.66
848.96	3439.97
849.284	3489.46
849.607	3431.83
849.931	3451.04
850.254	3363.58
850.577	3385.5
850.9	3357.03
851.223	3371.04
851.546	3340.53
851.869	3326.52
852.192	3321.55
852.515	3292.4
852.838	3271.16
853.161	3280.87
853.483	3288.33
853.806	3275.45
854.129	3299.18
854.451	3267.99
854.774	3231.16
855.096	3225.73
855.419	3210.59
855.741	3202.68
856.063	3258.05
856.385	3192.06
856.708	3178.5
857.03	3178.73
857.352	3215.79
857.674	3183.25
857.996	3158.62
858.318	3157.04
858.64	3185.51
858.961	3121.78
859.283	3100.99
859.605	3101.9
859.926	3088.79
860.248	3074.55
860.57	3105.29
860.891	3112.29
861.212	3113.19
861.534	3119.75
861.855	3081.78
862.176	3084.72
862.498	3067.32
862.819	3098.51
863.14	3082.01
863.461	3035.23
863.782	3028.68
864.103	3036.81
864.424	3009.69
864.745	3017.83
865.065	3040.88
865.386	3030.71
865.707	3026.19
866.027	3011.95
866.348	2960.2
866.668	2955.23
866.989	2981.45
867.309	3002.01
867.63	2967.21
867.95	2993.2
868.27	2974.89
868.59	2960.2
868.91	2998.4
869.23	2946.19
869.55	2993.65
869.87	2948.91
870.19	2903.26
870.51	2946.19
870.83	2972.18
871.15	2966.08
871.469	2964.5
871.789	2930.37
872.109	2912.75
872.428	2916.14
872.748	2913.43
873.067	2907.78
873.386	2892.86
873.706	2901
874.025	2924.27
874.344	2907.55
874.663	2890.38
874.982	2900.09
875.301	2907.32
875.62	2868.23
875.939	2866.87
876.258	2833.88
876.577	2840.89
876.896	2874.11
877.214	2855.8
877.533	2863.94
877.852	2847.44
878.17	2871.62
878.489	2823.03
878.807	2852.86
879.125	2813.77
879.444	2822.36
879.762	2837.04
880.08	2839.53
880.398	2768.35
880.716	2814.45
881.034	2807.21
881.352	2804.95
881.67	2801.34
881.988	2780.1
882.306	2799.98
882.624	2783.94
882.941	2779.19
883.259	2729.02
883.577	2728.57
883.894	2728.35
884.212	2724.05
884.529	2757.27
884.846	2694
885.164	2739.19
885.481	2691.96
885.798	2738.74
886.115	2687.67
886.432	2726.31
886.75	2706.2
887.067	2747.33
887.383	2705.52
887.7	2705.3
888.017	2701
888.334	2698.06
888.651	2642.92
888.967	2700.78
889.284	2658.74
889.6	2640.44
889.917	2631.63
890.233	2636.15
890.55	2616.48
890.866	2630.5
891.182	2609.03
891.498	2620.1
891.815	2617.61
892.131	2585.75
892.447	2588.46
892.763	2534.91
893.079	2564.73
893.395	2562.47
893.71	2561.12
894.026	2555.7
894.342	2543.04
894.657	2538.97
894.973	2526.54
895.289	2517.96
895.604	2496.49
895.92	2510.27
896.235	2483.38
896.55	2522.93
896.865	2477.96
897.181	2469.82
897.496	2463.04
897.811	2466.88
898.126	2454.46
898.441	2426.43
898.756	2470.5
899.071	2406.32
899.386	2455.36
899.7	2416.94
900.015	2411.74
900.33	2376.04
900.644	2374.46
900.959	2358.64
901.273	2362.25
901.588	2346.44
901.902	2338.53
902.216	2323.61
902.531	2336.94
902.845	2352.76
903.159	2335.36
903.473	2324.97
903.787	2332.2
904.101	2293.56
904.415	2291.52
904.729	2283.39
905.042	2266.44
905.356	2242.48
905.67	2292.2
905.984	2222.37
906.297	2251.07
906.611	2238.19
906.924	2248.36
907.237	2217.4
907.551	2219.43
907.864	2196.61
908.177	2206.1
908.491	2227.57
908.804	2182.15
909.117	2176.72
909.43	2158.42
909.743	2148.25
910.056	2158.87
910.368	2142.37
910.681	2127.01
910.994	2130.62
911.307	2152.99
911.619	2146.67
911.932	2109.15
912.244	2117.06
912.557	2076.39
912.869	2082.71
913.181	2035.03
913.494	2048.36
913.806	2044.75
914.118	2088.14
914.43	2019.44
914.742	2020.34
915.054	2026.9
915.366	2057.63
915.678	2025.09
915.99	2011.08
916.302	1981.25
916.613	1966.78
916.925	1994.13
917.236	1978.76
917.548	1980.8
917.859	1973.34
918.171	1973.34
918.482	1970.17
918.794	1967.91
919.105	1929.95
919.416	1967.01
919.727	1904.64
920.038	1956.62
920.349	1923.85
920.66	1913.9
920.971	1929.05
921.282	1926.11
921.593	1880.01
921.903	1894.24
922.214	1883.4
922.525	1862.61
922.835	1856.5
923.146	1848.37
923.456	1850.63
923.767	1883.85
924.077	1840.46
924.387	1848.37
924.697	1796.85
925.008	1808.14
925.318	1830.97
925.628	1800.91
925.938	1789.16
926.248	1774.25
926.558	1796.85
926.867	1777.41
927.177	1774.02
927.487	1774.93
927.796	1783.29
928.106	1756.62
928.416	1768.82
928.725	1754.36
929.034	1767.69
929.344	1732.44
929.653	1722.5
929.962	1703.51
930.271	1735.15
930.581	1713.91
930.89	1705.32
931.199	1691.99
931.508	1715.27
931.817	1740.58
932.125	1689.96
932.434	1675.27
932.743	1670.3
933.051	1666.91
933.36	1684.31
933.669	1690.18
933.977	1643.86
934.286	1658.77
934.594	1645.44
934.902	1614.93
935.21	1633.46
935.519	1636.85
935.827	1610.41
936.135	1598.66
936.443	1596.4
936.751	1589.39
937.059	1594.36
937.367	1583.52
937.674	1609.28
937.982	1546.68
938.29	1574.93
938.597	1565.44
938.905	1561.15
939.213	1544.42
939.52	1552.11
939.827	1535.16
940.135	1526.12
940.442	1530.64
940.749	1528.38
941.056	1528.15
941.363	1499
941.67	1507.59
941.977	1519.34
942.284	1477.31
942.591	1484.99
942.898	1473.69
943.205	1480.24
943.511	1490.64
943.818	1467.59
944.125	1477.98
944.431	1466.91
944.738	1466.23
945.044	1458.32
945.35	1426.69
945.657	1429.85
945.963	1440.02
946.269	1449.96
946.575	1414.71
946.881	1411.54
947.187	1426.01
947.493	1424.43
947.799	1412
948.105	1393.24
948.41	1396.86
948.716	1388.49
949.022	1388.27
949.327	1407.25
949.633	1372.45
949.938	1388.04
950.244	1384.88
950.549	1383.07
950.854	1376.97
951.16	1351.43
951.465	1378.33
951.77	1360.02
952.075	1343.07
952.38	1323.86
952.685	1332
952.99	1311.66
953.294	1328.84
953.599	1304.2
953.904	1303.3
954.209	1290.42
954.513	1295.62
954.818	1284.54
955.122	1309.17
955.426	1281.6
955.731	1293.81
956.035	1288.84
956.339	1258.78
956.643	1298.1
956.948	1288.16
957.252	1272.34
957.556	1279.12
957.86	1256.75
958.163	1254.71
958.467	1239.35
958.771	1239.35
959.075	1251.1
959.378	1242.74
959.682	1209.06
959.985	1233.7
960.289	1255.16
960.592	1206.35
960.896	1209.74
961.199	1185.79
961.502	1211.78
961.805	1202.74
962.108	1194.38
962.411	1202.28
962.714	1197.54
963.017	1164.77
963.32	1188.27
963.623	1175.17
963.926	1183.08
964.228	1177.65
964.531	1172.46
964.833	1165.45
965.136	1151.89
965.438	1143.98
965.741	1157.77
966.043	1133.59
966.345	1135.17
966.648	1135.39
966.95	1126.81
967.252	1126.58
967.554	1127.03
967.856	1115.96
968.158	1124.32
968.46	1132.68
968.761	1148.73
969.063	1114.38
969.365	1113.7
969.666	1100.14
969.968	1058.79
970.269	1085.68
970.571	1095.17
970.872	1087.03
971.174	1108.05
971.475	1086.81
971.776	1069.63
972.077	1073.25
972.378	1058.79
972.679	1067.6
972.98	1061.72
973.281	1053.14
973.582	1034.38
973.883	1021.72
974.183	1041.84
974.484	1033.02
974.785	1020.82
975.085	1057.2
975.386	1055.85
975.686	1033.02
975.986	1043.42
976.287	1028.28
976.587	1009.97
976.887	1035.28
977.187	996.87
977.487	1044.55
977.787	998.45
978.087	997.54
978.387	985.79
978.687	998.67
978.987	993.25
979.286	959.13
979.586	964.55
979.885	967.71
980.185	978.56
980.484	971.33
980.784	996.41
981.083	965.68
981.382	946.7
981.682	964.78
981.981	943.76
982.28	937.21
982.579	952.8
982.878	958.45
983.177	946.7
983.475	948.05
983.774	944.66
984.073	936.98
984.372	906.7
984.67	930.2
984.969	939.92
985.267	906.25
985.566	905.34
985.864	913.25
986.162	914.83
986.461	896.3
986.759	907.83
987.057	877.55
987.355	868.28
987.653	878.68
987.951	874.61
988.249	901.5
988.547	877.32
988.844	883.42
989.142	886.81
989.44	873.25
989.737	882.07
990.035	860.15
990.332	882.29
990.63	870.99
990.927	865.57
991.224	855.85
991.521	845.23
991.819	867.6
992.116	841.84
992.413	826.02
992.71	847.72
993.006	839.13
993.303	841.84
993.6	837.1
993.897	831
994.193	818.57
994.49	829.87
994.787	817.21
995.083	824.22
995.379	817.21
995.676	820.83
995.972	818.79
996.268	825.57
996.565	822.86
996.861	803.43
997.157	791.9
997.453	799.36
997.749	790.54
998.044	806.59
998.34	830.32
998.636	816.98
998.932	796.42
999.227	783.99
999.523	749.64
999.818	767.72
1000.114	788.28
1000.409	777.21
1000.704	770.21
1001	783.54
1001.295	769.75
1001.59	755.74
1001.885	761.84
1002.18	760.94
1002.475	741.96
1002.77	743.09
1003.065	744.9
1003.359	763.65
1003.654	729.98
1003.949	740.6
1004.243	719.59
1004.538	731.34
1004.832	716.87
1005.127	726.82
1005.421	739.47
1005.715	710.55
1006.009	736.08
1006.304	720.04
1006.598	719.13
1006.892	719.36
1007.186	686.14
1007.48	727.27
1007.773	702.86
1008.067	726.59
1008.361	688.63
1008.655	692.02
1008.948	686.59
1009.242	685.24
1009.535	673.94
1009.829	685.01
1010.122	684.11
1010.415	665.35
1010.708	687.5
1011.001	680.04
1011.295	651.34
1011.588	663.77
1011.881	681.85
1012.173	668.74
1012.466	677.1
1012.759	650.21
1013.052	656.54
1013.344	680.49
1013.637	632.13
1013.93	653.82
1014.222	639.14
1014.514	644.11
1014.807	628.29
1015.099	635.29
1015.391	654.05
1015.683	636.42
1015.976	635.29
1016.268	645.46
1016.56	648.63
1016.851	644.79
1017.143	614.73
1017.435	614.96
1017.727	617.67
1018.018	615.63
1018.31	609.98
1018.602	621.06
1018.893	613.37
1019.185	623.99
1019.476	583.32
1019.767	605.69
1020.058	608.63
1020.35	598.23
1020.641	598.01
1020.932	611.11
1021.223	601.17
1021.514	579.48
1021.804	578.8
1022.095	572.47
1022.386	583.32
1022.677	600.49
1022.967	563.88
1023.258	565.69
1023.548	568.86
1023.839	567.73
1024.129	553.49
1024.419	549.87
1024.709	579.7
1025	559.14
1025.29	560.27
1025.58	572.02
1025.87	555.97
1026.16	544.9
1026.449	542.19
1026.739	535.86
1027.029	557.56
1027.319	527.95
1027.608	534.73
1027.898	540.38
1028.187	514.85
1028.477	546.93
1028.766	550.1
1029.055	533.15
1029.344	525.47
1029.634	528.18
1029.923	521.4
1030.212	529.31
1030.501	530.44
1030.79	527.27
1031.078	509.87
1031.367	517.56
1031.656	524.56
1031.945	517.33
1032.233	529.53
1032.522	522.75
1032.81	496.54
1033.099	519.36
1033.387	503.77
1033.675	517.11
1033.963	494.96
1034.251	500.16
1034.54	521.4
1034.828	507.39
1035.116	494.96
1035.403	500.38
1035.691	494.51
1035.979	490.89
1036.267	495.18
1036.554	480.95
1036.842	473.94
1037.129	484.79
1037.417	492.92
1037.704	473.72
1037.992	491.12
1038.279	485.02
1038.566	470.1
1038.853	470.1
1039.14	470.1
