Data from blue_surface_keyboard_FLMS001491_085.txt Node
Date: Tue Feb 07 11:13:46 GMT 2017
User: dcchb
Spectrometer: FLMS00149
Trigger mode: 0
Integration Time (sec): 2.000000E-2
Scans to average: 10
Electric dark correction enabled: true
Nonlinearity correction enabled: false
Boxcar width: 0
XAxis mode: Wavelengths
Number of Pixels in Spectrum: 2048
>>>>>Begin Spectral Data<<<<<
341.393	5.58
341.776	5.58
342.16	5.58
342.543	-66.51
342.927	-64.7
343.31	-74.42
343.693	-83.68
344.077	-67.19
344.46	-60.86
344.843	-54.53
345.226	-47.08
345.61	-36.23
345.993	-31.03
346.376	-14.53
346.759	28.4
347.142	34.28
347.525	38.12
347.908	67.95
348.291	68.18
348.674	96.88
349.057	135.75
349.44	135.52
349.823	163.99
350.206	145.01
350.588	177.1
350.971	182.3
351.354	198.34
351.737	216.19
352.119	231.79
352.502	222.97
352.884	249.41
353.267	250.54
353.65	279.47
354.032	296.64
354.414	290.09
354.797	284.22
355.179	296.87
355.562	308.4
355.944	294.84
356.326	297.1
356.709	301.84
357.091	307.27
357.473	322.63
357.855	323.54
358.238	312.92
358.62	307.94
359.002	315.85
359.384	317.89
359.766	323.54
360.148	322.86
360.53	312.46
360.912	305.68
361.294	293.93
361.676	313.37
362.057	295.51
362.439	317.89
362.821	307.94
363.203	316.98
363.584	312.01
363.966	304.78
364.348	285.35
364.729	299.36
365.111	308.4
365.493	298
365.874	315.63
366.256	300.49
366.637	298.9
367.019	302.97
367.4	274.72
367.781	298.23
368.163	291.67
368.544	307.94
368.925	288.74
369.306	300.26
369.688	296.87
370.069	298.68
370.45	278.57
370.831	287.38
371.212	284.22
371.593	268.62
371.974	295.06
372.355	299.58
372.736	291.9
373.117	306.36
373.498	284.67
373.879	304.1
374.26	290.54
374.641	272.69
375.021	295.97
375.402	295.97
375.783	307.72
376.163	313.37
376.544	295.51
376.925	291.22
377.305	319.02
377.686	315.85
378.066	288.51
378.447	291.9
378.827	312.69
379.208	297.77
379.588	278.79
379.968	313.59
380.349	310.88
380.729	310.43
381.109	308.4
381.489	322.63
381.87	326.7
382.25	312.69
382.63	301.84
383.01	309.75
383.39	309.07
383.77	289.19
384.15	301.16
384.53	307.49
384.91	304.1
385.29	311.11
385.67	300.71
386.049	305.91
386.429	324.44
386.809	301.39
387.189	319.47
387.568	314.72
387.948	308.17
388.328	311.33
388.707	314.95
389.087	321.28
389.466	313.82
389.846	322.18
390.225	317.66
390.605	317.89
390.984	308.62
391.363	330.54
391.743	336.64
392.122	308.62
392.501	328.06
392.881	323.76
393.26	326.7
393.639	328.96
394.018	324.89
394.397	337.1
394.776	333.71
395.155	347.26
395.534	317.66
395.913	326.02
396.292	349.3
396.671	329.86
397.05	335.97
397.429	334.38
397.808	319.69
398.186	331.22
398.565	348.39
398.944	347.49
399.323	319.47
399.701	335.51
400.08	338.23
400.458	341.16
400.837	339.13
401.215	326.93
401.594	313.14
401.972	346.13
402.351	339.13
402.729	342.52
403.107	363.54
403.486	358.56
403.864	367.38
404.242	354.72
404.62	354.04
404.999	340.26
405.377	349.3
405.755	350.2
406.133	368.51
406.511	363.54
406.889	347.94
407.267	359.02
407.645	368.73
408.023	360.82
408.401	381.16
408.779	360.15
409.156	365.12
409.534	343.42
409.912	356.53
410.29	392.91
410.667	380.94
411.045	370.99
411.422	374.38
411.8	355.17
412.178	364.21
412.555	386.13
412.933	387.72
413.31	369.19
413.687	392.69
414.065	386.13
414.442	381.61
414.819	388.85
415.197	401.27
415.574	401.27
415.951	368.96
416.328	392.46
416.705	390.88
417.082	401.27
417.46	385.68
417.837	398.79
418.214	407.6
418.591	399.69
418.967	394.95
419.344	405.34
419.721	415.74
420.098	403.08
420.475	431.56
420.852	405.79
421.228	414.38
421.605	403.53
421.982	423.65
422.358	419.58
422.735	412.35
423.111	434.95
423.488	423.65
423.864	421.39
424.241	441.05
424.617	435.85
424.994	432.91
425.37	419.58
425.746	417.55
426.123	438.56
426.499	427.49
426.875	449.18
427.251	461.16
427.627	439.24
428.003	451.22
428.379	435.62
428.756	433.82
429.132	455.06
429.507	446.92
429.883	453.7
430.259	447.15
430.635	449.41
431.011	443.99
431.387	457.32
431.763	450.99
432.138	469.07
432.514	471.56
432.89	479.01
433.265	475.62
433.641	491.44
434.016	483.31
434.392	490.99
434.767	493.25
435.143	467.71
435.518	494.83
435.894	480.37
436.269	486.47
436.644	503.64
437.02	489.41
437.395	497.77
437.77	506.58
438.145	508.39
438.52	497.77
438.895	499.13
439.271	495.96
439.646	511.78
440.021	506.36
440.395	511.33
440.77	515.4
441.145	499.35
441.52	517.66
441.895	544.55
442.27	516.3
442.645	515.62
443.019	547.26
443.394	537.54
443.769	531.21
444.143	532.57
444.518	533.02
444.892	518.56
445.267	549.52
445.641	529.63
446.016	537.54
446.39	542.74
446.764	529.63
447.139	542.51
447.513	553.81
447.887	552.23
448.262	574.83
448.636	562.17
449.01	558.56
449.384	542.97
449.758	554.94
450.132	572.34
450.506	573.7
450.88	567.37
451.254	557.65
451.628	592.91
452.002	592.68
452.376	604.43
452.75	575.28
453.123	585.22
453.497	584.55
453.871	570.99
454.244	599.24
454.618	615.51
454.992	608.27
455.365	610.08
455.739	613.02
456.112	600.14
456.486	631.1
456.859	632.46
457.232	634.04
457.606	622.51
457.979	631.33
458.352	645.11
458.725	632.23
459.099	650.53
459.472	659.12
459.845	665.9
460.218	654.38
460.591	657.31
460.964	654.83
461.337	664.54
461.71	684.21
462.083	651.44
462.456	680.59
462.829	684.43
463.201	701.61
463.574	696.41
463.947	701.15
464.32	700.48
464.692	716.07
465.065	707.26
465.438	716.75
465.81	702.74
466.183	738.22
466.555	730.53
466.928	718.33
467.3	743.19
467.672	739.8
468.045	765.33
468.417	733.7
468.789	757.42
469.161	755.39
469.534	774.37
469.906	760.81
470.278	791.1
470.65	780.25
471.022	789.74
471.394	795.39
471.766	791.32
472.138	817.54
472.51	822.28
472.882	832.22
473.253	829.51
473.625	835.16
473.997	845.78
474.369	855.73
474.74	857.99
475.112	868.38
475.484	893.47
475.855	901.83
476.227	888.04
476.598	924.2
476.97	905.22
477.341	913.35
477.713	910.19
478.084	936.18
478.455	951.77
478.827	965.33
479.198	952.67
479.569	981.37
479.94	974.14
480.311	997.19
480.682	1002.16
481.053	1022.95
481.424	995.38
481.795	1046
482.166	1042.16
482.537	1064.31
482.908	1090.3
483.279	1068.38
483.65	1065.89
484.021	1085.1
484.391	1110.63
484.762	1093.23
485.133	1101.6
485.503	1145.21
485.874	1135.27
486.244	1147.7
486.615	1128.94
486.985	1134.81
487.356	1186.11
487.726	1165.77
488.097	1184.31
488.467	1179.33
488.837	1226.11
489.207	1176.4
489.578	1213.91
489.948	1238.77
490.318	1225.89
490.688	1196.51
491.058	1251.87
491.428	1257.3
491.798	1273.34
492.168	1273.34
492.538	1289.16
492.908	1275.6
493.278	1267.92
493.648	1269.73
494.017	1307.47
494.387	1284.42
494.757	1308.37
495.126	1327.35
495.496	1323.74
495.866	1305.88
496.235	1325.77
496.605	1338.65
496.974	1312.21
497.344	1344.3
497.713	1366.45
498.082	1390.18
498.452	1362.38
498.821	1368.71
499.19	1387.92
499.559	1363.28
499.928	1358.99
500.298	1365.54
500.667	1370.06
501.036	1405.09
501.405	1399.21
501.774	1411.42
502.143	1396.28
502.512	1386.79
502.88	1392.66
503.249	1404.19
503.618	1399.21
503.987	1415.71
504.356	1431.08
504.724	1414.13
505.093	1403.28
505.462	1425.88
505.83	1445.09
506.199	1427.46
506.567	1441.7
506.936	1418.2
507.304	1437.18
507.672	1441.25
508.041	1429.27
508.409	1481.25
508.777	1477.86
509.145	1475.14
509.514	1477.63
509.882	1470.85
510.25	1463.17
510.618	1474.01
510.986	1489.83
511.354	1472.21
511.722	1486.67
512.09	1499.1
512.458	1476.73
512.826	1517.18
513.193	1497.07
513.561	1515.14
513.929	1515.6
514.297	1503.39
514.664	1495.48
515.032	1523.28
515.4	1519.66
515.767	1508.14
516.135	1499.32
516.502	1503.84
516.869	1519.89
517.237	1568.48
517.604	1526.67
517.972	1516.95
518.339	1544.97
518.706	1549.72
519.073	1546.1
519.44	1524.41
519.808	1556.95
520.175	1544.97
520.542	1524.86
520.909	1557.18
521.276	1566.22
521.643	1563.28
522.009	1593.79
522.376	1575.48
522.743	1628.14
523.11	1586.78
523.477	1628.81
523.843	1614.35
524.21	1626.55
524.577	1593.11
524.943	1614.35
525.31	1619.32
525.676	1628.14
526.043	1601.92
526.409	1630.62
526.776	1636.04
527.142	1631.3
527.508	1644.41
527.874	1641.02
528.241	1609.6
528.607	1637.4
528.973	1643.05
529.339	1671.3
529.705	1640.56
530.071	1688.02
530.437	1689.6
530.803	1673.33
531.169	1649.83
531.535	1666.33
531.901	1646.67
532.267	1686.66
532.632	1672.2
532.998	1655.93
533.364	1685.76
533.73	1676.5
534.095	1716.72
534.461	1701.58
534.826	1699.09
535.192	1670.85
535.557	1689.6
535.923	1707.46
536.288	1710.62
536.653	1715.36
537.019	1697.29
537.384	1691.41
537.749	1711.52
538.114	1716.72
538.479	1685.53
538.845	1709.49
539.21	1709.94
539.575	1675.14
539.94	1692.99
540.305	1701.81
540.67	1683.95
541.034	1687.79
541.399	1709.26
541.764	1711.3
542.129	1701.35
542.494	1716.49
542.858	1696.61
543.223	1733.9
543.587	1718.08
543.952	1704.07
544.316	1704.74
544.681	1708.81
545.045	1743.84
545.41	1700
545.774	1714.01
546.138	1734.12
546.503	1726.89
546.867	1736.15
547.231	1739.09
547.595	1721.92
547.959	1768.7
548.324	1754.46
548.688	1737.06
549.052	1750.17
549.416	1732.99
549.779	1766.89
550.143	1729.15
550.507	1725.53
550.871	1748.81
551.235	1736.38
551.599	1771.41
551.962	1740.22
552.326	1765.98
552.689	1732.54
553.053	1764.4
553.417	1729.83
553.78	1794.46
554.143	1742.93
554.507	1753.33
554.87	1748.58
555.234	1756.72
555.597	1774.35
555.96	1721.47
556.323	1761.69
556.686	1770.96
557.05	1768.02
557.413	1764.63
557.776	1788.81
558.139	1789.03
558.502	1779.09
558.865	1741.8
559.228	1781.13
559.59	1771.86
559.953	1779.77
560.316	1813.44
560.679	1800.11
561.041	1783.16
561.404	1786.1
561.767	1799.2
562.129	1792.65
562.492	1801.01
562.854	1798.53
563.217	1821.12
563.579	1814.34
563.941	1805.08
564.304	1792.88
564.666	1827
565.028	1848.02
565.39	1840.11
565.753	1830.16
566.115	1816.6
566.477	1847.11
566.839	1836.72
567.201	1832.42
567.563	1838.98
567.925	1867
568.287	1823.38
568.648	1877.17
569.01	1870.84
569.372	1869.03
569.734	1871.52
570.095	1881.46
570.457	1868.35
570.819	1892.53
571.18	1866.1
571.542	1888.47
571.903	1866.32
572.265	1873.55
572.626	1864.74
572.987	1870.16
573.349	1880.33
573.71	1926.21
574.071	1905.64
574.432	1883.5
574.794	1911.52
575.155	1920.33
575.516	1895.92
575.877	1891.41
576.238	1890.5
576.599	1926.88
576.96	1908.35
577.32	1912.65
577.681	1913.78
578.042	1894.79
578.403	1888.47
578.763	1946.77
579.124	1933.89
579.485	1934.12
579.845	1938.86
580.206	1930.95
580.566	1946.32
580.927	1967.11
581.287	1943.83
581.648	1948.8
582.008	1959.43
582.368	1947
582.728	1947.22
583.089	1941.35
583.449	1970.27
583.809	1960.78
584.169	1947.45
584.529	1968.01
584.889	1923.72
585.249	1930.73
585.609	1924.4
585.969	1951.97
586.329	1975.24
586.688	1932.53
587.048	1968.92
587.408	1949.26
587.768	1946.32
588.127	1963.49
588.487	1920.78
588.846	1924.62
589.206	1954
589.565	1984.28
589.925	1965.08
590.284	1951.52
590.643	1979.76
591.003	1939.77
591.362	1950.39
591.721	1967.79
592.08	1943.61
592.44	1963.72
592.799	1996.26
593.158	1926.66
593.517	1970.73
593.876	1976.6
594.235	1991.52
594.593	1994
594.952	1986.09
595.311	1985.19
595.67	1996.04
596.029	1992.19
596.387	2007.56
596.746	2005.75
597.104	1987.22
597.463	1953.1
597.822	2008.69
598.18	2002.36
598.538	2006.2
598.897	1994.45
599.255	2005.07
599.613	2039.42
599.972	2010.5
600.33	2019.09
600.688	2017.05
601.046	2013.21
601.404	2017.28
601.762	1986.09
602.12	2009.59
602.478	2036.26
602.836	2020.67
603.194	2002.59
603.552	2006.88
603.91	2032.19
604.268	2026.77
604.625	2010.5
604.983	2044.17
605.341	2040.78
605.698	2022.25
606.056	2043.49
606.413	2034.45
606.771	2055.69
607.128	2037.39
607.485	2030.38
607.843	2033.1
608.2	2065.86
608.557	2042.14
608.914	2042.36
609.272	2054.56
609.629	2043.49
609.986	2074
610.343	2023.83
610.7	2063.83
611.057	2086.88
611.414	2077.16
611.771	2054.79
612.127	2042.59
612.484	2062.7
612.841	2081.91
613.198	2102.47
613.554	2094.34
613.911	2076.48
614.267	2090.27
614.624	2078.07
614.98	2095.47
615.337	2131.85
615.693	2092.53
616.05	2125.98
616.406	2122.36
616.762	2118.97
617.118	2113.32
617.475	2122.81
617.831	2109.25
618.187	2169.82
618.543	2127.78
618.899	2137.05
619.255	2141.34
619.611	2157.61
619.967	2135.92
620.323	2131.4
620.678	2166.2
621.034	2123.04
621.39	2133.66
621.746	2163.49
622.101	2172.53
622.457	2165.3
622.812	2143.6
623.168	2186.09
623.523	2176.14
623.879	2165.52
624.234	2172.53
624.589	2178.18
624.945	2170.72
625.3	2194.67
625.655	2167.78
626.01	2198.29
626.365	2199.65
626.72	2169.59
627.075	2194.22
627.43	2225.41
627.785	2186.31
628.14	2226.76
628.495	2203.26
628.85	2192.64
629.205	2214.56
629.559	2190.61
629.914	2245.97
630.269	2218.18
630.623	2204.17
630.978	2216.82
631.332	2241.23
631.687	2206.2
632.041	2234.45
632.396	2243.26
632.75	2260.89
633.104	2233.54
633.459	2252.98
633.813	2259.76
634.167	2254.79
634.521	2271.96
634.875	2271.51
635.229	2285.52
635.583	2237.61
635.937	2267.89
636.291	2268.8
636.645	2293.65
636.999	2306.31
637.352	2298.63
637.706	2252.53
638.06	2330.72
638.413	2281.9
638.767	2292.07
639.121	2314.9
639.474	2288.46
639.828	2310.83
640.181	2311.51
640.534	2326.65
640.888	2314.44
641.241	2294.33
641.594	2329.59
641.947	2323.03
642.301	2344.27
642.654	2390.83
643.007	2384.5
643.36	2356.03
643.713	2361.45
644.066	2356.93
644.419	2388.57
644.771	2364.16
645.124	2353.77
645.477	2361.9
645.83	2388.12
646.182	2367.78
646.535	2339.08
646.888	2346.99
647.24	2391.96
647.593	2403.71
647.945	2368.91
648.298	2382.01
648.65	2400.32
649.002	2384.5
649.355	2400.09
649.707	2403.48
650.059	2450.26
650.411	2475.12
650.763	2484.38
651.115	2494.78
651.467	2514.67
651.819	2498.85
652.171	2582.46
652.523	2591.05
652.875	2543.14
653.227	2543.14
653.578	2565.74
653.93	2586.98
654.282	2604.38
654.633	2587.43
654.985	2617.49
655.337	2624.04
655.688	2609.8
656.039	2634.89
656.391	2675.79
656.742	2622.01
657.094	2653.87
657.445	2710.37
657.796	2705.62
658.147	2704.04
658.498	2699.52
658.849	2739.07
659.2	2723.25
659.551	2724.83
659.902	2760.08
660.253	2762.34
660.604	2753.76
660.955	2800.31
661.306	2758.73
661.656	2786.75
662.007	2821.78
662.358	2835.11
662.708	2828.56
663.059	2833.98
663.409	2838.05
663.76	2879.63
664.11	2904.03
664.461	2911.04
664.811	2952.62
665.161	2937.93
665.511	2940.87
665.862	2953.07
666.212	2988.33
666.562	2993.3
666.912	3002.11
667.262	3009.12
667.612	3030.13
667.962	3048.66
668.312	3017.25
668.662	3053.86
669.011	3092.73
669.361	3071.49
669.711	3088.44
670.06	3131.6
670.41	3153.52
670.76	3141.09
671.109	3151.26
671.459	3182.67
671.808	3151.94
672.157	3173.86
672.507	3161.65
672.856	3138.38
673.205	3205.27
673.554	3219.73
673.904	3217.7
674.253	3264.02
674.602	3224.03
674.951	3258.15
675.3	3221.77
675.649	3300.18
675.998	3304.7
676.346	3299.05
676.695	3349.22
677.044	3348.54
677.393	3343.8
677.741	3350.35
678.09	3349.22
678.438	3346.96
678.787	3408.43
679.135	3454.98
679.484	3372.95
679.832	3415.43
680.181	3414.3
680.529	3477.8
680.877	3476.22
681.225	3455.88
681.573	3479.84
681.922	3448.43
682.27	3465.83
682.618	3473.51
682.966	3509.67
683.314	3501.08
683.661	3544.69
684.009	3496.33
684.357	3536.33
684.705	3548.76
685.053	3539.72
685.4	3577.46
685.748	3540.4
686.095	3598.03
686.443	3577.91
686.79	3562.32
687.138	3619.04
687.485	3618.59
687.832	3587.63
688.18	3617.91
688.527	3628.53
688.874	3638.25
689.221	3651.58
689.568	3640.74
689.915	3671.25
690.262	3649.55
690.609	3603.68
690.956	3655.43
691.303	3667.86
691.65	3628.08
691.997	3657.23
692.344	3610.23
692.69	3647.29
693.037	3635.09
693.383	3629.44
693.73	3657.69
694.077	3634.18
694.423	3671.47
694.769	3655.65
695.116	3650.45
695.462	3664.92
695.808	3630.34
696.155	3664.92
696.501	3651.81
696.847	3640.74
697.193	3615.2
697.539	3703.79
697.885	3667.86
698.231	3621.08
698.577	3653.62
698.923	3621.76
699.269	3613.85
699.614	3652.26
699.96	3627.63
700.306	3680.51
700.651	3623.34
700.997	3609.1
701.342	3627.4
701.688	3644.58
702.033	3620.17
702.379	3588.76
702.724	3612.49
703.069	3657.91
703.415	3584.92
703.76	3590.8
704.105	3569.55
704.45	3563.23
704.795	3581.76
705.14	3565.03
705.485	3555.99
705.83	3564.58
706.175	3589.89
706.52	3542.44
706.865	3582.66
707.209	3550.12
707.554	3573.17
707.899	3614.52
708.243	3583.11
708.588	3534.3
708.932	3560.29
709.277	3548.76
709.621	3559.84
709.966	3550.34
710.31	3543.79
710.654	3522.77
710.998	3535.88
711.342	3569.55
711.687	3517.8
712.031	3523
712.375	3494.07
712.719	3533.4
713.063	3480.52
713.407	3516.67
713.75	3533.85
714.094	3532.04
714.438	3516.22
714.782	3509.89
715.125	3541.08
715.469	3534.53
715.812	3508.09
716.156	3475.54
716.499	3464.7
716.843	3528.42
717.186	3505.15
717.53	3536.56
717.873	3553.73
718.216	3513.51
718.559	3491.81
718.902	3478.26
719.246	3503.11
719.589	3529.1
719.932	3480.52
720.275	3448.65
720.617	3508.09
720.96	3495.88
721.303	3494.98
721.646	3454.3
721.989	3501.76
722.331	3481.42
722.674	3511.25
723.016	3525.49
723.359	3510.35
723.701	3488.2
724.044	3504.24
724.386	3467.41
724.729	3512.38
725.071	3482.32
725.413	3510.8
725.755	3496.11
726.097	3488.65
726.439	3504.92
726.782	3513.06
727.124	3547.63
727.465	3481.87
727.807	3519.61
728.149	3492.94
728.491	3481.87
728.833	3533.62
729.175	3503.11
729.516	3548.31
729.858	3530.68
730.199	3481.87
730.541	3538.14
730.882	3508.99
731.224	3560.97
731.565	3517.58
731.906	3522.1
732.248	3534.98
732.589	3535.88
732.93	3506.28
733.271	3537.01
733.612	3514.87
733.953	3570.91
734.294	3547.63
734.635	3532.27
734.976	3546.95
735.317	3560.74
735.658	3538.37
735.999	3537.92
736.339	3557.35
736.68	3571.59
737.021	3562.77
737.361	3548.99
737.702	3603
738.042	3541.31
738.383	3598.93
738.723	3616.56
739.063	3600.51
739.404	3615.2
739.744	3604.58
740.084	3644.35
740.424	3631.92
740.764	3616.33
741.104	3627.63
741.444	3661.75
741.784	3669.21
742.124	3698.14
742.464	3680.28
742.804	3701.53
743.143	3694.07
743.483	3703.33
743.823	3689.55
744.162	3673.28
744.502	3698.36
744.841	3728.87
745.181	3770.45
745.52	3750.57
745.86	3754.18
746.199	3810
746.538	3805.93
746.877	3840.73
747.216	3843.22
747.556	3846.16
747.895	3835.31
748.234	3853.39
748.573	3812.26
748.911	3890
749.25	3895.42
749.589	3915.76
749.928	3909.43
750.267	3978.81
750.605	3979.49
750.944	3988.98
751.283	4009.99
751.621	4056.32
751.96	4011.58
752.298	4078.47
752.636	4095.64
752.975	4090.44
753.313	4073.49
753.651	4157.33
753.989	4179.48
754.327	4152.36
754.666	4171.35
755.004	4214.06
755.342	4225.36
755.679	4222.42
756.017	4278.69
756.355	4259.7
756.693	4289.53
757.031	4318.46
757.368	4320.27
757.706	4341.28
758.044	4352.81
758.381	4385.8
758.719	4362.75
759.056	4405.69
759.394	4412.47
759.731	4450.21
760.068	4479.81
760.405	4416.76
760.743	4464.9
761.08	4472.35
761.417	4492.01
761.754	4522.07
762.091	4527.72
762.428	4480.94
762.765	4526.14
763.102	4516.42
763.438	4560.26
763.775	4541.28
764.112	4574.95
764.449	4539.47
764.785	4570.2
765.122	4564.1
765.458	4582.86
765.795	4560.71
766.131	4587.61
766.467	4554.39
766.804	4608.17
767.14	4584.89
767.476	4576.53
767.812	4556.87
768.148	4582.18
768.485	4604.33
768.821	4577.66
769.157	4624.21
769.492	4597.1
769.828	4599.36
770.164	4557.1
770.5	4553.03
770.836	4620.6
771.171	4522.07
771.507	4520.26
771.842	4534.95
772.178	4516.42
772.513	4525.01
772.849	4521.84
773.184	4531.34
773.519	4529.53
773.855	4507.38
774.19	4445.91
774.525	4511
774.86	4469.87
775.195	4499.92
775.53	4494.27
775.865	4494.95
776.2	4446.82
776.535	4449.98
776.87	4434.62
777.205	4464.9
777.539	4395.97
777.874	4425.35
778.209	4413.82
778.543	4354.84
778.878	4358.91
779.212	4358.46
779.547	4334.96
779.881	4389.64
780.215	4298.12
780.55	4362.75
780.884	4295.41
781.218	4326.14
781.552	4265.58
781.886	4289.53
782.22	4254.28
782.554	4245.47
782.888	4200.5
783.222	4254.05
783.556	4236.43
783.889	4195.07
784.223	4180.84
784.557	4200.5
784.89	4200.27
785.224	4142.87
785.557	4153.49
785.891	4124.11
786.224	4111.46
786.558	4175.41
786.891	4144.45
787.224	4090.22
787.557	4097.22
787.891	4051.57
788.224	4060.16
788.557	4085.7
788.89	4045.02
789.223	4063.55
789.556	4026.94
789.888	3988.3
790.221	4007.96
790.554	3963.89
790.887	4027.39
791.219	3978.58
791.552	3956.89
791.884	3932.71
792.217	3906.04
792.549	3964.12
792.882	3931.58
793.214	3865.82
793.546	3902.43
793.879	3828.3
794.211	3871.01
794.543	3878.25
794.875	3824.46
795.207	3862.65
795.539	3811.13
795.871	3839.6
796.203	3796.21
796.535	3778.14
796.867	3771.13
797.198	3786.27
797.53	3752.15
797.862	3749.66
798.193	3768.19
798.525	3734.52
798.856	3763.22
799.188	3729.32
799.519	3680.06
799.85	3674.41
800.182	3739.27
800.513	3687.52
800.844	3635.77
801.175	3696.33
801.506	3648.42
801.837	3632.6
802.168	3655.2
802.499	3613.17
802.83	3638.48
803.161	3638.48
803.491	3623.79
803.822	3593.51
804.153	3575.65
804.483	3562.32
804.814	3556.22
805.145	3533.62
805.475	3519.38
805.805	3500.4
806.136	3546.95
806.466	3499.95
806.796	3510.57
807.126	3507.86
807.457	3490.46
807.787	3530.01
808.117	3492.04
808.447	3457.92
808.777	3457.69
809.107	3424.92
809.436	3419.05
809.766	3414.98
810.096	3428.09
810.426	3424.92
810.755	3396.22
811.085	3378.15
811.414	3393.74
811.744	3394.64
812.073	3370.01
812.403	3347.64
812.732	3319.62
813.061	3376.79
813.39	3372.27
813.719	3357.13
814.049	3341.08
814.378	3335.66
814.707	3312.84
815.036	3338.15
815.365	3322.78
815.693	3279.39
816.022	3289.79
816.351	3240.3
816.68	3273.06
817.008	3219.96
817.337	3223.8
817.665	3238.26
817.994	3231.26
818.322	3233.06
818.651	3243.23
818.979	3241.65
819.307	3256.79
819.636	3255.44
819.964	3180.86
820.292	3221.99
820.62	3245.27
820.948	3221.99
821.276	3240.97
821.604	3136.57
821.932	3174.99
822.259	3180.18
822.587	3152.16
822.915	3180.41
823.243	3189.9
823.57	3178.83
823.898	3195.78
824.225	3167.98
824.553	3180.64
824.88	3190.81
825.207	3185.38
825.535	3161.2
825.862	3219.73
826.189	3183.57
826.516	3210.47
826.843	3212.95
827.17	3175.67
827.497	3171.37
827.824	3176.12
828.151	3205.27
828.478	3194.42
828.805	3228.55
829.131	3155.1
829.458	3199.62
829.785	3168.43
830.111	3218.83
830.438	3189.22
830.764	3169.11
831.09	3150.58
831.417	3160.3
831.743	3183.57
832.069	3212.95
832.395	3192.39
832.722	3208.88
833.048	3171.82
833.374	3184.48
833.7	3138.83
834.026	3167.76
834.351	3139.96
834.677	3134.99
835.003	3203.69
835.329	3169.79
835.654	3151.03
835.98	3154.2
836.306	3141.09
836.631	3133.18
836.956	3103.58
837.282	3126.17
837.607	3089.11
837.932	3120.53
838.258	3131.15
838.583	3118.04
838.908	3107.64
839.233	3165.04
839.558	3116.23
839.883	3068.32
840.208	3129.34
840.533	3038.72
840.858	3076.91
841.182	3027.19
841.507	3053.18
841.832	3038.27
842.156	3010.25
842.481	3057.48
842.805	3067.65
843.13	3035.56
843.454	3045.05
843.778	3043.69
844.103	3044.37
844.427	3010.02
844.751	3018.83
845.075	3042.34
845.399	2994.2
845.723	2969.34
846.047	3010.25
846.371	2959.4
846.695	2994.2
847.019	2945.39
847.343	2933.64
847.666	2970.02
847.99	2948.1
848.313	2919.17
848.637	2908.78
848.96	2874.2
849.284	2905.84
849.607	2847.09
849.931	2829.69
850.254	2856.35
850.577	2833.53
850.9	2807.99
851.223	2807.77
851.546	2790.14
851.869	2801.21
852.192	2756.69
852.515	2762.79
852.838	2738.16
853.161	2788.56
853.483	2738.84
853.806	2728.45
854.129	2707.43
854.451	2737.94
854.774	2739.97
855.096	2678.28
855.419	2700.88
855.741	2666.3
856.063	2707.43
856.385	2682.57
856.708	2668.56
857.03	2673.53
857.352	2685.73
857.674	2668.33
857.996	2666.07
858.318	2629.24
858.64	2652.52
858.961	2659.29
859.283	2602.35
859.605	2610.26
859.926	2594.44
860.248	2613.42
860.57	2571.16
860.891	2611.61
861.212	2594.89
861.534	2601.89
861.855	2620.2
862.176	2556.47
862.498	2563.93
862.819	2598.73
863.14	2578.62
863.461	2551.95
863.782	2530.03
864.103	2530.03
864.424	2543.59
864.745	2550.14
865.065	2545.63
865.386	2532.29
865.707	2554.89
866.027	2549.92
866.348	2500.43
866.668	2538.85
866.989	2529.81
867.309	2480.09
867.63	2505.85
867.95	2483.93
868.27	2517.83
868.59	2504.27
868.91	2488
869.23	2502.01
869.55	2523.25
869.87	2467.44
870.19	2478.51
870.51	2507.21
870.83	2504.27
871.15	2480.09
871.469	2454.33
871.789	2445.29
872.109	2453.42
872.428	2456.81
872.748	2486.42
873.067	2473.31
873.386	2459.3
873.706	2500.43
874.025	2444.38
874.344	2437.83
874.663	2480.77
874.982	2425.4
875.301	2410.04
875.62	2437.15
875.939	2429.24
876.258	2398.96
876.577	2426.98
876.896	2428.57
877.214	2371.84
877.533	2394.22
877.852	2400.09
878.17	2415.46
878.489	2398.96
878.807	2407.32
879.125	2389.02
879.444	2397.38
879.762	2390.38
880.08	2404.84
880.398	2381.56
880.716	2397.61
881.034	2369.58
881.352	2419.53
881.67	2362.58
881.988	2357.83
882.306	2359.87
882.624	2351.73
882.941	2339.98
883.259	2303.37
883.577	2341.79
883.894	2335.91
884.212	2315.35
884.529	2321
884.846	2318.96
885.164	2306.54
885.481	2300.66
885.798	2309.02
886.115	2291.62
886.432	2274.45
886.75	2304.73
887.067	2275.12
887.383	2290.04
887.7	2285.52
888.017	2267.44
888.334	2294.56
888.651	2259.98
888.967	2284.62
889.284	2256.59
889.6	2238.51
889.917	2235.58
890.233	2268.8
890.55	2215.92
890.866	2255.24
891.182	2253.66
891.498	2202.81
891.815	2179.99
892.131	2239.64
892.447	2181.57
892.763	2197.84
893.079	2186.99
893.395	2178.4
893.71	2193.54
894.026	2174.56
894.342	2205.75
894.657	2160.1
894.973	2143.6
895.289	2171.62
895.604	2131.62
895.92	2161.68
896.235	2121
896.55	2120.78
896.865	2127.56
897.181	2111.96
897.496	2134.56
897.811	2109.03
898.126	2089.14
898.441	2074
898.756	2103.15
899.071	2068.12
899.386	2081.68
899.7	2064.28
900.015	2057.95
900.33	2059.54
900.644	2057.05
900.959	2063.83
901.273	2005.53
901.588	2040.1
901.902	2007.79
902.216	2012.76
902.531	1996.26
902.845	2036.94
903.159	1992.19
903.473	1998.52
903.787	1978.41
904.101	1987.22
904.415	1977.05
904.729	1993.55
905.042	1947.67
905.356	1946.09
905.67	1969.14
905.984	1953.55
906.297	1983.61
906.611	1942.93
906.924	1912.42
907.237	1909.03
907.551	1929.82
907.864	1897.73
908.177	1909.71
908.491	1907.9
908.804	1904.06
909.117	1892.31
909.43	1873.78
909.743	1915.13
910.056	1860.45
910.368	1840.33
910.681	1824.74
910.994	1859.77
911.307	1853.21
911.619	1808.47
911.932	1831.52
912.244	1829.71
912.557	1827.68
912.869	1805.08
913.181	1810.96
913.494	1785.65
913.806	1792.42
914.118	1815.47
914.43	1785.65
914.742	1762.37
915.054	1753.78
915.366	1762.82
915.678	1746.78
915.99	1747
916.302	1749.71
916.613	1748.81
916.925	1742.93
917.236	1759.43
917.548	1733.67
917.859	1738.41
918.171	1729.38
918.482	1694.8
918.794	1693.22
919.105	1721.92
919.416	1686.89
919.727	1677.85
920.038	1668.81
920.349	1667.23
920.66	1664.07
920.971	1670.85
921.282	1660
921.593	1670.62
921.903	1631.75
922.214	1650.28
922.525	1616.38
922.835	1623.39
923.146	1631.52
923.456	1655.25
923.767	1610.28
924.077	1624.52
924.387	1608.25
924.697	1615.71
925.008	1568.48
925.318	1598.08
925.628	1590.4
925.938	1566.22
926.248	1576.61
926.558	1562.37
926.867	1561.24
927.177	1530.06
927.487	1564.41
927.796	1544.07
928.106	1522.6
928.416	1527.35
928.725	1515.6
929.034	1554.01
929.344	1515.82
929.653	1517.86
929.962	1522.83
930.271	1526.22
930.581	1501.81
930.89	1459.1
931.199	1477.86
931.508	1494.58
931.817	1483.28
932.125	1457.74
932.434	1473.79
932.743	1467.91
933.051	1460
933.36	1431.3
933.669	1443.06
933.977	1433.11
934.286	1428.82
934.594	1442.15
934.902	1421.13
935.21	1417.75
935.519	1403.28
935.827	1405.77
936.135	1413.45
936.443	1416.39
936.751	1412.77
937.059	1370.29
937.367	1367.8
937.674	1386.11
937.982	1380.68
938.29	1394.24
938.597	1362.38
938.905	1355.15
939.213	1358.09
939.52	1331.87
939.827	1373.45
940.135	1341.82
940.442	1358.99
940.749	1365.09
941.056	1355.15
941.363	1351.76
941.67	1330.29
941.977	1330.29
942.284	1316.96
942.591	1305.21
942.898	1296.84
943.205	1283.51
943.511	1303.62
943.818	1287.35
944.125	1288.71
944.431	1275.38
944.738	1273.57
945.044	1265.21
945.35	1269.27
945.657	1273.79
945.963	1282.16
946.269	1281.48
946.575	1249.84
946.881	1254.13
947.187	1263.62
947.493	1234.02
947.799	1236.73
948.105	1208.49
948.41	1223.85
948.716	1212.55
949.022	1234.7
949.327	1200.12
949.633	1249.16
949.938	1215.72
950.244	1227.24
950.549	1208.03
950.854	1185.66
951.16	1203.74
951.465	1175.27
951.77	1169.16
952.075	1181.59
952.38	1181.59
952.685	1162.61
952.99	1170.52
953.294	1147.47
953.599	1161.93
953.904	1141.82
954.209	1165.55
954.513	1157.64
954.818	1169.16
955.122	1144.98
955.426	1137.3
955.731	1138.43
956.035	1154.48
956.339	1128.49
956.643	1127.13
956.948	1126.23
957.252	1102.27
957.556	1131.43
957.86	1107.24
958.163	1090.3
958.467	1094.36
958.771	1104.53
959.075	1095.95
959.378	1093.46
959.682	1113.35
959.985	1079.45
960.289	1083.52
960.592	1094.36
960.896	1074.7
961.199	1070.41
961.502	1044.65
961.805	1063.18
962.108	1070.18
962.411	1070.18
962.714	1029.51
963.017	1061.82
963.32	1062.5
963.623	1053.24
963.926	1039.9
964.228	1036.51
964.531	1019.56
964.833	1024.31
965.136	1013.24
965.438	1003.74
965.741	1018.43
966.043	1019.56
966.345	1020.24
966.648	1023.41
966.95	1029.96
967.252	1002.39
967.554	1017.53
967.856	966.23
968.158	974.37
968.46	996.74
968.761	998.1
969.063	951.54
969.365	966.46
969.666	995.84
969.968	972.11
970.269	984.08
970.571	981.37
970.872	958.32
971.174	976.85
971.475	959.68
971.776	974.14
972.077	955.84
972.378	953.58
972.679	949.06
972.98	966.46
973.281	943.18
973.582	946.35
973.883	921.71
974.183	938.66
974.484	949.51
974.785	931.88
975.085	913.8
975.386	943.86
975.686	944.31
975.986	912
976.287	901.15
976.587	904.99
976.887	911.09
977.187	898.89
977.487	927.59
977.787	909.28
978.087	897.08
978.387	922.39
978.687	878.78
978.987	894.6
979.286	860.7
979.586	887.36
979.885	890.75
980.185	873.13
980.484	894.82
980.784	866.8
981.083	878.55
981.382	878.78
981.682	868.61
981.981	876.52
982.28	882.84
982.579	869.96
982.878	865.22
983.177	871.32
983.475	864.99
983.774	841.94
984.073	861.83
984.372	838.78
984.67	860.02
984.969	844.43
985.267	828.16
985.566	835.39
985.864	845.33
986.162	817.08
986.461	835.39
986.759	808.27
987.057	829.06
987.355	813.92
987.653	812.11
987.951	844.43
988.249	802.17
988.547	824.99
988.844	797.65
989.142	828.38
989.44	803.07
989.737	799.68
990.035	815.73
990.332	812.34
990.63	830.64
990.927	790.42
991.224	796.29
991.521	767.59
991.819	808.72
992.116	812.34
992.413	773.24
992.71	768.5
993.006	792.22
993.303	770.08
993.6	768.04
993.897	769.4
994.193	752.23
994.49	772.79
994.787	770.08
995.083	753.13
995.379	759.46
995.676	764.66
995.972	747.25
996.268	742.73
996.565	761.49
996.861	751.77
997.157	746.35
997.453	750.19
997.749	727.37
998.044	725.11
998.34	725.11
998.636	732.34
998.932	746.8
999.227	723.98
999.523	728.27
999.818	723.98
1000.114	705.45
1000.409	735.96
1000.704	730.53
1001	715.16
1001.295	708.84
1001.59	686.01
1001.885	714.71
1002.18	695.5
1002.475	711.32
1002.77	705.45
1003.065	701.38
1003.359	686.47
1003.654	700.93
1003.949	695.05
1004.243	676.52
1004.538	690.98
1004.832	701.15
1005.127	675.62
1005.421	667.03
1005.715	699.35
1006.009	693.7
1006.304	687.59
1006.598	685.56
1006.892	657.54
1007.186	662.28
1007.48	669.52
1007.773	655.28
1008.067	661.83
1008.361	665.67
1008.655	641.04
1008.948	666.58
1009.242	656.41
1009.535	623.64
1009.829	631.78
1010.122	637.65
1010.415	654.38
1010.708	632.23
1011.001	627.26
1011.295	625.22
1011.588	611.44
1011.881	607.82
1012.173	620.93
1012.466	641.72
1012.759	612.57
1013.052	590.42
1013.344	621.83
1013.637	600.14
1013.93	619.35
1014.222	617.77
1014.514	629.07
1014.807	631.1
1015.099	630.2
1015.391	599.91
1015.683	585.9
1015.976	606.69
1016.268	587.94
1016.56	587.26
1016.851	587.03
1017.143	600.59
1017.435	580.25
1017.727	575.96
1018.018	595.17
1018.31	582.51
1018.602	565.56
1018.893	573.02
1019.185	579.12
1019.476	570.54
1019.767	573.47
1020.058	573.25
1020.35	554.49
1020.641	574.83
1020.932	554.04
1021.223	557.2
1021.514	549.75
1021.804	555.17
1022.095	539.58
1022.386	559.01
1022.677	558.33
1022.967	536.41
1023.258	542.51
1023.548	541.84
1023.839	521.27
1024.129	531.21
1024.419	553.14
1024.709	546.81
1025	533.25
1025.29	546.81
1025.58	540.71
1025.87	540.03
1026.16	530.54
1026.449	532.34
1026.739	523.98
1027.029	531.89
1027.319	526.24
1027.608	535.96
1027.898	492.35
1028.187	528.05
1028.477	503.87
1028.766	497.77
1029.055	510.65
1029.344	523.76
1029.634	508.16
1029.923	485.57
1030.212	505
1030.501	510.2
1030.79	497.09
1031.078	512.23
1031.367	486.02
1031.656	477.2
1031.945	504.1
1032.233	494.83
1032.522	481.72
1032.81	477.88
1033.099	482.85
1033.387	480.82
1033.675	467.04
1033.963	482.85
1034.251	482.85
1034.54	493.48
1034.828	474.49
1035.116	473.14
1035.403	481.5
1035.691	470.43
1035.979	483.98
1036.267	486.92
1036.554	471.56
1036.842	463.87
1037.129	468.84
1037.417	467.71
1037.704	439.01
1037.992	451.89
1038.279	478.56
1038.566	472.46
1038.853	472.46
1039.14	472.46
