Data from blue_surface_keyboard_FLMS001491_030.txt Node
Date: Tue Feb 07 11:12:52 GMT 2017
User: dcchb
Spectrometer: FLMS00149
Trigger mode: 0
Integration Time (sec): 2.000000E-2
Scans to average: 10
Electric dark correction enabled: true
Nonlinearity correction enabled: false
Boxcar width: 0
XAxis mode: Wavelengths
Number of Pixels in Spectrum: 2048
>>>>>Begin Spectral Data<<<<<
341.393	-15.23
341.776	-15.23
342.16	-15.23
342.543	-49.12
342.927	-47.32
343.31	-75.56
343.693	-79.18
344.077	-67.65
344.46	-64.94
344.843	-50.25
345.226	-31.95
345.61	-37.6
345.993	-19.75
346.376	0.14
346.759	2.85
347.142	16.86
347.525	47.15
347.908	58.44
348.291	71.1
348.674	105.9
349.057	124.43
349.44	119.01
349.823	126.92
350.206	156.3
350.588	189.29
350.971	178.44
351.354	202.4
351.737	216.41
352.119	227.48
352.502	237.65
352.884	255.95
353.267	251.66
353.65	294.14
354.032	258.67
354.414	273.58
354.797	286.01
355.179	293.01
355.562	299.57
355.944	294.6
356.326	289.17
356.709	305.44
357.091	293.24
357.473	297.76
357.855	328.95
358.238	305.22
358.62	319.68
359.002	314.71
359.384	298.66
359.766	309.06
360.148	319.91
360.53	308.38
360.912	292.79
361.294	316.07
361.676	293.47
362.057	319.45
362.439	327.59
362.821	295.73
363.203	304.54
363.584	321.26
363.966	288.95
364.348	293.24
364.729	293.92
365.111	304.54
365.493	329.85
365.874	281.04
366.256	283.75
366.637	279.46
367.019	277.2
367.4	299.79
367.781	281.26
368.163	279.46
368.544	291.21
368.925	278.1
369.306	278.33
369.688	283.52
370.069	279.68
370.45	274.71
370.831	273.58
371.212	275.16
371.593	275.61
371.974	276.97
372.355	283.75
372.736	287.82
373.117	287.59
373.498	279.91
373.879	292.34
374.26	290.3
374.641	304.99
375.021	283.07
375.402	283.52
375.783	303.86
376.163	293.24
376.544	286.46
376.925	281.94
377.305	303.64
377.686	283.98
378.066	313.13
378.447	283.07
378.827	285.11
379.208	276.07
379.588	294.14
379.968	307.25
380.349	295.73
380.729	302.73
381.109	308.61
381.489	291.21
381.87	283.07
382.25	299.57
382.63	268.83
383.01	274.48
383.39	301.6
383.77	309.06
384.15	316.07
384.53	305.22
384.91	300.7
385.29	310.19
385.67	305.9
386.049	326.46
386.429	304.54
386.809	309.29
387.189	313.81
387.568	300.47
387.948	321.49
388.328	306.8
388.707	335.05
389.087	317.65
389.466	317.65
389.846	319.45
390.225	309.74
390.605	318.1
390.984	319.23
391.363	315.84
391.743	298.89
392.122	312.68
392.501	317.65
392.881	323.07
393.26	323.75
393.639	350.19
394.018	316.52
394.397	319
394.776	320.13
395.155	326.01
395.534	315.84
395.913	318.1
396.292	326.69
396.671	331.88
397.05	326.46
397.429	321.94
397.808	327.59
398.186	330.53
398.565	321.94
398.944	314.03
399.323	319.68
399.701	325.1
400.08	316.07
400.458	334.6
400.837	337.53
401.215	330.98
401.594	336.4
401.972	334.82
402.351	334.14
402.729	338.66
403.107	346.35
403.486	345.67
403.864	333.01
404.242	339.12
404.62	321.49
404.999	351.32
405.377	347.7
405.755	329.62
406.133	348.15
406.511	349.74
406.889	365.56
407.267	356.52
407.645	358.78
408.023	351.09
408.401	359.91
408.779	340.25
409.156	382.5
409.534	355.16
409.912	351.54
410.29	347.48
410.667	377.76
411.045	367.36
411.422	350.41
411.8	353.58
412.178	373.92
412.555	371.88
412.933	375.27
413.31	360.81
413.687	360.58
414.065	389.96
414.442	376.4
414.819	385.67
415.197	384.31
415.574	384.31
415.951	379.11
416.328	370.53
416.705	408.72
417.082	383.18
417.46	402.84
417.837	375.72
418.214	401.71
418.591	407.36
418.967	380.02
419.344	394.93
419.721	397.42
420.098	402.84
420.475	407.36
420.852	395.61
421.228	394.93
421.605	395.84
421.982	414.82
422.358	405.1
422.735	387.02
423.111	412.79
423.488	404.2
423.864	399.23
424.241	426.34
424.617	410.53
424.994	405.33
425.37	416.18
425.746	389.74
426.123	427.47
426.499	425.21
426.875	425.67
427.251	412.33
427.627	413.92
428.003	440.13
428.379	433.12
428.756	435.84
429.132	432.45
429.507	435.84
429.883	439
430.259	444.42
430.635	439
431.011	453.91
431.387	435.84
431.763	456.85
432.138	445.1
432.514	455.95
432.89	453.24
433.265	448.94
433.641	444.88
434.016	472.22
434.392	471.77
434.767	483.52
435.143	490.07
435.518	467.47
435.894	468.15
436.269	468.15
436.644	470.86
437.02	505.44
437.395	482.61
437.77	480.81
438.145	500.24
438.52	490.98
438.895	504.76
439.271	482.16
439.646	515.16
440.021	490.52
440.395	509.51
440.77	492.78
441.145	505.21
441.52	510.41
441.895	513.57
442.27	498.43
442.645	494.59
443.019	520.81
443.394	523.52
443.769	507.7
444.143	516.06
444.518	509.51
444.892	518.55
445.267	507.7
445.641	526.46
446.016	559
446.39	518.55
446.764	516.74
447.139	530.97
447.513	544.99
447.887	553.8
448.262	530.75
448.636	537.98
449.01	555.61
449.384	535.27
449.758	530.97
450.132	558.09
450.506	550.86
450.88	555.38
451.254	571.2
451.628	559.22
452.002	591.99
452.376	562.84
452.75	553.12
453.123	559
453.497	571.43
453.871	566.91
454.244	593.12
454.618	594.25
454.992	594.93
455.365	585.66
455.739	606.23
456.112	616.4
456.486	618.88
456.859	597.19
457.232	611.88
457.606	587.02
457.979	605.32
458.352	615.27
458.725	625.21
459.099	621.82
459.472	642.16
459.845	641.93
460.218	657.53
460.591	634.7
460.964	646.45
461.337	670.63
461.71	647.13
462.083	648.71
462.456	647.81
462.829	666.34
463.201	666.11
463.574	664.53
463.947	680.8
464.32	666.79
464.692	691.2
465.065	700.46
465.438	693.68
465.81	679.45
466.183	701.82
466.555	712.44
466.928	691.65
467.3	696.62
467.672	708.82
468.045	723.51
468.417	709.95
468.789	715.6
469.161	736.62
469.534	743.4
469.906	736.85
470.278	739.78
470.65	753.57
471.022	764.87
471.394	763.51
471.766	748.82
472.138	773.23
472.51	782.04
472.882	805.32
473.253	782.95
473.625	808.26
473.997	825.2
474.369	820.23
474.74	827.69
475.112	852.32
475.484	848.03
475.855	841.93
476.227	859.78
476.598	875.15
476.97	876.28
477.341	896.16
477.713	868.14
478.084	890.74
478.455	915.6
478.827	929.83
479.198	912.89
479.569	912.66
479.94	942.04
480.311	950.62
480.682	963.05
481.053	983.39
481.424	960.12
481.795	967.57
482.166	987.01
482.537	985.43
482.908	1008.7
483.279	1009.61
483.65	1026.55
484.021	1050.06
484.391	1027.46
484.762	1062.94
485.133	1068.81
485.503	1063.16
485.874	1074.01
486.244	1095.03
486.615	1080.56
486.985	1106.55
487.356	1086.44
487.726	1095.71
488.097	1115.82
488.467	1115.59
488.837	1135.03
489.207	1160.34
489.578	1157.85
489.948	1157.85
490.318	1169.6
490.688	1173.67
491.058	1203.95
491.428	1187.23
491.798	1180.45
492.168	1208.7
492.538	1231.3
492.908	1208.7
493.278	1248.47
493.648	1236.04
494.017	1224.97
494.387	1252.31
494.757	1214.12
495.126	1250.05
495.496	1266.32
495.866	1238.98
496.235	1281.01
496.605	1269.26
496.974	1251.86
497.344	1287.79
497.713	1281.92
498.082	1266.1
498.452	1298.19
498.821	1279.43
499.19	1304.29
499.559	1289.82
499.928	1327.34
500.298	1324.4
500.667	1304.06
501.036	1302.25
501.405	1288.02
501.774	1307.23
502.143	1286.21
502.512	1309.49
502.88	1315.81
503.249	1295.93
503.618	1315.59
503.987	1330.95
504.356	1301.8
504.724	1324.85
505.093	1338.86
505.462	1353.1
505.83	1318.75
506.199	1345.19
506.567	1371.63
506.936	1356.94
507.304	1344.74
507.672	1372.76
508.041	1371.63
508.409	1369.14
508.777	1362.82
509.145	1376.38
509.514	1383.61
509.882	1348.58
510.25	1370.5
510.618	1369.6
510.986	1375.7
511.354	1390.84
511.722	1379.99
512.09	1376.83
512.458	1418.64
512.826	1355.59
513.193	1379.09
513.561	1400.78
513.929	1398.07
514.297	1382.03
514.664	1415.47
515.032	1398.97
515.4	1434
515.767	1429.26
516.135	1423.83
516.502	1400.1
516.869	1445.75
517.237	1434.23
517.604	1447.56
517.972	1431.97
518.339	1448.46
518.706	1467
519.073	1441.23
519.44	1408.69
519.808	1446.2
520.175	1475.36
520.542	1448.69
520.909	1434
521.276	1442.14
521.643	1459.99
522.009	1466.09
522.376	1462.7
522.743	1490.72
523.11	1471.51
523.477	1477.39
523.843	1445.53
524.21	1517.62
524.577	1488.24
524.943	1485.75
525.31	1495.92
525.676	1490.95
526.043	1489.37
526.409	1534.11
526.776	1568.69
527.142	1537.28
527.508	1522.59
527.874	1524.85
528.241	1525.52
528.607	1534.56
528.973	1527.11
529.339	1537.73
529.705	1575.92
530.071	1547.45
530.437	1543.6
530.803	1575.92
531.169	1533.43
531.535	1537.28
531.901	1533.89
532.267	1555.13
532.632	1552.87
532.998	1575.92
533.364	1555.13
533.73	1540.21
534.095	1582.25
534.461	1569.82
534.826	1566.43
535.192	1595.35
535.557	1582.02
535.923	1578.18
536.288	1580.44
536.653	1624.96
537.019	1574.11
537.384	1613.43
537.749	1604.62
538.114	1609.36
538.479	1597.16
538.845	1588.57
539.21	1597.16
539.575	1588.57
539.94	1609.36
540.305	1568.69
540.67	1613.21
541.034	1584.96
541.399	1590.83
541.764	1617.05
542.129	1608.01
542.494	1594.68
542.858	1589.93
543.223	1605.3
543.587	1606.65
543.952	1602.58
544.316	1606.65
544.681	1587.67
545.045	1598.07
545.41	1606.2
545.774	1622.92
546.138	1590.38
546.503	1616.14
546.867	1616.37
547.231	1599.42
547.595	1616.6
547.959	1616.6
548.324	1606.65
548.688	1608.23
549.052	1633.77
549.416	1606.2
549.779	1647.56
550.143	1626.99
550.507	1627.22
550.871	1599.87
551.235	1621.57
551.599	1618.18
551.962	1647.33
552.326	1633.32
552.689	1662.24
553.053	1608.46
553.417	1654.11
553.78	1639.65
554.143	1634.67
554.507	1641.45
554.87	1638.06
555.234	1636.03
555.597	1633.77
555.96	1640.32
556.323	1627.44
556.686	1612.75
557.05	1666.31
557.413	1671.28
557.776	1640.1
558.139	1639.65
558.502	1651.62
558.865	1688.23
559.228	1654.11
559.59	1662.24
559.953	1663.15
560.316	1680.32
560.679	1691.4
561.041	1682.13
561.404	1674
561.767	1707.44
562.129	1687.55
562.492	1694.79
562.854	1704.5
563.217	1691.17
563.579	1693.88
563.941	1701.11
564.304	1692.98
564.666	1713.54
565.028	1726.65
565.39	1693.43
565.753	1694.11
566.115	1728.23
566.477	1687.33
566.839	1695.01
567.201	1741.79
567.563	1745.63
567.925	1706.31
568.287	1724.62
568.648	1745.63
569.01	1762.58
569.372	1749.02
569.734	1715.35
570.095	1756.25
570.457	1776.59
570.819	1773.2
571.18	1755.8
571.542	1744.05
571.903	1758.74
572.265	1767.1
572.626	1784.5
572.987	1767.33
573.349	1790.15
573.71	1772.52
574.071	1788.57
574.432	1775.46
574.794	1791.96
575.155	1804.61
575.516	1783.82
575.877	1784.28
576.238	1771.62
576.599	1819.08
576.96	1806.2
577.32	1778.85
577.681	1806.87
578.042	1795.57
578.403	1800.09
578.763	1808.23
579.124	1798.74
579.485	1804.61
579.845	1781.11
580.206	1808.23
580.566	1802.58
580.927	1787.89
581.287	1851.17
581.648	1819.3
582.008	1841.67
582.368	1830.6
582.728	1825.86
583.089	1818.4
583.449	1828.79
583.809	1807.78
584.169	1842.58
584.529	1801.9
584.889	1876.7
585.249	1808.23
585.609	1831.28
585.969	1830.6
586.329	1827.21
586.688	1805.52
587.048	1834.44
587.408	1814.56
587.768	1827.21
588.127	1829.47
588.487	1853.65
588.846	1850.71
589.206	1841.67
589.565	1812.3
589.925	1857.04
590.284	1840.54
590.643	1805.29
591.003	1853.65
591.362	1834.44
591.721	1873.76
592.08	1834.22
592.44	1852.75
592.799	1839.64
593.158	1853.88
593.517	1872.41
593.876	1863.82
594.235	1848
594.593	1837.16
594.952	1870.83
595.311	1855.23
595.67	1889.13
596.029	1833.54
596.387	1872.18
596.746	1876.48
597.104	1870.15
597.463	1843.71
597.822	1852.52
598.18	1842.35
598.538	1890.26
598.897	1869.47
599.255	1843.71
599.613	1882.58
599.972	1891.39
600.33	1876.25
600.688	1873.09
601.046	1857.72
601.404	1856.82
601.762	1882.58
602.12	1866.53
602.478	1886.87
602.836	1881.22
603.194	1871.05
603.552	1881.9
603.91	1882.58
604.268	1897.49
604.625	1885.97
604.983	1899.53
605.341	1894.1
605.698	1893.65
606.056	1881.22
606.413	1881.45
606.771	1867.66
607.128	1907.21
607.485	1886.87
607.843	1892.07
608.2	1953.76
608.557	1944.27
608.914	1929.13
609.272	1906.76
609.629	1932.52
609.986	1935.01
610.343	1949.92
610.7	1916.25
611.057	1929.81
611.414	1920.77
611.771	1938.4
612.127	1955.34
612.484	1946.08
612.841	1982.91
613.198	1931.39
613.554	1956.93
613.911	1947.21
614.267	1972.74
614.624	1972.97
614.98	1947.21
615.337	1954.67
615.693	1962.8
616.05	1940.66
616.406	1950.6
616.762	1962.35
617.118	1973.2
617.475	1993.08
617.831	1988.11
618.187	2007.32
618.543	2005.74
618.899	2001.9
619.255	2005.06
619.611	1996.7
619.967	1998.73
620.323	1980.43
620.678	2008.68
621.034	1993.99
621.39	2012.97
621.746	1993.08
622.101	2001.44
622.457	2001.44
622.812	2009.35
623.168	2028.79
623.523	2000.09
623.879	2027.21
624.234	2041.9
624.589	2022.91
624.945	2022.01
625.3	2053.65
625.655	2047.32
626.01	2053.87
626.365	2024.72
626.72	2039.86
627.075	2021.56
627.43	2043.7
627.785	2013.87
628.14	2089.58
628.495	2081.89
628.85	2071.95
629.205	2055.45
629.559	2043.48
629.914	2037.6
630.269	2056.13
630.623	2045.96
630.978	2079.18
631.332	2080.31
631.687	2065.17
632.041	2097.94
632.396	2095.91
632.75	2062.91
633.104	2084.83
633.459	2094.78
633.813	2082.8
634.167	2093.42
634.521	2066.53
634.875	2096.81
635.229	2093.87
635.583	2058.39
635.937	2098.17
636.291	2086.41
636.645	2103.59
636.999	2097.26
637.352	2131.84
637.706	2088
638.06	2119.86
638.413	2122.12
638.767	2113.31
639.121	2108.11
639.474	2125.74
639.828	2135.23
640.181	2193.98
640.534	2164.83
640.888	2175.68
641.241	2136.58
641.594	2170.71
641.947	2161.21
642.301	2198.5
642.654	2186.07
643.007	2161.67
643.36	2171.61
643.713	2176.13
644.066	2169.12
644.419	2192.4
644.771	2153.53
645.124	2181.33
645.477	2176.81
645.83	2157.6
646.182	2170.93
646.535	2150.82
646.888	2193.3
647.24	2165.73
647.593	2179.97
647.945	2205.96
648.298	2189.46
648.65	2204.38
649.002	2202.8
649.355	2227.2
649.707	2218.61
650.059	2237.6
650.411	2258.84
650.763	2269.23
651.115	2305.17
651.467	2305.84
651.819	2354.43
652.171	2348.78
652.523	2364.6
652.875	2341.1
653.227	2359.85
653.578	2351.49
653.93	2340.64
654.282	2363.47
654.633	2351.04
654.985	2365.28
655.337	2383.81
655.688	2399.85
656.039	2424.03
656.391	2431.04
656.742	2443.24
657.094	2414.09
657.445	2438.5
657.796	2486.18
658.147	2478.49
658.498	2455.9
658.849	2467.42
659.2	2513.75
659.551	2523.46
659.902	2497.25
660.253	2534.54
660.604	2551.03
660.955	2511.71
661.306	2579.28
661.656	2572.05
662.007	2593.75
662.358	2566.63
662.708	2550.13
663.059	2590.58
663.409	2591.49
663.76	2606.85
664.11	2661.31
664.461	2664.25
664.811	2675.55
665.161	2665.83
665.511	2692.27
665.862	2690.69
666.212	2696.12
666.562	2697.92
666.912	2711.71
667.262	2749.9
667.612	2786.73
667.962	2749.22
668.312	2766.4
668.662	2783.57
669.011	2789.45
669.361	2800.07
669.711	2795.1
670.06	2809.78
670.41	2861.99
670.76	2854.53
671.109	2846.39
671.459	2879.61
671.808	2868.31
672.157	2841.87
672.507	2883.91
672.856	2887.07
673.205	2854.08
673.554	2916.22
673.904	2912.38
674.253	2970.01
674.602	2929.78
674.951	2909.67
675.3	2910.8
675.649	2967.52
675.998	2988.99
676.346	2999.16
676.695	2980.63
677.044	3005.71
677.393	3011.59
677.741	3042.1
678.09	3035.32
678.438	3042.32
678.787	3030.34
679.135	3057.46
679.484	3061.3
679.832	3045.71
680.181	3065.37
680.529	3065.37
680.877	3068.76
681.225	3092.49
681.573	3135.2
681.922	3120.51
682.27	3097.23
682.618	3122.09
682.966	3131.13
683.314	3133.62
683.661	3130.45
684.009	3142.21
684.357	3179.49
684.705	3143.34
685.053	3221.75
685.4	3195.31
685.748	3183.33
686.095	3165.93
686.443	3213.84
686.79	3195.76
687.138	3199.38
687.485	3217.01
687.832	3213.16
688.18	3222.43
688.527	3229.21
688.874	3224.69
689.221	3226.72
689.568	3193.73
689.915	3235.31
690.262	3187.18
690.609	3243.9
690.956	3218.59
691.303	3237.57
691.65	3215.88
691.997	3211.36
692.344	3196.89
692.69	3215.2
693.037	3234.63
693.383	3171.58
693.73	3212.26
694.077	3236.44
694.423	3228.98
694.769	3231.02
695.116	3197.57
695.462	3202.32
695.808	3222.43
696.155	3231.02
696.501	3252.49
696.847	3230.34
697.193	3229.89
697.539	3204.12
697.885	3185.14
698.231	3208.87
698.577	3238.7
698.923	3212.71
699.269	3217.01
699.614	3184.01
699.96	3207.51
700.306	3204.58
700.651	3206.38
700.997	3195.76
701.342	3139.04
701.688	3179.94
702.033	3186.72
702.379	3170.23
702.724	3202.54
703.069	3179.94
703.415	3152.83
703.76	3201.19
704.105	3142.43
704.45	3207.74
704.795	3163
705.14	3170.91
705.485	3121.64
705.83	3102.43
706.175	3125.93
706.52	3143.79
706.865	3147.86
707.209	3136.56
707.554	3139.95
707.899	3141.3
708.243	3087.97
708.588	3097.69
708.932	3090
709.277	3098.36
709.621	3138.82
709.966	3101.75
710.31	3098.14
710.654	3103.56
710.998	3092.49
711.342	3073.28
711.687	3094.52
712.031	3098.36
712.375	3097.01
712.719	3075.99
713.063	3098.82
713.407	3074.64
713.75	3051.81
714.094	3087.29
714.438	3095.2
714.782	3085.26
715.125	3046.39
715.469	3060.4
715.812	3069.89
716.156	3033.28
716.499	3051.81
716.843	3088.2
717.186	3085.94
717.53	3088.65
717.873	3095.2
718.216	3073.28
718.559	3046.84
718.902	3063.79
719.246	3052.49
719.589	3067.41
719.932	3060.85
720.275	3048.87
720.617	3069.21
720.96	3035.54
721.303	3067.18
721.646	3055.43
721.989	3054.52
722.331	3084.58
722.674	3031.47
723.016	3061.98
723.359	3094.07
723.701	3098.59
724.044	3045.71
724.386	3068.08
724.729	3105.14
725.071	3003
725.413	3063.56
725.755	3072.38
726.097	3067.18
726.439	3073.96
726.782	3047.97
727.124	3089.33
727.465	3053.62
727.807	3071.92
728.149	3122.09
728.491	3067.86
728.833	3078.93
729.175	3080.74
729.516	3073.28
729.858	3071.25
730.199	3127.52
730.541	3088.87
730.882	3069.21
731.224	3103.34
731.565	3049.33
731.906	3071.7
732.248	3085.71
732.589	3114.64
732.93	3096.78
733.271	3068.99
733.612	3103.11
733.953	3083.22
734.294	3159.15
734.635	3124.35
734.976	3135.2
735.317	3096.33
735.658	3126.84
735.999	3109.21
736.339	3122.32
736.68	3109.66
737.021	3144.24
737.361	3112.15
737.702	3147.18
738.042	3156.22
738.383	3135.88
738.723	3178.81
739.063	3172.04
739.404	3191.02
739.744	3172.71
740.084	3181.53
740.424	3190.57
740.764	3200.28
741.104	3224.92
741.444	3220.62
741.784	3219.49
742.124	3243.67
742.464	3244.12
742.804	3222.43
743.143	3239.83
743.483	3274.18
743.823	3318.92
744.162	3291.13
744.502	3235.31
744.841	3298.13
745.181	3358.02
745.52	3376.32
745.86	3338.36
746.199	3349.43
746.538	3358.47
746.877	3405.48
747.216	3419.71
747.556	3454.74
747.895	3454.74
748.234	3459.26
748.573	3522.08
748.911	3463.1
749.25	3520.95
749.589	3480.73
749.928	3546.04
750.267	3545.36
750.605	3588.3
750.944	3586.04
751.283	3628.07
751.621	3594.17
751.96	3622.87
752.298	3640.5
752.636	3665.36
752.975	3715.98
753.313	3710.55
753.651	3722.3
753.989	3736.54
754.327	3776.77
754.666	3731.12
755.004	3819.93
755.342	3850.66
755.679	3827.39
756.017	3827.61
756.355	3854.96
756.693	3885.69
757.031	3892.47
757.368	3931.79
757.706	3945.12
758.044	3941.05
758.381	3993.26
758.719	4004.33
759.056	4031.9
759.394	4087.27
759.731	4035.29
760.068	4069.19
760.405	4113.71
760.743	4096.98
761.08	4153.03
761.417	4116.19
761.754	4106.25
762.091	4141.05
762.428	4141.95
762.765	4186.7
763.102	4184.66
763.438	4181.05
763.775	4183.99
764.112	4195.96
764.449	4237.77
764.785	4225.34
765.122	4231.89
765.458	4228.73
765.795	4258.79
766.131	4255.17
766.467	4177.88
766.804	4196.87
767.14	4236.87
767.476	4296.53
767.812	4221.5
768.148	4253.59
768.485	4238.67
768.821	4248.17
769.157	4238.22
769.492	4218.34
769.828	4240.26
770.164	4216.75
770.5	4254.94
770.836	4236.41
771.171	4194.16
771.507	4242.52
771.842	4221.05
772.178	4206.13
772.513	4183.08
772.849	4233.93
773.184	4210.88
773.519	4198.9
773.855	4237.32
774.19	4229.41
774.525	4209.75
774.86	4214.72
775.195	4166.36
775.53	4190.09
775.865	4143.99
776.2	4127.26
776.535	4142.18
776.87	4088.4
777.205	4126.59
777.539	4122.97
777.874	4133.59
778.209	4110.32
778.543	4103.76
778.878	4090.43
779.212	4090.2
779.547	4055.18
779.881	4084.55
780.215	4030.77
780.55	4037.55
780.884	4067.15
781.218	4005.46
781.552	4062.63
781.886	4005.69
782.22	3962.3
782.554	3959.36
782.888	3950.32
783.222	3948.96
783.556	3953.94
783.889	3910.32
784.223	3856.09
784.557	3914.16
784.89	3891.56
785.224	3889.98
785.557	3865.12
785.891	3886.59
786.224	3850.44
786.558	3852.7
786.891	3819.7
787.224	3800.49
787.557	3838.68
787.891	3819.48
788.224	3852.7
788.557	3829.42
788.89	3803.88
789.223	3794.17
789.556	3735.64
789.888	3770.44
790.221	3678.24
790.554	3703.09
790.887	3673.49
791.219	3740.16
791.552	3710.33
791.884	3644.11
792.217	3686.37
792.549	3672.14
792.882	3601.85
793.214	3653.6
793.546	3652.47
793.879	3609.54
794.211	3616.09
794.543	3615.87
794.875	3569.54
795.207	3607.28
795.539	3600.5
795.871	3559.82
796.203	3562.08
796.535	3535.42
796.867	3531.35
797.198	3533.83
797.53	3539.48
797.862	3513.95
798.193	3497.9
798.525	3491.8
798.856	3506.26
799.188	3474.17
799.519	3462.42
799.85	3500.61
800.182	3454.51
800.513	3434.18
800.844	3417.45
801.175	3440.73
801.506	3438.92
801.837	3412.71
802.168	3411.58
802.499	3373.16
802.83	3402.31
803.161	3352.82
803.491	3388.75
803.822	3351.69
804.153	3347.17
804.483	3334.29
804.814	3306.95
805.145	3352.37
805.475	3313.95
805.805	3305.37
806.136	3334.06
806.466	3286.83
806.796	3299.26
807.126	3289.55
807.457	3220.85
807.787	3247.97
808.117	3269.43
808.447	3287.74
808.777	3240.73
809.107	3216.78
809.436	3241.19
809.766	3236.67
810.096	3193.05
810.426	3194.86
810.755	3158.48
811.085	3218.36
811.414	3226.27
811.744	3154.86
812.073	3181.75
812.403	3159.38
812.732	3202.54
813.061	3153.5
813.39	3153.96
813.719	3114.86
814.049	3140.4
814.378	3148.53
814.707	3133.39
815.036	3117.35
815.365	3123.67
815.693	3096.78
816.022	3093.17
816.351	3081.19
816.68	3037.58
817.008	3067.41
817.337	3071.25
817.665	3049.1
817.994	3024.92
818.322	3040.74
818.651	3048.65
818.979	3014.53
819.307	3055.65
819.636	3031.7
819.964	3000.74
820.292	3024.24
820.62	3017.24
820.948	2995.99
821.276	3032.6
821.604	3015.43
821.932	2987.41
822.259	3051.13
822.587	3005.94
822.915	3025.37
823.243	3028.76
823.57	2977.01
823.898	3044.35
824.225	3000.51
824.553	3013.62
824.88	2998.48
825.207	3008.2
825.535	3004.36
825.862	2996.45
826.189	3015.43
826.516	2980.63
826.843	3032.38
827.17	3006.62
827.497	3014.75
827.824	2963
828.151	3018.37
828.478	2981.31
828.805	3037.12
829.131	3012.27
829.458	2971.59
829.785	3007.75
830.111	3000.06
830.438	3013.85
830.764	3005.03
831.09	2989.22
831.417	2984.02
831.743	3023.56
832.069	2963.23
832.395	3011.81
832.722	2960.97
833.048	2979.05
833.374	2966.16
833.7	2980.4
834.026	2940.63
834.351	2976.33
834.677	2992.6
835.003	2970.01
835.329	2984.7
835.654	2936.79
835.98	2957.58
836.306	2959.61
836.631	2970.01
836.956	2940.4
837.282	2963.45
837.607	2894.98
837.932	2931.82
838.258	2955.32
838.583	2897.47
838.908	2954.41
839.233	2872.38
839.558	2902.66
839.883	2910.35
840.208	2903.34
840.533	2922.32
840.858	2918.71
841.182	2877.13
841.507	2855.66
841.832	2899.27
842.156	2868.99
842.481	2932.04
842.805	2855.21
843.13	2874.19
843.454	2826.73
843.778	2869.67
844.103	2891.14
844.427	2854.3
844.751	2817.92
845.075	2791.71
845.399	2832.38
845.723	2799.62
846.047	2817.02
846.371	2821.31
846.695	2774.76
847.019	2765.27
847.343	2763.01
847.666	2754.42
847.99	2750.8
848.313	2731.14
848.637	2721.88
848.96	2719.39
849.284	2749.67
849.607	2702.67
849.931	2691.14
850.254	2674.87
850.577	2645.27
850.9	2629
851.223	2634.2
851.546	2634.42
851.869	2648.21
852.192	2643.91
852.515	2608.43
852.838	2645.04
853.161	2618.6
853.483	2600.75
853.806	2601.88
854.129	2593.97
854.451	2547.19
854.774	2568.44
855.096	2533.63
855.419	2567.76
855.741	2557.14
856.063	2514.43
856.385	2508.32
856.708	2541.54
857.03	2514.88
857.352	2511.26
857.674	2509.68
857.996	2513.97
858.318	2499.74
858.64	2503.8
858.961	2471.94
859.283	2469.68
859.605	2483.69
859.926	2451.83
860.248	2464.03
860.57	2459.96
860.891	2477.82
861.212	2469.23
861.534	2450.25
861.855	2411.6
862.176	2420.42
862.498	2443.47
862.819	2435.56
863.14	2395.56
863.461	2420.87
863.782	2413.19
864.103	2416.57
864.424	2393.3
864.745	2408.67
865.065	2414.77
865.386	2397.37
865.707	2379.06
866.027	2374.99
866.348	2388.33
866.668	2391.04
866.989	2360.31
867.309	2391.04
867.63	2358.05
867.95	2359.85
868.27	2341.77
868.59	2341.32
868.91	2322.79
869.23	2351.04
869.55	2340.64
869.87	2338.38
870.19	2356.46
870.51	2365.95
870.83	2326.86
871.15	2330.48
871.469	2300.42
871.789	2317.59
872.109	2323.47
872.428	2322.57
872.748	2307.88
873.067	2290.93
873.386	2336.13
873.706	2316.92
874.025	2307.88
874.344	2285.96
874.663	2336.13
874.982	2318.5
875.301	2314.88
875.62	2268.78
875.939	2279.63
876.258	2293.87
876.577	2259.52
876.896	2277.14
877.214	2265.17
877.533	2290.48
877.852	2279.4
878.17	2301.55
878.489	2247.09
878.807	2260.42
879.125	2265.84
879.444	2259.74
879.762	2283.92
880.08	2230.37
880.398	2239.4
880.716	2254.32
881.034	2248.67
881.352	2227.65
881.67	2200.76
881.988	2231.04
882.306	2230.82
882.624	2214.55
882.941	2238.95
883.259	2199.41
883.577	2219.74
883.894	2170.93
884.212	2180.87
884.529	2214.32
884.846	2183.81
885.164	2184.94
885.481	2172.06
885.798	2203.25
886.115	2153.98
886.432	2162.57
886.75	2199.18
887.067	2175
887.383	2170.25
887.7	2142.91
888.017	2119.86
888.334	2161.21
888.651	2141.55
888.967	2150.82
889.284	2118.73
889.6	2123.93
889.917	2113.98
890.233	2103.14
890.55	2111.27
890.866	2124.83
891.182	2089.35
891.498	2131.38
891.815	2121.22
892.131	2093.42
892.447	2080.09
892.763	2065.85
893.079	2054.32
893.395	2055.91
893.71	2040.54
894.026	2048
894.342	2062.69
894.657	2020.43
894.973	2040.54
895.289	2045.51
895.604	2057.71
895.92	2033.08
896.235	1996.7
896.55	1999.41
896.865	2031.27
897.181	1980.65
897.496	1991.73
897.811	1980.43
898.126	2004.61
898.441	1961.22
898.756	1983.59
899.071	1956.47
899.386	1959.86
899.7	1945.4
900.015	1945.85
900.33	1921.9
900.644	1941.11
900.959	1935.68
901.273	1936.14
901.588	1931.84
901.902	1922.8
902.216	1920.32
902.531	1897.49
902.845	1907.44
903.159	1885.52
903.473	1882.35
903.787	1875.57
904.101	1864.05
904.415	1859.75
904.729	1876.25
905.042	1846.65
905.356	1833.77
905.67	1854.78
905.984	1870.83
906.297	1862.47
906.611	1831.51
906.924	1841.45
907.237	1842.58
907.551	1809.81
907.864	1777.72
908.177	1809.36
908.491	1767.78
908.804	1760.55
909.117	1762.13
909.43	1781.11
909.743	1771.17
910.056	1799.19
910.368	1779.53
910.681	1773.2
910.994	1762.81
911.307	1749.02
911.619	1742.92
911.932	1734.33
912.244	1751.06
912.557	1714.45
912.869	1729.36
913.181	1708.12
913.494	1735.69
913.806	1709.25
914.118	1683.94
914.43	1671.74
914.742	1678.06
915.054	1685.97
915.366	1678.97
915.678	1669.48
915.99	1649.82
916.302	1646.2
916.613	1643.04
916.925	1641.91
917.236	1631.74
917.548	1641.23
917.859	1619.53
918.171	1611.85
918.482	1625.18
918.794	1611.62
919.105	1603.71
919.416	1582.7
919.727	1601.68
920.038	1590.38
920.349	1581.79
920.66	1579.31
920.971	1591.96
921.282	1554
921.593	1574.11
921.903	1565.3
922.214	1556.03
922.525	1537.95
922.835	1528.01
923.146	1506.54
923.456	1536.82
923.767	1522.36
924.077	1528.91
924.387	1499.54
924.697	1518.29
925.008	1492.31
925.318	1525.98
925.628	1517.39
925.938	1512.64
926.248	1491.85
926.558	1492.76
926.867	1481.23
927.177	1474.23
927.487	1464.96
927.796	1461.8
928.106	1464.06
928.416	1493.89
928.725	1430.39
929.034	1441.91
929.344	1434.45
929.653	1446.43
929.962	1427
930.271	1391.74
930.581	1411.63
930.89	1392.65
931.199	1417.05
931.508	1362.14
931.817	1394.23
932.125	1410.73
932.434	1383.38
932.743	1388.35
933.051	1362.82
933.36	1374.12
933.669	1373.66
933.977	1364.85
934.286	1352.42
934.594	1345.87
934.902	1344.29
935.21	1351.29
935.519	1370.95
935.827	1337.28
936.135	1322.14
936.443	1323.95
936.751	1339.09
937.059	1312.2
937.367	1319.2
937.674	1317.39
937.982	1299.32
938.29	1314
938.597	1299.54
938.905	1323.27
939.213	1274.01
939.52	1287.11
939.827	1283.05
940.135	1257.06
940.442	1306.77
940.749	1281.92
941.056	1264.51
941.363	1232.2
941.67	1287.79
941.977	1282.37
942.284	1240.33
942.591	1210.96
942.898	1234.91
943.205	1227.45
943.511	1247.34
943.818	1230.62
944.125	1242.14
944.431	1218.41
944.738	1220.9
945.044	1211.86
945.35	1229.04
945.657	1198.98
945.963	1200.56
946.269	1194.69
946.575	1205.76
946.881	1207.34
947.187	1196.49
947.493	1177.96
947.799	1184.29
948.105	1200.34
948.41	1185.42
948.716	1198.75
949.022	1157.85
949.327	1156.5
949.633	1142.03
949.938	1160.79
950.244	1137.29
950.549	1143.61
950.854	1139.09
951.16	1141.13
951.465	1130.06
951.77	1119.89
952.075	1120.11
952.38	1128.7
952.685	1135.7
952.99	1122.6
953.294	1096.38
953.599	1096.84
953.904	1132.54
954.209	1095.71
954.513	1121.24
954.818	1094.8
955.122	1089.83
955.426	1070.17
955.731	1084.63
956.035	1082.37
956.339	1089.38
956.643	1087.12
956.948	1087.57
957.252	1064.97
957.556	1067.46
957.86	1052.77
958.163	1067.91
958.467	1056.84
958.771	1031.98
959.075	1053.9
959.378	1039.44
959.682	1069.94
959.985	1036.05
960.289	1046.67
960.592	1043.05
960.896	1031.53
961.199	1041.7
961.502	1051.41
961.805	1024.97
962.108	1029.49
962.411	1021.58
962.714	999.89
963.017	1017.06
963.32	1013.9
963.623	977.74
963.926	1011.41
964.228	975.03
964.531	973.45
964.833	974.58
965.136	1022.04
965.438	960.34
965.741	977.52
966.043	966.44
966.345	980.68
966.648	963.28
966.95	969.38
967.252	989.04
967.554	956.27
967.856	971.19
968.158	975.03
968.46	944.75
968.761	952.21
969.063	939.1
969.365	928.03
969.666	900.46
969.968	944.07
970.269	936.39
970.571	948.36
970.872	932.77
971.174	919.44
971.475	914.47
971.776	949.49
972.077	917.41
972.378	901.36
972.679	889.38
972.98	898.42
973.281	899.55
973.582	914.02
973.883	907.69
974.183	890.06
974.484	902.04
974.785	889.84
975.085	878.31
975.386	865.43
975.686	887.35
975.986	861.36
976.287	876.5
976.587	858.65
976.887	885.09
977.187	893.9
977.487	874.47
977.787	865.2
978.087	860.91
978.387	857.75
978.687	851.64
978.987	878.99
979.286	848.71
979.586	860.91
979.885	846.45
980.185	851.64
980.484	834.02
980.784	857.75
981.083	845.77
981.382	820.46
981.682	847.35
981.981	858.65
982.28	833.57
982.579	818.2
982.878	820.01
983.177	816.84
983.475	806.45
983.774	797.41
984.073	814.81
984.372	815.26
984.67	840.12
984.969	808.03
985.267	788.14
985.566	799.89
985.864	811.65
986.162	784.3
986.461	798.99
986.759	781.14
987.057	782.95
987.355	779.1
987.653	786.34
987.951	776.84
988.249	773.23
988.547	768.03
988.844	779.1
989.142	758.54
989.44	754.47
989.737	765.09
990.035	779.1
990.332	763.74
990.63	749.05
990.927	767.58
991.224	755.83
991.521	782.27
991.819	734.36
992.116	760.57
992.413	735.26
992.71	747.69
993.006	721.25
993.303	757.18
993.6	735.72
993.897	734.81
994.193	735.49
994.49	718.31
994.787	708.15
995.083	725.09
995.379	726.22
995.676	724.19
995.972	748.82
996.268	737.52
996.565	708.82
996.861	725.09
997.157	720.57
997.453	734.59
997.749	686.68
998.044	718.31
998.34	688.03
998.636	697.07
998.932	694.59
999.227	688.94
999.523	700.01
999.818	678.09
1000.114	709.73
1000.409	707.69
1000.704	673.8
1001	669.05
1001.295	684.64
1001.59	710.86
1001.885	683.97
1002.18	680.8
1002.475	655.04
1002.77	671.54
1003.065	667.47
1003.359	657.75
1003.654	647.36
1003.949	657.07
1004.243	652.55
1004.538	671.54
1004.832	668.37
1005.127	648.03
1005.421	641.48
1005.715	638.54
1006.009	629.73
1006.304	636.96
1006.598	643.06
1006.892	625.89
1007.186	633.34
1007.48	634.02
1007.773	611.42
1008.067	624.98
1008.361	644.87
1008.655	637.86
1008.948	621.14
1009.242	631.99
1009.535	614.36
1009.829	607.36
1010.122	620.69
1010.415	613.23
1010.708	617.53
1011.001	592.22
1011.295	606
1011.588	611.88
1011.881	618.43
1012.173	585.66
1012.466	599.45
1012.759	597.41
1013.052	581.59
1013.344	580.92
1013.637	582.5
1013.93	606.9
1014.222	588.83
1014.514	584.98
1014.807	576.17
1015.099	582.27
1015.391	562.39
1015.683	569.17
1015.976	568.04
1016.268	571.43
1016.56	579.34
1016.851	576.4
1017.143	551.09
1017.435	566.23
1017.727	576.62
1018.018	565.55
1018.31	568.04
1018.602	546.79
1018.893	539.34
1019.185	568.71
1019.476	556.74
1019.767	564.87
1020.058	557.19
1020.35	547.7
1020.641	553.35
1020.932	519
1021.223	562.61
1021.514	544.31
1021.804	554.48
1022.095	545.66
1022.386	535.27
1022.677	536.4
1022.967	536.62
1023.258	537.08
1023.548	502.05
1023.839	529.17
1024.129	523.52
1024.419	535.49
1024.709	519.68
1025	505.21
1025.29	524.65
1025.58	517.19
1025.87	499.79
1026.16	514.48
1026.449	499.56
1026.739	514.7
1027.029	523.07
1027.319	508.6
1027.608	502.05
1027.898	499.79
1028.187	477.87
1028.477	495.04
1028.766	504.76
1029.055	508.83
1029.344	513.35
1029.634	474.93
1029.923	466.8
1030.212	491.43
1030.501	482.16
1030.79	470.41
1031.078	472.22
1031.367	475.16
1031.656	491.2
1031.945	486.46
1032.233	469.06
1032.522	466.12
1032.81	456.4
1033.099	486.23
1033.387	493.01
1033.675	467.7
1033.963	450.98
1034.251	486
1034.54	470.41
1034.828	475.61
1035.116	460.92
1035.403	453.91
1035.691	470.64
1035.979	476.29
1036.267	443.75
1036.554	469.73
1036.842	446.01
1037.129	432.45
1037.417	467.93
1037.704	462.95
1037.992	442.84
1038.279	448.04
1038.566	456.17
1038.853	456.17
1039.14	456.17
