Data from blue_clamp_base_FLMS001491_00069.txt Node
Date: Wed Feb 08 15:16:22 GMT 2017
User: dcchb
Spectrometer: FLMS00149
Trigger mode: 0
Integration Time (sec): 2.000000E-2
Scans to average: 10
Electric dark correction enabled: true
Nonlinearity correction enabled: false
Boxcar width: 0
XAxis mode: Wavelengths
Number of Pixels in Spectrum: 2048
>>>>>Begin Spectral Data<<<<<
341.393	1.99
341.776	1.99
342.16	1.99
342.543	-49.76
342.927	-34.39
343.31	-77.55
343.693	-93.6
344.077	-82.75
344.46	-50.89
344.843	-55.18
345.226	-35.07
345.61	-30.78
345.993	-36.65
346.376	-13.15
346.759	18.26
347.142	39.96
347.525	52.39
347.908	61.42
348.291	88.09
348.674	93.74
349.057	121.76
349.44	112.05
349.823	159.05
350.206	172.61
350.588	194.98
350.971	207.41
351.354	228.43
351.737	244.47
352.119	256
352.502	260.97
352.884	274.07
353.267	269.1
353.65	292.38
354.032	315.43
354.414	309.78
354.797	298.25
355.179	313.17
355.562	311.36
355.944	313.85
356.326	338.48
356.709	326.28
357.091	341.19
357.473	337.12
357.855	331.47
358.238	341.64
358.62	331.7
359.002	326.73
359.384	338.71
359.766	336.22
360.148	338.48
360.53	324.47
360.912	321.98
361.294	351.59
361.676	329.21
362.057	331.25
362.439	326.73
362.821	346.39
363.203	314.75
363.584	316.11
363.966	330.8
364.348	306.84
364.729	327.86
365.111	307.52
365.493	320.85
365.874	311.59
366.256	320.85
366.637	299.84
367.019	315.2
367.4	311.36
367.781	293.74
368.163	322.89
368.544	304.36
368.925	317.24
369.306	319.95
369.688	298.93
370.069	309.55
370.45	319.5
370.831	321.98
371.212	309.78
371.593	307.29
371.974	318.14
372.355	311.36
372.736	305.03
373.117	300.74
373.498	317.69
373.879	327.41
374.26	314.3
374.641	329.89
375.021	309.1
375.402	326.05
375.783	310.23
376.163	344.36
376.544	318.37
376.925	324.92
377.305	345.49
377.686	324.92
378.066	317.01
378.447	335.99
378.827	341.42
379.208	316.11
379.588	305.94
379.968	328.76
380.349	323.56
380.729	332.15
381.109	308.42
381.489	327.18
381.87	346.39
382.25	330.34
382.63	324.24
383.01	329.21
383.39	325.37
383.77	323.34
384.15	341.64
384.53	331.47
384.91	354.07
385.29	361.98
385.67	347.07
386.049	364.24
386.429	349.33
386.809	357.69
387.189	344.36
387.568	352.26
387.948	360.63
388.328	351.36
388.707	372.38
389.087	357.69
389.466	365.37
389.846	359.04
390.225	360.63
390.605	356.56
390.984	382.77
391.363	376.22
391.743	401.08
392.122	371.25
392.501	386.84
392.881	423.9
393.26	387.52
393.639	391.13
394.018	391.81
394.397	394.07
394.776	416.9
395.155	399.04
395.534	414.18
395.913	420.29
396.292	429.32
396.671	419.83
397.05	418.03
397.429	420.74
397.808	401.08
398.186	434.3
398.565	432.04
398.944	447.86
399.323	433.84
399.701	442.43
400.08	441.08
400.458	445.14
400.837	440.17
401.215	449.21
401.594	468.87
401.972	460.51
402.351	481.98
402.729	470.91
403.107	449.89
403.486	491.02
403.864	486.72
404.242	471.36
404.62	472.49
404.999	486.27
405.377	493.28
405.755	500.51
406.133	507.06
406.511	498.25
406.889	513.16
407.267	518.36
407.645	543.9
408.023	532.15
408.401	547.06
408.779	561.52
409.156	561.98
409.534	581.41
409.912	553.62
410.29	571.92
410.667	556.33
411.045	586.61
411.422	564.46
411.8	573.28
412.178	601.3
412.555	600.62
412.933	608.08
413.31	620.28
413.687	618.7
414.065	619.83
414.442	650.11
414.819	641.52
415.197	639.71
415.574	627.96
415.951	656.44
416.328	645.59
416.705	662.99
417.082	675.42
417.46	659.6
417.837	668.64
418.214	669.32
418.591	683.56
418.967	718.58
419.344	708.87
419.721	699.6
420.098	697.34
420.475	725.36
420.852	723.78
421.228	717
421.605	740.05
421.982	739.15
422.358	752.71
422.735	760.84
423.111	770.56
423.488	749.09
423.864	762.65
424.241	775.3
424.617	776.66
424.994	812.59
425.37	797.9
425.746	795.64
426.123	795.42
426.499	807.17
426.875	829.09
427.251	853.72
427.627	863.66
428.003	860.05
428.379	874.28
428.756	870.44
429.132	888.52
429.507	912.93
429.883	906.15
430.259	918.58
430.635	958.35
431.011	951.57
431.387	966.26
431.763	968.75
432.138	1008.52
432.514	976.2
432.89	992.7
433.265	1007.84
433.641	1030.21
434.016	1025.69
434.392	1089.42
434.767	1061.62
435.143	1092.58
435.518	1067.73
435.894	1076.31
436.269	1102.3
436.644	1122.19
437.02	1115.63
437.395	1132.36
437.77	1175.97
438.145	1189.3
438.52	1179.14
438.895	1206.71
439.271	1182.3
439.646	1220.26
440.021	1225.46
440.395	1232.24
440.77	1261.62
441.145	1246.25
441.52	1258.68
441.895	1302.07
442.27	1286.48
442.645	1292.58
443.019	1335.52
443.394	1294.61
443.769	1344.78
444.143	1354.5
444.518	1359.02
444.892	1343.65
445.267	1374.16
445.641	1385.68
446.016	1386.36
446.39	1395.85
446.764	1407.83
447.139	1422.07
447.513	1415.51
447.887	1419.36
448.262	1441.28
448.636	1476.08
449.01	1516.75
449.384	1466.36
449.758	1522.18
450.132	1535.28
450.506	1512.91
450.88	1545.45
451.254	1548.62
451.628	1534.15
452.002	1556.53
452.376	1577.54
452.75	1557.88
453.123	1601.72
453.497	1632.91
453.871	1646.24
454.244	1666.81
454.618	1639.46
454.992	1677.88
455.365	1708.16
455.739	1753.13
456.112	1742.28
456.486	1775.73
456.859	1766.01
457.232	1800.59
457.606	1791.55
457.979	1837.88
458.352	1860.47
458.725	1885.33
459.099	1887.82
459.472	1926.23
459.845	1952.67
460.218	1951.54
460.591	1982.5
460.964	1950.64
461.337	1988.83
461.71	2046.46
462.083	2085.78
462.456	2078.32
462.829	2091.65
463.201	2091.88
463.574	2129.62
463.947	2171.65
464.32	2177.53
464.692	2196.06
465.065	2228.6
465.438	2241.03
465.81	2264.08
466.183	2288.03
466.555	2336.17
466.928	2332.1
467.3	2337.52
467.672	2379.56
468.045	2403.74
468.417	2429.05
468.789	2442.38
469.161	2472.66
469.534	2481.25
469.906	2560.79
470.278	2600.79
470.65	2565.99
471.022	2631.53
471.394	2652.54
471.766	2678.76
472.138	2657.29
472.51	2751.07
472.882	2777.51
473.253	2838.53
473.625	2829.71
473.997	2875.36
474.369	2876.27
474.74	2930.5
475.112	3011.4
475.484	2983.83
475.855	3071.29
476.227	3074.23
476.598	3198.52
476.97	3157.61
477.341	3235.13
477.713	3275.35
478.084	3265.18
478.455	3334.56
478.827	3353.54
479.198	3440.77
479.569	3439.42
479.94	3497.72
480.311	3553.99
480.682	3621.78
481.053	3647.32
481.424	3685.51
481.795	3719.41
482.166	3786.52
482.537	3815.45
482.908	3869.91
483.279	3879.86
483.65	3987.88
484.021	4054.99
484.391	4038.5
484.762	4069.68
485.133	4103.13
485.503	4141.54
485.874	4203.01
486.244	4235.1
486.615	4265.38
486.985	4328.21
487.356	4366.85
487.726	4375.21
488.097	4471.48
488.467	4442.78
488.837	4545.37
489.207	4538.82
489.578	4592.15
489.948	4631.02
490.318	4734.97
490.688	4693.17
491.058	4712.83
491.428	4739.72
491.798	4854.52
492.168	4874.86
492.538	4880.96
492.908	4934.29
493.278	4980.17
493.648	4947.4
494.017	5001.63
494.387	5035.53
494.757	5079.82
495.126	5111.46
495.496	5055.64
495.866	5082.08
496.235	5132.25
496.605	5198.69
496.974	5163.66
497.344	5200.95
497.713	5241.85
498.082	5206.15
498.452	5277.33
498.821	5283.89
499.19	5263.32
499.559	5310.1
499.928	5342.42
500.298	5350.78
500.667	5382.41
501.036	5363.43
501.405	5426.03
501.774	5412.47
502.143	5359.14
502.512	5427.16
502.88	5464.45
503.249	5446.37
503.618	5502.19
503.987	5504.22
504.356	5566.14
504.724	5530.21
505.093	5542.86
505.462	5540.38
505.83	5555.97
506.199	5621.28
506.567	5655.63
506.936	5670.99
507.304	5712.8
507.672	5720.94
508.041	5743.99
508.409	5715.97
508.777	5772.24
509.145	5814.49
509.514	5775.62
509.882	5803.65
510.25	5814.04
510.618	5837.09
510.986	5863.98
511.354	5909.63
511.722	5893.36
512.09	5981.95
512.458	5949.86
512.826	5970.65
513.193	5950.54
513.561	5966.58
513.929	6062.85
514.297	6046.8
514.664	6103.98
515.032	6085.22
515.4	6039.57
515.767	6074.83
516.135	6086.58
516.502	6042.51
516.869	6174.71
517.237	6165.9
517.604	6149.63
517.972	6203.18
518.339	6207.93
518.706	6176.29
519.073	6229.4
519.44	6241.6
519.808	6325.67
520.175	6268.49
520.542	6382.39
520.909	6342.16
521.276	6314.37
521.643	6390.98
522.009	6396.4
522.376	6437.98
522.743	6474.14
523.11	6459.45
523.477	6574.47
523.843	6501.03
524.21	6610.18
524.577	6571.99
524.943	6581.71
525.31	6625.77
525.676	6701.48
526.043	6709.16
526.409	6717.3
526.776	6750.29
527.142	6859.21
527.508	6790.29
527.874	6883.39
528.241	6868.03
528.607	6872.55
528.973	6912.77
529.339	6927.23
529.705	6999.77
530.071	7001.58
530.437	7034.8
530.803	7124.52
531.169	7094.91
531.535	7044.97
531.901	7076.38
532.267	7112.99
532.632	7181.24
532.998	7173.1
533.364	7218.75
533.73	7220.11
534.095	7284.96
534.461	7276.15
534.826	7312.53
535.192	7327
535.557	7336.26
535.923	7293.78
536.288	7346.21
536.653	7414.23
537.019	7407.9
537.384	7368.58
537.749	7416.26
538.114	7433.89
538.479	7403.83
538.845	7463.94
539.21	7432.98
539.575	7491.74
539.94	7475.02
540.305	7518.18
540.67	7536.93
541.034	7557.5
541.399	7564.73
541.764	7587.78
542.129	7632.3
542.494	7615.8
542.858	7567.67
543.223	7632.07
543.587	7731.51
543.952	7676.14
544.316	7767.89
544.681	7700.09
545.045	7747.55
545.41	7805.4
545.774	7761.56
546.138	7777.38
546.503	7770.83
546.867	7879.98
547.231	7888.79
547.595	7825.74
547.959	7884.04
548.324	7895.34
548.688	7796.14
549.052	7924.27
549.416	7932.18
549.779	7856.47
550.143	7956.81
550.507	7989.13
550.871	7986.19
551.235	7922.91
551.599	8013.98
551.962	7974.66
552.326	8037.71
552.689	8122.68
553.053	8014.44
553.417	8052.4
553.78	8124.72
554.143	8095.79
554.507	8159.74
554.87	8126.07
555.234	8243.36
555.597	8117.71
555.96	8215.11
556.323	8192.28
556.686	8147.09
557.05	8274.77
557.413	8253.3
557.776	8298.04
558.139	8308.21
558.502	8381.43
558.865	8352.96
559.228	8343.92
559.59	8402.22
559.953	8408.32
560.316	8408.55
560.679	8441.32
561.041	8453.75
561.404	8476.12
561.767	8563.35
562.129	8498.04
562.492	8604.48
562.854	8572.16
563.217	8536.23
563.579	8610.58
563.941	8677.92
564.304	8654.42
564.666	8691.48
565.028	8676.11
565.39	8686.51
565.753	8747.52
566.115	8705.94
566.477	8779.39
566.839	8828.2
567.201	8877.69
567.563	8892.15
567.925	8907.29
568.287	8885.83
568.648	8874.75
569.01	9039.72
569.372	9033.84
569.734	9021.87
570.095	9063
570.457	9111.81
570.819	9061.41
571.18	9137.8
571.542	9210.11
571.903	9114.07
572.265	9206.95
572.626	9255.99
572.987	9246.04
573.349	9227.96
573.71	9287.17
574.071	9297.11
574.432	9329.88
574.794	9437
575.155	9419.14
575.516	9355.64
575.877	9482.42
576.238	9495.53
576.599	9484.45
576.96	9429.09
577.32	9508.86
577.681	9478.13
578.042	9568.07
578.403	9554.51
578.763	9569.88
579.124	9627.28
579.485	9623.21
579.845	9645.35
580.206	9615.3
580.566	9584.79
580.927	9686.26
581.287	9744.33
581.648	9654.62
582.008	9731.45
582.368	9663.88
582.728	9734.39
583.089	9782.07
583.449	9755.86
583.809	9770.55
584.169	9772.13
584.529	9756.31
584.889	9833.6
585.249	9809.87
585.609	9820.49
585.969	9835.63
586.329	9806.03
586.688	9845.8
587.048	9843.54
587.408	9843.09
587.768	9784.33
588.127	9779.59
588.487	9796.99
588.846	9845.12
589.206	9786.82
589.565	9775.52
589.925	9868.85
590.284	9807.84
590.643	9880.38
591.003	9946.14
591.362	9933.26
591.721	9939.36
592.08	9938.91
592.44	9882.41
592.799	9968.51
593.158	9923.76
593.517	9926.7
593.876	9914.73
594.235	9920.15
594.593	9975.51
594.952	9901.17
595.311	9930.32
595.67	9966.02
596.029	9964.89
596.387	10029.75
596.746	10017.32
597.104	10019.36
597.463	10037.21
597.822	10067.49
598.18	9996.98
598.538	9998.56
598.897	10082.63
599.255	9953.59
599.613	10158.33
599.972	10079.92
600.33	10043.54
600.688	9994.27
601.046	10029.07
601.404	10066.36
601.762	10033.37
602.12	10105.23
602.478	10030.65
602.836	10124.66
603.194	10056.64
603.552	10053.7
603.91	10144.55
604.268	10137.77
604.625	10092.35
604.983	10166.92
605.341	10065.23
605.698	10153.14
606.056	10217.99
606.413	10175.51
606.771	10165.57
607.128	10254.83
607.485	10140.26
607.843	10126.02
608.2	10208.73
608.557	10227.26
608.914	10239.24
609.272	10269.07
609.629	10263.64
609.986	10280.37
610.343	10294.6
610.7	10355.17
611.057	10325.11
611.414	10285.11
611.771	10297.77
612.127	10355.39
612.484	10310.2
612.841	10304.77
613.198	10295.73
613.554	10293.92
613.911	10355.17
614.267	10389.97
614.624	10329.18
614.98	10306.58
615.337	10404.43
615.693	10308.39
616.05	10412.11
616.406	10472.9
616.762	10429.06
617.118	10361.72
617.475	10442.17
617.831	10470.87
618.187	10467.03
618.543	10473.81
618.899	10554.03
619.255	10526.01
619.611	10501.6
619.967	10535.95
620.323	10561.49
620.678	10556.06
621.034	10503.86
621.39	10552.22
621.746	10573.69
622.101	10660.47
622.457	10595.16
622.812	10565.56
623.168	10624.99
623.523	10710.41
623.879	10670.86
624.234	10536.18
624.589	10592.45
624.945	10652.78
625.3	10621.37
625.655	10664.99
626.01	10670.19
626.365	10690.07
626.72	10709.05
627.075	10662.73
627.43	10662.73
627.785	10597.87
628.14	10739.11
628.495	10751.77
628.85	10718.09
629.205	10694.82
629.559	10754.7
629.914	10692.56
630.269	10700.02
630.623	10723.97
630.978	10675.84
631.332	10701.82
631.687	10831.09
632.041	10654.59
632.396	10726.68
632.75	10685.55
633.104	10711.99
633.459	10761.26
633.813	10754.03
634.167	10780.01
634.521	10750.86
634.875	10816.85
635.229	10806.91
635.583	10698.66
635.937	10816.62
636.291	10744.76
636.645	10769.17
636.999	10910.18
637.352	10900.46
637.706	10777.98
638.06	10823.18
638.413	10848.26
638.767	10870.86
639.121	10911.54
639.474	10830.63
639.828	10831.99
640.181	10906.11
640.534	10903.4
640.888	10859.11
641.241	10843.51
641.594	10923.96
641.947	10876.96
642.301	10866.34
642.654	10874.93
643.007	10917.64
643.36	10906.79
643.713	10893.23
644.066	10970.06
644.419	10870.86
644.771	10915.15
645.124	10825.89
645.477	10774.82
645.83	10824.98
646.182	10784.31
646.535	10699.79
646.888	10705.21
647.24	10638.1
647.593	10709.96
647.945	10757.41
648.298	10629.96
648.65	10674.71
649.002	10647.81
649.355	10741.37
649.707	10777.53
650.059	10817.75
650.411	11060.01
650.763	11027.69
651.115	11056.84
651.467	11087.58
651.819	11075.15
652.171	11040.57
652.523	11122.38
652.875	11082.38
653.227	11017.97
653.578	11072.66
653.93	11074.69
654.282	11032.21
654.633	11069.72
654.985	11124.64
655.337	11123.73
655.688	11145.43
656.039	11136.16
656.391	11135.71
656.742	11223.62
657.094	11234.01
657.445	11169.83
657.796	11156.5
658.147	11219.78
658.498	11183.84
658.849	11176.39
659.2	11218.42
659.551	11255.93
659.902	11275.37
660.253	11262.26
660.604	11233.33
660.955	11189.95
661.306	11280.34
661.656	11250.06
662.007	11257.97
662.358	11224.97
662.708	11237.18
663.059	11291.86
663.409	11222.71
663.76	11263.84
664.11	11301.36
664.461	11245.54
664.811	11309.49
665.161	11256.16
665.511	11296.84
665.862	11174.81
666.212	11344.07
666.562	11311.07
666.912	11283.95
667.262	11158.53
667.612	11164.64
667.962	11275.37
668.312	11218.42
668.662	11288.02
669.011	11196.73
669.361	11196.27
669.711	11168.93
670.06	11162.15
670.41	11045.54
670.76	11180.91
671.109	11208.02
671.459	11071.53
671.808	11033.57
672.157	11102.94
672.507	10982.04
672.856	10989.73
673.205	11040.57
673.554	11043.96
673.904	10997.63
674.253	11069.05
674.602	10951.53
674.951	10872.44
675.3	10815.72
675.649	10915.6
675.998	10910.41
676.346	10863.63
676.695	10943.62
677.044	10808.49
677.393	10826.34
677.741	10901.37
678.09	10854.81
678.438	10751.77
678.787	10758.54
679.135	10735.49
679.484	10643.07
679.832	10713.8
680.181	10669.28
680.529	10622.73
680.877	10632.22
681.225	10606.01
681.573	10671.77
681.922	10636.74
682.27	10580.02
682.618	10564.88
682.966	10510.87
683.314	10525.78
683.661	10488.04
684.009	10385
684.357	10414.83
684.705	10360.82
685.053	10426.35
685.4	10300.7
685.748	10310.2
686.095	10317.65
686.443	10251.67
686.79	10317.65
687.138	10279.01
687.485	10219.58
687.832	10262.74
688.18	10252.12
688.527	10213.93
688.874	10198.33
689.221	10124.44
689.568	10187.03
689.915	10103.65
690.262	10193.14
690.609	10093.7
690.956	10036.98
691.303	10107.49
691.65	10019.58
691.997	10102.29
692.344	9948.17
692.69	9969.41
693.037	9924.67
693.383	9898.68
693.73	9976.19
694.077	9849.64
694.423	9843.31
694.769	9825.24
695.116	9905.46
695.462	9874.05
695.808	9922.86
696.155	9899.81
696.501	9794.5
696.847	9800.83
697.193	9767.38
697.539	9873.6
697.885	9699.36
698.231	9666.6
698.577	9754.73
698.923	9698.69
699.269	9651
699.614	9648.52
699.96	9646.26
700.306	9688.06
700.651	9622.98
700.997	9634.51
701.342	9615.75
701.688	9593.6
702.033	9576.65
702.379	9550.67
702.724	9515.64
703.069	9622.98
703.415	9466.6
703.76	9525.13
704.105	9510.89
704.45	9506.37
704.795	9436.32
705.14	9433.61
705.485	9449.65
705.83	9453.49
706.175	9469.77
706.52	9405.81
706.865	9378.69
707.209	9398.35
707.554	9350.45
707.899	9379.82
708.243	9339.83
708.588	9305.25
708.932	9317.45
709.277	9285.36
709.621	9317.45
709.966	9263.67
710.31	9278.36
710.654	9195.65
710.998	9229.32
711.342	9270.45
711.687	9255.53
712.031	9195.42
712.375	9192.03
712.719	9261.41
713.063	9196.1
713.407	9309.77
713.75	9245.14
714.094	9237.45
714.438	9190.68
714.782	9225.25
715.125	9180.73
715.469	9230
715.812	9173.5
716.156	9139.38
716.499	9184.57
716.843	9154.07
717.186	9089.21
717.53	9096.89
717.873	9205.59
718.216	9043.34
718.559	9085.14
718.902	9038.36
719.246	9106.16
719.589	9045.37
719.932	9122.43
720.275	9072.94
720.617	9052.37
720.96	9059.61
721.303	9066.61
721.646	9043.34
721.989	8969.21
722.331	9057.57
722.674	9047.86
723.016	9083.79
723.359	9014.41
723.701	9051.47
724.044	9001.3
724.386	8983.45
724.729	8986.61
725.071	8943.23
725.413	9002.88
725.755	9029.78
726.097	8973.96
726.439	8944.58
726.782	8978.93
727.124	9047.63
727.465	8968.08
727.807	9008.08
728.149	8957.91
728.491	8904.36
728.833	8984.35
729.175	9018.7
729.516	8962.21
729.858	9007.4
730.199	9028.65
730.541	8999.5
730.882	8967.41
731.224	9018.25
731.565	8988.2
731.906	9018.03
732.248	9046.5
732.589	9009.89
732.93	8994.75
733.271	9098.02
733.612	9067.52
733.953	9008.76
734.294	9052.83
734.635	8999.27
734.976	9053.96
735.317	9028.42
735.658	9072.71
735.999	9085.14
736.339	9063.67
736.68	9105.71
737.021	9087.85
737.361	9062.54
737.702	9142.09
738.042	9074.52
738.383	9151.81
738.723	9188.64
739.063	9150.68
739.404	9190
739.744	9184.35
740.084	9156.1
740.424	9196.55
740.764	9180.96
741.104	9244.91
741.444	9221.64
741.784	9260.05
742.124	9277.68
742.464	9260.96
742.804	9305.25
743.143	9355.64
743.483	9327.85
743.823	9273.16
744.162	9383.89
744.502	9344.12
744.841	9416.66
745.181	9472.25
745.52	9388.19
745.86	9495.3
746.199	9517.22
746.538	9507.5
746.877	9534.62
747.216	9560.38
747.556	9543.89
747.895	9595.64
748.234	9584.34
748.573	9589.76
748.911	9659.82
749.25	9674.96
749.589	9665.24
749.928	9686.71
750.267	9657.78
750.605	9737.55
750.944	9722.41
751.283	9699.36
751.621	9805.35
751.96	9773.94
752.298	9826.14
752.636	9907.95
752.975	9815.74
753.313	9838.12
753.651	9891.67
753.989	9843.99
754.327	9930.77
754.666	9944.1
755.004	9912.01
755.342	10022.52
755.679	10048.28
756.017	10053.93
756.355	10013.93
756.693	10022.74
757.031	10118.34
757.368	10079.69
757.706	10151.33
758.044	10122.86
758.381	10152.23
758.719	10103.42
759.056	10193.36
759.394	10216.86
759.731	10186.36
760.068	10207.37
760.405	10186.36
760.743	10128.05
761.08	10237.65
761.417	10274.94
761.754	10205.56
762.091	10207.37
762.428	10263.64
762.765	10267.48
763.102	10272.23
763.438	10361.49
763.775	10262.06
764.112	10322.4
764.449	10318.78
764.785	10327.37
765.122	10360.82
765.458	10296.41
765.795	10389.74
766.131	10375.05
766.467	10294.15
766.804	10325.79
767.14	10276.75
767.476	10396.75
767.812	10299.8
768.148	10293.7
768.485	10292.34
768.821	10367.82
769.157	10354.49
769.492	10296.86
769.828	10316.75
770.164	10309.52
770.5	10341.83
770.836	10363.53
771.171	10306.35
771.507	10382.74
771.842	10255.96
772.178	10283.53
772.513	10267.03
772.849	10334.6
773.184	10296.86
773.519	10335.96
773.855	10304.55
774.19	10271.33
774.525	10373.02
774.86	10335.73
775.195	10366.24
775.53	10309.29
775.865	10323.08
776.2	10205.34
776.535	10234.26
776.87	10240.82
777.205	10255.28
777.539	10237.88
777.874	10277.65
778.209	10157.88
778.543	10254.38
778.878	10222.97
779.212	10308.16
779.547	10262.74
779.881	10270.65
780.215	10157.2
780.55	10217.99
780.884	10184.1
781.218	10209.86
781.552	10206.24
781.886	10200.59
782.22	10165.79
782.554	10178
782.888	10045.12
783.222	10160.37
783.556	10067.72
783.889	10059.58
784.223	10018
784.557	10040.82
784.89	10097.55
785.224	10087.38
785.557	10000.15
785.891	10057.09
786.224	10015.29
786.558	10076.08
786.891	9968.96
787.224	9933.71
787.557	10043.76
787.891	9972.8
788.224	9974.84
788.557	9987.04
788.89	9968.74
789.223	9974.84
789.556	9938.23
789.888	9911.11
790.221	9889.19
790.554	9764.45
790.887	9879.25
791.219	9825.91
791.552	9818.68
791.884	9805.8
792.217	9819.13
792.549	9808.06
792.882	9749.08
793.214	9731.23
793.546	9731.68
793.879	9708.4
794.211	9698.01
794.543	9785.92
794.875	9720.83
795.207	9740.72
795.539	9689.42
795.871	9718.57
796.203	9628.41
796.535	9564.68
796.867	9603.09
797.198	9579.82
797.53	9644.45
797.862	9595.19
798.193	9587.05
798.525	9570.1
798.856	9562.42
799.188	9521.97
799.519	9483.32
799.85	9515.19
800.182	9485.36
800.513	9477.67
800.844	9382.08
801.175	9470.67
801.506	9517.9
801.837	9463.44
802.168	9443.33
802.499	9402.2
802.83	9395.87
803.161	9393.83
803.491	9395.87
803.822	9374.85
804.153	9303.22
804.483	9290.11
804.814	9303.67
805.145	9308.19
805.475	9270.9
805.805	9234.97
806.136	9268.87
806.466	9265.93
806.796	9331.01
807.126	9229.09
807.457	9145.71
807.787	9171.24
808.117	9107.06
808.447	9159.04
808.777	9127.63
809.107	9149.77
809.436	9127.85
809.766	9113.16
810.096	9027.52
810.426	9037.01
810.755	9090.11
811.085	9128.76
811.414	9050.12
811.744	9011.02
812.073	9027.06
812.403	8988.42
812.732	9033.39
813.061	8967.18
813.39	8859.61
813.719	8832.04
814.049	8957.91
814.378	8904.81
814.707	8880.4
815.036	8926.73
815.365	8877.24
815.693	8820.52
816.022	8807.41
816.351	8802.44
816.68	8748.43
817.008	8839.73
817.337	8729.67
817.665	8738.03
817.994	8751.59
818.322	8766.51
818.651	8675.66
818.979	8670.24
819.307	8692.84
819.636	8679.05
819.964	8590.92
820.292	8708.88
820.62	8690.58
820.948	8631.6
821.276	8728.77
821.604	8730.35
821.932	8632.72
822.259	8704.14
822.587	8720.41
822.915	8640.18
823.243	8725.38
823.57	8591.82
823.898	8674.98
824.225	8638.83
824.553	8634.08
824.88	8677.47
825.207	8742.1
825.535	8732.38
825.862	8712.27
826.189	8700.97
826.516	8746.62
826.843	8748.2
827.17	8719.28
827.497	8773.06
827.824	8747.3
828.151	8786.85
828.478	8729.45
828.805	8794.53
829.131	8764.92
829.458	8731.03
829.785	8724.02
830.111	8785.72
830.438	8743.46
830.764	8819.16
831.09	8759.73
831.417	8743.68
831.743	8795.21
832.069	8697.58
832.395	8688.54
832.722	8779.39
833.048	8740.29
833.374	8763.34
833.7	8671.37
834.026	8759.95
834.351	8684.02
834.677	8710.69
835.003	8732.61
835.329	8725.15
835.654	8754.08
835.98	8756.79
836.306	8692.61
836.631	8704.36
836.956	8738.94
837.282	8739.84
837.607	8689.9
837.932	8661.88
838.258	8655.55
838.583	8632.5
838.908	8616.91
839.233	8586.85
839.558	8592.95
839.883	8577.59
840.208	8540.3
840.533	8586.4
840.858	8589.34
841.182	8587.3
841.507	8541.65
841.832	8478.15
842.156	8537.59
842.481	8485.84
842.805	8466.85
843.13	8497.81
843.454	8468.66
843.778	8425.72
844.103	8409.23
844.427	8388.44
844.751	8404.93
845.075	8371.26
845.399	8333.75
845.723	8285.16
846.047	8356.8
846.371	8262.11
846.695	8253.75
847.019	8211.49
847.343	8183.47
847.666	8158.39
847.99	8092.63
848.313	8110.25
848.637	7985.96
848.96	8068.22
849.284	8022.57
849.607	7995.68
849.931	7916.36
850.254	7975.57
850.577	7899.64
850.9	7811.96
851.223	7801.11
851.546	7722.69
851.869	7743.71
852.192	7759.98
852.515	7663.71
852.838	7712.98
853.161	7701.68
853.483	7661.68
853.806	7633.66
854.129	7676.59
854.451	7643.37
854.774	7516.37
855.096	7529.93
855.419	7506.88
855.741	7504.85
856.063	7425.53
856.385	7471.17
856.708	7409.93
857.03	7395.24
857.352	7425.07
857.674	7363.83
857.996	7331.06
858.318	7351.4
858.64	7338.52
858.961	7238.41
859.283	7248.35
859.605	7198.41
859.926	7268.69
860.248	7183.72
860.57	7169.49
860.891	7269.82
861.212	7153.22
861.534	7163.61
861.855	7174.01
862.176	7143.27
862.498	7104.63
862.819	7150.96
863.14	7103.27
863.461	7092.88
863.782	7087.45
864.103	7065.31
864.424	7047.68
864.745	7071.64
865.065	7001.58
865.386	6966.78
865.707	6955.48
866.027	7001.13
866.348	6917.52
866.668	6966.33
866.989	6935.14
867.309	6925.2
867.63	6942.83
867.95	6907.8
868.27	6837.29
868.59	6891.75
868.91	6915.71
869.23	6893.11
869.55	6853.56
869.87	6927.46
870.19	6869.83
870.51	6831.64
870.83	6854.92
871.15	6815.82
871.469	6821.25
871.789	6838.42
872.109	6789.61
872.428	6738.99
872.748	6772.43
873.067	6747.12
873.386	6818.54
873.706	6781.93
874.025	6714.13
874.344	6682.49
874.663	6758.88
874.982	6727.92
875.301	6725.66
875.62	6701.02
875.939	6665.09
876.258	6677.3
876.577	6706.22
876.896	6667.13
877.214	6604.98
877.533	6615.83
877.852	6659.22
878.17	6627.13
878.489	6600.24
878.807	6573.8
879.125	6605.21
879.444	6580.35
879.762	6594.81
880.08	6564.08
880.398	6565.89
880.716	6559.56
881.034	6569.05
881.352	6490.86
881.67	6503.97
881.988	6562.95
882.306	6493.8
882.624	6492.67
882.941	6411.31
883.259	6434.82
883.577	6396.17
883.894	6439.11
884.212	6437.98
884.529	6423.52
884.846	6340.13
885.164	6332.67
885.481	6328.83
885.798	6368.83
886.115	6326.57
886.432	6312.33
886.75	6332.9
887.067	6277.08
887.383	6241.38
887.7	6221.94
888.017	6192.56
888.334	6263.97
888.651	6171.32
888.967	6197.76
889.284	6210.87
889.6	6188.04
889.917	6094.71
890.233	6167.03
890.55	6132.23
890.866	6134.49
891.182	6094.94
891.498	6063.98
891.815	6044.32
892.131	6053.81
892.447	6026.47
892.763	5985.34
893.079	5947.82
893.395	5941.04
893.71	5946.02
894.026	5955.06
894.342	5925.45
894.657	5847.94
894.973	5886.13
895.289	5840.03
895.604	5861.72
895.92	5843.42
896.235	5790.99
896.55	5772.24
896.865	5757.77
897.181	5740.15
897.496	5767.04
897.811	5741.95
898.126	5707.83
898.441	5709.41
898.756	5683.42
899.071	5624.44
899.386	5638
899.7	5584.44
900.015	5600.71
900.33	5500.15
900.644	5524.56
900.959	5551.22
901.273	5536.08
901.588	5493.82
901.902	5430.78
902.216	5435.07
902.531	5419.02
902.845	5441.62
903.159	5423.09
903.473	5322.53
903.787	5358.01
904.101	5357.56
904.415	5312.81
904.729	5266.49
905.042	5247.73
905.356	5258.58
905.67	5259.48
905.984	5260.38
906.297	5209.99
906.611	5171.57
906.924	5183.55
907.237	5144.46
907.551	5171.35
907.864	5127.51
908.177	5048.86
908.491	5100.16
908.804	5086.38
909.117	5042.99
909.43	4994.63
909.743	4986.72
910.056	4997.79
910.368	4947.17
910.681	4954.18
910.994	4911.69
911.307	4903.78
911.619	4883.45
911.932	4869.21
912.244	4844.8
912.557	4865.82
912.869	4819.04
913.181	4775.43
913.494	4774.07
913.806	4763
914.118	4765.71
914.43	4724.81
914.742	4698.37
915.054	4687.29
915.366	4644.36
915.678	4649.1
915.99	4614.3
916.302	4607.75
916.613	4570.23
916.925	4569.55
917.236	4529.33
917.548	4486.85
917.859	4525.94
918.171	4438.48
918.482	4515.09
918.794	4459.73
919.105	4492.49
919.416	4435.77
919.727	4414.08
920.038	4394.42
920.349	4339.96
920.66	4338.15
920.971	4346.51
921.282	4334.08
921.593	4259.05
921.903	4288.66
922.214	4237.81
922.525	4238.26
922.835	4203.69
923.146	4221.54
923.456	4194.65
923.767	4195.33
924.077	4175.67
924.387	4148.55
924.697	4150.36
925.008	4126.18
925.318	4173.41
925.628	4072.17
925.938	4060.87
926.248	4041.89
926.558	4032.62
926.867	4014.99
927.177	3983.81
927.487	3995.56
927.796	3950.81
928.106	3931.83
928.416	3949.46
928.725	3937.26
929.034	3904.26
929.344	3953.98
929.653	3881.66
929.962	3862.68
930.271	3890.02
930.581	3825.85
930.89	3824.94
931.199	3784.49
931.508	3808.22
931.817	3762.57
932.125	3767.77
932.434	3742.01
932.743	3677.15
933.051	3718.96
933.36	3705.17
933.669	3673.99
933.977	3652.74
934.286	3638.96
934.594	3678.73
934.902	3648
935.21	3588.79
935.519	3593.31
935.827	3558.96
936.135	3563.48
936.443	3529.58
936.751	3511.96
937.059	3525.29
937.367	3511.28
937.674	3514.44
937.982	3476.02
938.29	3444.61
938.597	3444.61
938.905	3455.01
939.213	3438.96
939.52	3446.87
939.827	3389.92
940.135	3366.2
940.442	3347.44
940.749	3333.66
941.056	3329.14
941.363	3313.32
941.67	3305.18
941.977	3278.29
942.284	3267.89
942.591	3297.27
942.898	3264.28
943.205	3270.15
943.511	3249.36
943.818	3210.72
944.125	3206.2
944.431	3163.72
944.738	3205.98
945.044	3152.87
945.35	3179.08
945.657	3151.97
945.963	3148.8
946.269	3114.23
946.575	3125.98
946.881	3085.3
947.187	3088.01
947.493	3081.91
947.799	3089.82
948.105	3067.9
948.41	3029.26
948.716	3031.29
949.022	3019.54
949.327	2958.98
949.633	2984.06
949.938	2962.82
950.244	2933.89
950.549	2955.36
950.854	2916.04
951.16	2914.23
951.465	2902.03
951.77	2870.16
952.075	2859.32
952.38	2873.55
952.685	2848.02
952.99	2824.29
953.294	2862.71
953.599	2818.41
953.904	2772.54
954.209	2807.57
954.513	2794.69
954.818	2774.57
955.122	2751.98
955.426	2770.05
955.731	2788.81
956.035	2773.67
956.339	2727.57
956.643	2735.25
956.948	2680.57
957.252	2674.24
957.556	2673.33
957.86	2644.41
958.163	2689.38
958.467	2667.46
958.771	2626.78
959.075	2630.62
959.378	2574.13
959.682	2621.81
959.985	2589.04
960.289	2605.99
960.592	2580.23
960.896	2545.2
961.199	2543.17
961.502	2553.11
961.805	2523.96
962.108	2520.12
962.411	2507.46
962.714	2506.33
963.017	2498.65
963.32	2503.39
963.623	2466.11
963.926	2481.47
964.228	2448.93
964.531	2420.01
964.833	2432.89
965.136	2403.28
965.438	2401.48
965.741	2373
966.043	2393.57
966.345	2402.83
966.648	2382.49
966.95	2346.56
967.252	2320.12
967.554	2344.53
967.856	2354.47
968.158	2336.39
968.46	2296.17
968.761	2286.68
969.063	2311.54
969.365	2277.64
969.666	2298.2
969.968	2264.98
970.269	2262.72
970.571	2230.18
970.872	2261.14
971.174	2227.92
971.475	2232.22
971.776	2205.78
972.077	2184.98
972.378	2214.59
972.679	2196.96
972.98	2153.8
973.281	2193.12
973.582	2194.02
973.883	2161.03
974.183	2147.47
974.484	2162.61
974.785	2146.57
975.085	2114.48
975.386	2133.46
975.686	2113.12
975.986	2090.52
976.287	2076.74
976.587	2070.19
976.887	2064.76
977.187	2052.33
977.487	2036.51
977.787	2065.21
978.087	2030.19
978.387	2008.49
978.687	2042.62
978.987	2000.13
979.286	1980.92
979.586	1961.71
979.885	1952.45
980.185	1998.1
980.484	1968.95
980.784	1958.1
981.083	1946.12
981.382	1940.47
981.682	1924.65
981.981	1907.25
982.28	1924.65
982.579	1917.42
982.878	1901.83
983.177	1886.24
983.475	1901.6
983.774	1883.98
984.073	1882.85
984.372	1858.21
984.67	1853.69
984.969	1864.99
985.267	1853.69
985.566	1829.51
985.864	1822.51
986.162	1796.75
986.461	1823.19
986.759	1821.6
987.057	1769.18
987.355	1777.09
987.653	1778.67
987.951	1814.37
988.249	1767.82
988.547	1766.46
988.844	1770.08
989.142	1776.86
989.44	1706.35
989.737	1742.51
990.035	1714.94
990.332	1721.95
990.63	1719.69
990.927	1683.3
991.224	1686.47
991.521	1700.7
991.819	1682.4
992.116	1670.42
992.413	1688.27
992.71	1648.95
993.006	1668.84
993.303	1659.8
993.6	1630.88
993.897	1621.38
994.193	1636.75
994.49	1635.85
994.787	1609.41
995.083	1613.7
995.379	1578.9
995.676	1576.19
995.972	1560.82
996.268	1569.86
996.565	1563.98
996.861	1561.95
997.157	1589.07
997.453	1528.73
997.749	1557.43
998.044	1529.63
998.34	1535.96
998.636	1523.99
998.932	1510.43
999.227	1482.18
999.523	1497.32
999.818	1469.07
1000.114	1494.38
1000.409	1476.75
1000.704	1451.9
1001	1439.24
1001.295	1443.54
1001.59	1432.01
1001.885	1465.91
1002.18	1408.28
1002.475	1414.38
1002.77	1401.28
1003.065	1390.88
1003.359	1409.19
1003.654	1416.42
1003.949	1370.54
1004.243	1358.79
1004.538	1374.38
1004.832	1361.96
1005.127	1364.67
1005.421	1358.57
1005.715	1347.04
1006.009	1334.84
1006.304	1319.24
1006.598	1345.68
1006.892	1326.02
1007.186	1316.76
1007.48	1314.95
1007.773	1278.57
1008.067	1300.04
1008.361	1309.98
1008.655	1305.46
1008.948	1279.25
1009.242	1281.96
1009.535	1260.49
1009.829	1261.85
1010.122	1232.02
1010.415	1229.08
1010.708	1226.14
1011.001	1243.54
1011.295	1241.73
1011.588	1221.85
1011.881	1214.61
1012.173	1183.43
1012.466	1213.71
1012.759	1201.51
1013.052	1204.67
1013.344	1211.68
1013.637	1161.06
1013.93	1158.57
1014.222	1165.35
1014.514	1163.99
1014.807	1150.44
1015.099	1146.59
1015.391	1135.52
1015.683	1134.62
1015.976	1116.31
1016.268	1123.54
1016.56	1123.54
1016.851	1118.12
1017.143	1078.57
1017.435	1086.48
1017.727	1098.46
1018.018	1106.82
1018.31	1083.09
1018.602	1069.53
1018.893	1071.79
1019.185	1071.34
1019.476	1071.79
1019.767	1060.72
1020.058	1049.87
1020.35	1048.29
1020.641	1005.13
1020.932	1001.97
1021.223	1025.24
1021.514	997.9
1021.804	1013.49
1022.095	1000.84
1022.386	991.34
1022.677	1001.97
1022.967	966.26
1023.258	973.72
1023.548	953.15
1023.839	957.45
1024.129	973.49
1024.419	954.06
1024.709	956.77
1025	961.97
1025.29	941.85
1025.58	931.23
1025.87	919.03
1026.16	918.8
1026.449	951.35
1026.739	952.93
1027.029	905.02
1027.319	922.19
1027.608	915.41
1027.898	883.32
1028.187	893.04
1028.477	863.44
1028.766	900.72
1029.055	877.67
1029.344	867.28
1029.634	878.8
1029.923	867.51
1030.212	846.04
1030.501	838.35
1030.79	863.89
1031.078	854.62
1031.367	846.94
1031.656	858.01
1031.945	830.67
1032.233	823.66
1032.522	837.68
1032.81	833.38
1033.099	804.23
1033.387	795.87
1033.675	809.43
1033.963	795.19
1034.251	798.81
1034.54	789.54
1034.828	778.02
1035.116	789.54
1035.403	770.33
1035.691	773.72
1035.979	747.96
1036.267	756.1
1036.554	770.33
1036.842	752.93
1037.129	742.31
1037.417	741.86
1037.704	751.8
1037.992	768.98
1038.279	742.76
1038.566	722.65
1038.853	722.65
1039.14	722.65
