Data from blue_clamp_base_FLMS001491_00033.txt Node
Date: Wed Feb 08 15:15:55 GMT 2017
User: dcchb
Spectrometer: FLMS00149
Trigger mode: 0
Integration Time (sec): 2.000000E-2
Scans to average: 10
Electric dark correction enabled: true
Nonlinearity correction enabled: false
Boxcar width: 0
XAxis mode: Wavelengths
Number of Pixels in Spectrum: 2048
>>>>>Begin Spectral Data<<<<<
341.393	-20.73
341.776	-20.73
342.16	-20.73
342.543	-67.29
342.927	-42.88
343.31	-62.99
343.693	-54.41
344.077	-84.01
344.46	-52.37
344.843	-53.95
345.226	-37.23
345.61	-39.26
345.993	-20.51
346.376	-29.77
346.759	5.48
347.142	21.07
347.525	54.07
347.908	51.35
348.291	92.26
348.674	98.58
349.057	111.69
349.44	123.67
349.823	160.5
350.206	160.28
350.588	182.2
350.971	210.67
351.354	233.27
351.737	238.92
352.119	269.65
352.502	258.13
352.884	264.23
353.267	302.87
353.65	292.7
354.032	298.81
354.414	298.35
354.797	299.03
355.179	321.4
355.562	331.8
355.944	329.77
356.326	327.51
356.709	337
357.091	326.6
357.473	342.42
357.855	352.36
358.238	352.59
358.62	358.69
359.002	376.77
359.384	343.55
359.766	343.32
360.148	338.35
360.53	327.05
360.912	344.91
361.294	329.99
361.676	322.99
362.057	333.83
362.439	339.26
362.821	315.08
363.203	335.87
363.584	334.06
363.966	327.28
364.348	332.7
364.729	316.21
365.111	322.99
365.493	335.87
365.874	321.86
366.256	307.39
366.637	329.77
367.019	328.64
367.4	316.88
367.781	315.98
368.163	321.86
368.544	315.53
368.925	319.37
369.306	312.14
369.688	307.62
370.069	325.02
370.45	339.71
370.831	312.59
371.212	313.95
371.593	336.54
371.974	330.22
372.355	329.99
372.736	340.39
373.117	322.08
373.498	331.12
373.879	334.06
374.26	328.86
374.641	327.05
375.021	314.85
375.402	322.76
375.783	325.47
376.163	374.96
376.544	339.93
376.925	329.09
377.305	339.26
377.686	338.35
378.066	349.65
378.447	333.38
378.827	346.71
379.208	331.8
379.588	338.8
379.968	356.66
380.349	350.33
380.729	358.24
381.109	356.43
381.489	353.04
381.87	365.02
382.25	348.07
382.63	375.64
383.01	386.49
383.39	365.47
383.77	372.25
384.15	358.69
384.53	400.05
384.91	362.53
385.29	377.45
385.67	381.97
386.049	386.26
386.429	374.06
386.809	378.8
387.189	374.06
387.568	387.16
387.948	407.73
388.328	384.23
388.707	390.1
389.087	372.93
389.466	384.91
389.846	379.26
390.225	406.83
390.605	413.38
390.984	405.92
391.363	406.15
391.743	422.42
392.122	420.61
392.501	410.22
392.881	421.97
393.26	442.76
393.639	452.7
394.018	437.11
394.397	440.5
394.776	457.22
395.155	471.91
395.534	469.65
395.913	453.38
396.292	466.48
396.671	464.45
397.05	482.98
397.429	475.52
397.808	474.39
398.186	490.89
398.565	487.73
398.944	479.14
399.323	501.29
399.701	497.9
400.08	512.13
400.458	515.52
400.837	523.88
401.215	523.43
401.594	541.51
401.972	540.16
402.351	550.32
402.729	539.7
403.107	543.77
403.486	522.08
403.864	536.77
404.242	547.16
404.62	567.27
404.999	555.3
405.377	548.97
405.755	560.04
406.133	582.64
406.511	588.74
406.889	586.71
407.267	585.58
407.645	627.38
408.023	628.51
408.401	612.92
408.779	625.8
409.156	637.55
409.534	652.24
409.912	660.6
410.29	654.5
410.667	691.79
411.045	667.16
411.422	680.26
411.8	671.9
412.178	710.32
412.555	710.77
412.933	718.23
413.31	732.24
413.687	733.14
414.065	743.99
414.442	743.31
414.819	744.9
415.197	767.49
415.574	774.95
415.951	770.43
416.328	795.74
416.705	805.69
417.082	786.7
417.46	772.01
417.837	808.62
418.214	813.59
418.591	835.97
418.967	836.42
419.344	841.39
419.721	858.34
420.098	867.83
420.475	893.37
420.852	882.52
421.228	896.08
421.605	895.17
421.982	896.98
422.358	915.74
422.735	921.39
423.111	886.81
423.488	915.74
423.864	934.27
424.241	971.1
424.617	990.54
424.994	951.9
425.37	956.42
425.746	981.95
426.123	1009.97
426.499	1012.23
426.875	1035.74
427.251	1023.08
427.627	1053.36
428.003	1076.41
428.379	1074.6
428.756	1104.66
429.132	1114.38
429.507	1131.55
429.883	1116.86
430.259	1172.91
430.635	1164.09
431.011	1161.16
431.387	1183.98
431.763	1204.54
432.138	1203.87
432.514	1221.95
432.89	1229.18
433.265	1286.8
433.641	1272.11
434.016	1275.96
434.392	1329.06
434.767	1311.89
435.143	1350.08
435.518	1338.33
435.894	1361.38
436.269	1366.35
436.644	1428.72
437.02	1400.92
437.395	1419.68
437.77	1437.76
438.145	1470.75
438.52	1480.02
438.895	1484.76
439.271	1492.45
439.646	1503.07
440.021	1551.88
440.395	1541.03
440.77	1547.13
441.145	1560.92
441.52	1598.43
441.895	1572.9
442.27	1605.66
442.645	1600.24
443.019	1623.97
443.394	1652.89
443.769	1688.37
444.143	1644.53
444.518	1676.4
444.892	1673.68
445.267	1710.07
445.641	1736.51
446.016	1732.89
446.39	1721.37
446.764	1753.91
447.139	1760.01
447.513	1788.48
447.887	1783.06
448.262	1781.03
448.636	1814.47
449.01	1826.68
449.384	1835.49
449.758	1860.8
450.132	1879.78
450.506	1878.88
450.88	1947.58
451.254	1934.92
451.628	1930.18
452.002	1974.24
452.376	1967.24
452.75	1960.23
453.123	2031.42
453.497	2040.23
453.871	2030.74
454.244	2112.54
454.618	2129.27
454.992	2137.63
455.365	2149.6
455.739	2190.06
456.112	2199.09
456.486	2192.77
456.859	2254.69
457.232	2269.15
457.606	2290.84
457.979	2309.37
458.352	2361.8
458.725	2391.41
459.099	2398.19
459.472	2433.44
459.845	2453.55
460.218	2484.51
460.591	2475.7
460.964	2515.02
461.337	2544.85
461.71	2575.13
462.083	2600.67
462.456	2589.59
462.829	2625.07
463.201	2682.25
463.574	2682.02
463.947	2736.03
464.32	2765.63
464.692	2813.32
465.065	2776.93
465.438	2842.47
465.81	2882.69
466.183	2921.56
466.555	2959.07
466.928	2964.72
467.3	2999.07
467.672	3009.92
468.045	3103.93
468.417	3046.3
468.789	3141.44
469.161	3129.47
469.534	3207.88
469.906	3273.19
470.278	3270.25
470.65	3328.33
471.022	3363.36
471.394	3427.54
471.766	3445.16
472.138	3472.73
472.51	3544.14
472.882	3559.96
473.253	3590.24
473.625	3651.49
473.997	3726.29
474.369	3726.06
474.74	3760.41
475.112	3784.14
475.484	3916.56
475.855	3953.17
476.227	3934.42
476.598	4059.38
476.97	4079.5
477.341	4160.17
477.713	4241.53
478.084	4198.59
478.455	4321.07
478.827	4378.92
479.198	4439.94
479.569	4493.05
479.94	4540.73
480.311	4634.96
480.682	4658.47
481.053	4749.76
481.424	4824.79
481.795	4878.35
482.166	4923.77
482.537	4944.33
482.908	5040.38
483.279	5084.22
483.65	5115.63
484.021	5285.57
484.391	5259.81
484.762	5305.23
485.133	5357.43
485.503	5422.96
485.874	5514.49
486.244	5543.19
486.615	5595.39
486.985	5638.78
487.356	5703.86
487.726	5789.51
488.097	5855.72
488.467	5864.99
488.837	5936.62
489.207	6012.78
489.578	6074.02
489.948	6104.98
490.318	6163.96
490.688	6159.22
491.058	6204.87
491.428	6336.61
491.798	6306.33
492.168	6455.25
492.538	6457.06
492.908	6447.57
493.278	6562.14
493.648	6590.62
494.017	6600.56
494.387	6653.89
494.757	6718.3
495.126	6747.9
495.496	6713.33
495.866	6701.12
496.235	6860.89
496.605	6843.94
496.974	6906.77
497.344	6901.34
497.713	6909.93
498.082	6971.4
498.452	7026.99
498.821	7084.84
499.19	7006.88
499.559	7017.27
499.928	7128.68
500.298	7157.83
500.667	7161.22
501.036	7200.55
501.405	7223.14
501.774	7209.13
502.143	7290.49
502.512	7233.76
502.88	7344.27
503.249	7227.89
503.618	7362.8
503.987	7341.78
504.356	7388.34
504.724	7453.42
505.093	7362.57
505.462	7485.74
505.83	7486.87
506.199	7531.61
506.567	7569.12
506.936	7558.28
507.304	7586.52
507.672	7681.89
508.041	7681.21
508.409	7710.14
508.777	7748.33
509.145	7774.32
509.514	7840.08
509.882	7862.45
510.25	7802.79
510.618	7893.41
510.986	7908.55
511.354	7931.37
511.722	7989.22
512.09	8044.36
512.458	7996.23
512.826	8127.98
513.193	8138.6
513.561	8119.84
513.929	8151.71
514.297	8178.82
514.664	8263.12
515.032	8277.35
515.4	8320.97
515.767	8285.71
516.135	8281.87
516.502	8290.23
516.869	8372.72
517.237	8448.2
517.604	8389.21
517.972	8428.54
518.339	8532.71
518.706	8509.66
519.073	8538.14
519.44	8504.01
519.808	8651.58
520.175	8599.83
520.542	8608.42
520.909	8779.49
521.276	8720.96
521.643	8750.33
522.009	8780.62
522.376	8860.39
522.743	8915.98
523.11	8957.11
523.477	8989.88
523.843	9003.21
524.21	9151
524.577	9117.1
524.943	9153.94
525.31	9151
525.676	9269.87
526.043	9236.65
526.409	9326.82
526.776	9402.97
527.142	9378.57
527.508	9474.84
527.874	9549.64
528.241	9560.26
528.607	9513.93
528.973	9677.99
529.339	9646.81
529.705	9737.2
530.071	9759.57
530.437	9757.77
530.803	9887.48
531.169	9895.62
531.535	9930.42
531.901	9919.8
532.267	9913.92
532.632	9985.56
532.998	10028.49
533.364	10060.81
533.73	10099.68
534.095	10124.99
534.461	10197.75
534.826	10199.34
535.192	10251.09
535.557	10377.86
535.923	10284.76
536.288	10331.54
536.653	10388.71
537.019	10376.73
537.384	10446.11
537.749	10503.28
538.114	10402.72
538.479	10556.84
538.845	10610.17
539.21	10533.56
539.575	10570.17
539.94	10547.8
540.305	10594.35
540.67	10641.13
541.034	10682.49
541.399	10747.8
541.764	10778.76
542.129	10778.76
542.494	10858.08
542.858	10842.03
543.223	10875.25
543.587	10928.81
543.952	10866.66
544.316	10978.3
544.681	10920
545.045	10954.12
545.41	11028.24
545.774	11081.57
546.138	11056.26
546.503	11141.91
546.867	11073.89
547.231	11152.98
547.595	11231.17
547.959	11222.81
548.324	11243.83
548.688	11258.07
549.052	11322.7
549.416	11296.71
549.779	11308.91
550.143	11343.04
550.507	11404.95
550.871	11424.39
551.235	11407.89
551.599	11484.27
551.962	11511.39
552.326	11565.85
552.689	11597.27
553.053	11598.62
553.417	11585.97
553.78	11737.37
554.143	11708.68
554.507	11759.52
554.87	11748.9
555.234	11843.81
555.597	11770.37
555.96	11801.55
556.323	11848.78
556.686	11861.21
557.05	11974.43
557.413	11973.08
557.776	11975.11
558.139	12002.45
558.502	12082.22
558.865	12165.39
559.228	12102.56
559.59	12140.98
559.953	12133.75
560.316	12315.44
560.679	12305.72
561.041	12389.79
561.404	12402.22
561.767	12388.88
562.129	12475.89
562.492	12515.43
562.854	12517.92
563.217	12552.95
563.579	12605.37
563.941	12642.66
564.304	12687.63
564.666	12778.48
565.028	12701.87
565.39	12882.43
565.753	12833.17
566.115	13007.62
566.477	12982.54
566.839	13012.6
567.201	13053.05
567.563	13080.39
567.925	13228.64
568.287	13201.52
568.648	13179.6
569.01	13258.69
569.372	13397.67
569.734	13299.14
570.095	13454.84
570.457	13479.25
570.819	13532.58
571.18	13477.89
571.542	13630.43
571.903	13633.14
572.265	13620.49
572.626	13724.89
572.987	13719.02
573.349	13747.94
573.71	13754.27
574.071	13826.81
574.432	13896.41
574.794	13957.66
575.155	14008.95
575.516	13944.32
575.877	14042.63
576.238	14052.34
576.599	14115.62
576.96	14103.87
577.32	14103.64
577.681	14161.72
578.042	14236.52
578.403	14203.75
578.763	14220.47
579.124	14217.99
579.485	14356.52
579.845	14363.29
580.206	14313.58
580.566	14299.34
580.927	14387.47
581.287	14442.16
581.648	14373.46
582.008	14492.1
582.368	14424.31
582.728	14535.72
583.089	14478.77
583.449	14491.43
583.809	14518.54
584.169	14584.08
584.529	14461.15
584.889	14644.87
585.249	14512.9
585.609	14552.89
585.969	14545.89
586.329	14571.65
586.688	14589.05
587.048	14617.07
587.408	14590.41
587.768	14680.8
588.127	14600.12
588.487	14595.15
588.846	14618.2
589.206	14571.2
589.565	14669.5
589.925	14632.21
590.284	14685.55
590.643	14744.98
591.003	14707.24
591.362	14738.43
591.721	14674.47
592.08	14756.73
592.44	14723.74
592.799	14736.17
593.158	14804.86
593.517	14758.54
593.876	14735.94
594.235	14736.84
594.593	14816.39
594.952	14837.86
595.311	14829.72
595.67	14778.88
596.029	14843.73
596.387	14833.79
596.746	14948.59
597.104	14813.23
597.463	14833.34
597.822	14845.32
598.18	14850.74
598.538	14894.13
598.897	14935.26
599.255	14685.77
599.613	14984.07
599.972	14906.56
600.33	14941.36
600.688	14835.15
601.046	14902.94
601.404	15004.86
601.762	15010.06
602.12	15018.64
602.478	14986.78
602.836	15036.72
603.194	15026.33
603.552	15036.5
603.91	14950.17
604.268	15076.72
604.625	14952.66
604.983	15058.42
605.341	15006.22
605.698	15101.35
606.056	15090.73
606.413	15072.43
606.771	15205.08
607.128	15251.63
607.485	15039.21
607.843	15201.69
608.2	15217.51
608.557	15331.4
608.914	15142.26
609.272	15297.06
609.629	15280.11
609.986	15314
610.343	15284.17
610.7	15428.8
611.057	15356.49
611.414	15299.09
611.771	15349.03
612.127	15443.49
612.484	15419.09
612.841	15469.71
613.198	15402.14
613.554	15458.18
613.911	15482.36
614.267	15446.66
614.624	15473.77
614.98	15530.95
615.337	15597.16
615.693	15553.77
616.05	15603.04
616.406	15651.4
616.762	15589.93
617.118	15641.68
617.475	15744.5
617.831	15701.34
618.187	15683.49
618.543	15727.55
618.899	15720.32
619.255	15755.57
619.611	15711.06
619.967	15849.36
620.323	15833.99
620.678	15746.99
621.034	15732.3
621.39	15725.97
621.746	15701.79
622.101	15996.7
622.457	15812.3
622.812	15920.77
623.168	15888.9
623.523	15911.05
623.879	16020.65
624.234	15872.18
624.589	15891.16
624.945	15963.7
625.3	15961.67
625.655	15910.37
626.01	16027.43
626.365	16026.98
626.72	16024.04
627.075	15991.73
627.43	16003.93
627.785	16011.16
628.14	16048.22
628.495	16070.37
628.85	16062.46
629.205	15999.18
629.559	16068.79
629.914	16041.22
630.269	16109.01
630.623	16079.41
630.978	16083.93
631.332	16188.78
631.687	16107.2
632.041	16154.21
632.396	16156.92
632.75	16095.45
633.104	16064.27
633.459	16058.62
633.813	16127.99
634.167	16089.35
634.521	16092.06
634.875	16175.45
635.229	16141.1
635.583	16021.1
635.937	16165.06
636.291	16075.11
636.645	16105.17
636.999	16121.89
637.352	16147.65
637.706	16118.05
638.06	16209.8
638.413	16082.57
638.767	16106.53
639.121	16187.88
639.474	16069.46
639.828	16064.49
640.181	16163.47
640.534	16197.6
640.888	16176.35
641.241	16069.46
641.594	16083.7
641.947	16195.56
642.301	16227.43
642.654	16209.8
643.007	16151.27
643.36	16241.89
643.713	16131.16
644.066	16280.31
644.419	16193.98
644.771	16120.99
645.124	15976.36
645.477	15965.51
645.83	15876.48
646.182	15778.62
646.535	15711.96
646.888	15842.13
647.24	15859.98
647.593	15994.21
647.945	15952.18
648.298	15745.86
648.65	15840.77
649.002	15762.35
649.355	15915.57
649.707	15808.23
650.059	15952.41
650.411	16156.02
650.763	16211.16
651.115	16335.9
651.467	16302.9
651.819	16369.57
652.171	16391.04
652.523	16296.8
652.875	16357.37
653.227	16283.24
653.578	16415.44
653.93	16450.47
654.282	16367.99
654.633	16317.37
654.985	16327.31
655.337	16415.67
655.688	16420.64
656.039	16506.06
656.391	16399.4
656.742	16463.8
657.094	16343.81
657.445	16506.74
657.796	16435.56
658.147	16491.37
658.498	16465.39
658.849	16544.48
659.2	16539.28
659.551	16485.72
659.902	16517.14
660.253	16643.91
660.604	16666.74
660.955	16479.85
661.306	16527.31
661.656	16455.67
662.007	16543.58
662.358	16641.88
662.708	16649.34
663.059	16523.24
663.409	16497.48
663.76	16583.8
664.11	16506.74
664.461	16536.8
664.811	16560.53
665.161	16535.44
665.511	16473.97
665.862	16589.22
666.212	16569.34
666.562	16589.45
666.912	16582.67
667.262	16551.03
667.612	16541.77
667.962	16512.84
668.312	16506.52
668.662	16581.54
669.011	16472.39
669.361	16471.49
669.711	16468.32
670.06	16370.93
670.41	16326.18
670.76	16384.71
671.109	16402.56
671.459	16378.83
671.808	16312.62
672.157	16424.48
672.507	16386.74
672.856	16243.92
673.205	16192.17
673.554	16294.54
673.904	16294.32
674.253	16289.57
674.602	16199.63
674.951	15832.18
675.3	15885.51
675.649	16135.45
675.998	16004.38
676.346	16087.77
676.695	16091.16
677.044	16070.82
677.393	15951.05
677.741	15948.34
678.09	15956.47
678.438	15914.21
678.787	15986.98
679.135	15983.59
679.484	15820.88
679.832	15872.86
680.181	15752.64
680.529	15859.53
680.877	15738.85
681.225	15707.67
681.573	15813.2
681.922	15620.21
682.27	15600.55
682.618	15589.93
682.966	15551.74
683.314	15487.11
683.661	15504.28
684.009	15421.35
684.357	15366.43
684.705	15412.08
685.053	15365.3
685.4	15360.1
685.748	15289.15
686.095	15222.93
686.443	15208.02
686.79	15252.99
687.138	15224.74
687.485	15196.72
687.832	15239.88
688.18	15229.26
688.527	15163.27
688.874	15089.15
689.221	15122.14
689.568	15037.63
689.915	15022.03
690.262	14980.45
690.609	15019.55
690.956	14909.49
691.303	14903.39
691.65	14769.16
691.997	14906.33
692.344	14755.83
692.69	14803.74
693.037	14827.24
693.383	14714.7
693.73	14743.17
694.077	14704.53
694.423	14733.68
694.769	14636.51
695.116	14674.92
695.462	14618.88
695.808	14547.47
696.155	14587.7
696.501	14523.74
696.847	14523.52
697.193	14406.91
697.539	14553.57
697.885	14416.17
698.231	14333.24
698.577	14405.1
698.923	14417.53
699.269	14330.98
699.614	14343.18
699.96	14305.44
700.306	14330.3
700.651	14187.71
700.997	14183.19
701.342	14230.64
701.688	14191.55
702.033	14149.29
702.379	14145.67
702.724	14115.17
703.069	14103.64
703.415	14147.03
703.76	14068.39
704.105	14091.66
704.45	14026.81
704.795	13981.61
705.14	13985.68
705.485	13905
705.83	13857.32
706.175	13924.89
706.52	13848.73
706.865	13901.61
707.209	13866.81
707.554	13890.76
707.899	13831.33
708.243	13841.05
708.588	13841.73
708.932	13678.57
709.277	13738.23
709.621	13746.14
709.966	13740.26
710.31	13741.16
710.654	13733.03
710.998	13750.2
711.342	13691.67
711.687	13534.39
712.031	13676.99
712.375	13624.56
712.719	13627.49
713.063	13682.18
713.407	13657.1
713.75	13627.95
714.094	13615.74
714.438	13578
714.782	13627.04
715.125	13593.82
715.469	13597.67
715.812	13453.26
716.156	13437.22
716.499	13568.97
716.843	13520.38
717.186	13361.74
717.53	13525.35
717.873	13538.01
718.216	13440.16
718.559	13393.15
718.902	13418.69
719.246	13354.96
719.589	13395.41
719.932	13290.33
720.275	13351.12
720.617	13318.8
720.96	13362.42
721.303	13333.94
721.646	13334.85
721.989	13311.34
722.331	13405.35
722.674	13316.99
723.016	13291.23
723.359	13306.6
723.701	13296.2
724.044	13203.55
724.386	13182.76
724.729	13274.74
725.071	13232.48
725.413	13272.93
725.755	13202.65
726.097	13170.11
726.439	13098.47
726.782	13145.7
727.124	13258.92
727.465	13193.83
727.807	13186.83
728.149	13135.3
728.491	13082.88
728.833	13160.39
729.175	13116.32
729.516	13074.97
729.858	13112.93
730.199	13164.23
730.541	13133.04
730.882	13069.32
731.224	13191.12
731.565	13077.68
731.906	13125.14
732.248	13150.22
732.589	13110.67
732.93	13104.57
733.271	13066.61
733.612	13196.55
733.953	13110.67
734.294	13181.18
734.635	13165.13
734.976	13160.84
735.317	13198.81
735.658	13137.56
735.999	13075.64
736.339	13124.01
736.68	13187.96
737.021	13204.91
737.361	13225.47
737.702	13234.51
738.042	13273.15
738.383	13267.73
738.723	13312.47
739.063	13259.14
739.404	13354.06
739.744	13289.88
740.084	13317.67
740.424	13341.85
740.764	13298.69
741.104	13451
741.444	13427.73
741.784	13370.78
742.124	13416.43
742.464	13409.42
742.804	13386.82
743.143	13489.87
743.483	13458.91
743.823	13467.95
744.162	13531.68
744.502	13499.81
744.841	13486.48
745.181	13542.3
745.52	13535.52
745.86	13672.24
746.199	13648.74
746.538	13585.24
746.877	13719.47
747.216	13733.93
747.556	13743.2
747.895	13764.21
748.234	13726.48
748.573	13728.06
748.911	13744.33
749.25	13842.18
749.589	13742.29
749.928	13832.24
750.267	13907.26
750.605	13811.44
750.944	13923.98
751.283	13924.44
751.621	13971.89
751.96	13963.76
752.298	13978.45
752.636	13995.39
752.975	13896.19
753.313	13990.65
753.651	14047.37
753.989	13946.81
754.327	14052.34
754.666	14031.55
755.004	14110.19
755.342	14245.56
755.679	14107.93
756.017	14136.86
756.355	14194.03
756.693	14190.87
757.031	14285.56
757.368	14187.93
757.706	14199.91
758.044	14223.86
758.381	14223.86
758.719	14236.07
759.056	14352.22
759.394	14286.23
759.731	14293.69
760.068	14309.28
760.405	14389.96
760.743	14267.7
761.08	14335.5
761.417	14312.45
761.754	14300.47
762.091	14345.44
762.428	14401.71
762.765	14283.75
763.102	14452.11
763.438	14380.7
763.775	14444.87
764.112	14357.42
764.449	14434.48
764.785	14373.69
765.122	14395.16
765.458	14345.22
765.795	14431.09
766.131	14479.22
766.467	14340.92
766.804	14379.79
767.14	14318.1
767.476	14358.55
767.812	14362.84
768.148	14474.93
768.485	14357.65
768.821	14321.71
769.157	14357.87
769.492	14380.24
769.828	14321.71
770.164	14235.61
770.5	14265.44
770.836	14349.28
771.171	14332.11
771.507	14293.24
771.842	14245.56
772.178	14302.73
772.513	14314.93
772.849	14326.69
773.184	14283.07
773.519	14301.15
773.855	14194.71
774.19	14241.26
774.525	14226.35
774.86	14321.94
775.195	14246.24
775.53	14162.85
775.865	14156.97
776.2	14148.84
776.535	14148.39
776.87	14143.41
777.205	14072.45
777.539	14001.27
777.874	14095.96
778.209	14048.05
778.543	14104.32
778.878	14041.04
779.212	14013.02
779.547	13942.74
779.881	14116.75
780.215	14027.48
780.55	13965.11
780.884	13937.54
781.218	13916.07
781.552	13937.54
781.886	13966.47
782.22	13878.79
782.554	13862.74
782.888	13809.18
783.222	13756.08
783.556	13778.9
783.889	13776.42
784.223	13732.12
784.557	13700.49
784.89	13724.67
785.224	13742.07
785.557	13644.44
785.891	13648.96
786.224	13630.21
786.558	13728.28
786.891	13704.33
787.224	13519.02
787.557	13553.15
787.891	13628.4
788.224	13603.54
788.557	13590.89
788.89	13459.59
789.223	13552.69
789.556	13376.2
789.888	13581.85
790.221	13509.76
790.554	13334.17
790.887	13426.37
791.219	13460.72
791.552	13326.71
791.884	13384.79
792.217	13333.72
792.549	13301.85
792.882	13239.48
793.214	13310.67
793.546	13285.36
793.879	13248.75
794.211	13136.21
794.543	13260.27
794.875	13133.5
795.207	13208.3
795.539	13166.72
795.871	13220.27
796.203	13141.63
796.535	13032.71
796.867	13043.78
797.198	13025.93
797.53	13033.39
797.862	12996.32
798.193	12980.51
798.525	12950.9
798.856	13021.41
799.188	12815.99
799.519	12850.34
799.85	12785.26
800.182	12809.44
800.513	12812.83
800.844	12735.77
801.175	12837.01
801.506	12770.34
801.837	12765.14
802.168	12763.11
802.499	12699.61
802.83	12600.86
803.161	12599.05
803.491	12672.49
803.822	12647.63
804.153	12585.26
804.483	12515.43
804.814	12499.39
805.145	12536.68
805.475	12551.36
805.805	12471.82
806.136	12498.48
806.466	12499.16
806.796	12459.16
807.126	12356.57
807.457	12406.74
807.787	12444.93
808.117	12329.45
808.447	12284.03
808.777	12344.14
809.107	12270.47
809.436	12235.89
809.766	12258.94
810.096	12325.38
810.426	12200.87
810.755	12174.2
811.085	12211.94
811.414	12251.26
811.744	12111.6
812.073	12089.68
812.403	12104.37
812.732	12125.61
813.061	12045.84
813.39	12007.2
813.719	11986.86
814.049	12021.89
814.378	11979.85
814.707	11938.95
815.036	11952.96
815.365	11875
815.693	11787.09
816.022	11828.9
816.351	11820.99
816.68	11774.89
817.008	11788.45
817.337	11730.6
817.665	11702.12
817.994	11844.04
818.322	11787.77
818.651	11656.02
818.979	11654.21
819.307	11739.63
819.636	11648.56
819.964	11604.72
820.292	11694.21
820.62	11625.51
820.948	11594.33
821.276	11615.57
821.604	11666.42
821.932	11691.05
822.259	11656.02
822.587	11661.67
822.915	11603.37
823.243	11697.15
823.57	11635.68
823.898	11721.78
824.225	11683.14
824.553	11588.45
824.88	11675.68
825.207	11691.95
825.535	11695.79
825.862	11699.18
826.189	11677.04
826.516	11726.53
826.843	11730.6
827.17	11740.09
827.497	11781.22
827.824	11658.96
828.151	11801.33
828.478	11700.99
828.805	11788
829.131	11784.15
829.458	11726.08
829.785	11684.5
830.111	11761.1
830.438	11812.18
830.764	11802.91
831.09	11842.91
831.417	11798.62
831.743	11791.16
832.069	11740.76
832.395	11711.16
832.722	11765.4
833.048	11750.26
833.374	11718.17
833.7	11725.85
834.026	11735.57
834.351	11749.58
834.677	11729.01
835.003	11776.24
835.329	11638.39
835.654	11705.74
835.98	11560.66
836.306	11708.22
836.631	11716.58
836.956	11664.83
837.282	11645.4
837.607	11529.47
837.932	11574.44
838.258	11554.55
838.583	11616.93
838.908	11540.09
839.233	11553.65
839.558	11537.61
839.883	11499.42
840.208	11500.77
840.533	11507.32
840.858	11456.7
841.182	11515.46
841.507	11478.85
841.832	11424.84
842.156	11428
842.481	11409.02
842.805	11407.89
843.13	11319.98
843.454	11350.49
843.778	11338.06
844.103	11299.42
844.427	11320.89
844.751	11263.49
845.075	11224.62
845.399	11223.72
845.723	11152.98
846.047	11089.48
846.371	11108.46
846.695	11098.75
847.019	10973.78
847.343	11000.45
847.666	10937.62
847.99	10894.01
848.313	10858.3
848.637	10877.06
848.96	10738.53
849.284	10800.9
849.607	10689.27
849.931	10711.41
850.254	10708.48
850.577	10625.09
850.9	10480.46
851.223	10506.67
851.546	10477.3
851.869	10421.48
852.192	10466.9
852.515	10358.2
852.838	10318.66
853.161	10231.2
853.483	10259.67
853.806	10238.43
854.129	10189.62
854.451	10179.22
854.774	10101.26
855.096	10095.84
855.419	10072.79
855.741	10079.34
856.063	10008.38
856.385	9883.64
856.708	9927.71
857.03	9928.38
857.352	9912.79
857.674	9872.79
857.996	9848.84
858.318	9778.56
858.64	9787.82
858.961	9750.08
859.283	9772
859.605	9646.58
859.926	9712.12
860.248	9723.87
860.57	9677.99
860.891	9716.19
861.212	9630.54
861.534	9580.82
861.855	9557.09
862.176	9588.73
862.498	9600.48
862.819	9564.32
863.14	9563.87
863.461	9478
863.782	9478.45
864.103	9502.18
864.424	9411.56
864.745	9443.65
865.065	9434.84
865.386	9394.61
865.707	9409.53
866.027	9362.3
866.348	9346.93
866.668	9356.42
866.989	9319.59
867.309	9324.33
867.63	9275.97
867.95	9306.48
868.27	9212.24
868.59	9233.71
868.91	9270.77
869.23	9276.87
869.55	9201.85
869.87	9212.02
870.19	9116.2
870.51	9210.66
870.83	9195.29
871.15	9121.85
871.469	9122.53
871.789	9197.55
872.109	9161.4
872.428	9065.81
872.748	9148.06
873.067	9080.72
873.386	9106.94
873.706	9045.92
874.025	9035.98
874.344	8987.39
874.663	9008.63
874.982	9006.83
875.301	9009.54
875.62	8982.65
875.939	8991.91
876.258	8968.41
876.577	8906.71
876.896	8944.91
877.214	8897.22
877.533	8875.98
877.852	8919.14
878.17	8921.18
878.489	8879.37
878.807	8793.05
879.125	8835.76
879.444	8880.5
879.762	8851.12
880.08	8762.54
880.398	8751.01
880.716	8762.76
881.034	8733.39
881.352	8739.94
881.67	8698.36
881.988	8687.96
882.306	8715.76
882.624	8670.79
882.941	8688.64
883.259	8579.72
883.577	8590.11
883.894	8539.94
884.212	8558.7
884.529	8583.33
884.846	8569.32
885.164	8509.66
885.481	8425.82
885.798	8548.53
886.115	8414.75
886.432	8448.42
886.75	8462.88
887.067	8376.79
887.383	8376.11
887.7	8402.32
888.017	8304.24
888.334	8363
888.651	8383.34
888.967	8339.05
889.284	8249.11
889.6	8240.29
889.917	8239.16
890.233	8193.74
890.55	8154.19
890.866	8151.71
891.182	8203.91
891.498	8169.79
891.815	8150.35
892.131	8061.54
892.447	8068.77
892.763	8020.18
893.079	7971.82
893.395	8002.56
893.71	7973.86
894.026	7953.75
894.342	7933.86
894.657	7848.89
894.973	7883.92
895.289	7823.13
895.604	7902.22
895.92	7725.05
896.235	7790.59
896.55	7756.46
896.865	7702.45
897.181	7667.88
897.496	7661.1
897.811	7679.63
898.126	7565.28
898.441	7618.16
898.756	7537.49
899.071	7518.05
899.386	7558.95
899.7	7435.34
900.015	7452.29
900.33	7398.96
900.644	7383.14
900.959	7373.42
901.273	7391.05
901.588	7344.27
901.902	7308.56
902.216	7250.94
902.531	7317.38
902.845	7309.92
903.159	7189.02
903.473	7183.82
903.787	7109.93
904.101	7112.86
904.415	7055.69
904.729	7057.72
905.042	7066.99
905.356	7040.78
905.67	7032.87
905.984	7027.89
906.297	7006.43
906.611	6961.68
906.924	6896.37
907.237	6864.06
907.551	6904.51
907.864	6833.55
908.177	6817.73
908.491	6831.52
908.804	6781.57
909.117	6704.51
909.43	6726.89
909.743	6663.38
910.056	6618.19
910.368	6607.57
910.681	6607.57
910.994	6648.7
911.307	6544.74
911.619	6529.83
911.932	6598.98
912.244	6489.83
912.557	6474.01
912.869	6380.68
913.181	6360.12
913.494	6421.36
913.806	6311.75
914.118	6349.72
914.43	6276.73
914.742	6300.91
915.054	6246.9
915.366	6222.04
915.678	6221.81
915.99	6180.91
916.302	6152.44
916.613	6100.46
916.925	6082.61
917.236	6107.01
917.548	6058.88
917.859	6099.11
918.171	6023.4
918.482	5979.56
918.794	5929.84
919.105	5989.73
919.416	5831.54
919.727	5911.77
920.038	5906.79
920.349	5839.22
920.66	5842.84
920.971	5831.32
921.282	5823.63
921.593	5773.46
921.903	5723.52
922.214	5691.66
922.525	5682.17
922.835	5648.27
923.146	5610.76
923.456	5601.49
923.767	5597.42
924.077	5629.06
924.387	5574.15
924.697	5484.88
925.008	5446.69
925.318	5468.16
925.628	5507.48
925.938	5399.91
926.248	5376.41
926.558	5336.87
926.867	5389.52
927.177	5360.82
927.487	5296.87
927.796	5275.85
928.106	5268.39
928.416	5168.06
928.725	5256.64
929.034	5241.05
929.344	5203.54
929.653	5131
929.962	5157.44
930.271	5082.18
930.581	5107.04
930.89	5069.98
931.199	5018.46
931.508	5024.11
931.817	5051
932.125	5025.24
932.434	4977.55
932.743	4974.16
933.051	4977.55
933.36	4971
933.669	4904.79
933.977	4840.83
934.286	4840.38
934.594	4869.76
934.902	4790.21
935.21	4799.48
935.519	4748.18
935.827	4748.63
936.135	4701.18
936.443	4666.6
936.751	4713.6
937.059	4696.66
937.367	4667.05
937.674	4637
937.982	4638.58
938.29	4604
938.597	4564.46
938.905	4519.26
939.213	4510.67
939.52	4486.27
939.827	4495.08
940.135	4501.86
940.442	4477
940.749	4472.03
941.056	4460.96
941.363	4373.05
941.67	4393.61
941.977	4354.07
942.284	4360.62
942.591	4333.95
942.898	4318.36
943.205	4298.93
943.511	4263.67
943.818	4275.65
944.125	4233.17
944.431	4227.06
944.738	4240.62
945.044	4206.27
945.35	4201.75
945.657	4127.41
945.963	4148.42
946.269	4131.02
946.575	4104.58
946.881	4090.57
947.187	4105.49
947.493	4055.09
947.799	4051.7
948.105	4037.46
948.41	4009.67
948.716	3984.36
949.022	3968.54
949.327	3985.04
949.633	3906.39
949.938	3953.62
950.244	3929.67
950.549	3913.4
950.854	3889.45
951.16	3870.24
951.465	3853.29
951.77	3795.89
952.075	3844.93
952.38	3816.68
952.685	3784.36
952.99	3786.4
953.294	3717.7
953.599	3742.33
953.904	3685.16
954.209	3698.72
954.513	3673.63
954.818	3649.9
955.122	3689.68
955.426	3599.06
955.731	3607.42
956.035	3578.95
956.339	3587.98
956.643	3608.1
956.948	3579.4
957.252	3570.81
957.556	3522.22
957.86	3515.22
958.163	3519.06
958.467	3464.82
958.771	3482
959.075	3485.61
959.378	3452.85
959.682	3428.89
959.985	3411.49
960.289	3380.31
960.592	3408.78
960.896	3390.25
961.199	3371.27
961.502	3345.05
961.805	3312.51
962.108	3285.85
962.411	3246.07
962.714	3251.95
963.017	3264.83
963.32	3298.73
963.623	3288.11
963.926	3269.12
964.228	3206.3
964.531	3184.61
964.833	3183.48
965.136	3154.78
965.438	3142.35
965.741	3129.01
966.043	3132.4
966.345	3135.12
966.648	3094.66
966.95	3128.79
967.252	3072.74
967.554	3121.33
967.856	3039.52
968.158	3036.81
968.46	3012.86
968.761	3049.47
969.063	3040.43
969.365	3026.87
969.666	2976.02
969.968	2945.74
970.269	2949.58
970.571	2886.53
970.872	2886.08
971.174	2884.5
971.475	2899.64
971.776	2861.45
972.077	2848.57
972.378	2843.15
972.679	2852.64
972.98	2862.35
973.281	2860.55
973.582	2806.31
973.883	2784.62
974.183	2797.72
974.484	2841.34
974.785	2763.15
975.085	2780.1
975.386	2787.78
975.686	2712.3
975.986	2714.11
976.287	2718.86
976.587	2693.09
976.887	2670.27
977.187	2676.6
977.487	2666.65
977.787	2634.11
978.087	2624.62
978.387	2631.17
978.687	2604.96
978.987	2582.14
979.286	2575.58
979.586	2576.03
979.885	2604.06
980.185	2551.63
980.484	2546.43
980.784	2542.81
981.083	2547.56
981.382	2527.67
981.682	2505.75
981.981	2513.66
982.28	2491.97
982.579	2498.52
982.878	2471.18
983.177	2480.22
983.475	2454.68
983.774	2454
984.073	2411.52
984.372	2456.49
984.67	2413.55
984.969	2407.45
985.267	2390.73
985.566	2389.6
985.864	2380.56
986.162	2378.75
986.461	2342.82
986.759	2376.94
987.057	2313.44
987.355	2304.4
987.653	2322.71
987.951	2299.43
988.249	2301.46
988.547	2266.66
988.844	2257.17
989.142	2254.01
989.44	2259.88
989.737	2245.42
990.035	2241.35
990.332	2242.71
990.63	2198.42
990.927	2183.95
991.224	2176.95
991.521	2165.42
991.819	2167.91
992.116	2172.65
992.413	2198.19
992.71	2185.99
993.006	2157.51
993.303	2125.65
993.6	2118.19
993.897	2109.38
994.193	2116.16
994.49	2084.97
994.787	2070.28
995.083	2086.78
995.379	2040.91
995.676	2036.61
995.972	2044.75
996.268	2006.78
996.565	2018.08
996.861	1993.68
997.157	1992.32
997.453	1978.31
997.749	1960.46
998.044	1971.53
998.34	1957.75
998.636	1959.55
998.932	1932.44
999.227	1912.32
999.523	1949.16
999.818	1908.93
1000.114	1899.22
1000.409	1887.69
1000.704	1919.55
1001	1886.79
1001.295	1852.44
1001.59	1838.2
1001.885	1843.4
1002.18	1834.81
1002.475	1791.65
1002.77	1826.22
1003.065	1777.18
1003.359	1793.91
1003.654	1786.22
1003.949	1753.23
1004.243	1755.26
1004.538	1750.97
1004.832	1746.68
1005.127	1747.36
1005.421	1744.87
1005.715	1689.28
1006.009	1703.97
1006.304	1716.17
1006.598	1690.86
1006.892	1684.53
1007.186	1677.53
1007.48	1681.59
1007.773	1633.91
1008.067	1650.18
1008.361	1611.31
1008.655	1636.62
1008.948	1620.8
1009.242	1595.04
1009.535	1596.17
1009.829	1598.21
1010.122	1603.4
1010.415	1575.16
1010.708	1546.46
1011.001	1560.24
1011.295	1525.67
1011.588	1550.52
1011.881	1531.99
1012.173	1493.8
1012.466	1525.89
1012.759	1540.13
1013.052	1519.34
1013.344	1478.89
1013.637	1477.31
1013.93	1488.6
1014.222	1470.75
1014.514	1462.84
1014.807	1473.24
1015.099	1447.25
1015.391	1419.68
1015.683	1420.13
1015.976	1445.22
1016.268	1392.11
1016.56	1398.66
1016.851	1377.87
1017.143	1378.78
1017.435	1369.29
1017.727	1347.14
1018.018	1373.58
1018.31	1363.86
1018.602	1336.29
1018.893	1342.62
1019.185	1340.59
1019.476	1311.89
1019.767	1330.19
1020.058	1308.5
1020.35	1287.71
1020.641	1270.53
1020.932	1286.8
1021.223	1259.23
1021.514	1261.04
1021.804	1247.71
1022.095	1242.74
1022.386	1251.32
1022.677	1230.76
1022.967	1200.25
1023.258	1209.52
1023.548	1207.03
1023.839	1188.73
1024.129	1180.14
1024.419	1195.73
1024.709	1198.22
1025	1170.65
1025.29	1173.58
1025.58	1157.31
1025.87	1120.48
1026.16	1146.92
1026.449	1130.87
1026.739	1112.57
1027.029	1143.53
1027.319	1119.12
1027.608	1108.28
1027.898	1097.88
1028.187	1073.7
1028.477	1081.84
1028.766	1080.48
1029.055	1082.74
1029.344	1054.04
1029.634	1058.33
1029.923	1058.79
1030.212	1053.36
1030.501	1055.85
1030.79	1018.33
1031.078	1008.84
1031.367	1030.09
1031.656	1013.36
1031.945	987.83
1032.233	1004.32
1032.522	1012.46
1032.81	995.51
1033.099	1001.39
1033.387	981.5
1033.675	986.25
1033.963	972.01
1034.251	979.01
1034.54	940.37
1034.828	950.31
1035.116	939.01
1035.403	943.31
1035.691	911.44
1035.979	935.63
1036.267	897.66
1036.554	889.75
1036.842	883.88
1037.129	896.53
1037.417	893.37
1037.704	909.41
1037.992	852.01
1038.279	894.72
1038.566	892.24
1038.853	892.24
1039.14	892.24
