Data from blue_clamp_base_FLMS001491_00039.txt Node
Date: Wed Feb 08 15:15:56 GMT 2017
User: dcchb
Spectrometer: FLMS00149
Trigger mode: 0
Integration Time (sec): 2.000000E-2
Scans to average: 10
Electric dark correction enabled: true
Nonlinearity correction enabled: false
Boxcar width: 0
XAxis mode: Wavelengths
Number of Pixels in Spectrum: 2048
>>>>>Begin Spectral Data<<<<<
341.393	-4.46
341.776	-4.46
342.16	-4.46
342.543	-47.17
342.927	-82.88
343.31	-84.01
343.693	-61.18
344.077	-83.56
344.46	-34.74
344.843	-57.12
345.226	-27.51
345.61	-35.65
345.993	-14.63
346.376	-17.8
346.759	20.62
347.142	37.12
347.525	37.34
347.908	51.58
348.291	77.79
348.674	79.83
349.057	111.92
349.44	134.06
349.823	150.56
350.206	167.06
350.588	176.1
350.971	206.15
351.354	207.28
351.737	235.98
352.119	266.04
352.502	277.56
352.884	264.68
353.267	275.08
353.65	267.85
354.032	286.83
354.414	319.37
354.797	323.66
355.179	324.12
355.562	322.31
355.944	323.44
356.326	319.6
356.709	324.34
357.091	342.87
357.473	352.14
357.855	337.22
358.238	341.29
358.62	349.2
359.002	341.52
359.384	340.16
359.766	351.91
360.148	353.04
360.53	325.92
360.912	340.84
361.294	341.29
361.676	369.99
362.057	333.16
362.439	320.73
362.821	331.57
363.203	341.74
363.584	341.74
363.966	323.21
364.348	326.38
364.729	321.18
365.111	322.31
365.493	355.08
365.874	318.92
366.256	322.76
366.637	324.12
367.019	329.99
367.4	336.32
367.781	324.12
368.163	316.66
368.544	307.85
368.925	310.56
369.306	329.99
369.688	322.08
370.069	307.39
370.45	326.15
370.831	336.77
371.212	316.66
371.593	325.25
371.974	329.54
372.355	319.6
372.736	313.49
373.117	315.53
373.498	346.49
373.879	335.41
374.26	331.12
374.641	316.66
375.021	334.06
375.402	340.39
375.783	314.4
376.163	341.06
376.544	336.77
376.925	337.9
377.305	332.03
377.686	338.13
378.066	349.43
378.447	359.14
378.827	341.29
379.208	308.3
379.588	352.14
379.968	341.97
380.349	343.78
380.729	362.08
381.109	357.34
381.489	355.53
381.87	356.66
382.25	359.37
382.63	343.1
383.01	376.32
383.39	360.95
383.77	353.04
384.15	348.3
384.53	380.16
384.91	371.35
385.29	371.35
385.67	374.06
386.049	378.58
386.429	375.19
386.809	365.02
387.189	391.23
387.568	385.36
387.948	399.14
388.328	380.16
388.707	405.02
389.087	376.32
389.466	415.64
389.846	411.57
390.225	407.05
390.605	404.11
390.984	418.12
391.363	390.1
391.743	412.7
392.122	440.5
392.501	407.05
392.881	429.42
393.26	418.12
393.639	437.79
394.018	449.31
394.397	431.01
394.776	454.73
395.155	449.54
395.534	471.68
395.913	444.79
396.292	455.64
396.671	479.14
397.05	470.1
397.429	468.74
397.808	471.46
398.186	435.75
398.565	479.37
398.944	489.08
399.323	480.04
399.701	499.48
400.08	485.69
400.458	513.49
400.837	504.9
401.215	523.21
401.594	517.11
401.972	534.05
402.351	520.95
402.729	526.14
403.107	532.02
403.486	560.95
403.864	544.9
404.242	559.82
404.62	557.78
404.999	559.59
405.377	569.76
405.755	581.51
406.133	589.65
406.511	563.43
406.889	603.43
407.267	606.82
407.645	597.33
408.023	614.28
408.401	623.77
408.779	620.38
409.156	652.47
409.534	647.5
409.912	643.88
410.29	650.43
410.667	681.85
411.045	653.37
411.422	701.51
411.8	677.55
412.178	693.82
412.555	709.64
412.933	718.46
413.31	716.87
413.687	753.26
414.065	737.21
414.442	734.95
414.819	764.1
415.197	763.43
415.574	766.82
415.951	755.97
416.328	793.03
416.705	799.58
417.082	780.37
417.46	797.32
417.837	788.74
418.214	822.41
418.591	828.06
418.967	820.6
419.344	802.52
419.721	844.55
420.098	835.74
420.475	880.94
420.852	877.55
421.228	856.98
421.605	879.81
421.982	885.91
422.358	901.73
422.735	929.98
423.111	895.63
423.488	948.05
423.864	935.63
424.241	945.79
424.617	969.52
424.994	959.13
425.37	987.38
425.746	977.66
426.123	1002.29
426.499	1005.45
426.875	1033.48
427.251	1031.89
427.627	1065.57
428.003	1046.81
428.379	1059.01
428.756	1072.57
429.132	1111.67
429.507	1092.23
429.883	1107.82
430.259	1165.22
430.635	1134.72
431.011	1165.9
431.387	1175.62
431.763	1209.97
432.138	1203.64
432.514	1256.75
432.89	1239.8
433.265	1274.37
433.641	1277.54
434.016	1285.22
434.392	1321.15
434.767	1322.28
435.143	1336.52
435.518	1343.3
435.894	1377.87
436.269	1391.21
436.644	1413.58
437.02	1422.39
437.395	1395.27
437.77	1442.73
438.145	1454.26
438.52	1493.35
438.895	1495.38
439.271	1458.1
439.646	1529.28
440.021	1565.67
440.395	1527.25
440.77	1539
441.145	1541.03
441.52	1599.11
441.895	1564.08
442.27	1643.86
442.645	1584.2
443.019	1639.11
443.394	1628.94
443.769	1659.9
444.143	1662.61
444.518	1667.13
444.892	1680.46
445.267	1729.28
445.641	1717.3
446.016	1697.64
446.39	1732.89
446.764	1734.47
447.139	1759.56
447.513	1754.59
447.887	1769.95
448.262	1804.3
448.636	1813.12
449.01	1863.96
449.384	1855.83
449.758	1841.59
450.132	1896.05
450.506	1897.41
450.88	1917.97
451.254	1937.86
451.628	1960.46
452.002	1969.27
452.376	1964.52
452.75	2011.76
453.123	2031.19
453.497	2032.09
453.871	2079.78
454.244	2081.58
454.618	2091.98
454.992	2144.86
455.365	2128.14
455.739	2206.33
456.112	2191.64
456.486	2249.26
456.859	2240.9
457.232	2248.36
457.606	2286.78
457.979	2308.47
458.352	2372.2
458.725	2382.14
459.099	2384.4
459.472	2405.87
459.845	2424.4
460.218	2488.58
460.591	2512.76
460.964	2489.03
461.337	2561.12
461.71	2597.5
462.083	2608.8
462.456	2613.32
462.829	2661.68
463.201	2679.99
463.574	2728.8
463.947	2730.15
464.32	2768.35
464.692	2772.64
465.065	2836.14
465.438	2800.89
465.81	2898.29
466.183	2938.28
466.555	2951.17
466.928	2947.1
467.3	2971.05
467.672	3022.8
468.045	3073.87
468.417	3075.68
468.789	3115.91
469.161	3138.28
469.534	3181.44
469.906	3247.43
470.278	3286.07
470.65	3275
471.022	3360.65
471.394	3408.33
471.766	3420.53
472.138	3478.38
472.51	3542.11
472.882	3572.17
473.253	3596.35
473.625	3651.71
473.997	3735.78
474.369	3734.87
474.74	3760.86
475.112	3802.67
475.484	3871.14
475.855	3947.07
476.227	4016.67
476.598	4083.56
476.97	4048.09
477.341	4163.11
477.713	4182.77
478.084	4195.43
478.455	4355.87
478.827	4353.61
479.198	4482.65
479.569	4465.48
479.94	4593.61
480.311	4561.74
480.682	4707.5
481.053	4748.86
481.424	4817.78
481.795	4876.31
482.166	4927.16
482.537	4981.62
482.908	5032.69
483.279	5065.01
483.65	5173.71
484.021	5199.69
484.391	5269.52
484.762	5354.72
485.133	5341.38
485.503	5420.25
485.874	5511.32
486.244	5505.67
486.615	5625.22
486.985	5657.53
487.356	5759.91
487.726	5741.83
488.097	5876.29
488.467	5856.4
488.837	5960.13
489.207	6041.93
489.578	6056.39
489.948	6097.52
490.318	6132.78
490.688	6191.53
491.058	6226.11
491.428	6334.58
491.798	6393.79
492.168	6441.02
492.538	6453.22
492.908	6455.03
493.278	6533.67
493.648	6530.51
494.017	6606.89
494.387	6678.75
494.757	6685.53
495.126	6745.64
495.496	6711.29
495.866	6782.93
496.235	6796.94
496.605	6885.3
496.974	6876.03
497.344	6925.07
497.713	6935.92
498.082	6998.52
498.452	7019.76
498.821	7015.69
499.19	7046.2
499.559	7094.56
499.928	7098.63
500.298	7139.3
500.667	7156.03
501.036	7163.71
501.405	7248.91
501.774	7196.93
502.143	7258.85
502.512	7320.32
502.88	7314.89
503.249	7302.69
503.618	7387.21
503.987	7386.53
504.356	7407.77
504.724	7405.74
505.093	7417.04
505.462	7435.34
505.83	7512.4
506.199	7488
506.567	7636.47
506.936	7519.86
507.304	7625.17
507.672	7662.68
508.041	7739.51
508.409	7712.62
508.777	7763.24
509.145	7752.4
509.514	7852.51
509.882	7889.11
510.25	7849.34
510.618	7905.61
510.986	7867.65
511.354	7955.78
511.722	7926.4
512.09	8064.48
512.458	8018.38
512.826	8051.14
513.193	8039.17
513.561	8110.35
513.929	8146.06
514.297	8203.46
514.664	8213.4
515.032	8246.17
515.4	8335.66
515.767	8247.75
516.135	8311.48
516.502	8243
516.869	8398.48
517.237	8385.82
517.604	8356.9
517.972	8456.33
518.339	8407.52
518.706	8510.57
519.073	8472.15
519.44	8551.24
519.808	8671.24
520.175	8672.37
520.542	8706.27
520.909	8743.56
521.276	8717.79
521.643	8775.42
522.009	8803.21
522.376	8838.69
522.743	8888.18
523.11	8923.21
523.477	9049.31
523.843	9061.74
524.21	9088.18
524.577	9096.09
524.943	9179.02
525.31	9175.86
525.676	9225.35
526.043	9280.04
526.409	9303.99
526.776	9403.88
527.142	9405.23
527.508	9425.57
527.874	9503.99
528.241	9542.18
528.607	9511.44
528.973	9575.17
529.339	9575.85
529.705	9709.41
530.071	9754.6
530.437	9746.24
530.803	9767.48
531.169	9874.6
531.535	9791.21
531.901	9879.8
532.267	9920.93
532.632	10025.1
532.998	10018.32
533.364	10036.18
533.73	10092.22
534.095	10116.4
534.461	10189.17
534.826	10176.74
535.192	10306.9
535.557	10385.55
535.923	10275.04
536.288	10316.4
536.653	10467.8
537.019	10306.68
537.384	10355.04
537.749	10451.53
538.114	10533.79
538.479	10502.61
538.845	10487.92
539.21	10533.56
539.575	10562.94
539.94	10618.53
540.305	10644.3
540.67	10618.53
541.034	10672.77
541.399	10738.53
541.764	10764.07
542.129	10776.95
542.494	10764.97
542.858	10885.87
543.223	10798.87
543.587	10914.57
543.952	10918.19
544.316	10917.96
544.681	10942.82
545.045	10983.95
545.41	11083.61
545.774	11012.87
546.138	11021.69
546.503	11088.58
546.867	11122.93
547.231	11203.38
547.595	11141.91
547.959	11161.12
548.324	11217.16
548.688	11260.1
549.052	11258.29
549.416	11281.12
549.779	11323.83
550.143	11370.15
550.507	11386.42
550.871	11419.42
551.235	11387.33
551.599	11486.08
551.962	11525.63
552.326	11493.99
552.689	11652.63
553.053	11560.43
553.417	11607.43
553.78	11761.33
554.143	11632.74
554.507	11785.74
554.87	11795.9
555.234	11903.25
555.597	11757.26
555.96	11868.67
556.323	11846.07
556.686	11843.81
557.05	11986.41
557.413	11864.15
557.776	11984.15
558.139	11992.96
558.502	12072.28
558.865	12057.59
559.228	12123.81
559.59	12168.32
559.953	12219.62
560.316	12275.67
560.679	12298.94
561.041	12342.1
561.404	12414.42
561.767	12521.31
562.129	12468.2
562.492	12490.12
562.854	12577.35
563.217	12560.18
563.579	12630.91
563.941	12715.43
564.304	12751.36
564.666	12796.56
565.028	12812.83
565.39	12801.3
565.753	12902.77
566.115	12951.58
566.477	12979.15
566.839	13073.16
567.201	13147.28
567.563	13139.15
567.925	13147.28
568.287	13220.73
568.648	13256.43
569.01	13328.75
569.372	13388.41
569.734	13283.1
570.095	13384.79
570.457	13437.44
570.819	13494.16
571.18	13513.37
571.542	13625.46
571.903	13546.82
572.265	13575.07
572.626	13684.22
572.987	13672.47
573.349	13728.96
573.71	13848.51
574.071	13844.44
574.432	13865.91
574.794	13992.23
575.155	13992.68
575.516	13933.93
575.877	13998.11
576.238	13982.06
576.599	14090.53
576.96	14019.57
577.32	14139.57
577.681	14178.44
578.042	14215.95
578.403	14216.63
578.763	14324.88
579.124	14235.61
579.485	14352.45
579.845	14345.44
580.206	14321.49
580.566	14351.54
580.927	14359.68
581.287	14369.85
581.648	14424.54
582.008	14548.83
582.368	14515.61
582.728	14452.33
583.089	14484.42
583.449	14536.17
583.809	14547.7
584.169	14518.54
584.529	14510.41
584.889	14727.35
585.249	14596.28
585.609	14449.85
585.969	14606.23
586.329	14522.16
586.688	14615.49
587.048	14604.87
587.408	14549.28
587.768	14559.67
588.127	14614.14
588.487	14615.49
588.846	14695.72
589.206	14563.97
589.565	14629.73
589.925	14721.93
590.284	14610.29
590.643	14672.67
591.003	14677.18
591.362	14695.26
591.721	14730.29
592.08	14770.29
592.44	14761.93
592.799	14813.23
593.158	14776.84
593.517	14775.04
593.876	14797.18
594.235	14655.26
594.593	14774.81
594.952	14793.57
595.311	14766
595.67	14774.36
596.029	14862.94
596.387	14904.52
596.746	14888.03
597.104	14880.34
597.463	14757.18
597.822	14870.4
598.18	14812.77
598.538	14812.55
598.897	14966.67
599.255	14780.91
599.613	14945.65
599.972	14849.61
600.33	14931.64
600.688	14863.85
601.046	14855.26
601.404	14970.74
601.762	14965.99
602.12	15138.87
602.478	14942.04
602.836	15005.54
603.194	15001.02
603.552	14999.21
603.91	14927.57
604.268	15055.93
604.625	15038.31
604.983	15055.48
605.341	14987.01
605.698	15095.93
606.056	15091.64
606.413	15147.23
606.771	15161.01
607.128	15154.91
607.485	15074.91
607.843	15160.11
608.2	15197.85
608.557	15257.28
608.914	15118.76
609.272	15225.87
609.629	15246.44
609.986	15305.42
610.343	15270.62
610.7	15345.19
611.057	15281.69
611.414	15334.79
611.771	15410.27
612.127	15359.2
612.484	15399.43
612.841	15536.15
613.198	15441.46
613.554	15405.75
613.911	15444.85
614.267	15488.46
614.624	15546.99
614.98	15469.25
615.337	15600.78
615.693	15518.07
616.05	15546.99
616.406	15596.93
616.762	15604.17
617.118	15577.27
617.475	15728.68
617.831	15546.09
618.187	15706.54
618.543	15655.24
618.899	15765.07
619.255	15763.94
619.611	15692.53
619.967	15817.49
620.323	15892.29
620.678	15753.31
621.034	15684.39
621.39	15789.7
621.746	15687.1
622.101	15875.57
622.457	15682.36
622.812	15873.76
623.168	15837.83
623.523	15929.36
623.879	15941.56
624.234	15886.19
624.589	15911.95
624.945	15925.29
625.3	15986.98
625.655	15954.89
626.01	15971.84
626.365	16019.07
626.72	15982.46
627.075	15978.62
627.43	15943.14
627.785	15960.54
628.14	15930.71
628.495	16052.97
628.85	16095.9
629.205	16030.14
629.559	16117.15
629.914	15944.72
630.269	16031.27
630.623	16079.86
630.978	16048.45
631.332	16087.77
631.687	16126.41
632.041	16092.06
632.396	16151.95
632.75	16072.18
633.104	16014.32
633.459	16045.51
633.813	16091.61
634.167	16124.15
634.521	16093.87
634.875	16148.56
635.229	16105.62
635.583	16086.41
635.937	16157.6
636.291	16053.65
636.645	16185.85
636.999	16094.32
637.352	16149.01
637.706	16060.2
638.06	16159.63
638.413	16142.91
638.767	16096.36
639.121	16206.41
639.474	16098.39
639.828	16103.14
640.181	16164.83
640.534	16159.41
640.888	16101.1
641.241	16061.56
641.594	16115.56
641.947	16182.46
642.301	16068.56
642.654	16222.68
643.007	16211.83
643.36	16204.83
643.713	16116.92
644.066	16233.53
644.419	16166.19
644.771	16168.9
645.124	15933.87
645.477	15975
645.83	15839.19
646.182	15788.12
646.535	15770.72
646.888	15934.55
647.24	15792.18
647.593	15903.14
647.945	15926.19
648.298	15839.87
648.65	15765.52
649.002	15747.89
649.355	15890.03
649.707	15860.66
650.059	15891.62
650.411	16065.4
650.763	16161.67
651.115	16305.62
651.467	16327.54
651.819	16422
652.171	16346.29
652.523	16310.81
652.875	16298.61
653.227	16249.35
653.578	16493.18
653.93	16327.76
654.282	16412.05
654.633	16330.7
654.985	16369.12
655.337	16370.93
655.688	16348.1
656.039	16532.5
656.391	16275.33
656.742	16434.43
657.094	16408.89
657.445	16499.06
657.796	16553.07
658.147	16426.07
658.498	16534.09
658.849	16508.32
659.2	16418.83
659.551	16438.27
659.902	16525.5
660.253	16513.75
660.604	16567.98
660.955	16446.63
661.306	16523.46
661.656	16630.13
662.007	16523.69
662.358	16604.37
662.708	16490.47
663.059	16623.12
663.409	16429.91
663.76	16534.76
664.11	16602.11
664.461	16629
664.811	16593.97
665.161	16532.73
665.511	16551.94
665.862	16551.26
666.212	16597.59
666.562	16558.49
666.912	16559.4
667.262	16455.44
667.612	16533.63
667.962	16547.19
668.312	16471.26
668.662	16516.23
669.011	16487.76
669.361	16462
669.711	16438.95
670.06	16482.56
670.41	16381.77
670.76	16418.83
671.109	16342.9
671.459	16335.22
671.808	16270.82
672.157	16340.42
672.507	16273.75
672.856	16292.06
673.205	16336.35
673.554	16296.58
673.904	16211.61
674.253	16287.54
674.602	16148.56
674.951	15978.85
675.3	15813.2
675.649	16098.39
675.998	16040.99
676.346	16102.23
676.695	16128.45
677.044	15928.68
677.393	15923.48
677.741	15921.45
678.09	15976.59
678.438	15827.44
678.787	15930.26
679.135	15833.99
679.484	15806.19
679.832	15814.33
680.181	15720.1
680.529	15759.87
680.877	15724.16
681.225	15659.31
681.573	15816.82
681.922	15594
682.27	15550.83
682.618	15610.72
682.966	15491.63
683.314	15569.14
683.661	15483.49
684.009	15365.98
684.357	15377.73
684.705	15332.53
685.053	15420.22
685.4	15448.01
685.748	15219.77
686.095	15303.61
686.443	15197.85
686.79	15231.75
687.138	15238.3
687.485	15316.72
687.832	15165.08
688.18	15154.01
688.527	15176.15
688.874	15168.92
689.221	15018.64
689.568	14988.36
689.915	15009.61
690.262	14949.04
690.609	15021.58
690.956	14979.55
691.303	14907.24
691.65	14853.23
691.997	14887.35
692.344	14741.59
692.69	14873.11
693.037	14825.43
693.383	14705.21
693.73	14764.19
694.077	14712.44
694.423	14695.72
694.769	14713.79
695.116	14565.32
695.462	14580.01
695.808	14562.39
696.155	14596.06
696.501	14572.78
696.847	14485.1
697.193	14440.81
697.539	14544.31
697.885	14502.5
698.231	14399.23
698.577	14500.47
698.923	14398.77
699.269	14331.43
699.614	14326.23
699.96	14255.5
700.306	14261.15
700.651	14214.15
700.997	14189.06
701.342	14153.13
701.688	14186.58
702.033	14032.91
702.379	14213.92
702.724	14088.27
703.069	14147.26
703.415	13999.01
703.76	14064.09
704.105	14060.93
704.45	14117.88
704.795	13910.65
705.14	13950.65
705.485	13921.05
705.83	13990.42
706.175	13905.91
706.52	13917.43
706.865	13853.48
707.209	13998.78
707.554	13859.81
707.899	13926.47
708.243	13796.53
708.588	13800.6
708.932	13758.11
709.277	13797.89
709.621	13828.85
709.966	13696.42
710.31	13753.82
710.654	13685.35
710.998	13726.25
711.342	13656.19
711.687	13696.19
712.031	13578.68
712.375	13662.97
712.719	13660.49
713.063	13600.15
713.407	13639.02
713.75	13594.5
714.094	13650.55
714.438	13529.42
714.782	13666.14
715.125	13549.98
715.469	13575.29
715.812	13531.9
716.156	13470.66
716.499	13472.7
716.843	13514.5
717.186	13469.53
717.53	13470.44
717.873	13544.56
718.216	13420.27
718.559	13399.25
718.902	13328.75
719.246	13428.63
719.589	13375.52
719.932	13358.58
720.275	13316.99
720.617	13352.47
720.96	13388.86
721.303	13364
721.646	13412.13
721.989	13220.5
722.331	13338.46
722.674	13251.23
723.016	13247.62
723.359	13233.38
723.701	13363.77
724.044	13288.97
724.386	13159.03
724.729	13262.08
725.071	13199.03
725.413	13285.13
725.755	13164.23
726.097	13192.93
726.439	13157.68
726.782	13136.89
727.124	13259.82
727.465	13097.79
727.807	13080.62
728.149	13182.31
728.491	13127.62
728.833	13119.03
729.175	13160.61
729.516	13074.51
729.858	13105.7
730.199	13196.77
730.541	13093.72
730.882	13020.73
731.224	13179.14
731.565	13027.96
731.906	13095.76
732.248	13166.49
732.589	13092.37
732.93	13104.12
733.271	13128.3
733.612	13083.55
733.953	13249.2
734.294	13096.21
734.635	13139.82
734.976	13118.81
735.317	13135.53
735.658	13054.18
735.999	13081.97
736.339	13219.37
736.68	13202.65
737.021	13197.45
737.361	13140.95
737.702	13237
738.042	13262.53
738.383	13329.65
738.723	13309.76
739.063	13275.64
739.404	13316.54
739.744	13324.23
740.084	13211.01
740.424	13338.91
740.764	13371.46
741.104	13427.05
741.444	13360.84
741.784	13450.78
742.124	13440.61
742.464	13392.7
742.804	13469.31
743.143	13447.84
743.483	13548.63
743.823	13502.07
744.162	13490.78
744.502	13541.85
744.841	13451.91
745.181	13613.48
745.52	13547.95
745.86	13619.13
746.199	13647.38
746.538	13591.34
746.877	13694.84
747.216	13706.59
747.556	13767.6
747.895	13734.84
748.234	13685.12
748.573	13713.82
748.911	13767.83
749.25	13766.93
749.589	13750.88
749.928	13835.62
750.267	13837.21
750.605	13833.14
750.944	13847.15
751.283	13918.79
751.621	13958.33
751.96	13871.56
752.298	13954.27
752.636	13925.57
752.975	13901.61
753.313	13949.29
753.651	14078.56
753.989	14084.43
754.327	14124.43
754.666	14063.19
755.004	14071.32
755.342	14155.16
755.679	14116.3
756.017	14100.7
756.355	14147.71
756.693	14163.98
757.031	14205.56
757.368	14202.39
757.706	14231.55
758.044	14255.27
758.381	14288.49
758.719	14184.09
759.056	14288.72
759.394	14286.46
759.731	14216.63
760.068	14296.63
760.405	14252.79
760.743	14310.87
761.08	14327.82
761.417	14310.64
761.754	14375.72
762.091	14389.06
762.428	14363.29
762.765	14361.03
763.102	14460.24
763.438	14396.74
763.775	14414.59
764.112	14438.09
764.449	14380.47
764.785	14359.23
765.122	14332.34
765.458	14353.35
765.795	14392.45
766.131	14397.64
766.467	14373.69
766.804	14379.34
767.14	14385.89
767.476	14368.49
767.812	14357.65
768.148	14436.29
768.485	14345.67
768.821	14285.56
769.157	14359
769.492	14393.8
769.828	14316.06
770.164	14284.88
770.5	14445.33
770.836	14273.81
771.171	14313.35
771.507	14338.44
771.842	14254.82
772.178	14338.66
772.513	14389.51
772.849	14227.7
773.184	14245.56
773.519	14302.05
773.855	14258.44
774.19	14227.25
774.525	14175.28
774.86	14237.42
775.195	14276.52
775.53	14239.23
775.865	14194.03
776.2	14128.5
776.535	14095.28
776.87	14092.34
777.205	14000.14
777.539	14037.43
777.874	14091.66
778.209	14023.19
778.543	14174.37
778.878	14037.65
779.212	14044.21
779.547	13941.16
779.881	14038.33
780.215	13966.92
780.55	14077.2
780.884	13927.37
781.218	13931.67
781.552	13960.82
781.886	13895.28
782.22	13903.42
782.554	13837.21
782.888	13799.47
783.222	13868.39
783.556	13797.66
783.889	13811.22
784.223	13682.18
784.557	13717.89
784.89	13774.84
785.224	13718.57
785.557	13663.65
785.891	13651.45
786.224	13621.85
786.558	13695.97
786.891	13647.83
787.224	13592.92
787.557	13616.2
787.891	13643.31
788.224	13625.01
788.557	13565.12
788.89	13545.92
789.223	13619.36
789.556	13476.31
789.888	13462.75
790.221	13458.91
790.554	13467.72
790.887	13432.92
791.219	13399.7
791.552	13341.4
791.884	13276.54
792.217	13406.71
792.549	13371
792.882	13213.04
793.214	13265.92
793.546	13260.5
793.879	13158.13
794.211	13151.12
794.543	13251.46
794.875	13176.66
795.207	13262.76
795.539	13225.25
795.871	13152.93
796.203	13055.08
796.535	13061.86
796.867	13082.65
797.198	12992.48
797.53	13058.92
797.862	13044.46
798.193	12993.39
798.525	12917.46
798.856	13019.83
799.188	12852.37
799.519	12854.41
799.85	12822.77
800.182	12833.62
800.513	12804.69
800.844	12820.51
801.175	12808.31
801.506	12777.35
801.837	12739.38
802.168	12677.92
802.499	12729.44
802.83	12653.06
803.161	12613.06
803.491	12680.85
803.822	12626.62
804.153	12583.23
804.483	12478.82
804.814	12466.17
805.145	12508.65
805.475	12521.08
805.805	12451.93
806.136	12485.15
806.466	12522.44
806.796	12444.02
807.126	12374.19
807.457	12383.91
807.787	12385.04
808.117	12330.81
808.447	12315.89
808.777	12356.34
809.107	12351.82
809.436	12202.67
809.766	12282.45
810.096	12235.44
810.426	12168.78
810.755	12183.69
811.085	12113.18
811.414	12158.61
811.744	12126.97
812.073	12102.11
812.403	12121.09
812.732	12019.63
813.061	12086.07
813.39	11966.52
813.719	11939.86
814.049	12063.47
814.378	11971.72
814.707	11942.34
815.036	11916.58
815.365	11906.86
815.693	11776.47
816.022	11776.47
816.351	11727.21
816.68	11692.4
817.008	11772.4
817.337	11692.4
817.665	11696.7
817.994	11830.71
818.322	11732.18
818.651	11647.66
818.979	11614.21
819.307	11698.73
819.636	11684.95
819.964	11588.9
820.292	11663.93
820.62	11650.6
820.948	11656.25
821.276	11692.63
821.604	11574.89
821.932	11635.91
822.259	11680.43
822.587	11684.27
822.915	11678.62
823.243	11673.65
823.57	11630.03
823.898	11650.6
824.225	11619.86
824.553	11623.03
824.88	11638.62
825.207	11660.99
825.535	11693.53
825.862	11743.48
826.189	11700.31
826.516	11695.34
826.843	11742.12
827.17	11740.99
827.497	11785.74
827.824	11748.22
828.151	11774.89
828.478	11694.21
828.805	11787.77
829.131	11726.08
829.458	11763.14
829.785	11726.08
830.111	11709.58
830.438	11755.45
830.764	11782.57
831.09	11749.58
831.417	11749.58
831.743	11753.42
832.069	11750.26
832.395	11701.22
832.722	11787.09
833.048	11716.58
833.374	11665.06
833.7	11693.08
834.026	11620.32
834.351	11684.5
834.677	11711.61
835.003	11782.8
835.329	11693.08
835.654	11718.17
835.98	11625.06
836.306	11657.83
836.631	11616.02
836.956	11661.22
837.282	11722.69
837.607	11627.1
837.932	11554.33
838.258	11539.64
838.583	11560.2
838.908	11511.17
839.233	11512.07
839.558	11518.17
839.883	11503.93
840.208	11467.78
840.533	11499.64
840.858	11482.01
841.182	11491.51
841.507	11449.92
841.832	11407.89
842.156	11398.63
842.481	11339.19
842.805	11406.76
843.13	11306.65
843.454	11295.8
843.778	11219.42
844.103	11315.69
844.427	11279.31
844.751	11244.51
845.075	11258.52
845.399	11242.47
845.723	11197.73
846.047	11173.55
846.371	11085.64
846.695	11105.08
847.019	11007.45
847.343	10945.53
847.666	10940.11
847.99	10947.57
848.313	10924.06
848.637	10830.28
848.96	10822.14
849.284	10812.43
849.607	10767.91
849.931	10641.13
850.254	10591.42
850.577	10528.82
850.9	10484.75
851.223	10493.11
851.546	10431.87
851.869	10411.53
852.192	10450.4
852.515	10361.82
852.838	10328.37
853.161	10304.19
853.483	10246.34
853.806	10220.13
854.129	10192.33
854.451	10171.31
854.774	10127.47
855.096	10070.3
855.419	10096.51
855.741	10046.12
856.063	10014.71
856.385	9967.48
856.708	9955.73
857.03	9882.73
857.352	9932.68
857.674	9849.06
857.996	9846.35
858.318	9731.78
858.64	9784.21
858.961	9747.37
859.283	9705.56
859.605	9694.04
859.926	9783.53
860.248	9640.03
860.57	9659.92
860.891	9712.8
861.212	9663.08
861.534	9666.92
861.855	9548.51
862.176	9570.65
862.498	9599.8
862.819	9514.16
863.14	9546.7
863.461	9538.79
863.782	9459.92
864.103	9510.09
864.424	9441.39
864.745	9479.36
865.065	9437.1
865.386	9391
865.707	9392.8
866.027	9323.43
866.348	9403.88
866.668	9366.14
866.989	9303.54
867.309	9233.49
867.63	9361.62
867.95	9288.4
868.27	9267.38
868.59	9288.4
868.91	9248.17
869.23	9210.21
869.55	9206.14
869.87	9214.05
870.19	9201.85
870.51	9212.7
870.83	9172.47
871.15	9137.22
871.469	9178.57
871.789	9181.51
872.109	9153.26
872.428	9167.73
872.748	9069.65
873.067	9085.02
873.386	9130.66
873.706	9028.75
874.025	9051.34
874.344	8945.13
874.663	9059.03
874.982	8987.39
875.301	9021.97
875.62	9036.88
875.939	8958.69
876.258	8954.4
876.577	8874.17
876.896	8967.05
877.214	8882.99
877.533	8911.91
877.852	8901.29
878.17	8946.04
878.489	8894.74
878.807	8865.13
879.125	8849.99
879.444	8822.2
879.762	8821.07
880.08	8792.82
880.398	8780.62
880.716	8771.35
881.034	8718.02
881.352	8701.75
881.67	8726.83
881.988	8726.61
882.306	8648.64
882.624	8684.35
882.941	8622.2
883.259	8585.14
883.577	8557.8
883.894	8634.41
884.212	8602.54
884.529	8537.23
884.846	8520.96
885.164	8526.84
885.481	8448.87
885.798	8490
886.115	8408.42
886.432	8427.86
886.75	8430.12
887.067	8416.11
887.383	8368.88
887.7	8359.38
888.017	8403.45
888.334	8364.58
888.651	8281.87
888.967	8285.71
889.284	8198.71
889.6	8240.52
889.917	8242.33
890.233	8255.66
890.55	8180.86
890.866	8164.14
891.182	8175.66
891.498	8119.62
891.815	8081.88
892.131	8073.52
892.447	8055.44
892.763	8034.65
893.079	7991.48
893.395	7976.34
893.71	7968.66
894.026	7934.09
894.342	7936.12
894.657	7869.23
894.973	7789
895.289	7827.65
895.604	7818.16
895.92	7748.55
896.235	7723.02
896.55	7733.19
896.865	7743.81
897.181	7680.98
897.496	7711.72
897.811	7600.99
898.126	7647.54
898.441	7598.95
898.756	7629.01
899.071	7509.69
899.386	7511.95
899.7	7491.84
900.015	7406.42
900.33	7437.38
900.644	7371.39
900.959	7429.69
901.273	7331.62
901.588	7346.53
901.902	7295.91
902.216	7319.41
902.531	7207.32
902.845	7259.53
903.159	7213.43
903.473	7173.43
903.787	7193.54
904.101	7128.68
904.415	7057.95
904.729	7075.35
905.042	7086.2
905.356	7037.61
905.67	7000.32
905.984	6998.97
906.297	6933.66
906.611	6917.84
906.924	6957.61
907.237	6847.11
907.551	6813.89
907.864	6868.58
908.177	6879.65
908.491	6804.62
908.804	6761.23
909.117	6729.15
909.43	6691.63
909.743	6664.74
910.056	6613.67
910.368	6616.15
910.681	6618.87
910.994	6569.38
911.307	6543.61
911.619	6483.5
911.932	6542.48
912.244	6447.57
912.557	6453.9
912.869	6427.23
913.181	6410.06
913.494	6381.81
913.806	6321.7
914.118	6356.05
914.43	6268.59
914.742	6252.32
915.054	6223.4
915.366	6201.02
915.678	6202.38
915.99	6163.28
916.302	6077.86
916.613	6116.96
916.925	6079.9
917.236	6073.34
917.548	6020.24
917.859	6021.82
918.171	6053.23
918.482	5966.91
918.794	5970.52
919.105	5908.6
919.416	5932.56
919.727	5910.18
920.038	5889.85
920.349	5872.9
920.66	5845.78
920.971	5845.33
921.282	5774.37
921.593	5730.08
921.903	5690.3
922.214	5712
922.525	5606.24
922.835	5647.59
923.146	5586.8
923.456	5582.06
923.767	5542.96
924.077	5618.67
924.387	5532.79
924.697	5496.86
925.008	5505
925.318	5511.55
925.628	5433.59
925.938	5396.3
926.248	5404.43
926.558	5422.74
926.867	5393.81
927.177	5338.9
927.487	5321.95
927.796	5271.33
928.106	5265.23
928.416	5259.35
928.725	5248.96
929.034	5227.26
929.344	5161.73
929.653	5218
929.962	5126.48
930.271	5113.59
930.581	5118.57
930.89	5119.92
931.199	5115.63
931.508	5070.43
931.817	5049.42
932.125	5012.13
932.434	5020.26
932.743	4949.98
933.051	4936.2
933.36	4911.34
933.669	4869.08
933.977	4834.96
934.286	4850.78
934.594	4858.01
934.902	4825.01
935.21	4755.64
935.519	4769.65
935.827	4736.88
936.135	4708.86
936.443	4660.27
936.751	4691.68
937.059	4648.52
937.367	4614.85
937.674	4645.36
937.982	4639.93
938.29	4555.87
938.597	4593.61
938.905	4560.61
939.213	4514.51
939.52	4509.99
939.827	4535.3
940.135	4471.58
940.442	4426.38
940.749	4477.45
941.056	4451.69
941.363	4430.22
941.67	4427.74
941.977	4394.97
942.284	4335.76
942.591	4325.59
942.898	4300.96
943.205	4321.52
943.511	4296.21
943.818	4260.28
944.125	4202.43
944.431	4234.52
944.738	4200.4
945.044	4190.68
945.35	4150.46
945.657	4123.34
945.963	4150
946.269	4187.74
946.575	4104.58
946.881	4098.25
947.187	4056.67
947.493	4081.53
947.799	3993.4
948.105	4015.32
948.41	3975.77
948.716	3971.03
949.022	3977.13
949.327	3958.14
949.633	3954.98
949.938	3933.06
950.244	3927.41
950.549	3907.52
950.854	3873.4
951.16	3890.58
951.465	3831.82
951.77	3775.1
952.075	3799.05
952.38	3802.89
952.685	3760.64
952.99	3760.41
953.294	3791.14
953.599	3725.61
953.904	3722.67
954.209	3700.98
954.513	3667.98
954.818	3637.93
955.122	3670.69
955.426	3661.88
955.731	3612.62
956.035	3616.01
956.339	3585.95
956.643	3602.22
956.948	3589.34
957.252	3552.73
957.556	3544.6
957.86	3506.4
958.163	3484.71
958.467	3500.08
958.771	3494.2
959.075	3495.33
959.378	3411.27
959.682	3420.53
959.985	3389.12
960.289	3393.41
960.592	3379.4
960.896	3369.01
961.199	3339.18
961.502	3320.65
961.805	3279.74
962.108	3335.11
962.411	3276.13
962.714	3276.13
963.017	3311.83
963.32	3294.66
963.623	3230.03
963.926	3235.68
964.228	3219.41
964.531	3190.48
964.833	3167.43
965.136	3144.38
965.438	3154.55
965.741	3192.74
966.043	3133.08
966.345	3078.62
966.648	3108.45
966.95	3091.5
967.252	3063.7
967.554	3079.75
967.856	3049.24
968.158	3044.72
968.46	3035.91
968.761	3050.15
969.063	2984.38
969.365	3007.66
969.666	2964.5
969.968	2901
970.269	2950.26
970.571	2959.53
970.872	2921.56
971.174	2895.35
971.475	2915.91
971.776	2893.77
972.077	2850.6
972.378	2811.06
972.679	2873.88
972.98	2812.41
973.281	2821.68
973.582	2819.19
973.883	2828.68
974.183	2822.13
974.484	2826.65
974.785	2779.87
975.085	2727.89
975.386	2733.32
975.686	2777.38
975.986	2715.47
976.287	2710.95
976.587	2716.37
976.887	2695.35
977.187	2698.52
977.487	2666.65
977.787	2662.13
978.087	2626.43
978.387	2660.33
978.687	2615.35
978.987	2581.91
979.286	2617.16
979.586	2627.33
979.885	2543.72
980.185	2553.44
980.484	2548.92
980.784	2526.32
981.083	2556.83
981.382	2528.13
981.682	2539.2
981.981	2513.44
982.28	2473.66
982.579	2461.46
982.878	2477.28
983.177	2505.98
983.475	2432.53
983.774	2426.21
984.073	2438.18
984.372	2413.1
984.67	2401.35
984.969	2392.99
985.267	2396.83
985.566	2395.93
985.864	2383.27
986.162	2386.43
986.461	2347.11
986.759	2349.15
987.057	2315.02
987.355	2298.75
987.653	2318.64
987.951	2283.61
988.249	2298.3
988.547	2281.8
988.844	2283.39
989.142	2246.1
989.44	2232.09
989.737	2275.25
990.035	2239.32
990.332	2235.7
990.63	2225.76
990.927	2218.53
991.224	2211.75
991.521	2180.11
991.819	2170.17
992.116	2147.12
992.413	2122.49
992.71	2177.85
993.006	2156.16
993.303	2127.91
993.6	2127.23
993.897	2094.69
994.193	2100.79
994.49	2057.4
994.787	2057.63
995.083	2070.51
995.379	2051.53
995.676	2038.87
995.972	2027.8
996.268	2016.95
996.565	1996.16
996.861	2021.47
997.157	1981.47
997.453	2015.14
997.749	1975.82
998.044	1952.77
998.34	1963.17
998.636	1962.26
998.932	1950.29
999.227	1937.86
999.523	1890.4
999.818	1913.9
1000.114	1901.25
1000.409	1905.32
1000.704	1884.53
1001	1861.7
1001.295	1880.91
1001.59	1856.5
1001.885	1871.87
1002.18	1846.34
1002.475	1811.08
1002.77	1826.45
1003.065	1830.52
1003.359	1799.56
1003.654	1764.08
1003.949	1786.9
1004.243	1781.48
1004.538	1749.62
1004.832	1765.66
1005.127	1748.49
1005.421	1731.54
1005.715	1722.27
1006.009	1716.85
1006.304	1731.99
1006.598	1696.51
1006.892	1673.01
1007.186	1695.15
1007.48	1661.93
1007.773	1666.68
1008.067	1646.34
1008.361	1636.62
1008.655	1633.01
1008.948	1615.38
1009.242	1610.41
1009.535	1624.19
1009.829	1588.72
1010.122	1577.19
1010.415	1590.98
1010.708	1576.29
1011.001	1567.7
1011.295	1552.33
1011.588	1530.19
1011.881	1527.93
1012.173	1548.72
1012.466	1522.5
1012.759	1499.9
1013.052	1518.43
1013.344	1508.04
1013.637	1487.48
1013.93	1467.59
1014.222	1484.99
1014.514	1430.75
1014.807	1468.27
1015.099	1464.88
1015.391	1446.8
1015.683	1450.64
1015.976	1426.46
1016.268	1410.87
1016.56	1394.82
1016.851	1400.7
1017.143	1398.44
1017.435	1353.92
1017.727	1386.69
1018.018	1371.55
1018.31	1371.55
1018.602	1342.17
1018.893	1329.06
1019.185	1322.73
1019.476	1328.61
1019.767	1307.37
1020.058	1317.08
1020.35	1294.49
1020.641	1287.03
1020.932	1274.6
1021.223	1285.45
1021.514	1266.92
1021.804	1266.92
1022.095	1209.74
1022.386	1251.32
1022.677	1218.1
1022.967	1226.24
1023.258	1217.88
1023.548	1225.34
1023.839	1224.43
1024.129	1200.25
1024.419	1187.37
1024.709	1166.35
1025	1166.58
1025.29	1156.86
1025.58	1149.63
1025.87	1145.56
1026.16	1150.08
1026.449	1127.26
1026.739	1138.11
1027.029	1100.82
1027.319	1101.27
1027.608	1097.2
1027.898	1106.92
1028.187	1093.14
1028.477	1064.89
1028.766	1083.42
1029.055	1067.83
1029.344	1064.44
1029.634	1078.67
1029.923	1044.77
1030.212	1034.83
1030.501	1075.06
1030.79	1037.09
1031.078	1031.89
1031.367	1020.14
1031.656	1019.24
1031.945	1014.95
1032.233	979.92
1032.522	1009.97
1032.81	974.49
1033.099	975.85
1033.387	970.2
1033.675	982.63
1033.963	977.66
1034.251	941.05
1034.54	959.35
1034.828	969.97
1035.116	917.77
1035.403	911.9
1035.691	930.88
1035.979	922.97
1036.267	904.21
1036.554	895.85
1036.842	895.17
1037.129	923.65
1037.417	890.88
1037.704	907.6
1037.992	895.4
1038.279	869.64
1038.566	883.42
1038.853	883.42
1039.14	883.42
