Data from blue_clamp_base_FLMS001491_00013.txt Node
Date: Wed Feb 08 15:15:37 GMT 2017
User: dcchb
Spectrometer: FLMS00149
Trigger mode: 0
Integration Time (sec): 2.000000E-2
Scans to average: 10
Electric dark correction enabled: true
Nonlinearity correction enabled: false
Boxcar width: 0
XAxis mode: Wavelengths
Number of Pixels in Spectrum: 2048
>>>>>Begin Spectral Data<<<<<
341.393	-4.86
341.776	-4.86
342.16	-4.86
342.543	-53.9
342.927	-75.82
343.31	-62.71
343.693	-61.35
344.077	-52.77
344.46	-73.78
344.843	-51.41
345.226	-58.42
345.61	-23.84
345.993	-27.68
346.376	9.6
346.759	22.26
347.142	22.71
347.525	51.19
347.908	64.74
348.291	54.35
348.674	75.37
349.057	111.75
349.44	126.66
349.823	136.61
350.206	176.83
350.588	187.9
350.971	216.38
351.354	212.54
351.737	235.81
352.119	259.32
352.502	276.72
352.884	268.35
353.267	291.18
353.65	269.71
354.032	297.28
354.414	297.73
354.797	318.97
355.179	305.19
355.562	306.77
355.944	342.7
356.326	316.94
356.709	345.41
357.091	316.71
357.473	340.89
357.855	332.76
358.238	350.16
358.62	347.22
359.002	346.09
359.384	330.73
359.766	353.55
360.148	335.02
360.53	331.86
360.912	344.51
361.294	330.95
361.676	303.61
362.057	337.51
362.439	337.28
362.821	330.27
363.203	322.82
363.584	317.62
363.966	314.23
364.348	339.31
364.729	315.13
365.111	325.3
365.493	343.38
365.874	314.23
366.256	314.23
366.637	319.65
367.019	305.19
367.4	299.54
367.781	315.58
368.163	308.81
368.544	309.94
368.925	320.33
369.306	332.76
369.688	325.08
370.069	308.13
370.45	323.04
370.831	329.14
371.212	316.04
371.593	324.85
371.974	320.78
372.355	321.23
372.736	321.69
373.117	316.26
373.498	313.1
373.879	326.43
374.26	325.98
374.641	314
375.021	321.23
375.402	326.43
375.783	337.51
376.163	330.5
376.544	357.62
376.925	336.38
377.305	346.54
377.686	335.92
378.066	328.01
378.447	344.51
378.827	350.61
379.208	348.58
379.588	351.52
379.968	354
380.349	347
380.729	355.13
381.109	343.61
381.489	344.51
381.87	356.26
382.25	369.59
382.63	362.36
383.01	372.08
383.39	350.61
383.77	359.43
384.15	360.78
384.53	369.59
384.91	369.82
385.29	371.4
385.67	342.93
386.049	357.62
386.429	384.96
386.809	369.59
387.189	360.1
387.568	374.57
387.948	393.55
388.328	379.99
388.707	375.47
389.087	395.13
389.466	387.45
389.846	384.96
390.225	398.52
390.605	396.71
390.984	404.85
391.363	434.45
391.743	428.58
392.122	430.61
392.501	424.06
392.881	426.77
393.26	413.21
393.639	436.03
394.018	433.55
394.397	409.59
394.776	439.88
395.155	444.85
395.534	459.08
395.913	445.75
396.292	459.76
396.671	460.21
397.05	483.72
397.429	471.29
397.808	482.59
398.186	498.63
398.565	477.61
398.944	475.81
399.323	483.72
399.701	508.35
400.08	497.5
400.458	502.25
400.837	499.99
401.215	485.52
401.594	525.07
401.972	531.85
402.351	543.83
402.729	528.46
403.107	541.34
403.486	530.72
403.864	553.09
404.242	562.36
404.62	565.97
404.999	558.06
405.377	551.51
405.755	577.95
406.133	594.67
406.511	591.74
406.889	609.81
407.267	609.81
407.645	626.99
408.023	610.27
408.401	651.4
408.779	633.32
409.156	657.95
409.534	638.51
409.912	644.84
410.29	681.45
410.667	671.28
411.045	705.41
411.422	674.9
411.8	716.93
412.178	713.09
412.555	706.76
412.933	715.57
413.31	735.46
413.687	740.88
414.065	718.51
414.442	775.69
414.819	746.76
415.197	765.52
415.574	791.28
415.951	788.34
416.328	789.7
416.705	792.41
417.082	776.59
417.46	810.26
417.837	831.05
418.214	835.57
418.591	854.78
418.967	831.5
419.344	834.44
419.721	851.84
420.098	859.75
420.475	871.05
420.852	866.76
421.228	899.52
421.605	916.47
421.982	940.88
422.358	920.99
422.735	931.16
423.111	948.34
423.488	931.16
423.864	957.15
424.241	944.72
424.617	988.79
424.994	968.45
425.37	991.27
425.746	995.12
426.123	1016.36
426.499	1008.67
426.875	1030.37
427.251	1041.44
427.627	1077.37
428.003	1094.55
428.379	1092.29
428.756	1101.1
429.132	1139.97
429.507	1106.52
429.883	1147.88
430.259	1188.78
430.635	1182.23
431.011	1204.83
431.387	1197.14
431.763	1239.18
432.138	1236.92
432.514	1286.41
432.89	1245.5
433.265	1293.64
433.641	1294.99
434.016	1319.85
434.392	1328.44
434.767	1361.66
435.143	1374.99
435.518	1383.35
435.894	1411.15
436.269	1415.67
436.644	1429
437.02	1446.63
437.395	1456.12
437.77	1499.96
438.145	1509.9
438.52	1492.5
438.895	1526.17
439.271	1541.32
439.646	1589.9
440.021	1575.21
440.395	1600.07
440.77	1565.5
441.145	1601.88
441.52	1655.44
441.895	1617.7
442.27	1639.62
442.645	1672.39
443.019	1689.33
443.394	1704.93
443.769	1718.26
444.143	1718.26
444.518	1716.68
444.892	1731.59
445.267	1709.67
445.641	1786.51
446.016	1765.49
446.39	1785.38
446.764	1844.36
447.139	1815.21
447.513	1838.48
447.887	1860.18
448.262	1878.26
448.636	1886.17
449.01	1885.26
449.384	1909.22
449.758	1926.16
450.132	1952.83
450.506	1942.89
450.88	1977.69
451.254	1984.92
451.628	2003
452.002	2029.66
452.376	2043.45
452.75	2063.79
453.123	2045.93
453.497	2108.53
453.871	2139.94
454.244	2161.41
454.618	2191.92
454.992	2207.96
455.365	2192.15
455.739	2253.39
456.112	2282.99
456.486	2296.78
456.859	2331.58
457.232	2343.33
457.606	2351.92
457.979	2437.79
458.352	2454.51
458.725	2457.22
459.099	2472.36
459.472	2549.65
459.845	2555.98
460.218	2546.49
460.591	2595.98
460.964	2612.25
461.337	2664
461.71	2707.39
462.083	2768.18
462.456	2718.01
462.829	2793.94
463.201	2789.42
463.574	2832.58
463.947	2833.94
464.32	2911.67
464.692	2915.97
465.065	2924.78
465.438	3009.53
465.81	3022.41
466.183	3005.23
466.555	3095.17
466.928	3085.68
467.3	3066.02
467.672	3175.85
468.045	3260.82
468.417	3231.67
468.789	3300.14
469.161	3319.57
469.534	3341.49
469.906	3425.79
470.278	3420.59
470.65	3466.46
471.022	3539.23
471.394	3576.06
471.766	3601.6
472.138	3619.68
472.51	3686.57
472.882	3750.3
473.253	3798.88
473.625	3805.89
473.997	3906.22
474.369	3924.08
474.74	3950.97
475.112	4009.95
475.484	4075.26
475.855	4156.61
476.227	4205.43
476.598	4258.76
476.97	4309.15
477.341	4336.27
477.713	4471.86
478.084	4432.09
478.455	4521.8
478.827	4601.35
479.198	4711.85
479.569	4709.59
479.94	4799.08
480.311	4828.01
480.682	4933.54
481.053	5023.26
481.424	5098.51
481.795	5129.92
482.166	5213.99
482.537	5288.11
482.908	5353.19
483.279	5362.01
483.65	5436.13
484.021	5541.66
484.391	5592.96
484.762	5640.64
485.133	5642.22
485.503	5734.88
485.874	5822.56
486.244	5836.8
486.615	5932.39
486.985	6033.63
487.356	6069.56
487.726	6065.26
488.097	6208.09
488.467	6219.16
488.837	6336.9
489.207	6335.77
489.578	6428.64
489.948	6457.57
490.318	6584.35
490.688	6547.51
491.058	6668.41
491.428	6727.39
491.798	6754.96
492.168	6839.26
492.538	6870.89
492.908	6905.47
493.278	6956.54
493.648	6980.27
494.017	7025.24
494.387	7142.3
494.757	7155.63
495.126	7222.07
495.496	7103.2
495.866	7198.12
496.235	7302.97
496.605	7288.96
496.974	7330.09
497.344	7416.19
497.713	7412.57
498.082	7425.45
498.452	7472.91
498.821	7491.44
499.19	7527.37
499.559	7609.63
499.928	7624.32
500.298	7622.96
500.667	7664.77
501.036	7700.25
501.405	7718.55
501.774	7691.21
502.143	7802.39
502.512	7730.98
502.88	7856.18
503.249	7856.86
503.618	7851.43
503.987	7878.32
504.356	8000.81
504.724	7953.35
505.093	8043.74
505.462	8026.79
505.83	8026.34
506.199	8065.44
506.567	8171.88
506.936	8189.5
507.304	8155.15
507.672	8243.29
508.041	8265.66
508.409	8248.26
508.777	8367.8
509.145	8352.89
509.514	8360.35
509.882	8436.28
510.25	8431.98
510.618	8443.96
510.986	8434.69
511.354	8556.05
511.722	8618.42
512.09	8641.69
512.458	8554.24
512.826	8629.26
513.193	8703.16
513.561	8673.11
513.929	8749.49
514.297	8818.41
514.664	8810.28
515.032	8863.16
515.4	8839.43
515.767	8896.6
516.135	8893.21
516.502	8872.2
516.869	9055.92
517.237	9014.11
517.604	9089.59
517.972	9078.52
518.339	9160.55
518.706	9146.54
519.073	9146.31
519.44	9154
519.808	9254.11
520.175	9261.34
520.542	9350.38
520.909	9316.48
521.276	9273.54
521.643	9434.44
522.009	9478.73
522.376	9545.62
522.743	9581.1
523.11	9661.1
523.477	9700.87
523.843	9726.86
524.21	9807.09
524.577	9831.94
524.943	9878.5
525.31	9845.5
525.676	9965.95
526.043	10038.72
526.409	10025.16
526.776	10092.95
527.142	10145.83
527.508	10150.13
527.874	10248.88
528.241	10232.84
528.607	10293.4
528.973	10402.1
529.339	10322.1
529.705	10448.65
530.071	10459.05
530.437	10530.91
530.803	10522.55
531.169	10641.42
531.535	10631.02
531.901	10676.22
532.267	10663.79
532.632	10784.01
532.998	10840.73
533.364	10855.87
533.73	10847.51
534.095	10904.91
534.461	10957.34
534.826	11083.66
535.192	11005.93
535.557	11011.12
535.923	11012.25
536.288	11073.95
536.653	11188.97
537.019	11144.23
537.384	11123.66
537.749	11248.4
538.114	11262.64
538.479	11301.51
538.845	11327.5
539.21	11296.77
539.575	11417.44
539.94	11386.03
540.305	11430.55
540.67	11429.64
541.034	11463.77
541.399	11488.17
541.764	11548.96
542.129	11618.34
542.494	11560.26
542.858	11649.3
543.223	11638
543.587	11732.23
543.952	11649.98
544.316	11732.46
544.681	11693.14
545.045	11834.38
545.41	11832.57
545.774	11866.69
546.138	11818.56
546.503	11813.36
546.867	11896.3
547.231	11917.77
547.595	12011.32
547.959	12025.79
548.324	12025.11
548.688	11992.11
549.052	12094.26
549.416	12066.01
549.779	12034.6
550.143	12105.56
550.507	12169.96
550.871	12237.08
551.235	12176.29
551.599	12264.42
551.962	12255.84
552.326	12383.06
552.689	12336.74
553.053	12295.83
553.417	12355.72
553.78	12478.43
554.143	12407.47
554.507	12511.65
554.87	12547.81
555.234	12629.61
555.597	12503.74
555.96	12621.93
556.323	12658.54
556.686	12676.16
557.05	12738.99
557.413	12736.28
557.776	12714.35
558.139	12839.1
558.502	12784.86
558.865	12861.7
559.228	12958.64
559.59	12940.79
559.953	13008.81
560.316	13121.8
560.679	13124.29
561.041	13228.92
561.404	13265.07
561.767	13278.63
562.129	13209.26
562.492	13359.31
562.854	13405.64
563.217	13346.88
563.579	13403.83
563.941	13472.3
564.304	13521.11
564.666	13574.22
565.028	13642.69
565.39	13651.73
565.753	13675.01
566.115	13659.64
566.477	13750.94
566.839	13813.54
567.201	13992.29
567.563	13901.67
567.925	14029.8
568.287	13968.56
568.648	14043.59
569.01	14053.98
569.372	14204.94
569.734	14145.5
570.095	14272.96
570.457	14312.73
570.819	14461.2
571.18	14414.88
571.542	14518.38
571.903	14523.8
572.265	14547.75
572.626	14578.26
572.987	14586.85
573.349	14641.08
573.71	14694.87
574.071	14803.11
574.432	14762.89
574.794	14898.03
575.155	14906.39
575.516	14877.24
575.877	14940.51
576.238	15003.33
576.599	14980.51
576.96	15041.3
577.32	15011.24
577.681	15185.02
578.042	15123.11
578.403	15156.1
578.763	15288.07
579.124	15277.45
579.485	15281.97
579.845	15388.41
580.206	15287.39
580.566	15311.57
580.927	15322.42
581.287	15448.97
581.648	15357.9
582.008	15383.89
582.368	15363.1
582.728	15450.33
583.089	15449.42
583.449	15452.81
583.809	15537.33
584.169	15558.8
584.529	15453.94
584.889	15578.46
585.249	15479.71
585.609	15473.83
585.969	15633.6
586.329	15524
586.688	15602.87
587.048	15632.92
587.408	15597.67
587.768	15680.6
588.127	15610.1
588.487	15627.05
588.846	15711.79
589.206	15687.61
589.565	15678.57
589.925	15787.72
590.284	15665.24
590.643	15720.15
591.003	15862.29
591.362	15820.04
591.721	15769.42
592.08	15837.44
592.44	15876.08
592.799	15828.4
593.158	15890.32
593.517	15842.41
593.876	15904.33
594.235	15842.86
594.593	15893.71
594.952	15847.15
595.311	15800.83
595.67	15813.93
596.029	16000.37
596.387	15967.15
596.746	15929.64
597.104	15928.06
597.463	15896.19
597.822	16048.5
598.18	15904.1
598.538	15922.86
598.897	16042.18
599.255	15931.67
599.613	16072.91
599.972	16043.98
600.33	16086.92
600.688	16002.18
601.046	16093.7
601.404	16178.44
601.762	16113.14
602.12	16210.31
602.478	16196.52
602.836	16219.57
603.194	16132.57
603.552	16141.38
603.91	16108.16
604.268	16208.95
604.625	16126.69
604.983	16114.94
605.341	16064.32
605.698	16192.23
606.056	16323.75
606.413	16245.56
606.771	16396.52
607.128	16338.67
607.485	16171.89
607.843	16258.67
608.2	16383.64
608.557	16416.18
608.914	16334.15
609.272	16558.1
609.629	16526.01
609.986	16523.97
610.343	16448.49
610.7	16521.03
611.057	16645.1
611.414	16564.2
611.771	16589.28
612.127	16578.21
612.484	16653.91
612.841	16640.58
613.198	16521.71
613.554	16642.39
613.911	16773.91
614.267	16728.71
614.624	16703.85
614.98	16780.69
615.337	16880.57
615.693	16806.9
616.05	16780.01
616.406	16807.58
616.762	16804.64
617.118	16869.73
617.475	16886.9
617.831	16923.96
618.187	16996.95
618.543	16895.04
618.899	17078.99
619.255	17009.84
619.611	17012.55
619.967	17076.73
620.323	17060.68
620.678	17046.22
621.034	17064.52
621.39	17064.75
621.746	17041.47
622.101	17306.78
622.457	17068.14
622.812	17127.8
623.168	17093
623.523	17130.51
623.879	17281.69
624.234	17163.73
624.589	17294.57
624.945	17270.39
625.3	17265.87
625.655	17233.56
626.01	17253.67
626.365	17311.75
626.72	17329.83
627.075	17339.54
627.43	17343.39
627.785	17445.53
628.14	17345.42
628.495	17397.85
628.85	17392.65
629.205	17315.82
629.559	17420.9
629.914	17404.4
630.269	17429.49
630.623	17354.23
630.978	17433.33
631.332	17565.75
631.687	17584.51
632.041	17462.48
632.396	17581.12
632.75	17492.53
633.104	17492.99
633.459	17471.74
633.813	17474
634.167	17450.28
634.521	17512.87
634.875	17505.19
635.229	17507
635.583	17525.98
635.937	17450.5
636.291	17455.7
636.645	17513.78
636.999	17540.22
637.352	17603.72
637.706	17473.55
638.06	17538.41
638.413	17649.14
638.767	17547.67
639.121	17601.23
639.474	17529.37
639.828	17624.73
640.181	17566.66
640.534	17573.21
640.888	17612.53
641.241	17533.21
641.594	17531.4
641.947	17650.04
642.301	17580.22
642.654	17666.09
643.007	17627.45
643.36	17590.61
643.713	17676.94
644.066	17683.49
644.419	17663.83
644.771	17525.75
645.124	17453.44
645.477	17362.37
645.83	17359.66
646.182	17298.87
646.535	17244.41
646.888	17272.43
647.24	17241.24
647.593	17241.47
647.945	17204.86
648.298	17253.9
648.65	17157.63
649.002	17205.08
649.355	17259.09
649.707	17337.51
650.059	17365.98
650.411	17562.59
650.763	17676.03
651.115	17789.48
651.467	17798.97
651.819	17770.95
652.171	17856.82
652.523	17822.24
652.875	17782.7
653.227	17761.91
653.578	17908.12
653.93	17858.63
654.282	17819.31
654.633	17904.27
654.985	17873.32
655.337	17890.49
655.688	18016.14
656.039	18001.9
656.391	17816.82
656.742	17828.57
657.094	17838.06
657.445	17937.27
657.796	17880.77
658.147	17817.72
658.498	17960.77
658.849	17971.62
659.2	17817.95
659.551	17836.48
659.902	18043.93
660.253	17888.23
660.604	17954.44
660.955	17843.26
661.306	18006.42
661.656	17892.98
662.007	18031.73
662.358	17948.34
662.708	17963.26
663.059	17983.59
663.409	17801.9
663.76	17973.2
664.11	18014.1
664.461	18003.26
664.811	17983.59
665.161	17953.31
665.511	18043.25
665.862	18077.38
666.212	17986.08
666.562	18077.38
666.912	18006.19
667.262	18026.31
667.612	18025.85
667.962	17993.09
668.312	17938.62
668.662	18038.06
669.011	17932.07
669.361	17892.07
669.711	17940.88
670.06	17892.3
670.41	17842.58
670.76	17725.52
671.109	17768.69
671.459	17834.22
671.808	17659.99
672.157	17754
672.507	17670.61
672.856	17694.79
673.205	17687.56
673.554	17745.86
673.904	17609.82
674.253	17747.22
674.602	17674.9
674.951	17422.93
675.3	17268.36
675.649	17594.23
675.998	17598.75
676.346	17508.35
676.695	17518.75
677.044	17475.81
677.393	17520.1
677.741	17451.86
678.09	17380.67
678.438	17358.07
678.787	17335.48
679.135	17260
679.484	17290.51
679.832	17292.54
680.181	17119.21
680.529	17190.62
680.877	17120.57
681.225	17031.76
681.573	17191.53
681.922	17042.83
682.27	17081.7
682.618	17019.55
682.966	16999.67
683.314	16959.44
683.661	16833.12
684.009	16810.52
684.357	16819.11
684.705	16706.57
685.053	16805.55
685.4	16744.08
685.748	16732.55
686.095	16653.46
686.443	16637.19
686.79	16591.32
687.138	16588.83
687.485	16576.4
687.832	16511.54
688.18	16506.8
688.527	16444.2
688.874	16423.86
689.221	16465.22
689.568	16393.35
689.915	16406.69
690.262	16347.93
690.609	16258.44
690.956	16319.01
691.303	16381.38
691.65	16149.52
691.997	16140.48
692.344	16040.82
692.69	16108.16
693.037	16074.27
693.383	15996.75
693.73	16064.55
694.077	15963.31
694.423	16008.05
694.769	15949.07
695.116	15835.4
695.462	15843.54
695.808	15875.18
696.155	15957.89
696.501	15728.51
696.847	15854.61
697.193	15707.04
697.539	15772.81
697.885	15661.85
698.231	15666.82
698.577	15683.77
698.923	15712.24
699.269	15609.19
699.614	15567.16
699.96	15604.9
700.306	15518.12
700.651	15526.26
700.997	15486.49
701.342	15387.51
701.688	15519.48
702.033	15438.35
702.379	15450.78
702.724	15350.67
703.069	15502.08
703.415	15226.61
703.76	15281.52
704.105	15272.25
704.45	15230.67
704.795	15203.78
705.14	15289.65
705.485	15195.42
705.83	15166.72
706.175	15125.14
706.52	15187.74
706.865	14996.55
707.209	15081.75
707.554	15030
707.899	15068.87
708.243	15051.24
708.588	15031.58
708.932	15049.21
709.277	14963.34
709.621	14938.25
709.966	14726.05
710.31	14882.66
710.654	14783.45
710.998	14807.86
711.342	14900.51
711.687	14840.63
712.031	14814.19
712.375	14793.85
712.719	14823
713.063	14800.18
713.407	14807.86
713.75	14706.62
714.094	14766.28
714.438	14742.55
714.782	14726.51
715.125	14656
715.469	14646.06
715.812	14687.86
716.156	14616.9
716.499	14579.84
716.843	14564.48
717.186	14561.31
717.53	14665.04
717.873	14588.88
718.216	14609.67
718.559	14508.21
718.902	14404.03
719.246	14531.48
719.589	14494.2
719.932	14451.26
720.275	14458.94
720.617	14470.69
720.96	14467.98
721.303	14432.05
721.646	14449.9
721.989	14346.18
722.331	14476.57
722.674	14383.01
723.016	14445.16
723.359	14390.02
723.701	14419.85
724.044	14384.14
724.386	14301.66
724.729	14367.64
725.071	14306.86
725.413	14323.35
725.755	14284.03
726.097	14236.57
726.439	14171.94
726.782	14182.34
727.124	14352.28
727.465	14314.09
727.807	14267.99
728.149	14221.21
728.491	14209.46
728.833	14262.56
729.175	14280.42
729.516	14277.48
729.858	14256.69
730.199	14266.4
730.541	14251.04
730.882	14282
731.224	14259.4
731.565	14234.31
731.906	14231.83
732.248	14225.95
732.589	14158.38
732.93	14180.08
733.271	14277.25
733.612	14255.78
733.953	14233.41
734.294	14255.56
734.635	14164.71
734.976	14366.06
735.317	14258.5
735.658	14303.01
735.999	14291.94
736.339	14315.22
736.68	14218.04
737.021	14300.53
737.361	14271.83
737.702	14383.46
738.042	14420.75
738.383	14303.47
738.723	14449.22
739.063	14448.55
739.404	14439.96
739.744	14446.74
740.084	14469.79
740.424	14481.31
740.764	14448.32
741.104	14498.04
741.444	14615.32
741.784	14475.66
742.124	14510.69
742.464	14534.65
742.804	14558.15
743.143	14529
743.483	14577.36
743.823	14555.44
744.162	14617.58
744.502	14604.93
744.841	14648.32
745.181	14676.79
745.52	14702.1
745.86	14729.67
746.199	14668.43
746.538	14792.72
746.877	14867.07
747.216	14760.18
747.556	14863
747.895	14874.52
748.234	14863.23
748.573	14959.49
748.911	14909.33
749.25	14988.87
749.589	14842.66
749.928	14955.43
750.267	15061.19
750.605	15096.44
750.944	15054.41
751.283	15023.9
751.621	15122.88
751.96	15022.54
752.298	15058.02
752.636	15140.96
752.975	15187.96
753.313	15125.14
753.651	15342.76
753.989	15218.92
754.327	15166.72
754.666	15233.16
755.004	15370.33
755.342	15321.52
755.679	15370.56
756.017	15325.59
756.355	15299.15
756.693	15339.82
757.031	15438.13
757.368	15386.83
757.706	15294.63
758.044	15450.78
758.381	15431.57
758.719	15404.68
759.056	15464.79
759.394	15390.67
759.731	15428.63
760.068	15440.16
760.405	15467.28
760.743	15441.29
761.08	15542.98
761.417	15472.02
761.754	15469.54
762.091	15445.36
762.428	15473.6
762.765	15446.71
763.102	15621.85
763.438	15564.9
763.775	15471.12
764.112	15426.6
764.449	15656.65
764.785	15551.34
765.122	15568.07
765.458	15427.5
765.795	15483.55
766.131	15552.47
766.467	15482.64
766.804	15519.03
767.14	15454.62
767.476	15486.94
767.812	15417.33
768.148	15527.84
768.485	15426.83
768.821	15442.19
769.157	15424.11
769.492	15455.98
769.828	15444.45
770.164	15398.8
770.5	15366.71
770.836	15368.75
771.171	15393.15
771.507	15421.63
771.842	15309.99
772.178	15390.67
772.513	15423.44
772.849	15353.83
773.184	15304.12
773.519	15354.06
773.855	15355.64
774.19	15238.81
774.525	15298.02
774.86	15247.4
775.195	15269.32
775.53	15297.34
775.865	15225.02
776.2	15154.06
776.535	15095.99
776.87	15124.46
777.205	15155.42
777.539	15102.99
777.874	15183.22
778.209	14998.36
778.543	15177.34
778.878	15069.32
779.212	15008.53
779.547	14962.21
779.881	15069.1
780.215	15020.28
780.55	15053.95
780.884	14922.43
781.218	14966.95
781.552	14980.28
781.886	14895.99
782.22	14761.08
782.554	14913.85
782.888	14734.87
783.222	14729.9
783.556	14769.89
783.889	14680.18
784.223	14653.51
784.557	14698.03
784.89	14684.7
785.224	14614.42
785.557	14622.78
785.891	14583.91
786.224	14575.1
786.558	14602.44
786.891	14445.38
787.224	14532.84
787.557	14379.85
787.891	14432.73
788.224	14530.13
788.557	14503.69
788.89	14549.79
789.223	14464.14
789.556	14434.31
789.888	14426.4
790.221	14383.24
790.554	14321.09
790.887	14348.89
791.219	14341.88
791.552	14280.42
791.884	14242.9
792.217	14194.99
792.549	14196.12
792.882	14047.43
793.214	14166.52
793.546	14129.91
793.879	13982.12
794.211	14000.87
794.543	14139.18
794.875	14036.58
795.207	14162
795.539	14030.03
795.871	14068.44
796.203	13912.06
796.535	13881.78
796.867	13916.81
797.198	13870.48
797.53	13929.24
797.862	13835
798.193	13843.59
798.525	13727.44
798.856	13807.66
799.188	13667.32
799.519	13668.45
799.85	13689.02
800.182	13610.38
800.513	13676.14
800.844	13631.62
801.175	13583.71
801.506	13652.41
801.837	13550.27
802.168	13561.56
802.499	13454.45
802.83	13468.01
803.161	13437.27
803.491	13502.13
803.822	13414.9
804.153	13427.33
804.483	13311.4
804.814	13301.01
805.145	13339.88
805.475	13319.76
805.805	13287.67
806.136	13248.35
806.466	13263.49
806.796	13283.15
807.126	13155.25
807.457	13192.08
807.787	13207
808.117	13116.6
808.447	13087.68
808.777	13096.04
809.107	13042.48
809.436	13041.13
809.766	13050.62
810.096	12938.98
810.426	12973.78
810.755	13001.58
811.085	12992.54
811.414	12971.07
811.744	12847.23
812.073	12899.66
812.403	12833.45
812.732	12787.8
813.061	12852.88
813.39	12742.15
813.719	12694.69
814.049	12751.42
814.378	12738.76
814.707	12639.33
815.036	12730.85
815.365	12624.64
815.693	12550.29
816.022	12602.04
816.351	12515.94
816.68	12465.77
817.008	12613.34
817.337	12411.09
817.665	12430.07
817.994	12419.45
818.322	12454.25
818.651	12387.58
818.979	12356.62
819.307	12344.87
819.636	12404.08
819.964	12294.25
820.292	12301.03
820.62	12366.79
820.948	12313.46
821.276	12421.26
821.604	12313.69
821.932	12405.44
822.259	12393.23
822.587	12297.87
822.915	12319.79
823.243	12293.58
823.57	12373.35
823.898	12359.56
824.225	12250.19
824.553	12302.61
824.88	12272.78
825.207	12411.99
825.535	12341.26
825.862	12394.82
826.189	12322.5
826.516	12372.22
826.843	12415.38
827.17	12434.14
827.497	12438.66
827.824	12418.54
828.151	12392.78
828.478	12367.7
828.805	12460.12
829.131	12442.05
829.458	12400.69
829.785	12386.68
830.111	12306
830.438	12378.32
830.764	12494.7
831.09	12441.82
831.417	12363.63
831.743	12513
832.069	12433.23
832.395	12385.78
832.722	12496.73
833.048	12406.11
833.374	12403.4
833.7	12331.77
834.026	12412.67
834.351	12349.17
834.677	12387.13
835.003	12416.06
835.329	12424.42
835.654	12349.62
835.98	12233.92
836.306	12318.89
836.631	12262.84
836.956	12396.4
837.282	12300.35
837.607	12217.42
837.932	12182.84
838.258	12180.81
838.583	12200.24
838.908	12153.69
839.233	12209.06
839.558	12206.35
839.883	12101.04
840.208	12109.17
840.533	12073.47
840.858	12092.45
841.182	12052.45
841.507	12039.12
841.832	12066.46
842.156	11985.56
842.481	11957.99
842.805	11935.62
843.13	11880.93
843.454	11888.84
843.778	11875.05
844.103	11859.91
844.427	11806.81
844.751	11884.77
845.075	11786.7
845.399	11773.14
845.723	11737.66
846.047	11747.83
846.371	11655.63
846.695	11622.63
847.019	11636.19
847.343	11474.16
847.666	11452.92
847.99	11450.66
848.313	11390.32
848.637	11268.07
848.96	11395.75
849.284	11252.25
849.607	11200.95
849.931	11201.4
850.254	11139.03
850.577	11137.9
850.9	11035.76
851.223	10935.64
851.546	10946.94
851.869	10861.07
852.192	10975.19
852.515	10824.01
852.838	10905.36
853.161	10845.93
853.483	10784.01
853.806	10708.31
854.129	10667.4
854.451	10591.25
854.774	10635.99
855.096	10614.3
855.419	10541.53
855.741	10558.48
856.063	10509.44
856.385	10421.76
856.708	10442.1
857.03	10392.16
857.352	10375.21
857.674	10377.92
857.996	10353.51
858.318	10258.83
858.64	10301.99
858.961	10221.09
859.283	10196.68
859.605	10134.99
859.926	10233.52
860.248	10159.39
860.57	10081.43
860.891	10130.02
861.212	10092.95
861.534	10051.15
861.855	10000.75
862.176	10065.16
862.498	10063.58
862.819	10047.08
863.14	9966.4
863.461	9976.8
863.782	9953.98
864.103	9958.5
864.424	9918.5
864.745	9881.44
865.065	9884.82
865.386	9811.61
865.707	9840.76
866.027	9783.81
866.348	9843.24
866.668	9831.04
866.989	9750.59
867.309	9773.64
867.63	9727.09
867.95	9739.52
868.27	9722.8
868.59	9772.06
868.91	9716.92
869.23	9608.22
869.55	9590.6
869.87	9660.65
870.19	9666.98
870.51	9623.81
870.83	9594.44
871.15	9579.3
871.469	9587.21
871.789	9584.72
872.109	9564.16
872.428	9493.87
872.748	9550.6
873.067	9482.12
873.386	9539.75
873.706	9462.24
874.025	9417.94
874.344	9423.59
874.663	9461.56
874.982	9391.28
875.301	9432.41
875.62	9401.22
875.939	9396.48
876.258	9347.89
876.577	9365.06
876.896	9370.49
877.214	9339.08
877.533	9342.92
877.852	9300.89
878.17	9264.95
878.489	9307.44
878.807	9243.94
879.125	9249.36
879.444	9256.14
879.762	9176.59
880.08	9158.06
880.398	9168.01
880.716	9205.52
881.034	9097.73
881.352	9149.7
881.67	9117.39
881.988	9081
882.306	9068.12
882.624	9033.32
882.941	8996.71
883.259	8935.02
883.577	9029.93
883.894	8978.63
884.212	8986.77
884.529	8929.6
884.846	8907.9
885.164	8957.62
885.481	8849.37
885.798	8867.68
886.115	8796.94
886.432	8805.53
886.75	8786.77
887.067	8757.85
887.383	8751.97
887.7	8725.76
888.017	8687.57
888.334	8700.22
888.651	8685.99
888.967	8645.76
889.284	8630.17
889.6	8577.51
889.917	8539.32
890.233	8612.09
890.55	8510.4
890.866	8511.98
891.182	8562.83
891.498	8502.04
891.815	8472.88
892.131	8503.17
892.447	8337.75
892.763	8369.16
893.079	8346.33
893.395	8271.53
893.71	8284.64
894.026	8294.81
894.342	8343.62
894.657	8232.21
894.973	8225.66
895.289	8161.03
895.604	8165.32
895.92	8139.79
896.235	8149.05
896.55	8095.72
896.865	8103.63
897.181	8059.11
897.496	8073.8
897.811	8004.2
898.126	7944.31
898.441	7925.1
898.756	7921.94
899.071	7847.14
899.386	7934.14
899.7	7760.13
900.015	7839.45
900.33	7742.51
900.644	7723.3
900.959	7722.4
901.273	7666.13
901.588	7598.56
901.902	7586.81
902.216	7549.29
902.531	7501.84
902.845	7512.68
903.159	7520.59
903.473	7425
903.787	7440.37
904.101	7407.83
904.415	7356.53
904.729	7387.04
905.042	7312.01
905.356	7312.01
905.67	7312.46
905.984	7263.65
906.297	7234.27
906.611	7203.99
906.924	7222.07
907.237	7172.35
907.551	7155.86
907.864	7091.9
908.177	7090.55
908.491	7133.48
908.804	7063.43
909.117	7046.03
909.43	6998.35
909.743	6913.38
910.056	6940.27
910.368	6860.05
910.681	6790.44
910.994	6814.17
911.307	6809.65
911.619	6773.72
911.932	6770.56
912.244	6684.91
912.557	6781.86
912.869	6681.52
913.181	6625.48
913.494	6611.01
913.806	6626.83
914.118	6583.89
914.43	6506.38
914.742	6520.62
915.054	6528.75
915.366	6478.81
915.678	6471.36
915.99	6462.54
916.302	6418.02
916.613	6348.87
916.925	6330.34
917.236	6322.66
917.548	6247.18
917.859	6254.41
918.171	6175.54
918.482	6195.66
918.794	6178.71
919.105	6076.79
919.416	6109.33
919.727	6127.41
920.038	6031.37
920.349	6058.71
920.66	6029.33
920.971	6032.5
921.282	6003.8
921.593	5927.64
921.903	5969.67
922.214	5934.87
922.525	5904.14
922.835	5871.37
923.146	5805.38
923.456	5805.16
923.767	5780.98
924.077	5780.3
924.387	5760.87
924.697	5670.47
925.008	5693.3
925.318	5633.41
925.628	5591.15
925.938	5630.93
926.248	5542.57
926.558	5525.62
926.867	5561.32
927.177	5501.89
927.487	5480.65
927.796	5449.24
928.106	5414.89
928.416	5425.06
928.725	5421.89
929.034	5365.62
929.344	5350.48
929.653	5335.79
929.962	5343.02
930.271	5272.74
930.581	5258.28
930.89	5229.58
931.199	5207.66
931.508	5211.5
931.817	5164.95
932.125	5156.59
932.434	5148.23
932.743	5113.2
933.051	5082.47
933.36	5060.32
933.669	4983.48
933.977	5082.47
934.286	5020.77
934.594	5053.54
934.902	4971.51
935.21	4949.59
935.519	4899.65
935.827	4881.79
936.135	4919.31
936.443	4827.33
936.751	4828.91
937.059	4831.62
937.367	4780.33
937.674	4767.9
937.982	4754.34
938.29	4729.25
938.597	4765.64
938.905	4692.42
939.213	4695.13
939.52	4630.73
939.827	4636.83
940.135	4604.06
940.442	4622.36
940.749	4581.69
941.056	4604.96
941.363	4522.48
941.67	4527.68
941.977	4519.54
942.284	4420.11
942.591	4506.89
942.898	4482.26
943.205	4433.89
943.511	4403.61
943.818	4420.79
944.125	4365.65
944.431	4341.24
944.738	4376.04
945.044	4293.79
945.35	4300.11
945.657	4282.49
945.963	4302.6
946.269	4310.73
946.575	4247.68
946.881	4244.75
947.187	4260.57
947.493	4207.91
947.799	4173.11
948.105	4139.21
948.41	4164.75
948.716	4107.58
949.022	4080.68
949.327	4088.59
949.633	4046.33
949.938	4058.09
950.244	4040.91
950.549	4013.57
950.854	3996.84
951.16	3995.94
951.465	3969.73
951.77	3947.13
952.075	3945.77
952.38	3920.01
952.685	3913
952.99	3846.57
953.294	3851.31
953.599	3831.42
953.904	3835.49
954.209	3807.92
954.513	3828.94
954.818	3787.81
955.122	3755.72
955.426	3725.21
955.731	3734.03
956.035	3713.69
956.339	3711.43
956.643	3699.9
956.948	3646.8
957.252	3638.21
957.556	3641.83
957.86	3641.37
958.163	3615.84
958.467	3555.73
958.771	3589.62
959.075	3565.22
959.378	3546.01
959.682	3531.09
959.985	3526.35
960.289	3488.16
960.592	3468.27
960.896	3461.26
961.199	3447.93
961.502	3420.36
961.805	3391.89
962.108	3374.71
962.411	3367.71
962.714	3340.59
963.017	3366.13
963.32	3367.03
963.623	3362.28
963.926	3336.07
964.228	3331.78
964.531	3266.02
964.833	3245
965.136	3279.35
965.438	3247.26
965.741	3239.35
966.043	3235.96
966.345	3217.43
966.648	3200.48
966.95	3185.11
967.252	3159.8
967.554	3161.61
967.856	3166.13
968.158	3151.67
968.46	3141.05
968.761	3134.95
969.063	3075.06
969.365	3088.17
969.666	3059.02
969.968	3056.98
970.269	3039.58
970.571	3041.61
970.872	3025.57
971.174	2983.99
971.475	2948.96
971.776	2961.39
972.077	2920.04
972.378	2933.6
972.679	2950.54
972.98	2913.93
973.281	2904.44
973.582	2875.74
973.883	2873.48
974.183	2860.15
974.484	2876.42
974.785	2872.81
975.085	2837.33
975.386	2795.52
975.686	2798.01
975.986	2777.89
976.287	2812.24
976.587	2751.68
976.887	2746.03
977.187	2735.18
977.487	2732.02
977.787	2701.06
978.087	2727.72
978.387	2685.24
978.687	2703.09
978.987	2683.43
979.286	2654.05
979.586	2666.94
979.885	2640.27
980.185	2630.78
980.484	2647.5
980.784	2612.02
981.083	2594.62
981.382	2574.28
981.682	2565.24
981.981	2562.76
982.28	2545.36
982.579	2538.58
982.878	2531.12
983.177	2519.59
983.475	2505.58
983.774	2505.13
984.073	2482.99
984.372	2474.4
984.67	2479.37
984.969	2454.06
985.267	2473.95
985.566	2410.9
985.864	2415.42
986.162	2400.95
986.461	2411.12
986.759	2388.07
987.057	2381.07
987.355	2365.02
987.653	2358.02
987.951	2339.03
988.249	2337.45
988.547	2358.24
988.844	2311.92
989.142	2325.48
989.44	2281.18
989.737	2295.65
990.035	2268.53
990.332	2268.3
990.63	2244.57
990.927	2270.34
991.224	2269.43
991.521	2206.16
991.819	2227.85
992.116	2237.57
992.413	2177.91
992.71	2184.24
993.006	2170.68
993.303	2143.11
993.6	2141.53
993.897	2149.21
994.193	2153.05
994.49	2121.64
994.787	2133.84
995.083	2097.91
995.379	2101.3
995.676	2077.57
995.972	2076.22
996.268	2072.37
996.565	2057.01
996.861	2058.14
997.157	2035.77
997.453	2052.49
997.749	2002.09
998.044	1964.81
998.34	1996.9
998.636	1975.88
998.932	1992.6
999.227	1947.41
999.523	1940.85
999.818	1933.62
1000.114	1934.3
1000.409	1923
1000.704	1874.87
1001	1901.08
1001.295	1910.12
1001.59	1901.53
1001.885	1913.73
1002.18	1846.62
1002.475	1873.06
1002.77	1844.58
1003.065	1853.85
1003.359	1833.74
1003.654	1826.96
1003.949	1838.26
1004.243	1834.64
1004.538	1798.03
1004.832	1785.38
1005.127	1755.55
1005.421	1744.47
1005.715	1779.28
1006.009	1760.29
1006.304	1736.34
1006.598	1723.01
1006.892	1675.32
1007.186	1701.76
1007.48	1718.26
1007.773	1662.22
1008.067	1674.65
1008.361	1691.37
1008.655	1656.34
1008.948	1657.92
1009.242	1642.56
1009.535	1651.14
1009.829	1612.73
1010.122	1586.96
1010.415	1608.88
1010.708	1572.95
1011.001	1577.92
1011.295	1605.95
1011.588	1588.77
1011.881	1574.99
1012.173	1580.41
1012.466	1536.12
1012.759	1548.55
1013.052	1559.17
1013.344	1535.89
1013.637	1504.03
1013.93	1524.82
1014.222	1491.6
1014.514	1481.2
1014.807	1472.84
1015.099	1475.78
1015.391	1459.51
1015.683	1465.39
1015.976	1451.6
1016.268	1431.04
1016.56	1413.86
1016.851	1434.88
1017.143	1419.28
1017.435	1422.9
1017.727	1389.68
1018.018	1389
1018.31	1366.63
1018.602	1386.52
1018.893	1366.18
1019.185	1319.17
1019.476	1332.96
1019.767	1341.32
1020.058	1336.8
1020.35	1300.87
1020.641	1299.06
1020.932	1301.55
1021.223	1266.97
1021.514	1282.34
1021.804	1285.05
1022.095	1270.36
1022.386	1244.6
1022.677	1270.59
1022.967	1244.83
1023.258	1243.47
1023.548	1243.92
1023.839	1225.39
1024.129	1205.96
1024.419	1187.88
1024.709	1189.91
1025	1172.51
1025.29	1191.27
1025.58	1170.25
1025.87	1149.24
1026.16	1153.08
1026.449	1154.43
1026.739	1162.12
1027.029	1142.46
1027.319	1125.06
1027.608	1159.86
1027.898	1120.99
1028.187	1127.99
1028.477	1092.74
1028.766	1115.79
1029.055	1070.82
1029.344	1088.67
1029.634	1078.73
1029.923	1051.38
1030.212	1048.22
1030.501	1030.59
1030.79	1073.08
1031.078	1031.27
1031.367	1031.95
1031.656	1059.29
1031.945	1033.08
1032.233	1024.04
1032.522	998.28
1032.81	1019.75
1033.099	1011.39
1033.387	1021.33
1033.675	986.3
1033.963	995.34
1034.251	965.29
1034.54	952.18
1034.828	985.17
1035.116	944.04
1035.403	960.77
1035.691	949.24
1035.979	937.04
1036.267	919.41
1036.554	906.98
1036.842	901.56
1037.129	909.02
1037.417	922.8
1037.704	885.97
1037.992	863.14
1038.279	904.95
1038.566	871.73
1038.853	871.73
1039.14	871.73
