Data from blue_surface_keyboard_FLMS001491_045.txt Node
Date: Tue Feb 07 11:13:10 GMT 2017
User: dcchb
Spectrometer: FLMS00149
Trigger mode: 0
Integration Time (sec): 2.000000E-2
Scans to average: 10
Electric dark correction enabled: true
Nonlinearity correction enabled: false
Boxcar width: 0
XAxis mode: Wavelengths
Number of Pixels in Spectrum: 2048
>>>>>Begin Spectral Data<<<<<
341.393	-15.34
341.776	-15.34
342.16	-15.34
342.543	-59.63
342.927	-51.04
343.31	-85.17
343.693	-65.51
344.077	-66.64
344.46	-61.89
344.843	-47.88
345.226	-35.45
345.61	-27.99
345.993	4.32
346.376	-1.78
346.759	-5.85
347.142	11.1
347.525	40.48
347.908	74.38
348.291	82.29
348.674	74.83
349.057	110.76
349.44	143.75
349.823	142.62
350.206	152.11
350.588	164.77
350.971	194.83
351.354	193.02
351.737	219.91
352.119	213.81
352.502	248.38
352.884	252
353.267	263.07
353.65	273.47
354.032	263.07
354.414	271.89
354.797	287.7
355.179	298.33
355.562	293.81
355.944	322.96
356.326	319.79
356.709	296.74
357.091	313.24
357.473	321.6
357.855	304.65
358.238	305.56
358.62	311.21
359.002	298.55
359.384	299.91
359.766	308.49
360.148	299.23
360.53	320.92
360.912	304.43
361.294	303.3
361.676	296.07
362.057	292.68
362.439	319.34
362.821	312.11
363.203	297.65
363.584	286.57
363.966	299.91
364.348	286.57
364.729	312.11
365.111	294.03
365.493	280.02
365.874	279.34
366.256	284.54
366.637	291.09
367.019	301.49
367.4	297.65
367.781	305.33
368.163	287.03
368.544	282.73
368.925	281.38
369.306	306.01
369.688	272.56
370.069	284.31
370.45	273.47
370.831	261.49
371.212	280.92
371.593	298.78
371.974	279.57
372.355	264.88
372.736	292.68
373.117	283.18
373.498	282.51
373.879	281.83
374.26	299
374.641	279.34
375.021	280.92
375.402	286.57
375.783	288.38
376.163	303.98
376.544	276.63
376.925	303.75
377.305	284.31
377.686	300.13
378.066	306.69
378.447	305.33
378.827	290.64
379.208	299.91
379.588	266.46
379.968	292.9
380.349	282.51
380.729	297.65
381.109	286.8
381.489	297.87
381.87	282.05
382.25	287.93
382.63	294.26
383.01	307.36
383.39	308.72
383.77	293.13
384.15	322.28
384.53	304.2
384.91	296.07
385.29	292
385.67	305.78
386.049	301.49
386.429	311.21
386.809	302.62
387.189	306.46
387.568	302.85
387.948	312.34
388.328	306.91
388.707	317.08
389.087	288.83
389.466	307.59
389.846	324.99
390.225	314.37
390.605	311.21
390.984	320.47
391.363	325.44
391.743	315.5
392.122	309.4
392.501	314.14
392.881	317.31
393.26	310.75
393.639	320.02
394.018	315.73
394.397	323.64
394.776	322.96
395.155	313.69
395.534	318.21
395.913	336.06
396.292	331.09
396.671	325.44
397.05	313.01
397.429	312.34
397.808	321.6
398.186	327.48
398.565	313.01
398.944	325.44
399.323	352.56
399.701	350.53
400.08	354.14
400.458	335.16
400.837	309.17
401.215	334.03
401.594	350.75
401.972	349.4
402.351	332.9
402.729	317.53
403.107	333.8
403.486	326.57
403.864	339.45
404.242	326.8
404.62	346.46
404.999	345.78
405.377	346.23
405.755	343.75
406.133	364.54
406.511	361.15
406.889	346.01
407.267	349.62
407.645	350.08
408.023	378.32
408.401	354.6
408.779	356.86
409.156	385.78
409.534	357.31
409.912	364.54
410.29	353.92
410.667	362.28
411.045	369.06
411.422	362.28
411.8	371.54
412.178	373.58
412.555	385.33
412.933	383.3
413.31	350.3
413.687	367.93
414.065	372.9
414.442	386.68
414.819	377.87
415.197	391.43
415.574	386.01
415.951	385.78
416.328	376.74
416.705	381.04
417.082	393.69
417.46	393.01
417.837	387.36
418.214	388.27
418.591	385.78
418.967	399.11
419.344	406.8
419.721	392.11
420.098	396.63
420.475	376.52
420.852	399.11
421.228	388.27
421.605	402.96
421.982	389.4
422.358	388.72
422.735	399.34
423.111	411.77
423.488	399.11
423.864	413.35
424.241	415.61
424.617	410.64
424.994	425.33
425.37	418.77
425.746	413.12
426.123	416.74
426.499	407.7
426.875	447.47
427.251	424.88
427.627	443.41
428.003	423.97
428.379	423.29
428.756	431.66
429.132	446.34
429.507	419.23
429.883	408.38
430.259	444.08
430.635	453.35
431.011	462.84
431.387	441.82
431.763	439.34
432.138	452.45
432.514	465.33
432.89	438.21
433.265	477.08
433.641	447.93
434.016	468.04
434.392	467.81
434.767	470.3
435.143	463.29
435.518	478.21
435.894	473.69
436.269	505.78
436.644	474.37
437.02	489.96
437.395	485.21
437.77	498.09
438.145	481.6
438.52	477.76
438.895	506
439.271	485.67
439.646	496.29
440.021	484.08
440.395	516.62
440.77	502.16
441.145	480.69
441.52	502.84
441.895	520.01
442.27	496.29
442.645	515.95
443.019	512.78
443.394	522.27
443.769	520.24
444.143	519.11
444.518	541.48
444.892	521.82
445.267	520.24
445.641	537.19
446.016	526.34
446.39	552.1
446.764	543.52
447.139	520.92
447.513	541.03
447.887	535.16
448.262	526.79
448.636	552.1
449.01	561.82
449.384	548.94
449.758	535.83
450.132	561.14
450.506	562.05
450.88	546.45
451.254	551.88
451.628	569.28
452.002	570.18
452.376	585.78
452.75	567.02
453.123	575.61
453.497	555.72
453.871	571.54
454.244	581.26
454.618	572.44
454.992	592.1
455.365	572.22
455.739	602.27
456.112	611.31
456.486	596.17
456.859	609.05
457.232	597.98
457.606	599.79
457.979	613.8
458.352	635.72
458.725	633.23
459.099	609.5
459.472	622.16
459.845	649.95
460.218	633.91
460.591	630.07
460.964	644.08
461.337	651.31
461.71	657.86
462.083	664.42
462.456	654.7
462.829	646.34
463.201	658.32
463.574	681.14
463.947	712.78
464.32	678.65
464.692	663.97
465.065	702.38
465.438	702.16
465.81	686.56
466.183	692.21
466.555	710.29
466.928	716.85
467.3	701.7
467.672	728.14
468.045	734.02
468.417	732.66
468.789	736.51
469.161	738.99
469.534	741.93
469.906	739.67
470.278	742.16
470.65	755.94
471.022	760.91
471.394	769.05
471.766	793
472.138	777.86
472.51	811.31
472.882	781.02
473.253	787.8
473.625	824.87
473.997	824.41
474.369	806.11
474.74	811.76
475.112	846.56
475.484	867.8
475.855	866.67
476.227	847.46
476.598	898.76
476.97	862.6
477.341	894.02
477.713	877.97
478.084	890.85
478.455	921.13
478.827	923.85
479.198	938.76
479.569	934.01
479.94	952.77
480.311	958.87
480.682	948.48
481.053	961.13
481.424	992.09
481.795	958.65
482.166	986.67
482.537	998.65
482.908	999.32
483.279	1032.32
483.65	1081.81
484.021	1051.53
484.391	1067.57
484.762	1051.98
485.133	1063.96
485.503	1069.83
485.874	1092.88
486.244	1086.33
486.615	1100.11
486.985	1115.25
487.356	1120
487.726	1148.7
488.097	1114.12
488.467	1141.92
488.837	1145.76
489.207	1173.56
489.578	1154.12
489.948	1153.22
490.318	1175.82
490.688	1183.5
491.058	1198.19
491.428	1205.87
491.798	1221.69
492.168	1221.01
492.538	1187.79
492.908	1241.13
493.278	1247.23
493.648	1243.84
494.017	1259.88
494.387	1253.55
494.757	1242.48
495.126	1249.49
495.496	1273.89
495.866	1274.35
496.235	1282.48
496.605	1295.59
496.974	1293.33
497.344	1298.3
497.713	1276.38
498.082	1316.38
498.452	1341.01
498.821	1301.24
499.19	1311.86
499.559	1336.26
499.928	1325.42
500.298	1333.55
500.667	1326.55
501.036	1317.51
501.405	1323.84
501.774	1350.5
502.143	1319.99
502.512	1321.58
502.88	1354.57
503.249	1383.04
503.618	1335.59
503.987	1329.48
504.356	1385.3
504.724	1371.29
505.093	1396.6
505.462	1358.18
505.83	1357.96
506.199	1370.39
506.567	1351.18
506.936	1367.68
507.304	1380.78
507.672	1381.01
508.041	1396.83
508.409	1393.44
508.777	1395.02
509.145	1389.14
509.514	1415.81
509.882	1380.33
510.25	1425.75
510.618	1411.52
510.986	1408.8
511.354	1407.67
511.722	1431.4
512.09	1418.07
512.458	1425.08
512.826	1407.45
513.193	1428.92
513.561	1434.11
513.929	1425.75
514.297	1431.86
514.664	1431.63
515.032	1404.96
515.4	1419.65
515.767	1452.65
516.135	1461.91
516.502	1442.7
516.869	1453.1
517.237	1469.37
517.604	1449.26
517.972	1450.61
518.339	1469.82
518.706	1484.51
519.073	1464.85
519.44	1480.67
519.808	1462.14
520.175	1448.8
520.542	1492.19
520.909	1517.73
521.276	1482.93
521.643	1492.42
522.009	1523.38
522.376	1518.86
522.743	1489.93
523.11	1486.09
523.477	1514.11
523.843	1498.52
524.21	1504.17
524.577	1529.93
524.943	1512.3
525.31	1512.98
525.676	1528.35
526.043	1519.31
526.409	1557.95
526.776	1529.03
527.142	1570.38
527.508	1543.49
527.874	1546.43
528.241	1573.09
528.607	1558.18
528.973	1543.94
529.339	1541.91
529.705	1532.87
530.071	1583.49
530.437	1576.26
530.803	1573.09
531.169	1586.65
531.535	1595.24
531.901	1608.12
532.267	1570.61
532.632	1589.14
532.998	1577.61
533.364	1586.65
533.73	1597.5
534.095	1588.01
534.461	1619.65
534.826	1613.32
535.192	1609.03
535.557	1639.76
535.923	1605.64
536.288	1613.09
536.653	1604.28
537.019	1586.2
537.384	1593.21
537.749	1628.46
538.114	1624.17
538.479	1635.24
538.845	1632.08
539.21	1614.9
539.575	1628.01
539.94	1630.04
540.305	1599.76
540.67	1619.19
541.034	1642.7
541.399	1633.66
541.764	1623.71
542.129	1624.39
542.494	1609.03
542.858	1610.83
543.223	1617.39
543.587	1648.57
543.952	1643.83
544.316	1599.08
544.681	1611.96
545.045	1623.94
545.41	1645.18
545.774	1641.79
546.138	1623.04
546.503	1626.2
546.867	1594.11
547.231	1631.85
547.595	1628.46
547.959	1631.4
548.324	1616.48
548.688	1614.22
549.052	1606.77
549.416	1640.21
549.779	1629.36
550.143	1628.23
550.507	1644.05
550.871	1640.89
551.235	1635.92
551.599	1645.41
551.962	1670.04
552.326	1663.04
552.689	1638.86
553.053	1618.97
553.417	1608.57
553.78	1640.66
554.143	1656.93
554.507	1671.85
554.87	1638.18
555.234	1655.35
555.597	1659.65
555.96	1643.15
556.323	1636.6
556.686	1671.62
557.05	1662.13
557.413	1666.65
557.776	1663.94
558.139	1659.42
558.502	1686.99
558.865	1645.86
559.228	1693.09
559.59	1674.56
559.953	1671.17
560.316	1713.43
560.679	1702.36
561.041	1691.28
561.404	1697.84
561.767	1712.98
562.129	1702.58
562.492	1703.49
562.854	1710.04
563.217	1701.9
563.579	1684.96
563.941	1689.93
564.304	1668.46
564.666	1723.15
565.028	1715.69
565.39	1706.88
565.753	1721.11
566.115	1725.63
566.477	1722.47
566.839	1750.94
567.201	1720.89
567.563	1762.92
567.925	1751.85
568.287	1765.86
568.648	1752.98
569.01	1766.99
569.372	1774.22
569.734	1777.83
570.095	1739.19
570.457	1751.62
570.819	1771.06
571.18	1749.36
571.542	1780.77
571.903	1743.03
572.265	1773.99
572.626	1764.73
572.987	1811.96
573.349	1777.61
573.71	1787.33
574.071	1787.55
574.432	1801.79
574.794	1825.07
575.155	1848.79
575.516	1793.2
575.877	1814.67
576.238	1823.48
576.599	1787.55
576.96	1767.89
577.32	1817.61
577.681	1814.22
578.042	1812.64
578.403	1803.82
578.763	1789.36
579.124	1825.29
579.485	1812.64
579.845	1799.75
580.206	1808.12
580.566	1824.39
580.927	1839.3
581.287	1836.82
581.648	1819.19
582.008	1845.4
582.368	1852.41
582.728	1822.58
583.089	1802.24
583.449	1828.68
583.809	1820.09
584.169	1853.99
584.529	1843.37
584.889	1853.31
585.249	1807.89
585.609	1830.04
585.969	1839.53
586.329	1803.14
586.688	1828.68
587.048	1853.99
587.408	1832.52
587.768	1831.84
588.127	1842.69
588.487	1837.27
588.846	1842.47
589.206	1831.17
589.565	1843.82
589.925	1821.22
590.284	1844.27
590.643	1827.55
591.003	1830.26
591.362	1864.16
591.721	1856.48
592.08	1852.41
592.44	1846.08
592.799	1850.15
593.158	1866.65
593.517	1863.26
593.876	1874.56
594.235	1864.16
594.593	1861.67
594.952	1844.05
595.311	1869.36
595.67	1899.19
596.029	1880.2
596.387	1846.08
596.746	1855.12
597.104	1879.98
597.463	1884.05
597.822	1889.7
598.18	1863.93
598.538	1892.86
598.897	1909.58
599.255	1845.4
599.613	1896.93
599.972	1879.3
600.33	1885.18
600.688	1866.65
601.046	1886.76
601.404	1895.57
601.762	1906.42
602.12	1923.82
602.478	1898.06
602.836	1909.36
603.194	1868.68
603.552	1901.9
603.91	1879.75
604.268	1912.97
604.625	1883.14
604.983	1883.59
605.341	1901
605.698	1912.52
606.056	1924.27
606.413	1949.13
606.771	1919.98
607.128	1940.77
607.485	1922.24
607.843	1929.47
608.2	1923.59
608.557	1956.59
608.914	1931.5
609.272	1962.01
609.629	1916.81
609.986	1966.98
610.343	1959.98
610.7	1974.44
611.057	1958.39
611.414	1982.12
611.771	1940.09
612.127	1962.01
612.484	1986.19
612.841	1976.7
613.198	1977.6
613.554	1904.16
613.911	1989.13
614.267	1986.64
614.624	1997.94
614.98	1978.06
615.337	1978.96
615.693	1965.17
616.05	1994.55
616.406	1971.95
616.762	1990.26
617.118	1960.2
617.475	1994.55
617.831	1992.97
618.187	2017.38
618.543	2002.01
618.899	2035.23
619.255	2038.39
619.611	2023.48
619.967	2029.35
620.323	2030.26
620.678	2006.3
621.034	2034.55
621.39	2005.63
621.746	2021.44
622.101	2043.36
622.457	2001.11
622.812	2019.64
623.168	2042.91
623.523	2048.56
623.879	2071.61
624.234	2077.94
624.589	2052.18
624.945	2093.08
625.3	2074.55
625.655	2065.51
626.01	2086.08
626.365	2078.84
626.72	2068
627.075	2045.85
627.43	2073.42
627.785	2085.4
628.14	2090.82
628.495	2094.44
628.85	2065.74
629.205	2099.63
629.559	2081.56
629.914	2094.21
630.269	2063.25
630.623	2092.63
630.978	2100.76
631.332	2086.3
631.687	2084.49
632.041	2100.99
632.396	2131.5
632.75	2083.82
633.104	2150.25
633.459	2136.24
633.813	2115
634.167	2108.67
634.521	2124.94
634.875	2137.37
635.229	2136.02
635.583	2131.27
635.937	2116.81
636.291	2125.4
636.645	2166.98
636.999	2148.45
637.352	2177.37
637.706	2176.24
638.06	2183.7
638.413	2154.32
638.767	2168.78
639.121	2178.95
639.474	2185.73
639.828	2185.96
640.181	2197.03
640.534	2190.93
640.888	2158.16
641.241	2208.11
641.594	2168.11
641.947	2222.34
642.301	2225.05
642.654	2197.71
643.007	2253.75
643.36	2242.68
643.713	2247.43
644.066	2252.85
644.419	2238.61
644.771	2211.04
645.124	2230.93
645.477	2250.14
645.83	2242.68
646.182	2193.42
646.535	2204.94
646.888	2268.67
647.24	2224.38
647.593	2255.79
647.945	2277.48
648.298	2227.09
648.65	2242
649.002	2273.64
649.355	2307.54
649.707	2312.74
650.059	2307.09
650.411	2314.77
650.763	2362.68
651.115	2372.85
651.467	2398.61
651.819	2410.36
652.171	2431.15
652.523	2437.7
652.875	2446.29
653.227	2434.54
653.578	2438.38
653.93	2472.28
654.282	2442.45
654.633	2447.2
654.985	2478.83
655.337	2477.93
655.688	2484.26
656.039	2519.74
656.391	2511.37
656.742	2493.3
657.094	2531.49
657.445	2539.85
657.796	2534.2
658.147	2569.9
658.498	2581.43
658.849	2583.24
659.2	2630.24
659.551	2575.1
659.902	2621.43
660.253	2630.69
660.604	2640.18
660.955	2639.28
661.306	2694.42
661.656	2653.74
662.007	2661.43
662.358	2693.97
662.708	2729.22
663.059	2721.09
663.409	2698.71
663.76	2739.62
664.11	2733.06
664.461	2764.25
664.811	2781.42
665.161	2786.85
665.511	2790.24
665.862	2823
666.212	2819.84
666.562	2867.98
666.912	2839.95
667.262	2866.39
667.612	2859.84
667.962	2890.8
668.312	2893.96
668.662	2919.95
669.011	2952.27
669.361	2948.65
669.711	2947.3
670.06	2988.42
670.41	2988.88
670.76	2959.05
671.109	3034.3
671.459	3018.71
671.808	3022.55
672.157	3015.99
672.507	3015.77
672.856	3077.46
673.205	3066.84
673.554	3082.89
673.904	3070.68
674.253	3110
674.602	3117.01
674.951	3078.37
675.3	3056.22
675.649	3174.41
675.998	3151.13
676.346	3166.05
676.695	3202.2
677.044	3206.72
677.393	3206.05
677.741	3218.47
678.09	3226.16
678.438	3169.66
678.787	3229.1
679.135	3256.44
679.484	3238.59
679.832	3267.06
680.181	3267.96
680.529	3296.89
680.877	3306.38
681.225	3337.12
681.573	3330.56
681.922	3331.24
682.27	3366.04
682.618	3371.24
682.966	3356.78
683.314	3347.74
683.661	3404.23
684.009	3380.73
684.357	3400.84
684.705	3421.41
685.053	3390.45
685.4	3408.75
685.748	3458.92
686.095	3468.64
686.443	3477.22
686.79	3413.72
687.138	3431.58
687.485	3485.59
687.832	3499.82
688.18	3491.01
688.527	3467.06
688.874	3509.09
689.221	3489.88
689.568	3486.49
689.915	3473.38
690.262	3510.44
690.609	3511.12
690.956	3489.88
691.303	3503.21
691.65	3487.39
691.997	3520.61
692.344	3508.64
692.69	3564
693.037	3518.35
693.383	3552.93
693.73	3535.75
694.077	3525.13
694.423	3534.4
694.769	3547.05
695.116	3548.64
695.462	3524.23
695.808	3528.75
696.155	3563.32
696.501	3558.58
696.847	3541.86
697.193	3530.78
697.539	3521.74
697.885	3537.34
698.231	3495.3
698.577	3529.2
698.923	3558.35
699.269	3503.89
699.614	3537.56
699.96	3492.82
700.306	3468.64
700.651	3512.7
700.997	3471.58
701.342	3460.5
701.688	3491.46
702.033	3477
702.379	3502.76
702.724	3483.33
703.069	3476.77
703.415	3515.19
703.76	3489.88
704.105	3515.42
704.45	3498.24
704.795	3455.76
705.14	3459.6
705.485	3466.15
705.83	3463.21
706.175	3434.74
706.52	3474.06
706.865	3464.34
707.209	3455.08
707.554	3451.69
707.899	3457.56
708.243	3450.78
708.588	3412.37
708.932	3396.1
709.277	3457.56
709.621	3452.14
709.966	3411.69
710.31	3412.37
710.654	3384.12
710.998	3411.24
711.342	3423.44
711.687	3413.95
712.031	3390
712.375	3360.17
712.719	3376.89
713.063	3411.92
713.407	3445.14
713.75	3392.93
714.094	3404.91
714.438	3394.52
714.782	3390.67
715.125	3437.45
715.469	3389.77
715.812	3370.11
716.156	3372.14
716.499	3401.07
716.843	3413.72
717.186	3385.25
717.53	3419.37
717.873	3364.01
718.216	3365.14
718.559	3376.66
718.902	3372.82
719.246	3382.54
719.589	3331.47
719.932	3348.64
720.275	3367.17
720.617	3344.35
720.96	3360.84
721.303	3328.98
721.646	3342.09
721.989	3354.06
722.331	3411.01
722.674	3368.98
723.016	3356.1
723.359	3371.47
723.701	3389.54
724.044	3377.57
724.386	3390
724.729	3385.7
725.071	3386.83
725.413	3406.04
725.755	3376.44
726.097	3391.35
726.439	3392.26
726.782	3387.28
727.124	3412.82
727.465	3359.71
727.807	3375.76
728.149	3373.72
728.491	3386.15
728.833	3396.78
729.175	3440.84
729.516	3408.75
729.858	3406.72
730.199	3418.47
730.541	3411.69
730.882	3404.01
731.224	3398.13
731.565	3416.66
731.906	3432.25
732.248	3403.55
732.589	3404.46
732.93	3398.13
733.271	3453.72
733.612	3402.42
733.953	3430.67
734.294	3427.73
734.635	3432.48
734.976	3458.92
735.317	3437.9
735.658	3423.44
735.999	3474.06
736.339	3417.11
736.68	3484.91
737.021	3463.89
737.361	3450.78
737.702	3508.41
738.042	3507.05
738.383	3460.73
738.723	3463.89
739.063	3513.61
739.404	3507.05
739.744	3499.15
740.084	3526.72
740.424	3556.32
740.764	3542.53
741.104	3481.29
741.444	3571.46
741.784	3573.04
742.124	3559.48
742.464	3576.66
742.804	3570.33
743.143	3583.21
743.483	3586.15
743.823	3578.69
744.162	3587.73
744.502	3580.27
744.841	3652.14
745.181	3657.33
745.52	3641.29
745.86	3688.97
746.199	3685.13
746.538	3672.93
746.877	3719.48
747.216	3705.69
747.556	3726.48
747.895	3741.4
748.234	3750.44
748.573	3746.14
748.911	3774.62
749.25	3804.9
749.589	3840.83
749.928	3840.61
750.267	3874.28
750.605	3857.78
750.944	3887.84
751.283	3898.46
751.621	3887.38
751.96	3945.24
752.298	3957.21
752.636	3914.95
752.975	4011.67
753.313	3982.97
753.651	4052.58
753.989	4040.15
754.327	4046.25
754.666	4080.6
755.004	4067.49
755.342	4086.93
755.679	4117.43
756.017	4153.82
756.355	4142.52
756.693	4226.58
757.031	4206.25
757.368	4224.55
757.706	4211.67
758.044	4239.69
758.381	4233.82
758.719	4246.47
759.056	4320.59
759.394	4350.2
759.731	4299.12
760.068	4289.63
760.405	4336.64
760.743	4322.63
761.08	4391.55
761.417	4352.46
761.754	4358.78
762.091	4383.19
762.428	4393.36
762.765	4441.49
763.102	4437.2
763.438	4403.08
763.775	4412.57
764.112	4426.8
764.449	4432.91
764.785	4439.91
765.122	4435.17
765.458	4391.78
765.795	4458.44
766.131	4451.89
766.467	4455.96
766.804	4419.57
767.14	4443.53
767.476	4426.8
767.812	4435.17
768.148	4463.64
768.485	4434.04
768.821	4471.32
769.157	4456.86
769.492	4490.98
769.828	4476.97
770.164	4419.8
770.5	4415.51
770.836	4455.73
771.171	4409.4
771.507	4450.98
771.842	4409.86
772.178	4445.34
772.513	4429.06
772.849	4445.11
773.184	4421.15
773.519	4445.56
773.855	4353.81
774.19	4426.58
774.525	4401.95
774.86	4364.43
775.195	4397.43
775.53	4336.41
775.865	4381.83
776.2	4355.17
776.535	4291.89
776.87	4316.3
777.205	4305.68
777.539	4296.86
777.874	4300.93
778.209	4263.87
778.543	4248.5
778.878	4294.38
779.212	4275.85
779.547	4241.5
779.881	4262.29
780.215	4240.37
780.55	4249.63
780.884	4215.28
781.218	4182.97
781.552	4211.44
781.886	4177.77
782.22	4169.18
782.554	4153.82
782.888	4115.17
783.222	4090.09
783.556	4111.33
783.889	4119.92
784.223	4083.54
784.557	4090.09
784.89	4108.39
785.224	4088.06
785.557	4039.92
785.891	4072.24
786.224	4060.26
786.558	4050.77
786.891	4012.35
787.224	3997.21
787.557	3992.01
787.891	3967.38
788.224	3999.47
788.557	3942.98
788.89	3942.75
789.223	3909.08
789.556	3912.47
789.888	3874.5
790.221	3898.46
790.554	3886.03
790.887	3897.78
791.219	3886.71
791.552	3835.63
791.884	3842.19
792.217	3806.26
792.549	3862.07
792.882	3817.78
793.214	3813.26
793.546	3781.85
793.879	3775.75
794.211	3761.96
794.543	3739.82
794.875	3753.6
795.207	3755.64
795.539	3703.89
795.871	3716.31
796.203	3720.83
796.535	3704.34
796.867	3714.96
797.198	3677.22
797.53	3701.85
797.862	3673.38
798.193	3681.51
798.525	3641.97
798.856	3692.36
799.188	3586.37
799.519	3609.88
799.85	3592.93
800.182	3562.87
800.513	3567.62
800.844	3568.97
801.175	3606.26
801.506	3583.89
801.837	3556.09
802.168	3519.03
802.499	3498.24
802.83	3543.21
803.161	3475.42
803.491	3499.15
803.822	3526.72
804.153	3480.16
804.483	3474.51
804.814	3495.3
805.145	3480.16
805.475	3461.41
805.805	3484.91
806.136	3393.39
806.466	3394.52
806.796	3419.6
807.126	3408.3
807.457	3419.6
807.787	3408.07
808.117	3388.87
808.447	3382.54
808.777	3386.61
809.107	3367.85
809.436	3361.3
809.766	3374.18
810.096	3338.02
810.426	3330.79
810.755	3314.29
811.085	3302.31
811.414	3330.79
811.744	3308.64
812.073	3302.77
812.403	3284.01
812.732	3286.27
813.061	3296.21
813.39	3270
813.719	3238.36
814.049	3267.06
814.378	3241.98
814.707	3251.69
815.036	3261.19
815.365	3255.99
815.693	3197.23
816.022	3197.91
816.351	3221.86
816.68	3176.44
817.008	3188.87
817.337	3179.15
817.665	3177.12
817.994	3188.42
818.322	3159.72
818.651	3149.78
818.979	3159.95
819.307	3152.94
819.636	3174.86
819.964	3139.15
820.292	3124.69
820.62	3133.05
820.948	3115.88
821.276	3135.54
821.604	3138.02
821.932	3128.76
822.259	3140.74
822.587	3124.01
822.915	3115.2
823.243	3133.51
823.57	3103.9
823.898	3141.19
824.225	3113.62
824.553	3094.41
824.88	3139.61
825.207	3123.56
825.535	3130.79
825.862	3092.6
826.189	3085.6
826.516	3124.47
826.843	3122.43
827.17	3144.8
827.497	3103.9
827.824	3144.13
828.151	3129.66
828.478	3179.61
828.805	3150.68
829.131	3114.75
829.458	3095.77
829.785	3145.26
830.111	3100.51
830.438	3143.9
830.764	3088.99
831.09	3119.27
831.417	3118.14
831.743	3064.35
832.069	3120.62
832.395	3086.95
832.722	3118.82
833.048	3075.2
833.374	3112.71
833.7	3093.73
834.026	3099.61
834.351	3104.13
834.677	3083.11
835.003	3065.26
835.329	3096.67
835.654	3085.82
835.98	3072.26
836.306	3058.93
836.631	3060.96
836.956	3077.91
837.282	3046.5
837.607	3042.89
837.932	3006.28
838.258	3022.1
838.583	3045.82
838.908	3060.51
839.233	3042.66
839.558	3011.47
839.883	3015.32
840.208	3032.49
840.533	2997.92
840.858	2996.33
841.182	2996.56
841.507	3005.6
841.832	2990.46
842.156	3032.72
842.481	3011.7
842.805	2982.55
843.13	2968.31
843.454	2970.12
843.778	2999.27
844.103	2933.06
844.427	2938.93
844.751	2915.21
845.075	2922.21
845.399	2917.92
845.723	2936.67
846.047	2868.2
846.371	2889.67
846.695	2910.23
847.019	2914.3
847.343	2859.39
847.666	2859.61
847.99	2902.1
848.313	2850.35
848.637	2858.71
848.96	2852.83
849.284	2827.07
849.607	2803.34
849.931	2794.31
850.254	2772.16
850.577	2764.7
850.9	2753.4
851.223	2736.68
851.546	2779.16
851.869	2734.42
852.192	2750.69
852.515	2732.84
852.838	2713.4
853.161	2695.32
853.483	2726.96
853.806	2719.28
854.129	2704.14
854.451	2675.21
854.774	2676.57
855.096	2671.6
855.419	2672.95
855.741	2674.31
856.063	2630.02
856.385	2612.16
856.708	2639.73
857.03	2624.82
857.352	2626.63
857.674	2620.75
857.996	2586.4
858.318	2567.42
858.64	2596.57
858.961	2572.62
859.283	2573.07
859.605	2559.73
859.926	2553.41
860.248	2577.36
860.57	2581.2
860.891	2571.26
861.212	2488.78
861.534	2538.49
861.855	2535.78
862.176	2516.12
862.498	2511.6
862.819	2532.84
863.14	2556.35
863.461	2515.89
863.782	2461.21
864.103	2506.4
864.424	2465.95
864.745	2476.8
865.065	2497.14
865.386	2507.08
865.707	2486.52
866.027	2507.76
866.348	2477.93
866.668	2485.61
866.989	2438.61
867.309	2456.69
867.63	2479.29
867.95	2439.96
868.27	2418.04
868.59	2445.39
868.91	2439.06
869.23	2441.77
869.55	2415.56
869.87	2448.55
870.19	2409.91
870.51	2442.22
870.83	2421.43
871.15	2380.76
871.469	2409.68
871.789	2395.67
872.109	2439.51
872.428	2382.34
872.748	2388.89
873.067	2394.77
873.386	2433.64
873.706	2387.76
874.025	2396.35
874.344	2409
874.663	2393.64
874.982	2406.29
875.301	2372.17
875.62	2338.95
875.939	2371.04
876.258	2392.51
876.577	2348.44
876.896	2380.08
877.214	2373.53
877.533	2341.66
877.852	2351.15
878.17	2334.66
878.489	2351.15
878.807	2314.54
879.125	2345.73
879.444	2292.62
879.762	2321.32
880.08	2324.49
880.398	2320.19
880.716	2323.36
881.034	2292.62
881.352	2308.44
881.67	2304.6
881.988	2289.69
882.306	2302.11
882.624	2275.22
882.941	2280.19
883.259	2264.38
883.577	2280.65
883.894	2271.61
884.212	2265.28
884.529	2289.69
884.846	2258.95
885.164	2261.66
885.481	2253.53
885.798	2251.27
886.115	2238.39
886.432	2229.8
886.75	2215.11
887.067	2225.51
887.383	2256.69
887.7	2226.64
888.017	2209.01
888.334	2224.6
888.651	2178.28
888.967	2192.74
889.284	2173.53
889.6	2189.35
889.917	2185.28
890.233	2188.67
890.55	2176.69
890.866	2186.19
891.182	2176.69
891.498	2144.15
891.815	2148.22
892.131	2143.7
892.447	2126.98
892.763	2123.36
893.079	2116.81
893.395	2131.72
893.71	2123.36
894.026	2126.75
894.342	2117.71
894.657	2080.2
894.973	2149.35
895.289	2093.08
895.604	2092.18
895.92	2073.65
896.235	2051.5
896.55	2072.06
896.865	2073.42
897.181	2070.71
897.496	2053.76
897.811	2046.98
898.126	2040.43
898.441	2061.89
898.756	2036.13
899.071	2037.04
899.386	1997.72
899.7	2004.95
900.015	2028.22
900.33	1969.47
900.644	2020.77
900.959	2013.08
901.273	1995.46
901.588	1959.52
901.902	1976.02
902.216	1956.81
902.531	1973.99
902.845	1969.47
903.159	1944.84
903.473	1949.58
903.787	1949.13
904.101	1951.39
904.415	1934.21
904.729	1938.73
905.042	1874.33
905.356	1879.3
905.67	1928.11
905.984	1912.52
906.297	1888.34
906.611	1894.22
906.924	1901.67
907.237	1873.65
907.551	1882.46
907.864	1845.18
908.177	1842.47
908.491	1844.27
908.804	1854.89
909.117	1828
909.43	1817.83
909.743	1824.39
910.056	1813.09
910.368	1838.62
910.681	1811.51
910.994	1805.4
911.307	1781.68
911.619	1775.35
911.932	1798.17
912.244	1779.64
912.557	1803.6
912.869	1795.46
913.181	1751.39
913.494	1753.2
913.806	1748.68
914.118	1764.73
914.43	1742.81
914.742	1739.19
915.054	1745.07
915.366	1762.92
915.678	1727.21
915.99	1743.71
916.302	1675.69
916.613	1683.37
916.925	1708.01
917.236	1692.64
917.548	1696.93
917.859	1681.34
918.171	1732.41
918.482	1685.41
918.794	1642.92
919.105	1648.57
919.416	1669.81
919.727	1631.17
920.038	1655.35
920.349	1604.73
920.66	1607.9
920.971	1623.71
921.282	1651.96
921.593	1604.51
921.903	1608.35
922.214	1621.45
922.525	1611.51
922.835	1593.21
923.146	1580.1
923.456	1577.84
923.767	1573.77
924.077	1571.29
924.387	1581
924.697	1576.03
925.008	1535.36
925.318	1556.82
925.628	1557.05
925.938	1561.34
926.248	1555.47
926.558	1565.18
926.867	1542.59
927.177	1517.28
927.487	1519.76
927.796	1505.07
928.106	1520.21
928.416	1482.7
928.725	1472.08
929.034	1502.59
929.344	1496.26
929.653	1468.24
929.962	1482.7
930.271	1463.27
930.581	1448.13
930.89	1466.88
931.199	1454.45
931.508	1454.45
931.817	1446.09
932.125	1428.92
932.434	1425.08
932.743	1412.65
933.051	1418.75
933.36	1415.58
933.669	1395.92
933.977	1428.01
934.286	1390.95
934.594	1391.63
934.902	1409.93
935.21	1382.14
935.519	1360.44
935.827	1365.87
936.135	1384.4
936.443	1370.16
936.751	1391.18
937.059	1385.3
937.367	1353.89
937.674	1333.78
937.982	1338.52
938.29	1358.18
938.597	1345.53
938.905	1317.28
939.213	1314.34
939.52	1308.02
939.827	1326.32
940.135	1306.21
940.442	1290.39
940.749	1323.61
941.056	1274.35
941.363	1300.11
941.67	1287.68
941.977	1276.6
942.284	1261.01
942.591	1295.14
942.898	1263.27
943.205	1264.4
943.511	1242.03
943.818	1252.88
944.125	1248.36
944.431	1249.71
944.738	1277.96
945.044	1261.69
945.35	1242.48
945.657	1235.25
945.963	1226.66
946.269	1208.58
946.575	1246.55
946.881	1218.53
947.187	1214.46
947.493	1197.74
947.799	1207
948.105	1191.64
948.41	1222.37
948.716	1209.49
949.022	1186.66
949.327	1205.19
949.633	1172.2
949.938	1178.08
950.244	1167.23
950.549	1189.15
950.854	1178.53
951.16	1185.08
951.465	1152.31
951.77	1155.03
952.075	1165.65
952.38	1140.56
952.685	1144.63
952.99	1146.21
953.294	1155.7
953.599	1153.9
953.904	1126.78
954.209	1129.04
954.513	1121.13
954.818	1117.96
955.122	1125.65
955.426	1125.2
955.731	1112.32
956.035	1114.12
956.339	1091.3
956.643	1110.51
956.948	1105.99
957.252	1079.55
957.556	1108.7
957.86	1104.41
958.163	1094.46
958.467	1081.13
958.771	1081.13
959.075	1062.6
959.378	1072.99
959.682	1052.2
959.985	1077.29
960.289	1041.13
960.592	1041.36
960.896	1049.04
961.199	1038.87
961.502	1043.84
961.805	1063.28
962.108	1042.71
962.411	1014.92
962.714	1056.95
963.017	1044.97
963.32	1039.1
963.623	1044.52
963.926	1034.13
964.228	1002.94
964.531	1000.91
964.833	1013.79
965.136	999.32
965.438	1013.56
965.741	993.67
966.043	988.93
966.345	993.9
966.648	995.03
966.95	1018.08
967.252	978.99
967.554	952.09
967.856	983.05
968.158	981.02
968.46	974.24
968.761	972.43
969.063	968.59
969.365	964.97
969.666	964.07
969.968	942.6
970.269	951.19
970.571	948.7
970.872	949.61
971.174	931.76
971.475	950.51
971.776	930.17
972.077	925.65
972.378	926.78
972.679	922.04
972.98	937.18
973.281	918.42
973.582	942.15
973.883	914.81
974.183	921.59
974.484	905.09
974.785	897.86
975.085	920.68
975.386	919.1
975.686	915.03
975.986	910.51
976.287	926.33
976.587	864.41
976.887	887.91
977.187	907.12
977.487	895.15
977.787	875.94
978.087	876.84
978.387	870.06
978.687	900.12
978.987	889.72
979.286	886.33
979.586	872.55
979.885	865.77
980.185	855.82
980.484	842.27
980.784	847.01
981.083	840.68
981.382	874.36
981.682	853.34
981.981	849.72
982.28	841.59
982.579	843.62
982.878	834.36
983.177	851.08
983.475	851.53
983.774	821.93
984.073	839.78
984.372	827.8
984.67	833
984.969	822.38
985.267	836.84
985.566	826.9
985.864	810.85
986.162	813.11
986.461	810.4
986.759	818.76
987.057	788.71
987.355	802.94
987.653	779.44
987.951	800.91
988.249	804.07
988.547	833.45
988.844	784.41
989.142	788.93
989.44	781.93
989.737	777.41
990.035	756.39
990.332	737.86
990.63	778.76
990.927	770.4
991.224	774.47
991.521	771.76
991.819	767.92
992.116	743.29
992.413	760.46
992.71	764.53
993.006	752.78
993.303	769.5
993.6	762.95
993.897	743.74
994.193	756.62
994.49	760.23
994.787	738.31
995.083	729.73
995.379	727.01
995.676	735.6
995.972	732.21
996.268	732.44
996.565	751.19
996.861	710.29
997.157	747.58
997.453	729.05
997.749	699.22
998.044	703.06
998.34	709.39
998.636	711.87
998.932	699.22
999.227	710.74
999.523	693.8
999.818	711.87
1000.114	695.83
1000.409	702.38
1000.704	717.52
1001	683.85
1001.295	706.9
1001.59	706.22
1001.885	719.33
1002.18	662.61
1002.475	661.48
1002.77	674.36
1003.065	674.13
1003.359	664.19
1003.654	655.6
1003.949	665.77
1004.243	658.32
1004.538	679.56
1004.832	668.71
1005.127	650.86
1005.421	689.05
1005.715	653.12
1006.009	674.36
1006.304	646.79
1006.598	634.59
1006.892	647.69
1007.186	642.95
1007.48	639.79
1007.773	632.78
1008.067	644.98
1008.361	638.88
1008.655	641.37
1008.948	636.85
1009.242	640.24
1009.535	641.59
1009.829	624.64
1010.122	639.33
1010.415	645.21
1010.708	634.59
1011.001	614.25
1011.295	603.18
1011.588	593.23
1011.881	632.78
1012.173	614.48
1012.466	593.01
1012.759	617.19
1013.052	592.56
1013.344	588.04
1013.637	579.67
1013.93	595.94
1014.222	597.98
1014.514	599.56
1014.807	582.16
1015.099	599.33
1015.391	579.45
1015.683	576.28
1015.976	586
1016.268	555.95
1016.56	580.8
1016.851	570.86
1017.143	571.31
1017.435	573.35
1017.727	572.22
1018.018	545.78
1018.31	588.04
1018.602	541.48
1018.893	559.79
1019.185	576.51
1019.476	564.76
1019.767	566.34
1020.058	555.04
1020.35	558.88
1020.641	545.1
1020.932	569.96
1021.223	557.98
1021.514	537.87
1021.804	546.23
1022.095	526.57
1022.386	539.9
1022.677	532.9
1022.967	525.66
1023.258	549.84
1023.548	531.54
1023.839	513.69
1024.129	555.04
1024.419	535.38
1024.709	524.99
1025	527.92
1025.29	522.5
1025.58	524.99
1025.87	498.32
1026.16	506.91
1026.449	509.62
1026.739	528.38
1027.029	519.79
1027.319	508.04
1027.608	520.24
1027.898	499.9
1028.187	515.04
1028.477	475.72
1028.766	477.08
1029.055	506
1029.344	493.12
1029.634	482.28
1029.923	498.55
1030.212	465.33
1030.501	487.93
1030.79	492.9
1031.078	462.84
1031.367	511.2
1031.656	473.01
1031.945	507.13
1032.233	479.34
1032.522	473.91
1032.81	465.1
1033.099	479.79
1033.387	479.34
1033.675	463.97
1033.963	473.24
1034.251	474.14
1034.54	476.63
1034.828	474.82
1035.116	476.63
1035.403	472.78
1035.691	472.56
1035.979	482.95
1036.267	475.72
1036.554	439.56
1036.842	472.56
1037.129	445.44
1037.417	457.64
1037.704	464.42
1037.992	440.69
1038.279	443.86
1038.566	459
1038.853	459
1039.14	459
