Data from blue_surface_keyboard_FLMS001491_088.txt Node
Date: Tue Feb 07 11:13:47 GMT 2017
User: dcchb
Spectrometer: FLMS00149
Trigger mode: 0
Integration Time (sec): 2.000000E-2
Scans to average: 10
Electric dark correction enabled: true
Nonlinearity correction enabled: false
Boxcar width: 0
XAxis mode: Wavelengths
Number of Pixels in Spectrum: 2048
>>>>>Begin Spectral Data<<<<<
341.393	-26.96
341.776	-26.96
342.16	-26.96
342.543	-65.83
342.927	-64.25
343.31	-64.25
343.693	-68.32
344.077	-72.16
344.46	-78.71
344.843	-68.77
345.226	-55.66
345.61	-22.22
345.993	-9.34
346.376	-21.76
346.759	3.77
347.142	45.35
347.525	56.65
347.908	48.52
348.291	93.26
348.674	96.2
349.057	117.44
349.44	120.15
349.823	133.49
350.206	155.18
350.588	157.44
350.971	198.79
351.354	193.82
351.737	220.49
352.119	213.94
352.502	209.42
352.884	244.89
353.267	261.62
353.65	275.85
354.032	248.06
354.414	268.17
354.797	278.79
355.179	289.87
355.562	310.43
355.944	310.66
356.326	305.01
356.709	315.4
357.091	314.72
357.473	330.99
357.855	305.68
358.238	317.44
358.62	322.86
359.002	323.31
359.384	313.37
359.766	322.86
360.148	296.64
360.53	320.6
360.912	325.12
361.294	313.59
361.676	312.01
362.057	311.79
362.439	288.28
362.821	322.86
363.203	296.64
363.584	307.04
363.966	312.01
364.348	300.26
364.729	293.03
365.111	295.97
365.493	310.88
365.874	293.03
366.256	281.73
366.637	281.96
367.019	255.29
367.4	296.87
367.781	294.16
368.163	295.06
368.544	291
368.925	282.86
369.306	282.86
369.688	274.05
370.069	276.98
370.45	285.35
370.831	282.86
371.212	277.89
371.593	269.07
371.974	285.8
372.355	273.37
372.736	272.92
373.117	261.62
373.498	298.45
373.879	286.25
374.26	290.09
374.641	294.38
375.021	269.3
375.402	301.16
375.783	284.89
376.163	288.28
376.544	287.38
376.925	286.93
377.305	273.37
377.686	271.56
378.066	290.32
378.447	311.79
378.827	287.61
379.208	294.38
379.588	289.19
379.968	288.28
380.349	308.4
380.729	294.16
381.109	277.66
381.489	293.48
381.87	308.85
382.25	290.77
382.63	307.72
383.01	297.77
383.39	306.14
383.77	299.36
384.15	309.53
384.53	318.57
384.91	313.37
385.29	316.08
385.67	323.08
386.049	304.1
386.429	301.62
386.809	323.54
387.189	302.07
387.568	308.17
387.948	325.8
388.328	298
388.707	290.54
389.087	303.65
389.466	303.42
389.846	323.99
390.225	302.52
390.605	330.77
390.984	314.72
391.363	311.11
391.743	308.17
392.122	317.89
392.501	312.69
392.881	320.6
393.26	319.02
393.639	312.01
394.018	336.19
394.397	317.44
394.776	319.47
395.155	334.84
395.534	324.67
395.913	335.06
396.292	313.59
396.671	323.54
397.05	303.65
397.429	323.08
397.808	327.6
398.186	323.99
398.565	320.6
398.944	353.14
399.323	323.31
399.701	329.86
400.08	323.08
400.458	322.63
400.837	330.54
401.215	324.67
401.594	349.52
401.972	329.19
402.351	342.29
402.729	343.2
403.107	354.95
403.486	354.72
403.864	351.56
404.242	355.85
404.62	365.57
404.999	353.59
405.377	354.04
405.755	342.52
406.133	309.98
406.511	351.56
406.889	354.95
407.267	378.45
407.645	366.7
408.023	350.88
408.401	370.32
408.779	347.72
409.156	356.76
409.534	358.11
409.912	344.1
410.29	344.33
410.667	384.1
411.045	348.85
411.422	366.93
411.8	371.67
412.178	378.45
412.555	366.02
412.933	366.47
413.31	364.44
413.687	366.47
414.065	380.03
414.442	372.57
414.819	393.82
415.197	381.61
415.574	382.07
415.951	371.22
416.328	375.96
416.705	391.78
417.082	377.77
417.46	400.37
417.837	402.18
418.214	388.62
418.591	416.42
418.967	401.95
419.344	391.11
419.721	382.29
420.098	407.83
420.475	407.83
420.852	422.07
421.228	418.22
421.605	396.3
421.982	389.98
422.358	396.3
422.735	413.93
423.111	407.83
423.488	413.7
423.864	404.44
424.241	405.34
424.617	426.36
424.994	416.42
425.37	416.42
425.746	413.48
426.123	434.27
426.499	438.34
426.875	429.07
427.251	437.66
427.627	442.63
428.003	427.26
428.379	434.27
428.756	433.36
429.132	442.4
429.507	443.31
429.883	440.37
430.259	451.89
430.635	458
431.011	441.95
431.387	445.34
431.763	455.28
432.138	452.8
432.514	446.25
432.89	465.45
433.265	510.88
433.641	464.32
434.016	483.31
434.392	473.82
434.767	483.76
435.143	488.73
435.518	495.96
435.894	488.28
436.269	505.68
436.644	481.5
437.02	484.66
437.395	486.02
437.77	495.28
438.145	484.21
438.52	507.49
438.895	509.97
439.271	523.53
439.646	500.93
440.021	520.59
440.395	490.76
440.77	488.05
441.145	495.51
441.52	519.46
441.895	530.08
442.27	503.64
442.645	512.01
443.019	525.57
443.394	525.57
443.769	539.58
444.143	531.44
444.518	533.02
444.892	526.02
445.267	512.46
445.641	539.8
446.016	547.94
446.39	515.17
446.764	544.32
447.139	548.39
447.513	542.74
447.887	522.63
448.262	547.03
448.636	574.6
449.01	570.08
449.384	548.39
449.758	588.16
450.132	536.86
450.506	572.12
450.88	567.82
451.254	557.2
451.628	561.04
452.002	585.22
452.376	577.99
452.75	577.32
453.123	586.13
453.497	586.13
453.871	590.2
454.244	620.7
454.618	590.65
454.992	625.9
455.365	600.59
455.739	605.56
456.112	619.12
456.486	603.3
456.859	615.28
457.232	628.16
457.606	595.62
457.979	620.03
458.352	624.32
458.725	629.74
459.099	644.43
459.472	660.7
459.845	643.3
460.218	625.68
460.591	662.06
460.964	644.43
461.337	685.56
461.71	682.4
462.083	660.03
462.456	680.82
462.829	685.11
463.201	699.12
463.574	674.94
463.947	685.56
464.32	731.21
464.692	694.6
465.065	706.58
465.438	705.45
465.81	699.12
466.183	710.65
466.555	715.16
466.928	720.14
467.3	728.95
467.672	742.28
468.045	723.98
468.417	736.86
468.789	751.55
469.161	752.68
469.534	743.64
469.906	782.28
470.278	787.93
470.65	762.62
471.022	803.07
471.394	791.1
471.766	802.17
472.138	810.76
472.51	812.11
472.882	835.39
473.253	853.92
473.625	839.68
473.997	845.1
474.369	852.34
474.74	829.51
475.112	840.81
475.484	855.27
475.855	890.75
476.227	916.74
476.598	904.99
476.97	890.53
477.341	928.94
477.713	921.94
478.084	912
478.455	934.14
478.827	945.44
479.198	941.37
479.569	959.9
479.94	956.51
480.311	987.02
480.682	1030.64
481.053	985.44
481.424	1008.49
481.795	1027.25
482.166	1053.24
482.537	1040.13
482.908	1066.34
483.279	1065.44
483.65	1067.7
484.021	1063.63
484.391	1104.53
484.762	1104.08
485.133	1103.4
485.503	1109.5
485.874	1123.29
486.244	1117.87
486.615	1145.44
486.985	1148.83
487.356	1181.37
487.726	1167.36
488.097	1174.81
488.467	1178.2
488.837	1201.48
489.207	1240.12
489.578	1227.24
489.948	1234.02
490.318	1223.85
490.688	1209.84
491.058	1239.44
491.428	1265.43
491.798	1281.7
492.168	1245.09
492.538	1273.34
492.908	1282.38
493.278	1274.02
493.648	1279.44
494.017	1294.13
494.387	1292.1
494.757	1314.47
495.126	1322.15
495.496	1321.7
495.866	1323.96
496.235	1333.91
496.605	1334.13
496.974	1327.58
497.344	1316.28
497.713	1341.14
498.082	1361.7
498.452	1358.99
498.821	1362.83
499.19	1338.2
499.559	1357.63
499.928	1382.94
500.298	1398.99
500.667	1367.35
501.036	1411.64
501.405	1360.8
501.774	1387.69
502.143	1373
502.512	1404.19
502.88	1411.19
503.249	1398.31
503.618	1403.96
503.987	1405.54
504.356	1382.49
504.724	1419.78
505.093	1419.55
505.462	1412.32
505.83	1405.77
506.199	1429.72
506.567	1429.27
506.936	1427.24
507.304	1471.53
507.672	1419.1
508.041	1459.55
508.409	1455.48
508.777	1454.58
509.145	1443.73
509.514	1439.21
509.882	1459.33
510.25	1461.36
510.618	1475.6
510.986	1466.56
511.354	1482.38
511.722	1468.59
512.09	1477.18
512.458	1508.14
512.826	1488.7
513.193	1514.92
513.561	1498.2
513.929	1486.9
514.297	1494.35
514.664	1509.72
515.032	1516.05
515.4	1490.29
515.767	1541.81
516.135	1488.48
516.502	1490.29
516.869	1527.35
517.237	1505.43
517.604	1541.13
517.972	1519.66
518.339	1519.89
518.706	1534.13
519.073	1538.42
519.44	1557.18
519.808	1545.43
520.175	1559.44
520.542	1572.32
520.909	1551.75
521.276	1568.02
521.643	1549.72
522.009	1558.76
522.376	1566.67
522.743	1581.58
523.11	1591.98
523.477	1584.07
523.843	1604.86
524.21	1597.63
524.577	1598.53
524.943	1590.4
525.31	1638.98
525.676	1615.93
526.043	1620.68
526.409	1615.71
526.776	1634.46
527.142	1631.75
527.508	1627.23
527.874	1617.51
528.241	1630.85
528.607	1605.54
528.973	1632.88
529.339	1644.63
529.705	1630.17
530.071	1652.99
530.437	1661.35
530.803	1670.62
531.169	1679.66
531.535	1661.13
531.901	1655.25
532.267	1668.81
532.632	1664.07
532.998	1672.2
533.364	1688.25
533.73	1695.93
534.095	1674.91
534.461	1671.52
534.826	1702.48
535.192	1680.56
535.557	1695.48
535.923	1690.05
536.288	1717.4
536.653	1721.01
537.019	1701.13
537.384	1690.05
537.749	1722.6
538.114	1682.37
538.479	1702.48
538.845	1696.38
539.21	1689.38
539.575	1710.39
539.94	1687.57
540.305	1723.27
540.67	1720.79
541.034	1703.61
541.399	1733.67
541.764	1705.87
542.129	1707.91
542.494	1729.6
542.858	1716.27
543.223	1706.78
543.587	1708.81
543.952	1688.25
544.316	1709.49
544.681	1722.6
545.045	1711.3
545.41	1722.6
545.774	1749.26
546.138	1726.21
546.503	1728.02
546.867	1735.93
547.231	1692.31
547.595	1740.67
547.959	1699.09
548.324	1711.52
548.688	1720.56
549.052	1773.67
549.416	1742.26
549.779	1715.14
550.143	1728.02
550.507	1730.96
550.871	1720.11
551.235	1747.91
551.599	1723.73
551.962	1735.93
552.326	1772.54
552.689	1754.69
553.053	1735.93
553.417	1707.91
553.78	1759.88
554.143	1734.12
554.507	1753.1
554.87	1745.65
555.234	1765.76
555.597	1727.79
555.96	1775.02
556.323	1748.36
556.686	1785.42
557.05	1747.68
557.413	1751.3
557.776	1773.44
558.139	1771.18
558.502	1776.61
558.865	1753.56
559.228	1777.96
559.59	1758.08
559.953	1770.28
560.316	1795.36
560.679	1752.88
561.041	1780.67
561.404	1779.77
561.767	1793.1
562.129	1791.07
562.492	1801.01
562.854	1800.33
563.217	1809.6
563.579	1784.29
563.941	1811.86
564.304	1816.6
564.666	1826.1
565.028	1842.82
565.39	1831.97
565.753	1806.66
566.115	1811.86
566.477	1834.91
566.839	1854.8
567.201	1811.41
567.563	1841.69
567.925	1854.8
568.287	1842.82
568.648	1838.3
569.01	1873.78
569.372	1832.88
569.734	1861.12
570.095	1843.95
570.457	1848.02
570.819	1877.39
571.18	1860.22
571.542	1836.27
571.903	1873.1
572.265	1868.13
572.626	1873.1
572.987	1859.99
573.349	1886.89
573.71	1890.5
574.071	1885.76
574.432	1910.16
574.794	1864.51
575.155	1909.03
575.516	1883.27
575.877	1896.38
576.238	1899.31
576.599	1918.3
576.96	1941.12
577.32	1910.39
577.681	1927.34
578.042	1904.06
578.403	1896.15
578.763	1924.85
579.124	1939.77
579.485	1936.6
579.845	1959.43
580.206	1916.49
580.566	1918.3
580.927	1959.2
581.287	1955.36
581.648	1940.9
582.008	1937.96
582.368	1947.22
582.728	1953.1
583.089	1946.32
583.449	1911.97
583.809	1950.39
584.169	1958.97
584.529	1932.31
584.889	1953.32
585.249	1955.36
585.609	1930.73
585.969	1953.78
586.329	1927.34
586.688	1926.88
587.048	1957.84
587.408	1920.1
587.768	1943.61
588.127	1932.31
588.487	1952.19
588.846	1932.31
589.206	1960.1
589.565	1928.92
589.925	1978.63
590.284	1944.29
590.643	1930.27
591.003	1968.01
591.362	1958.75
591.721	1962.82
592.08	1958.75
592.44	1958.3
592.799	1957.62
593.158	1965.08
593.517	1955.81
593.876	1971.4
594.235	1965.98
594.593	1965.3
594.952	1968.24
595.311	1973.66
595.67	1959.65
596.029	2005.98
596.387	1990.84
596.746	1970.05
597.104	2001.46
597.463	1982.02
597.822	2016.37
598.18	1973.21
598.538	1998.07
598.897	2008.69
599.255	1982.25
599.613	2003.49
599.972	1985.19
600.33	1992.65
600.688	2003.27
601.046	1999.42
601.404	2013.21
601.762	1999.2
602.12	2003.49
602.478	2033.32
602.836	2008.46
603.194	2024.28
603.552	1999.2
603.91	2001.01
604.268	1979.09
604.625	1996.26
604.983	2024.28
605.341	2030.38
605.698	2032.19
606.056	2037.62
606.413	2018.18
606.771	2022.02
607.128	2081.23
607.485	2031.51
607.843	2035.13
608.2	2031.97
608.557	2062.93
608.914	2033.1
609.272	2065.19
609.629	2032.87
609.986	2083.04
610.343	2046.2
610.7	2085.98
611.057	2093.43
611.414	2071.06
611.771	2071.06
612.127	2079.42
612.484	2066.09
612.841	2086.88
613.198	2082.36
613.554	2076.94
613.911	2079.2
614.267	2063.6
614.624	2111.29
614.98	2112.19
615.337	2094.56
615.693	2091.17
616.05	2084.39
616.406	2104.05
616.762	2143.83
617.118	2140.66
617.475	2143.83
617.831	2115.35
618.187	2173.43
618.543	2113.55
618.899	2144.51
619.255	2108.35
619.611	2130.49
619.967	2132.3
620.323	2132.3
620.678	2172.53
621.034	2123.94
621.39	2139.08
621.746	2154.45
622.101	2147.44
622.457	2139.53
622.812	2137.73
623.168	2170.49
623.523	2141.12
623.879	2136.6
624.234	2160.32
624.589	2207.55
624.945	2164.17
625.3	2187.44
625.655	2148.12
626.01	2158.29
626.365	2196.03
626.72	2189.48
627.075	2193.77
627.43	2175.47
627.785	2168.01
628.14	2179.31
628.495	2223.6
628.85	2216.59
629.205	2186.54
629.559	2207.33
629.914	2213.2
630.269	2218.18
630.623	2206.88
630.978	2217.27
631.332	2202.13
631.687	2223.83
632.041	2221.11
632.396	2251.62
632.75	2234.9
633.104	2243.49
633.459	2206.2
633.813	2227.22
634.167	2252.07
634.521	2269.02
634.875	2251.85
635.229	2241
635.583	2250.49
635.937	2275.12
636.291	2273.54
636.645	2256.82
636.999	2273.32
637.352	2281
637.706	2276.71
638.06	2292.3
638.413	2274.22
638.767	2298.17
639.121	2298.85
639.474	2328.68
639.828	2275.35
640.181	2291.62
640.534	2300.66
640.888	2330.04
641.241	2297.95
641.594	2314.44
641.947	2354.67
642.301	2326.65
642.654	2349.47
643.007	2357.16
643.36	2339.3
643.713	2359.42
644.066	2355.12
644.419	2368.23
644.771	2416.14
645.124	2342.24
645.477	2376.36
645.83	2362.81
646.182	2365.52
646.535	2346.76
646.888	2344.05
647.24	2383.37
647.593	2385.18
647.945	2379.53
648.298	2371.39
648.65	2417.49
649.002	2342.01
649.355	2456.14
649.707	2401
650.059	2415.46
650.411	2428.11
650.763	2475.12
651.115	2488.9
651.467	2540.43
651.819	2541.56
652.171	2569.81
652.523	2543.82
652.875	2528
653.227	2554.89
653.578	2574.78
653.93	2573.2
654.282	2610.71
654.633	2577.71
654.985	2615.23
655.337	2629.01
655.688	2629.24
656.039	2668.56
656.391	2664.49
656.742	2672.85
657.094	2634.66
657.445	2694.32
657.796	2669.92
658.147	2680.99
658.498	2695.9
658.849	2723.7
659.2	2733.64
659.551	2760.08
659.902	2759.18
660.253	2734.55
660.604	2774.55
660.955	2778.61
661.306	2774.32
661.656	2788.1
662.007	2830.36
662.358	2833.08
662.708	2834.21
663.059	2847.54
663.409	2877.59
663.76	2866.29
664.11	2926.63
664.461	2883.24
664.811	2928.21
665.161	2916.46
665.511	2938.38
665.862	2939.29
666.212	2983.13
666.562	2963.92
666.912	2974.09
667.262	2996.46
667.612	2993.07
667.962	3045.73
668.312	3051.6
668.662	3045.27
669.011	3084.14
669.361	3084.59
669.711	3097.93
670.06	3081.88
670.41	3148.77
670.76	3109
671.109	3150.36
671.459	3120.3
671.808	3194.42
672.157	3196
672.507	3146.97
672.856	3192.84
673.205	3204.36
673.554	3234.87
673.904	3221.77
674.253	3251.6
674.602	3256.79
674.951	3256.11
675.3	3177.92
675.649	3270.58
675.998	3262.22
676.346	3292.72
676.695	3296.11
677.044	3317.36
677.393	3350.58
677.741	3372.5
678.09	3344.93
678.438	3379.95
678.787	3348.77
679.135	3388.77
679.484	3414.53
679.832	3410.46
680.181	3391.03
680.529	3442.78
680.877	3440.97
681.225	3446.39
681.573	3506.28
681.922	3466.28
682.27	3492.94
682.618	3514.87
682.966	3498.14
683.314	3544.47
683.661	3527.75
684.009	3507.63
684.357	3534.07
684.705	3498.14
685.053	3554.64
685.4	3556.45
685.748	3554.64
686.095	3581.76
686.443	3574.3
686.79	3572.26
687.138	3567.97
687.485	3662.88
687.832	3585.82
688.18	3622.21
688.527	3616.78
688.874	3649.78
689.221	3625.82
689.568	3624.24
689.915	3637.35
690.262	3656.78
690.609	3640.74
690.956	3612.94
691.303	3657.46
691.65	3617.46
691.997	3633.28
692.344	3638.48
692.69	3694.75
693.037	3701.3
693.383	3616.11
693.73	3644.13
694.077	3638.48
694.423	3655.43
694.769	3666.5
695.116	3658.14
695.462	3683
695.808	3662.66
696.155	3664.47
696.501	3614.98
696.847	3638.25
697.193	3664.24
697.539	3662.43
697.885	3603.22
698.231	3622.66
698.577	3664.01
698.923	3650.68
699.269	3609.55
699.614	3598.48
699.96	3626.95
700.306	3609.33
700.651	3628.08
700.997	3631.7
701.342	3590.8
701.688	3617.46
702.033	3647.74
702.379	3647.07
702.724	3610.46
703.069	3581.3
703.415	3610.91
703.76	3599.83
704.105	3608.2
704.45	3582.21
704.795	3574.75
705.14	3558.71
705.485	3595.99
705.83	3549.21
706.175	3586.05
706.52	3533.4
706.865	3565.94
707.209	3575.88
707.554	3516.45
707.899	3603.22
708.243	3595.99
708.588	3565.71
708.932	3548.76
709.277	3539.05
709.621	3554.86
709.966	3509.67
710.31	3568.88
710.654	3553.28
710.998	3563.68
711.342	3525.49
711.687	3526.84
712.031	3520.06
712.375	3491.14
712.719	3520.06
713.063	3543.11
713.407	3540.4
713.75	3512.83
714.094	3520.97
714.438	3496.79
714.782	3527.29
715.125	3510.57
715.469	3512.38
715.812	3520.97
716.156	3478.71
716.499	3503.79
716.843	3457.47
717.186	3477.35
717.53	3539.95
717.873	3501.31
718.216	3492.49
718.559	3531.36
718.902	3449.33
719.246	3496.11
719.589	3462.21
719.932	3465.15
720.275	3507.63
720.617	3468.31
720.96	3429.9
721.303	3503.11
721.646	3468.76
721.989	3448.2
722.331	3439.84
722.674	3535.66
723.016	3509.67
723.359	3490.01
723.701	3437.35
724.044	3474.19
724.386	3487.07
724.729	3457.47
725.071	3481.42
725.413	3505.83
725.755	3476.67
726.097	3470.57
726.439	3484.58
726.782	3484.13
727.124	3507.18
727.465	3487.3
727.807	3510.57
728.149	3523.23
728.491	3491.81
728.833	3480.06
729.175	3488.2
729.516	3499.72
729.858	3461.08
730.199	3504.47
730.541	3521.19
730.882	3516.22
731.224	3522.77
731.565	3516
731.906	3572.94
732.248	3520.97
732.589	3503.57
732.93	3491.14
733.271	3540.4
733.612	3526.62
733.953	3497.24
734.294	3557.12
734.635	3539.72
734.976	3549.21
735.317	3539.05
735.658	3569.78
735.999	3576.78
736.339	3533.62
736.68	3571.13
737.021	3559.84
737.361	3565.03
737.702	3588.54
738.042	3557.58
738.383	3592.15
738.723	3613.62
739.063	3601.42
739.404	3588.76
739.744	3619.72
740.084	3595.54
740.424	3631.92
740.764	3614.75
741.104	3647.74
741.444	3626.27
741.784	3617.91
742.124	3705.14
742.464	3653.17
742.804	3688.42
743.143	3673.73
743.483	3702.43
743.823	3680.28
744.162	3700.17
744.502	3723.45
744.841	3735.65
745.181	3742.43
745.52	3748.08
745.86	3772.94
746.199	3774.07
746.538	3769.32
746.877	3846.83
747.216	3829.66
747.556	3836.66
747.895	3851.35
748.234	3857.46
748.573	3879.83
748.911	3887.51
749.25	3913.95
749.589	3897.68
749.928	3937.68
750.267	3957.79
750.605	3920.05
750.944	4014.74
751.283	3979.03
751.621	4022.2
751.96	4033.95
752.298	4071.01
752.636	4038.92
752.975	4090.44
753.313	4113.95
753.651	4140.39
753.989	4136.77
754.327	4153.27
754.666	4168.41
755.004	4200.5
755.342	4182.42
755.679	4254.05
756.017	4221.97
756.355	4259.25
756.693	4285.47
757.031	4310.55
757.368	4284.11
757.706	4340.61
758.044	4359.81
758.381	4334.05
758.719	4350.55
759.056	4405.69
759.394	4400.49
759.731	4414.5
760.068	4434.16
760.405	4457.21
760.743	4476.65
761.08	4454.73
761.417	4472.81
761.754	4491.56
762.091	4471.68
762.428	4497.89
762.765	4506.7
763.102	4534.27
763.438	4528.4
763.775	4534.95
764.112	4580.37
764.449	4558.91
764.785	4543.99
765.122	4561.62
765.458	4529.53
765.795	4586.7
766.131	4560.26
766.467	4557.78
766.804	4561.17
767.14	4584.44
767.476	4551.67
767.812	4564.1
768.148	4568.17
768.485	4551
768.821	4590.32
769.157	4567.49
769.492	4618.34
769.828	4583.09
770.164	4585.8
770.5	4575.85
770.836	4588.06
771.171	4536.99
771.507	4581.5
771.842	4536.08
772.178	4533.6
772.513	4540.6
772.849	4554.39
773.184	4582.63
773.519	4514.61
773.855	4509.87
774.19	4493.14
774.525	4489.08
774.86	4492.69
775.195	4503.09
775.53	4496.53
775.865	4472.81
776.2	4464.9
776.535	4402.3
776.87	4425.12
777.205	4393.49
777.539	4414.5
777.874	4405.24
778.209	4327.95
778.543	4350.1
778.878	4367.5
779.212	4351.45
779.547	4378.35
779.881	4356.65
780.215	4285.69
780.55	4311.45
780.884	4300.16
781.218	4260.83
781.552	4266.48
781.886	4281.17
782.22	4244.34
782.554	4272.36
782.888	4192.59
783.222	4195.07
783.556	4162.76
783.889	4196.66
784.223	4158.24
784.557	4193.27
784.89	4181.06
785.224	4158.01
785.557	4134.51
785.891	4108.97
786.224	4097.22
786.558	4090.67
786.891	4086.83
787.224	4082.99
787.557	4064.23
787.891	4056.32
788.224	4062.2
788.557	4047.73
788.89	4080.95
789.223	4062.65
789.556	3992.37
789.888	3967.73
790.221	4001.18
790.554	3925.7
790.887	3982.42
791.219	3979.94
791.552	3906.04
791.884	3933.16
792.217	3911.92
792.549	3911.92
792.882	3877.79
793.214	3887.06
793.546	3916.89
793.879	3851.58
794.211	3858.36
794.543	3854.07
794.875	3847.74
795.207	3879.83
795.539	3847.96
795.871	3840.51
796.203	3817.46
796.535	3771.13
796.867	3807.06
797.198	3798.47
797.53	3753.95
797.862	3747.85
798.193	3700.85
798.525	3725.93
798.856	3812.94
799.188	3701.98
799.519	3692.71
799.85	3662.21
800.182	3675.54
800.513	3640.51
800.844	3630.12
801.175	3684.8
801.506	3655.65
801.837	3628.31
802.168	3633.51
802.499	3593.73
802.83	3624.92
803.161	3555.99
803.491	3611.59
803.822	3533.85
804.153	3567.29
804.483	3565.94
804.814	3534.75
805.145	3541.98
805.475	3508.09
805.805	3526.62
806.136	3494.98
806.466	3500.18
806.796	3490.69
807.126	3471.25
807.457	3409.78
807.787	3446.39
808.117	3482.32
808.447	3419.27
808.777	3443.23
809.107	3457.01
809.436	3436.45
809.766	3428.54
810.096	3446.84
810.426	3409.33
810.755	3419.27
811.085	3421.08
811.414	3403.23
811.744	3370.69
812.073	3347.19
812.403	3339.05
812.732	3366.62
813.061	3352.16
813.39	3330.01
813.719	3324.36
814.049	3308.09
814.378	3317.58
814.707	3347.64
815.036	3308.32
815.365	3310.8
815.693	3283.46
816.022	3225.61
816.351	3257.24
816.68	3212.5
817.008	3245.72
817.337	3268.32
817.665	3250.47
817.994	3220.86
818.322	3254.08
818.651	3237.13
818.979	3197.36
819.307	3223.57
819.636	3187.64
819.964	3151.03
820.292	3163.69
820.62	3207.53
820.948	3153.52
821.276	3202.78
821.604	3189.68
821.932	3180.64
822.259	3174.76
822.587	3166.4
822.915	3186.74
823.243	3173.63
823.57	3155.33
823.898	3198.49
824.225	3185.61
824.553	3157.59
824.88	3212.05
825.207	3181.77
825.535	3154.87
825.862	3178.83
826.189	3184.93
826.516	3177.92
826.843	3173.86
827.17	3180.18
827.497	3190.13
827.824	3175.44
828.151	3195.55
828.478	3193.74
828.805	3158.04
829.131	3161.43
829.458	3172.73
829.785	3116.01
830.111	3191.48
830.438	3253.4
830.764	3189.68
831.09	3143.8
831.417	3158.94
831.743	3179.96
832.069	3164.14
832.395	3177.92
832.722	3194.87
833.048	3184.25
833.374	3147.87
833.7	3156.46
834.026	3164.14
834.351	3182.9
834.677	3129.79
835.003	3120.07
835.329	3108.1
835.654	3124.82
835.98	3137.25
836.306	3132.28
836.631	3146.29
836.956	3148.32
837.282	3153.07
837.607	3153.97
837.932	3116.23
838.258	3108.77
838.583	3128.89
838.908	3121.88
839.233	3142.45
839.558	3107.64
839.883	3102.22
840.208	3098.38
840.533	3077.14
840.858	3084.59
841.182	3064.93
841.507	3088.89
841.832	3085.95
842.156	3013.86
842.481	3045.5
842.805	3033.52
843.13	3031.26
843.454	3017.93
843.778	3032.84
844.103	3012.51
844.427	3019.96
844.751	3032.62
845.075	2993.75
845.399	2960.76
845.723	3009.34
846.047	2992.17
846.371	2953.3
846.695	2963.02
847.019	2965.05
847.343	2945.16
847.666	2887.76
847.99	2897.48
848.313	2918.27
848.637	2881.21
848.96	2846.41
849.284	2865.84
849.607	2862.68
849.931	2858.61
850.254	2838.05
850.577	2807.54
850.9	2797.37
851.223	2781.1
851.546	2803.25
851.869	2740.42
852.192	2784.26
852.515	2808.9
852.838	2754.89
853.161	2749.46
853.483	2747.65
853.806	2739.07
854.129	2742.46
854.451	2711.72
854.774	2712.85
855.096	2721.44
855.419	2725.96
855.741	2693.42
856.063	2657.94
856.385	2659.75
856.708	2695.9
857.03	2677.37
857.352	2654.1
857.674	2621.78
857.996	2656.36
858.318	2626.75
858.64	2630.14
858.961	2640.31
859.283	2624.04
859.605	2618.84
859.926	2579.75
860.248	2594.66
860.57	2580.43
860.891	2584.72
861.212	2596.25
861.534	2568.68
861.855	2580.65
862.176	2566.42
862.498	2561.44
862.819	2554.89
863.14	2562.8
863.461	2556.02
863.782	2545.17
864.103	2563.48
864.424	2514.44
864.745	2517.83
865.065	2556.47
865.386	2547.88
865.707	2499.52
866.027	2537.49
866.348	2509.69
866.668	2527.77
866.989	2518.73
867.309	2489.36
867.63	2522.8
867.95	2481.67
868.27	2477.83
868.59	2474.44
868.91	2478.51
869.23	2525.51
869.55	2448.23
869.87	2488.9
870.19	2431.5
870.51	2478.51
870.83	2469.24
871.15	2441.67
871.469	2491.16
871.789	2488.23
872.109	2496.81
872.428	2440.09
872.748	2419.07
873.067	2441.45
873.386	2456.14
873.706	2436.25
874.025	2396.02
874.344	2404.39
874.663	2436.48
874.982	2424.27
875.301	2410.49
875.62	2386.31
875.939	2436.93
876.258	2410.94
876.577	2404.84
876.896	2408.45
877.214	2410.71
877.533	2420.2
877.852	2395.12
878.17	2432.63
878.489	2404.84
878.807	2411.62
879.125	2377.27
879.444	2407.1
879.762	2344.27
880.08	2386.99
880.398	2345.4
880.716	2379.98
881.034	2372.97
881.352	2339.53
881.67	2362.13
881.988	2340.88
882.306	2332.75
882.624	2339.3
882.941	2358.29
883.259	2333.43
883.577	2326.2
883.894	2331.17
884.212	2324.61
884.529	2332.98
884.846	2322.35
885.164	2319.19
885.481	2258.4
885.798	2317.38
886.115	2284.39
886.432	2276.48
886.75	2264.73
887.067	2292.07
887.383	2280.77
887.7	2276.93
888.017	2268.34
888.334	2236.71
888.651	2231.51
888.967	2264.73
889.284	2254.33
889.6	2266.31
889.917	2229.25
890.233	2217.95
890.55	2232.64
890.866	2236.25
891.182	2205.3
891.498	2214.56
891.815	2193.09
892.131	2166.2
892.447	2193.32
892.763	2183.83
893.079	2172.53
893.395	2195.58
893.71	2161.45
894.026	2149.93
894.342	2173.66
894.657	2162.13
894.973	2179.99
895.289	2112.64
895.604	2156.03
895.92	2141.79
896.235	2127.78
896.55	2120.1
896.865	2103.15
897.181	2072.42
897.496	2074.23
897.811	2084.62
898.126	2114.22
898.441	2071.29
898.756	2042.14
899.071	2089.14
899.386	2050.5
899.7	2065.64
900.015	2071.74
900.33	2057.28
900.644	2071.97
900.959	2009.37
901.273	2013.21
901.588	2026.32
901.902	2017.28
902.216	1999.42
902.531	2045.75
902.845	1995.58
903.159	2001.91
903.473	1987.45
903.787	1984.28
904.101	1980.67
904.415	1941.8
904.729	1951.97
905.042	1950.39
905.356	1930.5
905.67	1946.54
905.984	1946.77
906.297	1969.6
906.611	1921.23
906.924	1928.69
907.237	1917.17
907.551	1921.23
907.864	1883.27
908.177	1889.82
908.491	1942.48
908.804	1874
909.117	1859.54
909.43	1871.97
909.743	1873.78
910.056	1845.53
910.368	1838.98
910.681	1840.78
910.994	1869.71
911.307	1835.81
911.619	1806.21
911.932	1820.45
912.244	1808.7
912.557	1811.86
912.869	1822.25
913.181	1796.72
913.494	1777.96
913.806	1786.55
914.118	1768.92
914.43	1767.57
914.742	1799.88
915.054	1767.34
915.366	1754.46
915.678	1755.14
915.99	1745.42
916.302	1752.65
916.613	1722.14
916.925	1730.96
917.236	1725.53
917.548	1685.31
917.859	1686.89
918.171	1685.31
918.482	1726.21
918.794	1703.39
919.105	1696.16
919.416	1670.62
919.727	1680.79
920.038	1664.29
920.349	1671.75
920.66	1652.77
920.971	1655.71
921.282	1637.85
921.593	1659.32
921.903	1635.37
922.214	1635.59
922.525	1620.23
922.835	1604.18
923.146	1624.29
923.456	1621.58
923.767	1618.87
924.077	1614.8
924.387	1589.27
924.697	1574.8
925.008	1575.03
925.318	1580.68
925.628	1575.26
925.938	1553.33
926.248	1567.35
926.558	1535.71
926.867	1558.53
927.177	1554.92
927.487	1534.8
927.796	1542.94
928.106	1530.74
928.416	1532.32
928.725	1499.55
929.034	1494.58
929.344	1509.27
929.653	1515.37
929.962	1501.36
930.271	1497.74
930.581	1479.89
930.89	1460.68
931.199	1499.78
931.508	1466.33
931.817	1469.27
932.125	1454.35
932.434	1464.3
932.743	1453.45
933.051	1456.84
933.36	1445.99
933.669	1426.56
933.977	1431.08
934.286	1421.81
934.594	1420.23
934.902	1412.55
935.21	1397.18
935.519	1405.54
935.827	1430.4
936.135	1425.43
936.443	1424.52
936.751	1384.75
937.059	1387.69
937.367	1381.81
937.674	1387.01
937.982	1384.98
938.29	1366.22
938.597	1371.64
938.905	1331.19
939.213	1359.22
939.52	1353.57
939.827	1342.94
940.135	1341.59
940.442	1331.65
940.749	1315.15
941.056	1321.25
941.363	1350.85
941.67	1303.85
941.977	1314.47
942.284	1314.92
942.591	1343.4
942.898	1321.7
943.205	1283.96
943.511	1281.25
943.818	1290.52
944.125	1272.89
944.431	1276.28
944.738	1275.38
945.044	1268.37
945.35	1265.88
945.657	1274.47
945.963	1241.7
946.269	1263.17
946.575	1261.37
946.881	1251.87
947.187	1269.73
947.493	1276.05
947.799	1223.85
948.105	1248.48
948.41	1196.73
948.716	1225.21
949.022	1220.91
949.327	1191.54
949.633	1198.99
949.938	1184.31
950.244	1210.52
950.549	1220.24
950.854	1186.56
951.16	1183.18
951.465	1190.18
951.77	1178.66
952.075	1193.12
952.38	1174.59
952.685	1186.34
952.99	1161.48
953.294	1166
953.599	1167.58
953.904	1156.74
954.209	1137.3
954.513	1133.91
954.818	1142.5
955.122	1128.26
955.426	1122.16
955.731	1141.59
956.035	1116.51
956.339	1132.1
956.643	1110.41
956.948	1080.58
957.252	1115.38
957.556	1134.81
957.86	1109.28
958.163	1106.11
958.467	1083.97
958.771	1089.17
959.075	1104.31
959.378	1106.34
959.682	1100.01
959.985	1048.04
960.289	1073.12
960.592	1098.43
960.896	1052.33
961.199	1054.59
961.502	1072.22
961.805	1060.24
962.108	1060.24
962.411	1051.65
962.714	1037.64
963.017	1056.17
963.32	1037.19
963.623	1049.17
963.926	1046.68
964.228	1066.12
964.531	1048.26
964.833	1052.78
965.136	1026.12
965.438	1020.69
965.741	1004.65
966.043	1040.13
966.345	1007.36
966.648	1006.23
966.95	964.65
967.252	1005.78
967.554	1008.94
967.856	1000.58
968.158	985.21
968.46	986.34
968.761	975.5
969.063	969.62
969.365	987.02
969.666	969.85
969.968	977.08
970.269	982.73
970.571	989.73
970.872	950.86
971.174	962.62
971.475	973.24
971.776	961.49
972.077	953.12
972.378	938.89
972.679	952.67
972.98	952.9
973.281	957.87
973.582	940.92
973.883	942.96
974.183	921.04
974.484	928.49
974.785	906.8
975.085	936.85
975.386	920.81
975.686	914.93
975.986	913.58
976.287	932.56
976.587	892.34
976.887	890.53
977.187	902.05
977.487	901.15
977.787	910.41
978.087	942.96
978.387	906.35
978.687	868.61
978.987	883.52
979.286	854.82
979.586	875.61
979.885	879.91
980.185	878.55
980.484	894.37
980.784	866.57
981.083	867.93
981.382	866.8
981.682	864.54
981.981	863.64
982.28	843.3
982.579	825.44
982.878	850.08
983.177	837.42
983.475	862.73
983.774	846.23
984.073	852.11
984.372	836.07
984.67	847.59
984.969	827.25
985.267	876.52
985.566	826.8
985.864	827.03
986.162	833.58
986.461	809.85
986.759	827.7
987.057	824.54
987.355	803.3
987.653	825.9
987.951	786.8
988.249	821.38
988.547	796.07
988.844	808.04
989.142	829.06
989.44	801.72
989.737	815.28
990.035	804.65
990.332	775.28
990.63	792.45
990.927	774.15
991.224	760.59
991.521	780.02
991.819	782.96
992.116	780.47
992.413	780.25
992.71	788.16
993.006	770.3
993.303	767.59
993.6	767.37
993.897	749.97
994.193	747.93
994.49	755.39
994.787	747.48
995.083	752.9
995.379	733.02
995.676	744.32
995.972	739.57
996.268	747.93
996.565	755.62
996.861	725.11
997.157	730.08
997.453	739.57
997.749	740.47
998.044	731.89
998.34	721.04
998.636	735.73
998.932	710.19
999.227	724.2
999.523	714.71
999.818	719.91
1000.114	728.5
1000.409	720.36
1000.704	705.22
1001	724.66
1001.295	698.44
1001.59	719.01
1001.885	683.53
1002.18	718.55
1002.475	678.1
1002.77	699.57
1003.065	676.07
1003.359	676.07
1003.654	689.85
1003.949	675.84
1004.243	662.96
1004.538	645.79
1004.832	666.13
1005.127	649.63
1005.421	658.9
1005.715	679.23
1006.009	665.9
1006.304	664.54
1006.598	625.22
1006.892	679.46
1007.186	632.46
1007.48	664.09
1007.773	642.85
1008.067	665.9
1008.361	643.08
1008.655	638.78
1008.948	617.09
1009.242	627.94
1009.535	640.36
1009.829	639.69
1010.122	645.11
1010.415	638.78
1010.708	636.3
1011.001	622.06
1011.295	636.97
1011.588	624.77
1011.881	620.48
1012.173	604.66
1012.466	617.77
1012.759	620.7
1013.052	620.25
1013.344	598.78
1013.637	594.72
1013.93	597.88
1014.222	589.74
1014.514	575.73
1014.807	600.37
1015.099	615.05
1015.391	600.59
1015.683	594.94
1015.976	585
1016.268	586.13
1016.56	569.41
1016.851	591.33
1017.143	570.08
1017.435	576.19
1017.727	596.52
1018.018	599.91
1018.31	561.5
1018.602	579.58
1018.893	565.56
1019.185	568.73
1019.476	564.21
1019.767	566.69
1020.058	553.81
1020.35	549.75
1020.641	554.49
1020.932	550.42
1021.223	545.68
1021.514	539.12
1021.804	539.58
1022.095	544.55
1022.386	554.27
1022.677	529.63
1022.967	544.32
1023.258	536.41
1023.548	523.98
1023.839	521.5
1024.129	551.55
1024.419	528.28
1024.709	518.11
1025	525.34
1025.29	536.41
1025.58	522.85
1025.87	506.13
1026.16	533.93
1026.449	516.07
1026.739	518.33
1027.029	499.35
1027.319	513.59
1027.608	547.26
1027.898	515.62
1028.187	507.94
1028.477	492.8
1028.766	504.1
1029.055	499.35
1029.344	487.83
1029.634	515.4
1029.923	486.02
1030.212	491.89
1030.501	501.84
1030.79	501.39
1031.078	497.32
1031.367	498
1031.656	496.64
1031.945	498.67
1032.233	497.32
1032.522	482.85
1032.81	473.59
1033.099	478.11
1033.387	478.33
1033.675	490.09
1033.963	479.01
1034.251	481.72
1034.54	467.49
1034.828	472.46
1035.116	461.16
1035.403	469.52
1035.691	447.83
1035.979	477.2
1036.267	453.02
1036.554	467.26
1036.842	478.56
1037.129	467.26
1037.417	479.92
1037.704	474.27
1037.992	448.51
1038.279	448.73
1038.566	451.67
1038.853	451.67
1039.14	451.67
