Data from blue_shiny_book_FLMS001491_00055.txt Node
Date: Wed Feb 08 15:27:13 GMT 2017
User: dcchb
Spectrometer: FLMS00149
Trigger mode: 0
Integration Time (sec): 2.000000E-2
Scans to average: 10
Electric dark correction enabled: true
Nonlinearity correction enabled: false
Boxcar width: 0
XAxis mode: Wavelengths
Number of Pixels in Spectrum: 2048
>>>>>Begin Spectral Data<<<<<
341.393	-14.6
341.776	-14.6
342.16	-14.6
342.543	-42.85
342.927	-83.53
343.31	-82.85
343.693	-56.41
344.077	-68.39
344.46	-47.82
344.843	-56.41
345.226	-40.14
345.61	-39.24
345.993	-15.73
346.376	-4.89
346.759	-6.69
347.142	32.17
347.525	50.93
347.908	63.36
348.291	61.1
348.674	92.74
349.057	118.27
349.44	134.54
349.823	141.78
350.206	161.21
350.588	219.97
350.971	235.78
351.354	236.91
351.737	283.92
352.119	274.88
352.502	278.27
352.884	287.31
353.267	309.23
353.65	326.18
354.032	307.42
354.414	330.02
354.797	336.8
355.179	345.84
355.562	350.36
355.944	334.77
356.326	350.81
356.709	360.3
357.091	361.43
357.473	370.47
357.855	375.44
358.238	373.63
358.62	369.34
359.002	361.21
359.384	363.47
359.766	354.65
360.148	371.37
360.53	369.57
360.912	370.02
361.294	367.31
361.676	375.67
362.057	360.75
362.439	376.35
362.821	361.21
363.203	370.47
363.584	357.14
363.966	344.48
364.348	351.04
364.729	354.88
365.111	348.55
365.493	377.48
365.874	359.62
366.256	366.85
366.637	367.08
367.019	352.84
367.4	362.79
367.781	370.92
368.163	360.08
368.544	363.69
368.925	346.97
369.306	358.04
369.688	353.52
370.069	347.42
370.45	365.05
370.831	371.6
371.212	365.72
371.593	369.11
371.974	379.96
372.355	368.44
372.736	359.85
373.117	389.68
373.498	378.38
373.879	364.14
374.26	389.45
374.641	372.28
375.021	384.26
375.402	376.12
375.783	387.87
376.163	396.23
376.544	419.51
376.925	429.9
377.305	404.59
377.686	404.82
378.066	428.32
378.447	406.85
378.827	412.5
379.208	398.27
379.588	407.53
379.968	421.77
380.349	417.02
380.729	418.6
381.109	434.2
381.489	443.69
381.87	424.03
382.25	448.21
382.63	430.13
383.01	444.59
383.39	443.24
383.77	459.51
384.15	468.1
384.53	478.94
384.91	494.08
385.29	467.42
385.67	468.55
386.049	490.69
386.429	501.54
386.809	484.14
387.189	509.45
387.568	491.15
387.948	517.81
388.328	512.39
388.707	520.07
389.087	522.33
389.466	523.23
389.846	522.1
390.225	536.57
390.605	536.57
390.984	532.5
391.363	545.38
391.743	560.52
392.122	569.56
392.501	587.64
392.881	593.97
393.26	589.22
393.639	587.41
394.018	615.21
394.397	610.01
394.776	619.05
395.155	603.68
395.534	632.61
395.913	612.5
396.292	607.3
396.671	614.08
397.05	654.53
397.429	661.76
397.808	666.28
398.186	661.08
398.565	677.81
398.944	652.05
399.323	694.76
399.701	686.39
400.08	696.56
400.458	688.88
400.837	695.89
401.215	726.85
401.594	735.66
401.972	716.68
402.351	723.23
402.729	746.73
403.107	763
403.486	753.74
403.864	781.08
404.242	807.07
404.62	804.13
404.999	781.53
405.377	808.65
405.755	791.7
406.133	817.46
406.511	850.01
406.889	847.29
407.267	869.89
407.645	880.74
408.023	880.51
408.401	904.69
408.779	926.16
409.156	931.59
409.534	924.35
409.912	962.09
410.29	960.96
410.667	979.04
411.045	1013.17
411.422	1001.41
411.8	1028.98
412.178	1045.93
412.555	1060.17
412.933	1076.44
413.31	1118.7
413.687	1111.69
414.065	1136.1
414.442	1117.12
414.819	1147.85
415.197	1131.35
415.574	1154.4
415.951	1178.36
416.328	1210.22
416.705	1205.93
417.082	1213.39
417.46	1250.22
417.837	1270.33
418.214	1269.43
418.591	1285.93
418.967	1309.88
419.344	1292.25
419.721	1320.5
420.098	1322.31
420.475	1332.71
420.852	1365.47
421.228	1388.52
421.605	1402.99
421.982	1436.43
422.358	1427.39
422.735	1453.83
423.111	1440.95
423.488	1497.67
423.864	1463.32
424.241	1535.19
424.617	1529.31
424.994	1544.45
425.37	1555.98
425.746	1565.02
426.123	1626.93
426.499	1618.57
426.875	1664.22
427.251	1696.54
427.627	1694.28
428.003	1715.07
428.379	1746.71
428.756	1730.43
429.132	1762.52
429.507	1793.26
429.883	1854.73
430.259	1875.29
430.635	1911.9
431.011	1925.68
431.387	1991.9
431.763	2017.88
432.138	2030.31
432.514	2076.19
432.89	2063.31
433.265	2111.89
433.641	2141.5
434.016	2158.67
434.392	2205.45
434.767	2216.3
435.143	2236.18
435.518	2254.49
435.894	2324.32
436.269	2329.29
436.644	2393.24
437.02	2404.09
437.395	2431.66
437.77	2455.61
438.145	2498.1
438.52	2503.75
438.895	2522.73
439.271	2546.01
439.646	2631.43
440.021	2609.51
440.395	2661.03
440.77	2672.33
441.145	2728.37
441.52	2764.08
441.895	2746
442.27	2787.81
442.645	2821.25
443.019	2837.3
443.394	2847.69
443.769	2848.6
444.143	2858.31
444.518	2929.27
444.892	2932.89
445.267	2961.14
445.641	2978.31
446.016	3037.74
446.39	3023.28
446.764	3040.23
447.139	3088.59
447.513	3085.2
447.887	3111.19
448.262	3155.71
448.636	3134.69
449.01	3195.71
449.384	3261.92
449.758	3287.23
450.132	3269.15
450.506	3350.73
450.88	3356.61
451.254	3403.84
451.628	3440.67
452.002	3468.24
452.376	3517.96
452.75	3544.17
453.123	3575.81
453.497	3652.19
453.871	3702.36
454.244	3762.25
454.618	3743.04
454.992	3774
455.365	3865.52
455.739	3963.82
456.112	3989.13
456.486	4040.43
456.859	4075.23
457.232	4138.28
457.606	4117.49
457.979	4205.4
458.352	4280.88
458.725	4353.19
459.099	4381.66
459.472	4435.22
459.845	4476.35
460.218	4524.71
460.591	4654.65
460.964	4632.28
461.337	4762.45
461.71	4793.63
462.083	4930.12
462.456	4870.69
462.829	4976.68
463.201	5006.73
463.574	5043.34
463.947	5189.78
464.32	5285.82
464.692	5310.23
465.065	5348.87
465.438	5402.88
465.81	5539.15
466.183	5644.23
466.555	5669.31
466.928	5775.98
467.3	5762.19
467.672	5877.22
468.045	6041.28
468.417	6065.69
468.789	6070.66
469.161	6194.72
469.534	6275.17
469.906	6445.79
470.278	6468.62
470.65	6520.37
471.022	6690.08
471.394	6853.92
471.766	6894.37
472.138	6896.85
472.51	7080.35
472.882	7200.12
473.253	7319.67
473.625	7420.45
473.997	7600.56
474.369	7577.06
474.74	7706.32
475.112	7892.76
475.484	7951.97
475.855	8157.61
476.227	8225.86
476.598	8397.38
476.97	8432.41
477.341	8693.42
477.713	8820.42
478.084	8911.94
478.455	9226.06
478.827	9304.92
479.198	9514.64
479.569	9566.61
479.94	9883.44
480.311	9868.53
480.682	10072.59
481.053	10352.58
481.424	10515.29
481.795	10570.43
482.166	10822.85
482.537	10954.6
482.908	11227.13
483.279	11384.42
483.65	11546.22
484.021	11825.54
484.391	11880
484.762	12064.63
485.133	12171.97
485.503	12319.53
485.874	12646.08
486.244	12771.73
486.615	12946.41
486.985	13116.12
487.356	13398.38
487.726	13529.9
488.097	13874.07
488.467	13890.79
488.837	14142.31
489.207	14307.05
489.578	14551.11
489.948	14703.2
490.318	14948.17
490.688	14999.92
491.058	15229.06
491.428	15434.93
491.798	15634.02
492.168	16016.84
492.538	15982.72
492.908	16139.77
493.278	16375.93
493.648	16442.36
494.017	16653.43
494.387	16895.46
494.757	16984.95
495.126	17291.38
495.496	17302.45
495.866	17571.15
496.235	17755.55
496.605	17956
496.974	18093.62
497.344	18200.28
497.713	18347.62
498.082	18515.3
498.452	18672.36
498.821	18801.4
499.19	18887.95
499.559	19033.71
499.928	19132.24
500.298	19322.97
500.667	19474.37
501.036	19572.9
501.405	19696.06
501.774	19974.25
502.143	20104.19
502.512	20266.44
502.88	20472.09
503.249	20518.64
503.618	20651.52
503.987	20733.55
504.356	20814.45
504.724	20958.18
505.093	21048.12
505.462	21052.64
505.83	21218.28
506.199	21353.2
506.567	21649.91
506.936	21666.86
507.304	22017.36
507.672	22103.23
508.041	22247.18
508.409	22510.91
508.777	22694.63
509.145	22971.68
509.514	23043.32
509.882	23179.14
510.25	23374.61
510.618	23528.05
510.986	23623.19
511.354	23789.29
511.722	24004.88
512.09	24161.03
512.458	24114.03
512.826	24253.68
513.193	24387.69
513.561	24610.51
513.929	24736.38
514.297	25114.9
514.664	25185.64
515.032	25411.17
515.4	25697.26
515.767	25937.03
516.135	26142.67
516.502	25964.15
516.869	26436.68
517.237	26600.52
517.604	26651.14
517.972	26956.21
518.339	27032.82
518.706	27078.02
519.073	27112.82
519.44	27389.87
519.808	27419.48
520.175	27517.55
520.542	27997.31
520.909	28061.49
521.276	28256.74
521.643	28473.69
522.009	28769.5
522.376	28975.14
522.743	29077.96
523.11	29584.84
523.477	29853.54
523.843	30188.9
524.21	30540.52
524.577	30654.87
524.943	30812.16
525.31	31008.99
525.676	31169.43
526.043	31234.29
526.409	31510.89
526.776	31805.58
527.142	31812.36
527.508	31984.33
527.874	32205.11
528.241	32382.74
528.607	32580.92
528.973	32960.35
529.339	32962.16
529.705	33602.82
530.071	33876.48
530.437	34017.95
530.803	34424.94
531.169	34597.14
531.535	34694.54
531.901	34786.51
532.267	34969.79
532.632	35225.37
532.998	35164.36
533.364	35344.47
533.73	35386.5
534.095	35657.9
534.461	35626.94
534.826	35840.72
535.192	35859.93
535.557	36148.06
535.923	36090.44
536.288	36396.42
536.653	36547.82
537.019	36565
537.384	36890.87
537.749	37081.14
538.114	37338.31
538.479	37373.11
538.845	37711.64
539.21	37774.23
539.575	37815.59
539.94	37933.1
540.305	38131.29
540.67	38142.13
541.034	38110.27
541.399	38313.65
541.764	38204.5
542.129	38347.1
542.494	38396.36
542.858	38514.78
543.223	38612.4
543.587	38879.06
543.952	38912.73
544.316	39149.79
544.681	39204.25
545.045	39472.95
545.41	39863.44
545.774	39918.58
546.138	39957.45
546.503	40348.85
546.867	40334.84
547.231	40677.66
547.595	40754.27
547.959	40789.97
548.324	40738
548.688	40787.94
549.052	40935.96
549.416	40926.24
549.779	40990.19
550.143	40937.31
550.507	41084.65
550.871	41144.09
551.235	41115.84
551.599	41401.93
551.962	41569.39
552.326	41645.09
552.689	41989.26
553.053	41869.04
553.417	42116.94
553.78	42680.32
554.143	42556.25
554.507	42727.55
554.87	42982.91
555.234	43413.86
555.597	43202.11
555.96	43336.8
556.323	43326.63
556.686	43444.14
557.05	43678.94
557.413	43696.34
557.776	43672.38
558.139	43764.81
558.502	43842.77
558.865	43920.51
559.228	44098.81
559.59	44148.98
559.953	44299.48
560.316	44752.35
560.679	44729.08
561.041	45100.82
561.404	45322.28
561.767	45725.89
562.129	45648.38
562.492	46086.1
562.854	46143.28
563.217	46264.41
563.579	46516.38
563.941	46786.2
564.304	46950.71
564.666	47164.72
565.028	47161.78
565.39	47206.98
565.753	47489.46
566.115	47483.58
566.477	47602.45
566.839	47449.68
567.201	47658.94
567.563	47654.65
567.925	48041.53
568.287	47884.02
568.648	47920.86
569.01	48304.35
569.372	48541.63
569.734	48434.74
570.095	48691.91
570.457	48991.34
570.819	49061.17
571.18	49307.26
571.542	49464.09
571.903	49581.38
572.265	49754.48
572.626	49760.81
572.987	49830.64
573.349	50094.59
573.71	50128.26
574.071	50196.73
574.432	50192.21
574.794	50353.56
575.155	50156.51
575.516	50108.37
575.877	49992.22
576.238	50073.34
576.599	50238.31
576.96	50214.58
577.32	50227.46
577.681	50342.72
578.042	50528.7
578.403	50630.17
578.763	50602.14
579.124	50874
579.485	50966.43
579.845	51195.57
580.206	51055.69
580.566	51237.83
580.927	51365.74
581.287	51563.7
581.648	51452.74
582.008	51540.42
582.368	51470.82
582.728	51622.91
583.089	51568.45
583.449	51480.99
583.809	51439.41
584.169	51511.05
584.529	51465.17
584.889	51631.27
585.249	51417.49
585.609	51265.18
585.969	51530.03
586.329	51342.46
586.688	51403.03
587.048	51401.67
587.408	51465.4
587.768	51599.18
588.127	51566.64
588.487	51637.37
588.846	51837.14
589.206	51696.8
589.565	51851.6
589.925	52071.26
590.284	51939.74
590.643	51995.78
591.003	52109
591.362	52165.27
591.721	52101.77
592.08	52169.56
592.44	52158.71
592.799	52218.6
593.158	52027.64
593.517	51936.57
593.876	52036.68
594.235	51963.46
594.593	51945.84
594.952	51904.26
595.311	51854.54
595.67	51774.99
596.029	51887.99
596.387	51979.51
596.746	51933.41
597.104	51878.04
597.463	51887.99
597.822	52060.18
598.18	52045.5
598.538	52147.87
598.897	52210.01
599.255	52021.32
599.613	52502.43
599.972	52318.26
600.33	52539.95
600.688	52336.56
601.046	52615.65
601.404	52662.43
601.762	52562.54
602.12	52732.26
602.478	52661.98
602.836	52647.29
603.194	52525.26
603.552	52442.55
603.91	52452.04
604.268	52487.97
604.625	52287.3
604.983	52405.03
605.341	52272.38
605.698	52346.96
606.056	52474.41
606.413	52439.38
606.771	52647.06
607.128	52553.05
607.485	52481.64
607.843	52579.72
608.2	52866.27
608.557	52937.45
608.914	52944.23
609.272	53183.32
609.629	53232.13
609.986	53381.73
610.343	53249.31
610.7	53497.21
611.057	53464.44
611.414	53401.39
611.771	53477.1
612.127	53640.93
612.484	53605.68
612.841	53664.21
613.198	53601.39
613.554	53503.31
613.911	53560.94
614.267	53522.07
614.624	53514.16
614.98	53481.62
615.337	53616.53
615.693	53469.41
616.05	53435.52
616.406	53648.62
616.762	53560.48
617.118	53499.47
617.475	53420.15
617.831	53509.64
618.187	53533.14
618.543	53593.93
618.899	53833.7
619.255	53832.57
619.611	53739.01
619.967	53890.87
620.323	53964.32
620.678	53930.42
621.034	54001.15
621.39	53988.5
621.746	53941.94
622.101	54286.79
622.457	53962.96
622.812	54045.9
623.168	54111.2
623.523	54050.19
623.879	54097.19
624.234	53796.18
624.589	53915.73
624.945	53950.98
625.3	53870.53
625.655	53836.64
626.01	53806.81
626.365	53801.83
626.72	53712.12
627.075	53630.09
627.43	53760.93
627.785	53675.74
628.14	53667.15
628.495	53751.21
628.85	53663.31
629.205	53629.64
629.559	53794.6
629.914	53588.73
630.269	53715.06
630.623	53835.05
630.978	53785.11
631.332	54040.25
631.687	54077.08
632.041	53965.67
632.396	54051.32
632.75	53866.92
633.104	54009.29
633.459	53812.91
633.813	53905.56
634.167	53957.99
634.521	53870.98
634.875	53748.73
635.229	53731.33
635.583	53606.13
635.937	53498.34
636.291	53482.75
636.645	53377.44
636.999	53365.46
637.352	53283.66
637.706	53153.04
638.06	53103.77
638.413	53085.02
638.767	53082.76
639.121	52954.4
639.474	52773.61
639.828	52859.49
640.181	52899.71
640.534	52805.48
640.888	52833.27
641.241	52774.52
641.594	52879.37
641.947	52898.81
642.301	52811.13
642.654	52890.9
643.007	52808.41
643.36	52900.84
643.713	52852.48
644.066	53057.67
644.419	52910.78
644.771	52833.5
645.124	52741.07
645.477	52716.66
645.83	52354.87
646.182	52032.84
646.535	51712.85
646.888	51641.44
647.24	51367.32
647.593	51504.72
647.945	51322.58
648.298	51112.19
648.65	51070.38
649.002	50899.09
649.355	51025.86
649.707	51020.66
650.059	51176.59
650.411	51592.17
650.763	51688.22
651.115	51932.05
651.467	51734.77
651.819	51746.29
652.171	51695
652.523	51661.1
652.875	51743.13
653.227	51660.42
653.578	51991.03
653.93	51933.63
654.282	51866.29
654.633	51702.45
654.985	51838.95
655.337	51958.72
655.688	52097.92
656.039	52145.83
656.391	51881.21
656.742	52072.84
657.094	52015.44
657.445	52116.68
657.796	51988.77
658.147	51929.11
658.498	51875.33
658.849	51960.98
659.2	51852.51
659.551	51733.19
659.902	51862
660.253	51736.13
660.604	51731.15
660.955	51495.91
661.306	51535.9
661.656	51379.75
662.007	51348.57
662.358	51301.56
662.708	51332.75
663.059	51267.66
663.409	51061.34
663.76	51281.9
664.11	51144.73
664.461	51170.49
664.811	51222.92
665.161	51282.35
665.511	51305.85
665.862	51444.61
666.212	51503.82
666.562	51612.06
666.912	51581.78
667.262	51547.43
667.612	51573.42
667.962	51712.4
668.312	51629.24
668.662	51864.03
669.011	51759.63
669.361	51650.48
669.711	51662.46
670.06	51453.42
670.41	51330.71
670.76	51330.26
671.109	51429.47
671.459	51172.75
671.808	51156.25
672.157	51183.15
672.507	50791.74
672.856	50812.99
673.205	50767.79
673.554	50917.84
673.904	50649.15
674.253	50810.27
674.602	50587.46
674.951	49984.53
675.3	49881.94
675.649	50385.65
675.998	50368.03
676.346	50213
676.695	50369.16
677.044	50225.2
677.393	50382.04
677.741	50484.86
678.09	50361.92
678.438	50372.09
678.787	50396.5
679.135	50496.16
679.484	50259.1
679.832	50569.6
680.181	50411.87
680.529	50614.57
680.877	50464.29
681.225	50508.59
681.573	50673.33
681.922	50401.47
682.27	50442.6
682.618	50489.38
682.966	50210.29
683.314	50126.9
683.661	50186.11
684.009	49907.25
684.357	49801.49
684.705	49719.46
685.053	49758.32
685.4	49715.84
685.748	49448.05
686.095	49276.53
686.443	49118.57
686.79	48871.57
687.138	49008.06
687.485	48971.9
687.832	48881.29
688.18	48788.63
688.527	48592.25
688.874	48500.5
689.221	48416.44
689.568	48449.88
689.915	48213.96
690.262	48248.76
690.609	48200.85
690.956	48150.01
691.303	48243.34
691.65	48171.25
691.997	48042.66
692.344	47863.01
692.69	47888.32
693.037	47976.9
693.383	47652.39
693.73	47828.88
694.077	47708.43
694.423	47813.74
694.769	47531.49
695.116	47486.52
695.462	47350.03
695.808	47269.12
696.155	47256.24
696.501	47024.61
696.847	46944.61
697.193	46591.85
697.539	46711.17
697.885	46201.36
698.231	46084.3
698.577	46147.8
698.923	45999.33
699.269	45638.43
699.614	45483.86
699.96	45306.69
700.306	45080.93
700.651	44992.57
700.997	44799.36
701.342	44596.65
701.688	44619.48
702.033	44443.66
702.379	44488.86
702.724	44311.69
703.069	44535.41
703.415	44049.77
703.76	43945.82
704.105	44057.23
704.45	43939.72
704.795	43863.34
705.14	43725.26
705.485	43513.29
705.83	43503.57
706.175	43684.59
706.52	43782.44
706.865	43521.88
707.209	43396.01
707.554	43438.72
707.899	43370.47
708.243	43378.38
708.588	43317.14
708.932	43144.94
709.277	43118.73
709.621	43100.42
709.966	42829.92
710.31	42920.09
710.654	42477.16
710.998	42560.1
711.342	42457.5
711.687	42233.55
712.031	42087.34
712.375	41823.39
712.719	41878.98
713.063	41787.69
713.407	41799.21
713.75	41434.93
714.094	41479.9
714.438	41228.15
714.782	41369.17
715.125	40966.92
715.469	41006.46
715.812	40754.27
716.156	40597.89
716.499	40614.61
716.843	40574.61
717.186	40250.1
717.53	40530.54
717.873	40573.71
718.216	40310.89
718.559	40375.52
718.902	40243.77
719.246	40532.35
719.589	40512.47
719.932	40473.6
720.275	40394.73
720.617	40352.92
720.96	40547.95
721.303	40543.88
721.646	40467.72
721.989	40372.13
722.331	40534.84
722.674	40366.93
723.016	40563.76
723.359	40357.67
723.701	40331.91
724.044	40139.14
724.386	39881.75
724.729	40111.8
725.071	40008.52
725.413	39950.22
725.755	39894.4
726.097	39726.5
726.439	39415.55
726.782	39420.52
727.124	39348.2
727.465	39293.74
727.807	39028.89
728.149	39010.58
728.491	38689.46
728.833	38849.68
729.175	38535.12
729.516	38460.09
729.858	38471.39
730.199	38551.84
730.541	38382.35
730.882	38343.48
731.224	38617.6
731.565	38195.01
731.906	38240.89
732.248	38352.07
732.589	38146.43
732.93	38095.58
733.271	38184.39
733.612	38333.09
733.953	38380.54
734.294	38143.94
734.635	38191.62
734.976	38486.98
735.317	38320.66
735.658	38247.67
735.999	38305.97
736.339	38241.57
736.68	38383.26
737.021	38298.51
737.361	38161.79
737.702	38126.99
738.042	38184.39
738.383	38143.71
738.723	38165.63
739.063	38111.4
739.404	38106.2
739.744	38103.72
740.084	37912.08
740.424	37943.27
740.764	38081.8
741.104	38092.19
741.444	37845.64
741.784	37654.46
742.124	37705.31
742.464	37420.34
742.804	37575.59
743.143	37433.22
743.483	37390.97
743.823	37143.51
744.162	37244.76
744.502	37342.15
744.841	37129.28
745.181	37331.53
745.52	37120.24
745.86	37264.19
746.199	37086.79
746.538	37111.2
746.877	37094.7
747.216	37306.67
747.556	37157.53
747.895	37148.71
748.234	37015.38
748.573	37217.86
748.911	37170.18
749.25	37283.4
749.589	37271.87
749.928	37327.01
750.267	37589.83
750.605	37461.25
750.944	37461.7
751.283	37344.19
751.621	37430.06
751.96	37424.64
752.298	37571.75
752.636	37676.83
752.975	37522.26
753.313	37584.41
753.651	37626.44
753.989	37598.19
754.327	37520
754.666	37428.03
755.004	37531.98
755.342	37562.71
755.679	37624.18
756.017	37333.11
756.355	37420.34
756.693	37290.86
757.031	37391.42
757.368	37205.89
757.706	37125.44
758.044	37035.95
758.381	37093.35
758.719	37061.03
759.056	37035.5
759.394	36866.46
759.731	36727.03
760.068	36740.36
760.405	36466.02
760.743	36417.66
761.08	36586.47
761.417	36431.67
761.754	36469.41
762.091	36363.87
762.428	36164.33
762.765	36059.93
763.102	36207.49
763.438	36025.8
763.775	35988.29
764.112	36084.79
764.449	36148.29
764.785	36021.51
765.122	35890.21
765.458	35777.9
765.795	35793.04
766.131	35888.18
766.467	35653.84
766.804	35554.86
767.14	35566.61
767.476	35572.03
767.812	35544.01
768.148	35584.46
768.485	35403.67
768.821	35237.58
769.157	35322.32
769.492	35210.23
769.828	35349.89
770.164	35083.46
770.5	35079.84
770.836	35107.64
771.171	34701.32
771.507	34571.61
771.842	34356.7
772.178	34488.44
772.513	34310.82
772.849	34248
773.184	34038.29
773.519	33952.41
773.855	33749.48
774.19	33700.89
774.525	33661.35
774.86	33426.55
775.195	33429.26
775.53	33355.82
775.865	33215.71
776.2	33031.98
776.535	32754.93
776.87	32668.6
777.205	32525.56
777.539	32277.88
777.874	32408.05
778.209	31984.33
778.543	31984.1
778.878	31862.07
779.212	31815.07
779.547	31646.71
779.881	31786.82
780.215	31469.31
780.55	31565.36
780.884	31583.89
781.218	31444.68
781.552	31238.36
781.886	31232.71
782.22	30930.57
782.554	30921.31
782.888	30769.9
783.222	30744.36
783.556	30631.14
783.889	30591.6
784.223	30335.78
784.557	30257.59
784.89	30364.26
785.224	30236.35
785.557	30178.05
785.891	30132.63
786.224	30169.69
786.558	30118.39
786.891	29739.64
787.224	29750.49
787.557	29616.03
787.891	29600.21
788.224	29639.98
788.557	29604.96
788.89	29644.73
789.223	29533.77
789.556	29309.82
789.888	29213.55
790.221	29192.54
790.554	28890.62
790.887	28885.2
791.219	28833.9
791.552	28627.58
791.884	28372.9
792.217	28278.21
792.549	28226.24
792.882	27978.11
793.214	27927.26
793.546	28036.18
793.879	27767.04
794.211	27700.37
794.543	27825.57
794.875	27627.61
795.207	27633.93
795.539	27336.99
795.871	27261.51
796.203	26876.89
796.535	26759.16
796.867	26751.47
797.198	26668.31
797.53	26740.17
797.862	26640.97
798.193	26666.28
798.525	26382.89
798.856	26362.78
799.188	26266.74
799.519	26138.83
799.85	26034.65
800.182	26088.21
800.513	25999.63
800.844	25851.83
801.175	25940.19
801.506	26122.79
801.837	25897.26
802.168	25735.68
802.499	25686.19
802.83	25512.63
803.161	25610.71
803.491	25565.97
803.822	25586.08
804.153	25466.31
804.483	25337.95
804.814	25252.75
805.145	25260.66
805.475	25332.98
805.805	25116.94
806.136	25093.44
806.466	25126.2
806.796	25030.84
807.126	24771.41
807.457	24803.5
807.787	24744.29
808.117	24688.02
808.447	24409.16
808.777	24631.98
809.107	24422.72
809.436	24440.35
809.766	24276.06
810.096	24207.81
810.426	24003.75
810.755	23969.17
811.085	23947.7
811.414	23893.02
811.744	23570.76
812.073	23676.07
812.403	23672.68
812.732	23450.32
813.061	23439.24
813.39	23267.72
813.719	23187.95
814.049	23301.84
814.378	23115.18
814.707	22925.13
815.036	22878.58
815.365	22796.1
815.693	22680.84
816.022	22598.13
816.351	22493.96
816.68	22366.5
817.008	22511.81
817.337	22330.57
817.665	22346.16
817.994	22324.47
818.322	22273.17
818.651	22175.32
818.979	21978.94
819.307	22275.21
819.636	22246.51
819.964	22027.3
820.292	22177.58
820.62	22244.02
820.948	22190.01
821.276	22211.48
821.604	22018.26
821.932	22117.24
822.259	22184.59
822.587	22076.79
822.915	22072.5
823.243	22316.11
823.57	22225.26
823.898	22272.27
824.225	22151.82
824.553	22136.23
824.88	22324.47
825.207	22360.4
825.535	22335.77
825.862	22462.77
826.189	22244.7
826.516	22374.41
826.843	22400.17
827.17	22465.93
827.497	22383.68
827.824	22355.43
828.151	22409.89
828.478	22327.63
828.805	22430.46
829.131	22169.45
829.458	22212.16
829.785	22174.19
830.111	22173.06
830.438	22241.76
830.764	22037.7
831.09	22222.78
831.417	21997.47
831.743	22018.04
832.069	22107.3
832.395	22002.44
832.722	22009.68
833.048	21866.63
833.374	21864.82
833.7	21657.59
834.026	21819.85
834.351	21763.81
834.677	21645.39
835.003	21726.97
835.329	21714.32
835.654	21716.12
835.98	21566.07
836.306	21600.42
836.631	21373.76
836.956	21556.13
837.282	21563.36
837.607	21491.27
837.932	21293.54
838.258	21383.48
838.583	21309.13
838.908	21215.12
839.233	21351.16
839.558	21232.97
839.883	21080.89
840.208	21083.6
840.533	21139.64
840.858	21304.84
841.182	21351.16
841.507	21340.31
841.832	21262.35
842.156	21119.76
842.481	21147.78
842.805	21118.4
843.13	21073.88
843.454	20957.27
843.778	21010.38
844.103	20984.39
844.427	20861.46
844.751	20847.45
845.075	20801.8
845.399	20700.56
845.723	20723.16
846.047	20672.76
846.371	20505.53
846.695	20438.64
847.019	20321.36
847.343	20243.62
847.666	20148.03
847.99	20022.38
848.313	20044.76
848.637	19796.17
848.96	19779.9
849.284	19820.58
849.607	19518.22
849.931	19469.18
850.254	19291.55
850.577	19102.18
850.9	19079.36
851.223	18994.84
851.546	18882.75
851.869	18817.9
852.192	18845.24
852.515	18568.64
852.838	18524.8
853.161	18487.06
853.483	18278.7
853.806	18218.14
854.129	18202.32
854.451	18145.82
854.774	18104.02
855.096	17979.05
855.419	17928.2
855.741	18001.65
856.063	17779.73
856.385	17775.44
856.708	17662.45
857.03	17493.64
857.352	17647.3
857.674	17607.98
857.996	17480.08
858.318	17441.21
858.64	17441.66
858.961	17464.71
859.283	17452.28
859.605	17455.44
859.926	17455.22
860.248	17279.86
860.57	17310.59
860.891	17365.73
861.212	17286.41
861.534	17138.17
861.855	17218.84
862.176	17296.81
862.498	17271.72
862.819	17242.8
863.14	17160.76
863.461	17094.78
863.782	17068.79
864.103	17216.36
864.424	17076.92
864.745	17206.19
865.065	17033.76
865.386	17052.74
865.707	17040.54
866.027	17062.69
866.348	16983.82
866.668	17011.84
866.989	16941.11
867.309	16910.6
867.63	16891.17
867.95	16933.42
868.27	16724.84
868.59	16755.58
868.91	16807.78
869.23	16704.73
869.55	16666.54
869.87	16726.88
870.19	16638.74
870.51	16477.62
870.83	16499.99
871.15	16335.93
871.469	16317.17
871.789	16375.7
872.109	16253.67
872.428	16154.01
872.748	16187
873.067	16085.99
873.386	16148.59
873.706	16052.32
874.025	15982.94
874.344	15867.69
874.663	15928.71
874.982	15858.65
875.301	15921.47
875.62	15775.04
875.939	15703.63
876.258	15749.05
876.577	15653.91
876.896	15656.17
877.214	15593.8
877.533	15573.01
877.852	15569.39
878.17	15649.84
878.489	15568.04
878.807	15574.36
879.125	15559.45
879.444	15552.67
879.762	15507.25
880.08	15628.6
880.398	15407.14
880.716	15458.21
881.034	15377.76
881.352	15530.3
881.67	15462.5
881.988	15537.76
882.306	15403.97
882.624	15365.56
882.941	15324.88
883.259	15352.22
883.577	15332.56
883.894	15318.55
884.212	15254.6
884.529	15324.88
884.846	15259.34
885.164	15274.71
885.481	15206.92
885.798	15308.61
886.115	15172.12
886.432	15131.44
886.75	15036.75
887.067	15138.22
887.383	14989.97
887.7	15125.34
888.017	14979.13
888.334	15081.5
888.651	14922.4
888.967	14890.99
889.284	14871.33
889.6	14817.1
889.917	14650.1
890.233	14732.13
890.55	14677.66
890.866	14592.24
891.182	14653.71
891.498	14454.39
891.815	14470.66
892.131	14347.05
892.447	14316.54
892.763	14190.45
893.079	14114.52
893.395	14097.34
893.71	13989.1
894.026	14035.87
894.342	13962.2
894.657	13867.29
894.973	13779.16
895.289	13867.52
895.604	13743.9
895.92	13602.89
896.235	13460.97
896.55	13581.2
896.865	13453.29
897.181	13366.06
897.496	13293.97
897.811	13364.25
898.126	13180.53
898.441	13111.6
898.756	13075.9
899.071	13053.98
899.386	13063.7
899.7	13048.78
900.015	12914.32
900.33	12831.84
900.644	12890.37
900.959	12841.33
901.273	12775.34
901.588	12781.9
901.902	12722.01
902.216	12686.08
902.531	12704.84
902.845	12706.64
903.159	12530.6
903.473	12572.41
903.787	12558.4
904.101	12506.87
904.415	12475.91
904.729	12434.56
905.042	12365.64
905.356	12311.85
905.67	12332.42
905.984	12396.14
906.297	12251.06
906.611	12190.05
906.924	12206.77
907.237	12182.36
907.551	12086.77
907.864	12064.17
908.177	12049.94
908.491	11978.53
908.804	11951.41
909.117	11919.55
909.43	11786.22
909.743	11824.41
910.056	11761.13
910.368	11739.89
910.681	11698.31
910.994	11634.81
911.307	11646.56
911.619	11576.73
911.932	11555.26
912.244	11454.25
912.557	11442.04
912.869	11400.24
913.181	11317.08
913.494	11296.51
913.806	11141.49
914.118	11089.51
914.43	11055.84
914.742	10968.16
915.054	10960.7
915.366	10899.91
915.678	10767.03
915.99	10711.89
916.302	10647.26
916.613	10595.96
916.925	10558.23
917.236	10523.88
917.548	10525.46
917.859	10406.82
918.171	10370.21
918.482	10286.37
918.794	10303.09
919.105	10299.25
919.416	10167.5
919.727	10119.14
920.038	10072.36
920.349	9983.1
920.66	9936.77
920.971	9879.37
921.282	9895.19
921.593	9722.54
921.903	9745.82
922.214	9761.64
922.525	9702.88
922.835	9742.88
923.146	9618.81
923.456	9569.32
923.767	9555.09
924.077	9498.59
924.387	9553.73
924.697	9446.62
925.008	9444.36
925.318	9419.05
925.628	9423.34
925.938	9355.77
926.248	9254.98
926.558	9277.58
926.867	9265.38
927.177	9264.93
927.487	9286.39
927.796	9114.42
928.106	9135.44
928.416	9092.73
928.725	9115.1
929.034	8935.22
929.344	9020.19
929.653	9033.75
929.962	8933.18
930.271	8885.95
930.581	8866.52
930.89	8930.02
931.199	8847.99
931.508	8872.17
931.817	8805.73
932.125	8813.41
932.434	8798.72
932.743	8718.5
933.051	8672.85
933.36	8718.27
933.669	8615.45
933.977	8583.81
934.286	8545.62
934.594	8515.12
934.902	8461.56
935.21	8399.64
935.519	8482.8
935.827	8379.53
936.135	8391.95
936.443	8293.65
936.751	8268.12
937.059	8266.08
937.367	8197.38
937.674	8143.6
937.982	8134.56
938.29	8058.86
938.597	8017.5
938.905	7951.29
939.213	7914.68
939.52	7923.04
939.827	7890.5
940.135	7795.59
940.442	7755.81
940.749	7738.64
941.056	7679.43
941.363	7593.11
941.67	7562.6
941.977	7483.73
942.284	7435.6
942.591	7414.35
942.898	7365.31
943.205	7410.74
943.511	7315.82
943.818	7301.36
944.125	7193.12
944.431	7205.09
944.738	7216.17
945.044	7163.06
945.35	7039.9
945.657	7070.41
945.963	7028.15
946.269	7031.76
946.575	6952.9
946.881	6942.5
947.187	6944.53
947.493	6871.32
947.799	6914.25
948.105	6860.92
948.41	6859.79
948.716	6843.29
949.022	6777.53
949.327	6788.61
949.633	6661.15
949.938	6644.43
950.244	6666.12
950.549	6599.46
950.854	6611.66
951.16	6582.96
951.465	6575.96
951.77	6528.05
952.075	6481.5
952.38	6495.06
952.685	6509.97
952.99	6449.63
953.294	6438.33
953.599	6388.39
953.904	6411.22
954.209	6398.33
954.513	6398.79
954.818	6327.6
955.122	6349.97
955.426	6308.62
955.731	6267.26
956.035	6253.71
956.339	6256.19
956.643	6233.37
956.948	6174.84
957.252	6169.19
957.556	6137.1
957.86	6089.87
958.163	6094.84
958.467	6054.16
958.771	6034.5
959.075	6021.62
959.378	6002.64
959.682	5996.99
959.985	5900.72
960.289	5902.75
960.592	5872.02
960.896	5852.36
961.199	5764.45
961.502	5747.73
961.805	5740.05
962.108	5676.55
962.411	5615.08
962.714	5646.49
963.017	5599.49
963.32	5600.84
963.623	5568.53
963.926	5563.1
964.228	5472.94
964.531	5425.48
964.833	5421.64
965.136	5374.63
965.438	5415.76
965.741	5298.48
966.043	5291.25
966.345	5293.5
966.648	5282.43
966.95	5258.7
967.252	5210.57
967.554	5193.17
967.856	5127.63
968.158	5112.72
968.46	5071.82
968.761	5041.99
969.063	5007.64
969.365	4996.56
969.666	4992.72
969.968	4901.88
970.269	4927.19
970.571	4881.09
970.872	4886.28
971.174	4867.98
971.475	4893.52
971.776	4822.78
972.077	4801.09
972.378	4798.83
972.679	4797.92
972.98	4741.88
973.281	4729.68
973.582	4677.02
973.883	4655.56
974.183	4688.55
974.484	4671.15
974.785	4606.74
975.085	4622.11
975.386	4624.82
975.686	4605.39
975.986	4561.09
976.287	4547.76
976.587	4467.31
976.887	4514.99
977.187	4493.07
977.487	4514.09
977.787	4497.14
978.087	4438.16
978.387	4400.2
978.687	4414.43
978.987	4410.14
979.286	4398.61
979.586	4411.27
979.885	4390.93
980.185	4343.7
980.484	4310.48
980.784	4344.83
981.083	4295.11
981.382	4333.98
981.682	4310.48
981.981	4272.29
982.28	4248.56
982.579	4241.33
982.878	4229.8
983.177	4151.16
983.475	4190.26
983.774	4203.82
984.073	4132.18
984.372	4144.83
984.67	4115.91
984.969	4075.91
985.267	4102.12
985.566	4090.82
985.864	4055.8
986.162	4027.1
986.461	3985.74
986.759	3992.07
987.057	3977.83
987.355	3951.62
987.653	3971.73
987.951	3926.31
988.249	3881.56
988.547	3899.87
988.844	3847.22
989.142	3879.3
989.44	3833.2
989.737	3816.71
990.035	3764.05
990.332	3752.08
990.63	3706.65
990.927	3727.67
991.224	3726.31
991.521	3657.62
991.819	3644.96
992.116	3638.18
992.413	3623.72
992.71	3604.96
993.006	3566.77
993.303	3570.16
993.6	3552.99
993.897	3522.03
994.193	3470.73
994.49	3475.25
994.787	3446.77
995.083	3414.68
995.379	3383.05
995.676	3354.57
995.972	3373.78
996.268	3338.53
996.565	3325.65
996.861	3299.21
997.157	3289.26
997.453	3239.55
997.749	3209.94
998.044	3203.39
998.34	3182.83
998.636	3204.07
998.932	3157.06
999.227	3137.86
999.523	3147.57
999.818	3145.54
1000.114	3131.75
1000.409	3128.59
1000.704	3065.31
1001	3070.29
1001.295	3070.96
1001.59	3078.42
1001.885	3005.66
1002.18	3014.24
1002.475	2983.28
1002.77	2957.07
1003.065	2915.71
1003.359	2974.92
1003.654	2981.25
1003.949	2971.53
1004.243	2923.17
1004.538	2897.64
1004.832	2877.98
1005.127	2853.8
1005.421	2840.91
1005.715	2812.89
1006.009	2820.8
1006.304	2817.86
1006.598	2778.54
1006.892	2766.57
1007.186	2755.04
1007.48	2710.07
1007.773	2667.36
1008.067	2733.12
1008.361	2702.39
1008.655	2699.9
1008.948	2667.81
1009.242	2714.36
1009.535	2651.31
1009.829	2632.56
1010.122	2646.12
1010.415	2637.98
1010.708	2586.91
1011.001	2571.32
1011.295	2567.25
1011.588	2577.87
1011.881	2536.29
1012.173	2509.4
1012.466	2513.01
1012.759	2478.21
1013.052	2479.57
1013.344	2496.74
1013.637	2439.79
1013.93	2438.21
1014.222	2409.29
1014.514	2388.5
1014.807	2394.6
1015.099	2382.85
1015.391	2322.51
1015.683	2340.59
1015.976	2308.95
1016.268	2277.09
1016.56	2287.93
1016.851	2249.29
1017.143	2226.92
1017.435	2252.91
1017.727	2256.07
1018.018	2197.54
1018.31	2185.56
1018.602	2226.92
1018.893	2190.99
1019.185	2172.01
1019.476	2118.9
1019.767	2120.25
1020.058	2114.38
1020.35	2092.91
1020.641	2048.62
1020.932	2056.3
1021.223	2040.94
1021.514	2040.03
1021.804	2028.05
1022.095	2029.18
1022.386	1993.03
1022.677	2004.78
1022.967	1950.99
1023.258	1938.11
1023.548	1952.12
1023.839	1941.05
1024.129	1896.08
1024.419	1853.14
1024.709	1876.65
1025	1851.56
1025.29	1845.23
1025.58	1810.21
1025.87	1816.53
1026.16	1804.11
1026.449	1800.04
1026.739	1770.21
1027.029	1782.86
1027.319	1763.88
1027.608	1752.81
1027.898	1715.29
1028.187	1733.6
1028.477	1697.22
1028.766	1699.02
1029.055	1666.26
1029.344	1660.61
1029.634	1656.76
1029.923	1635.97
1030.212	1641.62
1030.501	1661.96
1030.79	1600.95
1031.078	1607.05
1031.367	1577.22
1031.656	1576.31
1031.945	1575.18
1032.233	1550.55
1032.522	1558.01
1032.81	1550.55
1033.099	1527.5
1033.387	1533.15
1033.675	1528.18
1033.963	1524.79
1034.251	1496.32
1034.54	1475.75
1034.828	1445.47
1035.116	1464.45
1035.403	1464.45
1035.691	1453.15
1035.979	1452.48
1036.267	1461.74
1036.554	1439.59
1036.842	1419.93
1037.129	1434.85
1037.417	1412.7
1037.704	1411.8
1037.992	1362.08
1038.279	1376.09
1038.566	1359.6
1038.853	1359.6
1039.14	1359.6
