Data from blue_chair_FLMS001491_00020.txt Node
Date: Wed Feb 08 10:29:33 GMT 2017
User: dcchb
Spectrometer: FLMS00149
Trigger mode: 0
Integration Time (sec): 2.000000E-2
Scans to average: 10
Electric dark correction enabled: true
Nonlinearity correction enabled: false
Boxcar width: 0
XAxis mode: Wavelengths
Number of Pixels in Spectrum: 2048
>>>>>Begin Spectral Data<<<<<
341.393	-35.28
341.776	-35.28
342.16	-35.28
342.543	-68.95
342.927	-69.18
343.31	-69.86
343.693	-53.13
344.077	-50.2
344.46	-53.13
344.843	-59.24
345.226	-45.9
345.61	-23.76
345.993	-20.37
346.376	-14.27
346.759	17.15
347.142	20.31
347.525	28.45
347.908	46.52
348.291	72.74
348.674	89.69
349.057	115
349.44	137.14
349.823	130.36
350.206	146.41
350.588	162.45
350.971	159.52
351.354	193.64
351.737	218.5
352.119	245.16
352.502	253.75
352.884	232.06
353.267	255.78
353.65	267.08
354.032	289.46
354.414	254.2
354.797	282.22
355.179	303.24
355.562	283.58
355.944	315.44
356.326	317.93
356.709	327.87
357.091	317.25
357.473	308.66
357.855	312.28
358.238	299.4
358.62	336.69
359.002	311.15
359.384	309.57
359.766	327.65
360.148	301.21
360.53	316.35
360.912	307.08
361.294	293.52
361.676	309.12
362.057	289.23
362.439	308.44
362.821	322.68
363.203	282.9
363.584	289.68
363.966	262.79
364.348	279.74
364.729	309.57
365.111	288.1
365.493	296.69
365.874	272.05
366.256	286.52
366.637	277.48
367.019	291.26
367.4	292.85
367.781	277.48
368.163	278.61
368.544	274.54
368.925	270.93
369.306	292.85
369.688	295.33
370.069	278.61
370.45	280.64
370.831	276.8
371.212	293.07
371.593	272.73
371.974	270.25
372.355	274.77
372.736	265.05
373.117	270.02
373.498	266.41
373.879	300.53
374.26	267.76
374.641	297.37
375.021	285.61
375.402	290.13
375.783	267.31
376.163	294.43
376.544	285.84
376.925	297.82
377.305	263.47
377.686	282.9
378.066	290.81
378.447	293.98
378.827	275.9
379.208	302.56
379.588	302.56
379.968	285.16
380.349	286.07
380.729	290.59
381.109	289.91
381.489	297.82
381.87	288.78
382.25	313.64
382.63	298.49
383.01	288.33
383.39	314.31
383.77	282
384.15	288.78
384.53	285.16
384.91	280.64
385.29	305.05
385.67	275.67
386.049	309.57
386.429	305.5
386.809	301.43
387.189	302.34
387.568	292.17
387.948	314.77
388.328	300.53
388.707	303.69
389.087	286.52
389.466	300.08
389.846	304.37
390.225	332.39
390.605	286.07
390.984	314.99
391.363	305.27
391.743	307.76
392.122	315.9
392.501	302.56
392.881	338.04
393.26	307.99
393.639	320.64
394.018	334.2
394.397	322
394.776	287.65
395.155	327.87
395.534	328.78
395.913	338.95
396.292	341.66
396.671	313.41
397.05	331.71
397.429	322.22
397.808	330.13
398.186	319.06
398.565	322.68
398.944	329.68
399.323	344.37
399.701	327.42
400.08	350.92
400.458	336.91
400.837	338.72
401.215	336.46
401.594	345.27
401.972	331.49
402.351	335.33
402.729	329.68
403.107	358.15
403.486	326.52
403.864	331.49
404.242	329.45
404.62	352.5
404.999	357.7
405.377	347.31
405.755	360.87
406.133	336.46
406.511	366.74
406.889	377.59
407.267	357.25
407.645	367.19
408.023	350.7
408.401	378.49
408.779	363.35
409.156	390.7
409.534	370.81
409.912	343.92
410.29	362.22
410.667	393.18
411.045	388.21
411.422	367.65
411.8	395.44
412.178	390.24
412.555	403.12
412.933	382.79
413.31	385.27
413.687	396.8
414.065	397.25
414.442	400.64
414.819	404.71
415.197	375.33
415.574	417.36
415.951	397.02
416.328	399.06
416.705	393.41
417.082	423.46
417.46	418.04
417.837	425.05
418.214	418.72
418.591	418.27
418.967	409.9
419.344	429.56
419.721	436.8
420.098	406.51
420.475	428.44
420.852	419.85
421.228	434.08
421.605	428.66
421.982	439.51
422.358	398.83
422.735	438.6
423.111	456.91
423.488	446.51
423.864	451.26
424.241	450.81
424.617	482.22
424.994	457.59
425.37	471.37
425.746	468.89
426.123	471.15
426.499	468.21
426.875	479.51
427.251	494.42
427.627	498.72
428.003	502.78
428.379	517.47
428.756	496.68
429.132	524.7
429.507	490.13
429.883	492.61
430.259	521.09
430.635	512.73
431.011	514.08
431.387	534.19
431.763	531.48
432.138	529.9
432.514	526.96
432.89	539.39
433.265	534.42
433.641	547.3
434.016	554.08
434.392	557.92
434.767	552.95
435.143	540.52
435.518	559.51
435.894	589.79
436.269	593.85
436.644	608.09
437.02	593.85
437.395	618.26
437.77	604.7
438.145	606.28
438.52	622.55
438.895	623.46
439.271	634.53
439.646	641.08
440.021	659.84
440.395	627.07
440.77	653.74
441.145	658.94
441.52	666.39
441.895	657.36
442.27	650.8
442.645	659.62
443.019	695.09
443.394	712.95
443.769	694.19
444.143	665.72
444.518	703.91
444.892	691.03
445.267	709.78
445.641	703
446.016	724.47
446.39	739.84
446.764	715.43
447.139	737.58
447.513	731.7
447.887	741.87
448.262	707.75
448.636	737.13
449.01	757.69
449.384	780.29
449.758	759.05
450.132	759.05
450.506	767.18
450.88	751.82
451.254	762.44
451.628	794.08
452.002	780.52
452.376	784.81
452.75	814.64
453.123	803.79
453.497	823.9
453.871	829.1
454.244	809.67
454.618	837.01
454.992	824.81
455.365	827.29
455.739	838.59
456.112	852.38
456.486	849.44
456.859	875.65
457.232	883.79
457.606	876.78
457.979	904.35
458.352	909.1
458.725	893.28
459.099	908.2
459.472	921.98
459.845	905.71
460.218	910.23
460.591	953.17
460.964	933.73
461.337	955.88
461.71	954.52
462.083	982.77
462.456	986.84
462.829	953.39
463.201	990.23
463.574	972.83
463.947	994.75
464.32	997.23
464.692	1022.54
465.065	997.69
465.438	1026.84
465.81	998.36
466.183	1032.71
466.555	1067.29
466.928	1058.02
467.3	1044.46
467.672	1053.96
468.045	1094.63
468.417	1081.53
468.789	1091.24
469.161	1102.09
469.534	1112.94
469.906	1107.06
470.278	1135.31
470.65	1133.05
471.022	1143.9
471.394	1182.77
471.766	1179.38
472.138	1171.92
472.51	1188.64
472.882	1207.85
473.253	1205.82
473.625	1217.11
473.997	1226.61
474.369	1212.6
474.74	1245.59
475.112	1273.84
475.484	1279.71
475.855	1306.15
476.227	1304.12
476.598	1309.09
476.97	1331.91
477.341	1325.59
477.713	1353.61
478.084	1348.41
478.455	1378.92
478.827	1383.89
479.198	1419.14
479.569	1418.47
479.94	1438.13
480.311	1414.85
480.682	1481.74
481.053	1461.85
481.424	1498.46
481.795	1471.35
482.166	1522.19
482.537	1527.39
482.908	1514.28
483.279	1518.12
483.65	1570.55
484.021	1596.99
484.391	1596.54
484.762	1573.49
485.133	1601.06
485.503	1622.98
485.874	1645.58
486.244	1655.97
486.615	1676.54
486.985	1649.42
487.356	1652.36
487.726	1696.2
488.097	1725.35
488.467	1697.55
488.837	1724.45
489.207	1723.32
489.578	1708.18
489.948	1709.53
490.318	1736.42
490.688	1746.14
491.058	1761.96
491.428	1780.04
491.798	1768.51
492.168	1803.99
492.538	1829.98
492.908	1786.59
493.278	1785.91
493.648	1802.41
494.017	1809.64
494.387	1817.33
494.757	1848.06
495.126	1832.24
495.496	1838.79
495.866	1840.83
496.235	1820.71
496.605	1831.56
496.974	1850.32
497.344	1834.5
497.713	1827.27
498.082	1876.31
498.452	1859.58
498.821	1829.75
499.19	1846.93
499.559	1835.4
499.928	1853.93
500.298	1874.5
500.667	1862.52
501.036	1842.41
501.405	1836.99
501.774	1832.47
502.143	1869.53
502.512	1843.99
502.88	1863.65
503.249	1860.94
503.618	1845.8
503.987	1842.86
504.356	1861.62
504.724	1876.76
505.093	1845.57
505.462	1837.66
505.83	1838.57
506.199	1874.72
506.567	1855.74
506.936	1822.75
507.304	1870.88
507.672	1829.53
508.041	1859.36
508.409	1835.63
508.777	1851.9
509.145	1838.57
509.514	1815.29
509.882	1821.39
510.25	1850.09
510.618	1822.75
510.986	1819.81
511.354	1834.27
511.722	1826.59
512.09	1858.23
512.458	1847.61
512.826	1834.05
513.193	1812.13
513.561	1819.81
513.929	1820.49
514.297	1829.98
514.664	1832.01
515.032	1828.85
515.4	1830.88
515.767	1788.17
516.135	1786.37
516.502	1766.48
516.869	1818.23
517.237	1775.07
517.604	1793.6
517.972	1800.15
518.339	1784.33
518.706	1790.66
519.073	1797.89
519.44	1787.27
519.808	1804.67
520.175	1780.94
520.542	1801.05
520.909	1767.61
521.276	1762.86
521.643	1763.99
522.009	1799.47
522.376	1788.85
522.743	1758.8
523.11	1780.26
523.477	1775.52
523.843	1784.56
524.21	1769.64
524.577	1779.36
524.943	1771.68
525.31	1766.03
525.676	1780.49
526.043	1767.83
526.409	1750.43
526.776	1768.06
527.142	1775.52
527.508	1769.87
527.874	1794.5
528.241	1774.39
528.607	1761.28
528.973	1773.71
529.339	1763.77
529.705	1766.03
530.071	1798.79
530.437	1781.62
530.803	1754.5
531.169	1766.25
531.535	1759.93
531.901	1774.61
532.267	1762.64
532.632	1762.64
532.998	1746.37
533.364	1765.12
533.73	1734.62
534.095	1748.17
534.461	1749.53
534.826	1741.85
535.192	1745.69
535.557	1733.94
535.923	1745.01
536.288	1735.97
536.653	1738.46
537.019	1723.99
537.384	1726.48
537.749	1731
538.114	1721.96
538.479	1696.65
538.845	1730.1
539.21	1743.88
539.575	1722.64
539.94	1728.74
540.305	1709.08
540.67	1721.73
541.034	1699.36
541.399	1726.03
541.764	1691.9
542.129	1714.05
542.494	1672.24
542.858	1726.71
543.223	1669.53
543.587	1688.51
543.952	1654.84
544.316	1708.4
544.681	1674.73
545.045	1717.89
545.41	1658.46
545.774	1697.55
546.138	1673.15
546.503	1646.71
546.867	1636.76
547.231	1645.13
547.595	1652.81
547.959	1652.58
548.324	1660.72
548.688	1635.41
549.052	1653.94
549.416	1627.5
549.779	1643.54
550.143	1612.58
550.507	1638.12
550.871	1639.93
551.235	1612.13
551.599	1606.48
551.962	1623.21
552.326	1616.88
552.689	1627.5
553.053	1638.35
553.417	1610.32
553.78	1637.44
554.143	1623.66
554.507	1608.74
554.87	1602.19
555.234	1601.06
555.597	1613.04
555.96	1605.58
556.323	1636.99
556.686	1612.58
557.05	1615.97
557.413	1602.19
557.776	1602.87
558.139	1626.14
558.502	1599.93
558.865	1605.58
559.228	1629.08
559.59	1583.43
559.953	1586.6
560.316	1606.71
560.679	1627.05
561.041	1611.68
561.404	1622.98
561.767	1611.45
562.129	1620.72
562.492	1609.87
562.854	1624.56
563.217	1641.74
563.579	1623.43
563.941	1630.66
564.304	1630.21
564.666	1594.73
565.028	1641.28
565.39	1647.16
565.753	1624.34
566.115	1635.63
566.477	1652.58
566.839	1640.83
567.201	1651
567.563	1646.03
567.925	1639.93
568.287	1651.45
568.648	1641.51
569.01	1661.4
569.372	1665.69
569.734	1623.88
570.095	1652.13
570.457	1672.92
570.819	1644.9
571.18	1678.57
571.542	1682.41
571.903	1665.46
572.265	1684
572.626	1691.68
572.987	1697.1
573.349	1683.54
573.71	1701.62
574.071	1695.75
574.432	1719.93
574.794	1723.77
575.155	1709.08
575.516	1702.53
575.877	1715.86
576.238	1723.99
576.599	1709.53
576.96	1745.01
577.32	1718.34
577.681	1717.67
578.042	1718.8
578.403	1709.53
578.763	1751.79
579.124	1757.67
579.485	1750.21
579.845	1737.78
580.206	1749.3
580.566	1767.61
580.927	1741.62
581.287	1758.8
581.648	1753.82
582.008	1779.13
582.368	1756.76
582.728	1766.93
583.089	1742.3
583.449	1752.24
583.809	1756.76
584.169	1762.41
584.529	1763.09
584.889	1778.46
585.249	1772.58
585.609	1771.9
585.969	1758.34
586.329	1776.2
586.688	1782.98
587.048	1772.81
587.408	1796.31
587.768	1783.2
588.127	1784.78
588.487	1755.86
588.846	1792.47
589.206	1775.97
589.565	1794.27
589.925	1799.47
590.284	1773.48
590.643	1766.48
591.003	1761.73
591.362	1789.98
591.721	1780.72
592.08	1774.84
592.44	1821.62
592.799	1757.89
593.158	1807.38
593.517	1802.41
593.876	1754.95
594.235	1777.78
594.593	1802.41
594.952	1808.06
595.311	1782.52
595.67	1796.53
596.029	1776.2
596.387	1775.74
596.746	1796.53
597.104	1762.64
597.463	1774.16
597.822	1779.81
598.18	1790.21
598.538	1756.76
598.897	1776.65
599.255	1773.48
599.613	1784.78
599.972	1801.28
600.33	1782.3
600.688	1792.02
601.046	1788.63
601.404	1775.74
601.762	1767.61
602.12	1766.25
602.478	1786.37
602.836	1794.27
603.194	1766.7
603.552	1817.1
603.91	1787.95
604.268	1777.33
604.625	1771
604.983	1762.41
605.341	1803.77
605.698	1775.97
606.056	1785.01
606.413	1777.1
606.771	1770.09
607.128	1781.85
607.485	1778.68
607.843	1774.39
608.2	1767.61
608.557	1807.16
608.914	1765.58
609.272	1814.16
609.629	1804.9
609.986	1791.11
610.343	1800.15
610.7	1792.24
611.057	1812.13
611.414	1781.39
611.771	1791.34
612.127	1782.52
612.484	1797.21
612.841	1821.84
613.198	1779.81
613.554	1810.32
613.911	1818
614.267	1794.5
614.624	1801.73
614.98	1827.95
615.337	1793.82
615.693	1811
616.05	1793.37
616.406	1831.11
616.762	1801.05
617.118	1801.73
617.475	1820.26
617.831	1764.45
618.187	1806.7
618.543	1803.99
618.899	1802.41
619.255	1793.82
619.611	1840.15
619.967	1806.03
620.323	1834.73
620.678	1851.22
621.034	1800.83
621.39	1797.21
621.746	1801.96
622.101	1852.13
622.457	1794.05
622.812	1822.97
623.168	1811.9
623.523	1851.22
623.879	1843.09
624.234	1807.83
624.589	1845.57
624.945	1846.7
625.3	1839.7
625.655	1834.73
626.01	1843.77
626.365	1818.91
626.72	1840.15
627.075	1829.98
627.43	1835.18
627.785	1835.18
628.14	1824.1
628.495	1833.14
628.85	1839.47
629.205	1845.12
629.559	1836.99
629.914	1805.12
630.269	1825.69
630.623	1810.09
630.978	1817.55
631.332	1827.72
631.687	1822.3
632.041	1796.76
632.396	1811
632.75	1828.85
633.104	1840.38
633.459	1803.99
633.813	1808.74
634.167	1797.21
634.521	1813.48
634.875	1828.17
635.229	1832.92
635.583	1814.84
635.937	1813.48
636.291	1815.07
636.645	1811.9
636.999	1825.91
637.352	1839.92
637.706	1808.51
638.06	1835.18
638.413	1812.35
638.767	1804.67
639.121	1818.68
639.474	1797.21
639.828	1810.77
640.181	1826.14
640.534	1847.61
640.888	1830.43
641.241	1813.26
641.594	1836.31
641.947	1829.08
642.301	1819.81
642.654	1825.69
643.007	1824.78
643.36	1823.43
643.713	1821.84
644.066	1838.57
644.419	1841.73
644.771	1793.37
645.124	1756.99
645.477	1794.73
645.83	1807.83
646.182	1804.44
646.535	1790.66
646.888	1801.96
647.24	1763.09
647.593	1773.03
647.945	1779.36
648.298	1778.91
648.65	1796.99
649.002	1812.81
649.355	1811.68
649.707	1787.72
650.059	1797.44
650.411	1815.97
650.763	1848.06
651.115	1857.32
651.467	1826.82
651.819	1844.44
652.171	1853.93
652.523	1840.15
652.875	1820.04
653.227	1812.13
653.578	1846.48
653.93	1814.84
654.282	1834.27
654.633	1833.37
654.985	1810.55
655.337	1849.19
655.688	1855.52
656.039	1855.06
656.391	1830.66
656.742	1847.38
657.094	1862.52
657.445	1876.53
657.796	1845.12
658.147	1828.17
658.498	1843.99
658.849	1862.52
659.2	1881.28
659.551	1865.01
659.902	1867.95
660.253	1854.84
660.604	1881.28
660.955	1830.88
661.306	1857.32
661.656	1831.79
662.007	1878.57
662.358	1846.48
662.708	1878.34
663.059	1831.56
663.409	1877.21
663.76	1872.92
664.11	1856.42
664.461	1866.82
664.811	1875.63
665.161	1879.7
665.511	1850.09
665.862	1883.99
666.212	1862.75
666.562	1849.41
666.912	1858
667.262	1880.6
667.612	1867.27
667.962	1882.41
668.312	1870.43
668.662	1898.45
669.011	1826.36
669.361	1855.74
669.711	1863.88
670.06	1856.42
670.41	1873.59
670.76	1863.2
671.109	1827.04
671.459	1837.44
671.808	1835.63
672.157	1847.38
672.507	1854.61
672.856	1832.24
673.205	1837.44
673.554	1848.06
673.904	1838.57
674.253	1856.65
674.602	1840.38
674.951	1806.93
675.3	1824.1
675.649	1842.41
675.998	1829.53
676.346	1833.82
676.695	1837.89
677.044	1804.67
677.393	1807.38
677.741	1844.89
678.09	1817.78
678.438	1771.22
678.787	1807.16
679.135	1807.61
679.484	1799.02
679.832	1814.84
680.181	1784.56
680.529	1776.65
680.877	1784.56
681.225	1786.59
681.573	1802.18
681.922	1773.03
682.27	1744.78
682.618	1767.83
682.966	1750.66
683.314	1791.56
683.661	1738.91
684.009	1769.87
684.357	1770.55
684.705	1752.02
685.053	1759.93
685.4	1725.58
685.748	1751.56
686.095	1770.55
686.443	1753.15
686.79	1758.12
687.138	1769.42
687.485	1727.16
687.832	1742.98
688.18	1718.8
688.527	1727.61
688.874	1731.45
689.221	1716.08
689.568	1707.5
689.915	1728.74
690.262	1699.59
690.609	1702.98
690.956	1706.14
691.303	1726.25
691.65	1699.81
691.997	1676.76
692.344	1706.82
692.69	1690.1
693.037	1656.88
693.383	1672.92
693.73	1661.85
694.077	1631.34
694.423	1613.49
694.769	1652.81
695.116	1647.39
695.462	1638.8
695.808	1630.89
696.155	1620.95
696.501	1610.78
696.847	1605.13
697.193	1621.62
697.539	1666.14
697.885	1618.91
698.231	1602.87
698.577	1595.64
698.923	1595.18
699.269	1609.19
699.614	1624.56
699.96	1592.02
700.306	1590.44
700.651	1580.27
700.997	1583.43
701.342	1591.34
701.688	1581.4
702.033	1561.51
702.379	1578.46
702.724	1536.2
703.069	1596.99
703.415	1585.01
703.76	1562.42
704.105	1569.42
704.45	1565.81
704.795	1547.05
705.14	1533.04
705.485	1562.42
705.83	1550.21
706.175	1568.97
706.52	1562.87
706.865	1521.51
707.209	1567.16
707.554	1561.29
707.899	1548.41
708.243	1551.34
708.588	1568.07
708.932	1553.15
709.277	1541.63
709.621	1536.2
709.966	1546.15
710.31	1526.94
710.654	1519.03
710.998	1524
711.342	1521.06
711.687	1556.32
712.031	1542.53
712.375	1549.08
712.719	1567.84
713.063	1546.6
713.407	1547.28
713.75	1541.17
714.094	1563.09
714.438	1546.15
714.782	1574.39
715.125	1548.86
715.469	1550.67
715.812	1596.99
716.156	1552.7
716.499	1507.73
716.843	1576.88
717.186	1566.94
717.53	1552.02
717.873	1594.05
718.216	1582.53
718.559	1586.14
718.902	1571.23
719.246	1582.3
719.589	1603.32
719.932	1564
720.275	1547.95
720.617	1578.01
720.96	1579.82
721.303	1592.02
721.646	1603.09
721.989	1579.59
722.331	1585.01
722.674	1592.7
723.016	1583.43
723.359	1635.41
723.701	1603.09
724.044	1590.66
724.386	1630.21
724.729	1622.08
725.071	1611.91
725.413	1611.45
725.755	1637.89
726.097	1601.74
726.439	1638.35
726.782	1655.07
727.124	1654.84
727.465	1646.71
727.807	1668.4
728.149	1643.54
728.491	1677.44
728.833	1666.82
729.175	1690.77
729.516	1662.3
729.858	1691.23
730.199	1696.42
730.541	1714.28
730.882	1699.81
731.224	1691.9
731.565	1685.58
731.906	1695.29
732.248	1749.3
732.589	1723.99
732.93	1721.51
733.271	1740.26
733.612	1746.37
733.953	1755.86
734.294	1756.54
734.635	1755.86
734.976	1795.18
735.317	1798.34
735.658	1815.74
735.999	1784.56
736.339	1850.32
736.68	1858.91
737.021	1825.91
737.361	1866.82
737.702	1841.73
738.042	1844.67
738.383	1878.11
738.723	1867.27
739.063	1933.93
739.404	1915.63
739.744	1921.96
740.084	1937.77
740.424	1950.88
740.764	1942.29
741.104	2023.42
741.444	2009.18
741.784	1990.65
742.124	2029.52
742.464	2030.43
742.804	2057.77
743.143	2088.5
743.483	2079.47
743.823	2099.13
744.162	2138.67
744.502	2148.62
744.841	2173.93
745.181	2171.44
745.52	2191.55
745.86	2227.48
746.199	2263.87
746.538	2263.87
746.877	2342.28
747.216	2340.48
747.556	2341.61
747.895	2393.36
748.234	2421.83
748.573	2439.68
748.911	2460.7
749.25	2526.23
749.589	2501.15
749.928	2565.1
750.267	2630.41
750.605	2655.27
750.944	2634.48
751.283	2722.61
751.621	2736.4
751.96	2822.27
752.298	2845.55
752.636	2879.44
752.975	2936.17
753.313	2931.87
753.651	2960.35
753.989	3094.35
754.327	3143.62
754.666	3160.11
755.004	3201.47
755.342	3271.52
755.679	3312.2
756.017	3365.53
756.355	3453.21
756.693	3469.03
757.031	3556.26
757.368	3599.2
757.706	3642.36
758.044	3695.92
758.381	3770.27
758.719	3816.59
759.056	3876.93
759.394	3913.54
759.731	3978.85
760.068	4078.06
760.405	4104.5
760.743	4113.08
761.08	4193.99
761.417	4297.94
761.754	4338.39
762.091	4348.56
762.428	4435.34
762.765	4516.69
763.102	4578.38
763.438	4661.77
763.775	4661.32
764.112	4762.56
764.449	4796.91
764.785	4829.9
765.122	4816.12
765.458	4894.53
765.795	4927.75
766.131	5005.04
766.467	5068.31
766.804	5116.9
767.14	5190.12
767.476	5202.32
767.812	5251.36
768.148	5322.54
768.485	5385.59
768.821	5378.59
769.157	5495.42
769.492	5435.99
769.828	5504.69
770.164	5539.71
770.5	5577.23
770.836	5679.6
771.171	5650.22
771.507	5704.68
771.842	5714.85
772.178	5750.56
772.513	5800.95
772.849	5804.34
773.184	5792.36
773.519	5864
773.855	5906.26
774.19	5899.93
774.525	5982.19
774.86	5960.94
775.195	5997.1
775.53	6020.83
775.865	6060.83
776.2	6020.15
776.535	6061.28
776.87	6113.26
777.205	6071.45
777.539	6121.17
777.874	6183.76
778.209	6124.78
778.543	6126.82
778.878	6196.19
779.212	6214.27
779.547	6161.84
779.881	6182.18
780.215	6191.22
780.55	6214.95
780.884	6216.31
781.218	6195.97
781.552	6225.57
781.886	6265.12
782.22	6264.89
782.554	6295.63
782.888	6200.49
783.222	6215.18
783.556	6210.2
783.889	6256.53
784.223	6213.37
784.557	6228.06
784.89	6281.39
785.224	6241.39
785.557	6230.99
785.891	6275.51
786.224	6239.36
786.558	6287.94
786.891	6247.94
787.224	6253.14
787.557	6214.72
787.891	6223.54
788.224	6289.52
788.557	6238.9
788.89	6264.21
789.223	6284.33
789.556	6276.42
789.888	6191.67
790.221	6263.99
790.554	6241.39
790.887	6229.19
791.219	6187.15
791.552	6202.52
791.884	6244.33
792.217	6196.64
792.549	6258.11
792.882	6164.33
793.214	6184.44
793.546	6194.16
793.879	6153.26
794.211	6165.01
794.543	6173.37
794.875	6178.11
795.207	6198.9
795.539	6179.24
795.871	6190.54
796.203	6113.48
796.535	6118.23
796.867	6111.68
797.198	6133.14
797.53	6122.52
797.862	6099.7
798.193	6156.42
798.525	6027.61
798.856	6123.43
799.188	6016.54
799.519	5991.9
799.85	6027.16
800.182	6065.12
800.513	6008.18
800.844	5993.49
801.175	5989.87
801.506	5997.78
801.837	5980.61
802.168	6002.3
802.499	5917.33
802.83	5892.47
803.161	5990.77
803.491	5920.95
803.822	5933.15
804.153	5899.93
804.483	5906.71
804.814	5883.21
805.145	5881.4
805.475	5871
805.805	5871.23
806.136	5888.63
806.466	5892.7
806.796	5791.68
807.126	5795.75
807.457	5832.59
807.787	5865.81
808.117	5776.54
808.447	5781.06
808.777	5807.05
809.107	5749.43
809.436	5801.85
809.766	5812.47
810.096	5763.21
810.426	5778.8
810.755	5725.24
811.085	5772.25
811.414	5694.51
811.744	5645.47
812.073	5683.44
812.403	5677.79
812.732	5696.77
813.061	5739.48
813.39	5667.85
813.719	5620.84
814.049	5680.95
814.378	5643.21
814.707	5649.77
815.036	5664.23
815.365	5635.53
815.693	5573.84
816.022	5595.53
816.351	5559.83
816.68	5574.74
817.008	5602.76
817.337	5510.34
817.665	5518.7
817.994	5549.88
818.322	5535.42
818.651	5541.52
818.979	5490.45
819.307	5490.9
819.636	5494.74
819.964	5479.15
820.292	5496.1
820.62	5502.43
820.948	5491.13
821.276	5548.3
821.604	5486.83
821.932	5534.97
822.259	5525.93
822.587	5495.65
822.915	5517.79
823.243	5518.24
823.57	5541.97
823.898	5524.12
824.225	5494.29
824.553	5491.8
824.88	5448.64
825.207	5533.61
825.535	5491.8
825.862	5481.86
826.189	5522.54
826.516	5493.16
826.843	5542.88
827.17	5516.44
827.497	5603.44
827.824	5486.16
828.151	5527.96
828.478	5506.27
828.805	5551.01
829.131	5544.91
829.458	5523.44
829.785	5555.53
830.111	5502.88
830.438	5566.15
830.764	5513.05
831.09	5505.59
831.417	5553.5
831.743	5534.52
832.069	5553.95
832.395	5530.9
832.722	5608.19
833.048	5565.48
833.374	5540.17
833.7	5521.41
834.026	5489.32
834.351	5567.28
834.677	5505.59
835.003	5461.98
835.329	5511.24
835.654	5487.96
835.98	5494.97
836.306	5563.67
836.631	5480.28
836.956	5457.23
837.282	5492.03
837.607	5450.22
837.932	5506.95
838.258	5410.68
838.583	5451.81
838.908	5452.48
839.233	5441.86
839.558	5427.85
839.883	5403.45
840.208	5411.81
840.533	5384.69
840.858	5392.15
841.182	5427.17
841.507	5400.73
841.832	5384.01
842.156	5340.4
842.481	5357.8
842.805	5342.88
843.13	5318.02
843.454	5312.15
843.778	5301.3
844.103	5307.85
844.427	5313.28
844.751	5302.43
845.075	5252.94
845.399	5292.71
845.723	5237.35
846.047	5282.09
846.371	5177.01
846.695	5203.22
847.019	5190.8
847.343	5145.15
847.666	5164.58
847.99	5073.06
848.313	5136.79
848.637	5052.95
848.96	5095.21
849.284	5018.37
849.607	5004.36
849.931	4955.1
850.254	5014.08
850.577	4960.97
850.9	4902.22
851.223	4947.64
851.546	4945.38
851.869	4846.85
852.192	4889.33
852.515	4823.8
852.838	4854.31
853.161	4827.42
853.483	4796
853.806	4787.19
854.129	4825.38
854.451	4768.66
854.774	4745.16
855.096	4735.21
855.419	4760.98
855.741	4703.8
856.063	4688.44
856.385	4667.65
856.708	4681.88
857.03	4661.77
857.352	4666.97
857.674	4644.6
857.996	4607.99
858.318	4569.12
858.64	4577.93
858.961	4542.68
859.283	4556.01
859.605	4516.24
859.926	4534.54
860.248	4538.84
860.57	4501.55
860.891	4505.16
861.212	4501.1
861.534	4502.9
861.855	4470.14
862.176	4512.4
862.498	4469.68
862.819	4504.26
863.14	4453.19
863.461	4447.31
863.782	4444.15
864.103	4458.84
864.424	4466.29
864.745	4407.09
865.065	4408.22
865.386	4426.07
865.707	4385.85
866.027	4399.86
866.348	4410.03
866.668	4360.54
866.989	4377.03
867.309	4320.99
867.63	4375.9
867.95	4367.09
868.27	4342.91
868.59	4319.63
868.91	4331.16
869.23	4304.27
869.55	4310.37
869.87	4303.14
870.19	4308.79
870.51	4267.88
870.83	4287.99
871.15	4266.98
871.469	4253.19
871.789	4302.01
872.109	4247.77
872.428	4192.63
872.748	4302.91
873.067	4218.62
873.386	4224.04
873.706	4246.41
874.025	4188.34
874.344	4179.52
874.663	4154.66
874.982	4185.85
875.301	4196.92
875.62	4166.19
875.939	4170.26
876.258	4174.33
876.577	4153.99
876.896	4189.92
877.214	4125.29
877.533	4151.95
877.852	4082.58
878.17	4097.49
878.489	4103.37
878.807	4124.84
879.125	4093.88
879.444	4098.62
879.762	4104.5
880.08	4081.22
880.398	4054.55
880.716	4066.08
881.034	4067.89
881.352	4019.75
881.67	4053.42
881.988	4066.76
882.306	4037.83
882.624	4003.48
882.941	4013.88
883.259	3958.51
883.577	4019.08
883.894	3989.92
884.212	3955.57
884.529	4007.55
884.846	3927.55
885.164	3946.53
885.481	3944.73
885.798	3919.42
886.115	3936.82
886.432	3877.38
886.75	3887.55
887.067	3883.49
887.383	3871.96
887.7	3901.11
888.017	3873.77
888.334	3893.43
888.651	3837.84
888.967	3821.34
889.284	3796.26
889.6	3775.24
889.917	3811.17
890.233	3777.95
890.55	3746.77
890.866	3770.49
891.182	3749.93
891.498	3770.72
891.815	3721.23
892.131	3701.34
892.447	3723.04
892.763	3681.91
893.079	3723.26
893.395	3695.92
893.71	3682.13
894.026	3681.91
894.342	3603.72
894.657	3634.9
894.973	3640.1
895.289	3589.03
895.604	3596.49
895.92	3566.21
896.235	3582.93
896.55	3576.83
896.865	3547
897.181	3539.77
897.496	3495.7
897.811	3519.65
898.126	3540.44
898.441	3478.98
898.756	3493.44
899.071	3459.77
899.386	3469.26
899.7	3437.4
900.015	3440.79
900.33	3402.59
900.644	3410.5
900.959	3410.5
901.273	3383.16
901.588	3377.51
901.902	3323.73
902.216	3334.12
902.531	3336.16
902.845	3333.67
903.159	3309.26
903.473	3319.66
903.787	3301.13
904.101	3272.65
904.415	3238.76
904.729	3257.74
905.042	3219.77
905.356	3227.68
905.67	3220.45
905.984	3214.35
906.297	3192.2
906.611	3160.79
906.924	3143.17
907.237	3160.57
907.551	3181.81
907.864	3146.33
908.177	3089.83
908.491	3125.09
908.804	3095.26
909.117	3095.94
909.43	3044.41
909.743	3058.65
910.056	3054.13
910.368	3025.88
910.681	3013.9
910.994	3042.83
911.307	2986.33
911.619	2952.44
911.932	3015.71
912.244	2993.34
912.557	2964.87
912.869	2945.21
913.181	2935.04
913.494	2916.73
913.806	2899.78
914.118	2892.33
914.43	2861.37
914.742	2867.47
915.054	2840.12
915.366	2843.74
915.678	2826.34
915.99	2835.6
916.302	2835.6
916.613	2814.59
916.925	2786.34
917.236	2786.57
917.548	2781.14
917.859	2756.74
918.171	2733.01
918.482	2734.59
918.794	2718.32
919.105	2732.1
919.416	2687.81
919.727	2703.86
920.038	2711.09
920.349	2671.54
920.66	2679.68
920.971	2646.23
921.282	2656.17
921.593	2620.47
921.903	2635.83
922.214	2611.2
922.525	2593.58
922.835	2597.64
923.146	2581.37
923.456	2584.08
923.767	2557.87
924.077	2581.6
924.387	2552.9
924.697	2557.19
925.008	2533.69
925.318	2548.83
925.628	2519.45
925.938	2525.33
926.248	2485.33
926.558	2486.91
926.867	2492.56
927.177	2465.22
927.487	2432.45
927.796	2399
928.106	2423.64
928.416	2415.5
928.725	2439.91
929.034	2369.17
929.344	2415.73
929.653	2375.5
929.962	2404.2
930.271	2397.42
930.581	2358.1
930.89	2377.76
931.199	2367.14
931.508	2355.62
931.817	2381.6
932.125	2356.29
932.434	2330.31
932.743	2305.9
933.051	2337.09
933.36	2290.76
933.669	2261.16
933.977	2255.28
934.286	2245.34
934.594	2291.21
934.902	2249.18
935.21	2208.28
935.519	2243.53
935.827	2206.02
936.135	2223.19
936.443	2204.21
936.751	2191.1
937.059	2183.42
937.367	2174.38
937.674	2184.77
937.982	2179.12
938.29	2168.95
938.597	2159.46
938.905	2133.02
939.213	2119.01
939.52	2120.14
939.827	2113.36
940.135	2140.48
940.442	2082.4
940.749	2112.23
941.056	2114.27
941.363	2063.19
941.67	2107.49
941.977	2070.2
942.284	2046.92
942.591	2055.96
942.898	2040.37
943.205	2042.63
943.511	2035.85
943.818	2013.25
944.125	2019.13
944.431	1997.43
944.738	1999.92
945.044	1959.02
945.35	2023.65
945.657	1937.32
945.963	1926.7
946.269	1927.83
946.575	1966.47
946.881	1971.9
947.187	1934.84
947.493	1918.57
947.799	1898.45
948.105	1900.03
948.41	1882.41
948.716	1872.01
949.022	1889.87
949.327	1882.18
949.633	1867.72
949.938	1853.03
950.244	1852.58
950.549	1865.91
950.854	1859.13
951.16	1809.42
951.465	1828.17
951.77	1828.4
952.075	1826.59
952.38	1817.78
952.685	1827.27
952.99	1789.08
953.294	1777.1
953.599	1761.06
953.904	1777.55
954.209	1767.83
954.513	1780.26
954.818	1776.42
955.122	1759.7
955.426	1758.12
955.731	1739.59
956.035	1727.84
956.339	1720.6
956.643	1720.6
956.948	1709.76
957.252	1749.3
957.556	1716.54
957.86	1678.57
958.163	1677.22
958.467	1692.81
958.771	1672.02
959.075	1676.54
959.378	1630.21
959.682	1633.6
959.985	1637.22
960.289	1628.4
960.592	1587.73
960.896	1598.12
961.199	1596.31
961.502	1618.91
961.805	1592.92
962.108	1607.84
962.411	1610.78
962.714	1584.11
963.017	1592.02
963.32	1604.22
963.623	1568.07
963.926	1590.44
964.228	1563.55
964.531	1540.95
964.833	1574.62
965.136	1545.69
965.438	1566.03
965.741	1526.26
966.043	1524
966.345	1517.45
966.648	1517.9
966.95	1521.51
967.252	1521.74
967.554	1506.37
967.856	1502.98
968.158	1475.87
968.46	1459.37
968.761	1491.01
969.063	1474.96
969.365	1471.57
969.666	1455.98
969.968	1463.44
970.269	1450.78
970.571	1447.62
970.872	1438.8
971.174	1433.38
971.475	1423.44
971.776	1421.4
972.077	1388.41
972.378	1396.32
972.679	1404.91
972.98	1404.68
973.281	1385.25
973.582	1391.57
973.883	1368.07
974.183	1382.99
974.484	1385.02
974.785	1372.14
975.085	1364.68
975.386	1370.33
975.686	1339.82
975.986	1366.49
976.287	1361.74
976.587	1315.64
976.887	1355.64
977.187	1345.47
977.487	1335.98
977.787	1304.8
978.087	1306.15
978.387	1293.5
978.687	1302.54
978.987	1304.12
979.286	1284.46
979.586	1288.3
979.885	1288.07
980.185	1264.12
980.484	1258.92
980.784	1256.66
981.083	1259.15
981.382	1252.59
981.682	1225.25
981.981	1269.09
982.28	1250.56
982.579	1260.73
982.878	1230.45
983.177	1249.2
983.475	1263.44
983.774	1223.22
984.073	1216.89
984.372	1231.13
984.67	1191.13
984.969	1227.28
985.267	1215.53
985.566	1146.61
985.864	1192.93
986.162	1164.23
986.461	1168.3
986.759	1175.31
987.057	1164.46
987.355	1170.56
987.653	1157.23
987.951	1170.79
988.249	1169.21
988.547	1129.66
988.844	1138.02
989.142	1126.72
989.44	1133.5
989.737	1120.17
990.035	1159.04
990.332	1110.68
990.63	1128.53
990.927	1108.19
991.224	1119.26
991.521	1090.79
991.819	1119.94
992.116	1113.16
992.413	1088.98
992.71	1072.03
993.006	1085.37
993.303	1060.96
993.6	1055.76
993.897	1075.88
994.193	1080.85
994.49	1095.31
994.787	1074.52
995.083	1037.91
995.379	1062.54
995.676	1055.54
995.972	1072.49
996.268	1040.85
996.565	1018.25
996.861	1027.74
997.157	1029.55
997.453	1035.42
997.749	1017.12
998.044	1012.37
998.34	1025.71
998.636	1016.89
998.932	953.39
999.227	981.87
999.523	975.31
999.818	970.57
1000.114	970.57
1000.409	966.5
1000.704	968.31
1001	964.01
1001.295	970.12
1001.59	978.7
1001.885	983.9
1002.18	938.48
1002.475	942.77
1002.77	959.27
1003.065	931.92
1003.359	928.99
1003.654	940.74
1003.949	929.44
1004.243	926.95
1004.538	904.13
1004.832	901.64
1005.127	939.16
1005.421	897.12
1005.715	914.98
1006.009	886.05
1006.304	905.48
1006.598	900.51
1006.892	871.81
1007.186	869.78
1007.48	882.66
1007.773	872.49
1008.067	879.27
1008.361	860.29
1008.655	853.51
1008.948	868.2
1009.242	854.19
1009.535	850.57
1009.829	848.76
1010.122	837.69
1010.415	837.92
1010.708	829.78
1011.001	840.85
1011.295	821.19
1011.588	828.65
1011.881	837.92
1012.173	813.51
1012.466	818.93
1012.759	811.25
1013.052	800.63
1013.344	818.03
1013.637	784.81
1013.93	786.39
1014.222	768.77
1014.514	791.59
1014.807	785.04
1015.099	804.24
1015.391	777.35
1015.683	779.16
1015.976	772.38
1016.268	773.96
1016.56	749.33
1016.851	776.67
1017.143	766.73
1017.435	743.68
1017.727	743.68
1018.018	743
1018.31	709.56
1018.602	729.22
1018.893	745.71
1019.185	717.92
1019.476	740.29
1019.767	708.43
1020.058	708.2
1020.35	728.09
1020.641	730.12
1020.932	692.16
1021.223	734.64
1021.514	714.98
1021.804	700.97
1022.095	716.11
1022.386	698.26
1022.677	700.52
1022.967	676.34
1023.258	686.96
1023.548	682.67
1023.839	660.75
1024.129	667.75
1024.419	681.08
1024.709	680.18
1025	657.81
1025.29	681.31
1025.58	644.02
1025.87	649.45
1026.16	649.9
1026.449	652.16
1026.739	662.78
1027.029	642.44
1027.319	653.97
1027.608	645.38
1027.898	635.44
1028.187	625.49
1028.477	636.11
1028.766	633.85
1029.055	631.59
1029.344	618.49
1029.634	613.51
1029.923	597.47
1030.212	615.55
1030.501	614.64
1030.79	615.55
1031.078	607.64
1031.367	595.89
1031.656	583.91
1031.945	599.05
1032.233	583.01
1032.522	599.28
1032.81	599.5
1033.099	600.18
1033.387	570.8
1033.675	575.55
1033.963	578.04
1034.251	578.94
1034.54	552.5
1034.828	574.42
1035.116	559.51
1035.403	561.76
1035.691	574.65
1035.979	581.43
1036.267	561.76
1036.554	530.58
1036.842	579.39
1037.129	540.75
1037.417	546.85
1037.704	541.43
1037.992	540.3
1038.279	559.73
1038.566	551.37
1038.853	551.37
1039.14	551.37
