Data from blue_surface_keyboard_FLMS001491_044.txt Node
Date: Tue Feb 07 11:13:10 GMT 2017
User: dcchb
Spectrometer: FLMS00149
Trigger mode: 0
Integration Time (sec): 2.000000E-2
Scans to average: 10
Electric dark correction enabled: true
Nonlinearity correction enabled: false
Boxcar width: 0
XAxis mode: Wavelengths
Number of Pixels in Spectrum: 2048
>>>>>Begin Spectral Data<<<<<
341.393	-13.19
341.776	-13.19
342.16	-13.19
342.543	-66.07
342.927	-59.97
343.31	-57.71
343.693	-65.85
344.077	-78.27
344.46	-87.99
344.843	-61.78
345.226	-63.81
345.61	-10.71
345.993	-15.9
346.376	5.56
346.759	7.6
347.142	43.76
347.525	45.56
347.908	60.93
348.291	79.24
348.674	90.08
349.057	109.29
349.44	146.8
349.823	151.32
350.206	156.3
350.588	207.37
350.971	198.55
351.354	204.43
351.737	209.4
352.119	236.29
352.502	259.8
352.884	251.43
353.267	268.16
353.65	275.39
354.032	293.47
354.414	278.78
354.797	294.14
355.179	303.18
355.562	293.01
355.944	296.4
356.326	307.93
356.709	331.21
357.091	308.16
357.473	327.36
357.855	303.64
358.238	328.49
358.62	313.35
359.002	310.64
359.384	325.33
359.766	336.18
360.148	311.77
360.53	320.81
360.912	311.32
361.294	311.09
361.676	322.62
362.057	327.14
362.439	317.42
362.821	313.13
363.203	309.51
363.584	313.13
363.966	308.61
364.348	318.78
364.729	319.45
365.111	313.58
365.493	290.3
365.874	292.11
366.256	282.17
366.637	300.7
367.019	274.94
367.4	304.09
367.781	292.11
368.163	295.95
368.544	286.01
368.925	303.86
369.306	298.44
369.688	295.05
370.069	297.53
370.45	293.47
370.831	290.3
371.212	316.07
371.593	301.6
371.974	297.76
372.355	289.85
372.736	288.27
373.117	292.11
373.498	301.6
373.879	292.56
374.26	296.4
374.641	293.69
375.021	271.77
375.402	299.34
375.783	296.86
376.163	279.46
376.544	295.5
376.925	309.29
377.305	307.48
377.686	310.87
378.066	312.9
378.447	294.37
378.827	299.34
379.208	307.25
379.588	289.85
379.968	316.07
380.349	303.18
380.729	310.64
381.109	296.86
381.489	294.14
381.87	322.39
382.25	307.7
382.63	332.11
383.01	304.54
383.39	323.3
383.77	305.9
384.15	316.97
384.53	296.63
384.91	319.91
385.29	301.83
385.67	300.25
386.049	318.32
386.429	324.65
386.809	292.56
387.189	327.14
387.568	294.14
387.948	318.32
388.328	303.41
388.707	330.98
389.087	307.03
389.466	328.04
389.846	320.13
390.225	335.05
390.605	323.3
390.984	329.62
391.363	321.71
391.743	319.91
392.122	324.65
392.501	319.45
392.881	313.35
393.26	328.72
393.639	331.21
394.018	322.39
394.397	334.82
394.776	344.31
395.155	321.94
395.534	335.73
395.913	329.85
396.292	361.71
396.671	346.12
397.05	358.78
397.429	328.72
397.808	329.85
398.186	335.05
398.565	336.86
398.944	332.56
399.323	326.91
399.701	324.88
400.08	346.57
400.458	323.3
400.837	344.54
401.215	341.15
401.594	342.28
401.972	382.05
402.351	353.13
402.729	321.26
403.107	361.26
403.486	343.18
403.864	363.52
404.242	313.81
404.62	364.43
404.999	362.17
405.377	350.41
405.755	358.55
406.133	367.59
406.511	371.43
406.889	338.21
407.267	349.96
407.645	345.44
408.023	353.8
408.401	377.53
408.779	376.63
409.156	377.76
409.534	358.1
409.912	368.95
410.29	377.53
410.667	394.48
411.045	372.79
411.422	364.88
411.8	367.14
412.178	388.61
412.555	377.08
412.933	365.33
413.31	381.15
413.687	380.7
414.065	386.57
414.442	380.7
414.819	388.61
415.197	392.45
415.574	398.32
415.951	389.06
416.328	401.26
416.705	386.57
417.082	372.11
417.46	401.94
417.837	400.58
418.214	410.53
418.591	384.99
418.967	391.77
419.344	384.09
419.721	409.17
420.098	391.32
420.475	388.83
420.852	382.5
421.228	412.79
421.605	401.26
421.982	389.74
422.358	400.58
422.735	400.13
423.111	413.92
423.488	412.79
423.864	416.4
424.241	427.25
424.617	438.77
424.994	409.17
425.37	411.66
425.746	424.31
426.123	432.22
426.499	418.21
426.875	428.83
427.251	414.82
427.627	428.38
428.003	445.55
428.379	432.22
428.756	431.54
429.132	446.23
429.507	443.75
429.883	426.57
430.259	431.32
430.635	416.85
431.011	436.51
431.387	431.54
431.763	457.08
432.138	439.45
432.514	446.01
432.89	461.82
433.265	465.67
433.641	477.64
434.016	481.94
434.392	470.19
434.767	477.19
435.143	452.56
435.518	472.22
435.894	485.78
436.269	497.76
436.644	489.85
437.02	486.46
437.395	479.45
437.77	492.56
438.145	489.62
438.52	481.03
438.895	507.47
439.271	487.81
439.646	513.35
440.021	505.89
440.395	500.24
440.77	510.41
441.145	502.05
441.52	523.97
441.895	499.11
442.27	516.96
442.645	519.9
443.019	535.27
443.394	534.36
443.769	535.95
444.143	520.81
444.518	547.47
444.892	528.04
445.267	526.91
445.641	509.28
446.016	540.24
446.39	523.97
446.764	544.08
447.139	545.66
447.513	546.12
447.887	566.68
448.262	569.39
448.636	537.3
449.01	557.64
449.384	544.99
449.758	571.65
450.132	558.32
450.506	575.95
450.88	558.32
451.254	574.14
451.628	582.5
452.002	588.37
452.376	572.78
452.75	563.74
453.123	578.43
453.497	577.53
453.871	573.91
454.244	600.35
454.618	588.37
454.992	611.65
455.365	593.12
455.739	626.57
456.112	602.61
456.486	607.81
456.859	599.67
457.232	620.24
457.606	634.25
457.979	611.2
458.352	623.18
458.725	622.27
459.099	625.89
459.472	634.25
459.845	634.93
460.218	646.68
460.591	645.55
460.964	640.8
461.337	654.59
461.71	662.5
462.083	670.63
462.456	667.47
462.829	643.74
463.201	686.9
463.574	685.32
463.947	664.3
464.32	682.16
464.692	685.55
465.065	689.16
465.438	711.53
465.81	728.94
466.183	713.57
466.555	709.5
466.928	710.86
467.3	705.43
467.672	722.16
468.045	730.97
468.417	737.3
468.789	748.14
469.161	748.14
469.534	752.44
469.906	756.05
470.278	743.62
470.65	756.05
471.022	761.48
471.394	806
471.766	789.05
472.138	791.31
472.51	791.76
472.882	804.41
473.253	815.49
473.625	834.47
473.997	806
474.369	851.19
474.74	853.68
475.112	862.49
475.484	851.19
475.855	846.67
476.227	852.32
476.598	883.06
476.97	893.9
477.341	874.69
477.713	916.05
478.084	930.96
478.455	899.55
478.827	919.44
479.198	943.39
479.569	928.03
479.94	956.5
480.311	965.99
480.682	965.31
481.053	987.23
481.424	1004.18
481.795	964.86
482.166	988.36
482.537	1010.74
482.908	1029.49
483.279	1011.64
483.65	1047.35
484.021	1059.77
484.391	1061.58
484.762	1090.06
485.133	1066.55
485.503	1103.62
485.874	1083.95
486.244	1092.54
486.615	1098.42
486.985	1122.15
487.356	1136.16
487.726	1154.91
488.097	1157.62
488.467	1144.07
488.837	1201.69
489.207	1172.99
489.578	1179.55
489.948	1163.5
490.318	1214.35
490.688	1221.13
491.058	1195.14
491.428	1217.51
491.798	1223.16
492.168	1252.09
492.538	1264.51
492.908	1259.09
493.278	1238.53
493.648	1240.33
494.017	1241.46
494.387	1275.36
494.757	1276.72
495.126	1271.75
495.496	1270.39
495.866	1304.51
496.235	1260.9
496.605	1321.91
496.974	1302.93
497.344	1285.53
497.713	1290.28
498.082	1316.04
498.452	1282.59
498.821	1329.82
499.19	1349.71
499.559	1339.77
499.928	1324.17
500.298	1318.98
500.667	1325.3
501.036	1316.04
501.405	1341.12
501.774	1313.33
502.143	1344.29
502.512	1358.52
502.88	1336.38
503.249	1332.99
503.618	1341.57
503.987	1361.69
504.356	1346.09
504.724	1370.5
505.093	1331.86
505.462	1372.99
505.83	1366.43
506.199	1415.7
506.567	1393.32
506.936	1383.83
507.304	1396.94
507.672	1390.61
508.041	1401.01
508.409	1400.33
508.777	1398.07
509.145	1409.82
509.514	1414.79
509.882	1386.09
510.25	1403.72
510.618	1434
510.986	1402.14
511.354	1417.05
511.722	1445.3
512.09	1435.58
512.458	1413.89
512.826	1452.31
513.193	1428.35
513.561	1434
513.929	1446.43
514.297	1449.37
514.664	1469.93
515.032	1482.81
515.4	1446.66
515.767	1446.43
516.135	1460.44
516.502	1439.43
516.869	1490.05
517.237	1490.5
517.604	1466.32
517.972	1476.94
518.339	1459.76
518.706	1479.2
519.073	1473.32
519.44	1483.27
519.808	1488.46
520.175	1488.46
520.542	1483.94
520.909	1486.43
521.276	1513.32
521.643	1526.2
522.009	1495.7
522.376	1532.08
522.743	1503.6
523.11	1508.12
523.477	1542.7
523.843	1513.32
524.21	1536.15
524.577	1510.16
524.943	1477.39
525.31	1576.37
525.676	1526.65
526.043	1518.29
526.409	1557.61
526.776	1551.06
527.142	1577.95
527.508	1570.27
527.874	1566.43
528.241	1579.99
528.607	1560.1
528.973	1569.14
529.339	1562.13
529.705	1597.16
530.071	1588.57
530.437	1571.85
530.803	1594.22
531.169	1591.74
531.535	1577.73
531.901	1605.3
532.267	1606.43
532.632	1599.2
532.998	1582.7
533.364	1613.66
533.73	1603.04
534.095	1623.38
534.461	1603.94
534.826	1600.1
535.192	1608.23
535.557	1598.74
535.923	1600.1
536.288	1626.09
536.653	1639.65
537.019	1599.65
537.384	1636.93
537.749	1621.34
538.114	1621.79
538.479	1623.38
538.845	1605.3
539.21	1614.56
539.575	1607.33
539.94	1634.67
540.305	1604.39
540.67	1647.78
541.034	1625.41
541.399	1635.35
541.764	1613.43
542.129	1601.91
542.494	1645.07
542.858	1619.31
543.223	1662.7
543.587	1637.84
543.952	1621.79
544.316	1633.77
544.681	1643.26
545.045	1619.53
545.41	1633.09
545.774	1616.6
546.138	1626.31
546.503	1610.95
546.867	1610.72
547.231	1664.73
547.595	1641.45
547.959	1647.1
548.324	1627.44
548.688	1620.66
549.052	1650.04
549.416	1632.41
549.779	1648.91
550.143	1650.27
550.507	1645.97
550.871	1659.31
551.235	1669.93
551.599	1658.85
551.962	1631.96
552.326	1638.52
552.689	1665.63
553.053	1661.11
553.417	1660.89
553.78	1663.83
554.143	1650.72
554.507	1684.62
554.87	1681.9
555.234	1675.58
555.597	1664.5
555.96	1662.24
556.323	1670.38
556.686	1642.58
557.05	1694.79
557.413	1670.61
557.776	1660.89
558.139	1636.48
558.502	1677.84
558.865	1667.44
559.228	1657.72
559.59	1681.23
559.953	1680.32
560.316	1685.75
560.679	1689.14
561.041	1709.7
561.404	1717.38
561.767	1685.97
562.129	1716.71
562.492	1741.34
562.854	1723.49
563.217	1691.4
563.579	1731.85
563.941	1733.65
564.304	1719.64
564.666	1739.08
565.028	1729.36
565.39	1732.3
565.753	1725.52
566.115	1723.03
566.477	1729.81
566.839	1746.76
567.201	1754.22
567.563	1726.42
567.925	1765.29
568.287	1746.54
568.648	1769.36
569.01	1752.86
569.372	1759.19
569.734	1756.48
570.095	1770.72
570.457	1738.85
570.819	1809.81
571.18	1753.77
571.542	1759.64
571.903	1787.44
572.265	1781.11
572.626	1778.63
572.987	1772.52
573.349	1808.46
573.71	1810.72
574.071	1796.7
574.432	1823.14
574.794	1810.26
575.155	1824.27
575.516	1795.12
575.877	1794.9
576.238	1802.58
576.599	1827.44
576.96	1822.69
577.32	1808.91
577.681	1830.83
578.042	1848.45
578.403	1813.43
578.763	1824.73
579.124	1843.03
579.485	1812.07
579.845	1832.18
580.206	1820.43
580.566	1800.32
580.927	1824.73
581.287	1837.61
581.648	1824.73
582.008	1833.54
582.368	1839.87
582.728	1855.91
583.089	1841.45
583.449	1849.13
583.809	1856.36
584.169	1837.83
584.529	1851.62
584.889	1865.63
585.249	1831.51
585.609	1847.1
585.969	1852.3
586.329	1844.61
586.688	1853.43
587.048	1837.83
587.408	1864.95
587.768	1833.09
588.127	1852.75
588.487	1829.25
588.846	1847.1
589.206	1840.09
589.565	1835.57
589.925	1854.33
590.284	1845.97
590.643	1836.03
591.003	1884.16
591.362	1896.36
591.721	1843.71
592.08	1851.84
592.44	1872.41
592.799	1859.3
593.158	1864.05
593.517	1835.57
593.876	1864.72
594.235	1872.63
594.593	1881.22
594.952	1838.74
595.311	1888
595.67	1867.21
596.029	1879.87
596.387	1866.31
596.746	1883.93
597.104	1916.48
597.463	1872.63
597.822	1896.14
598.18	1858.17
598.538	1873.99
598.897	1875.8
599.255	1867.89
599.613	1862.69
599.972	1894.55
600.33	1917.38
600.688	1886.87
601.046	1908.79
601.404	1885.52
601.762	1886.19
602.12	1891.62
602.478	1907.89
602.836	1933.88
603.194	1885.29
603.552	1889.36
603.91	1938.17
604.268	1891.62
604.625	1931.84
604.983	1919.19
605.341	1922.35
605.698	1928.23
606.056	1931.84
606.413	1948.56
606.771	1950.37
607.128	1942.46
607.485	1943.59
607.843	1909.47
608.2	1930.26
608.557	1956.02
608.914	1961.45
609.272	1951.5
609.629	1956.47
609.986	1928.68
610.343	1952.86
610.7	1977.26
611.057	1986.98
611.414	1940.43
611.771	1977.26
612.127	1986.53
612.484	1944.04
612.841	1961.67
613.198	2002.35
613.554	2002.35
613.911	2011.84
614.267	1974.78
614.624	1972.07
614.98	1979.52
615.337	2017.72
615.693	1984.95
616.05	2010.03
616.406	2020.65
616.762	2019.52
617.118	2002.35
617.475	1984.72
617.831	1995.34
618.187	2034.44
618.543	1989.24
618.899	2006.42
619.255	2023.36
619.611	2023.59
619.967	2048.9
620.323	2043.03
620.678	2047.32
621.034	2042.57
621.39	2028.56
621.746	2013.2
622.101	2057.94
622.457	2033.08
622.812	2053.65
623.168	2063.36
623.523	2030.6
623.879	2072.18
624.234	2053.65
624.589	2078.96
624.945	2063.36
625.3	2078.5
625.655	2062.23
626.01	2075.11
626.365	2071.95
626.72	2104.27
627.075	2066.3
627.43	2090.93
627.785	2080.54
628.14	2080.31
628.495	2091.16
628.85	2086.41
629.205	2103.14
629.559	2074.89
629.914	2093.65
630.269	2102.68
630.623	2108.79
630.978	2094.55
631.332	2132.74
631.687	2098.62
632.041	2113.76
632.396	2131.16
632.75	2124.15
633.104	2132.97
633.459	2133.42
633.813	2136.13
634.167	2152.63
634.521	2142.46
634.875	2167.09
635.229	2159.63
635.583	2141.78
635.937	2161.89
636.291	2169.8
636.645	2161.89
636.999	2179.74
637.352	2181.33
637.706	2154.66
638.06	2175.45
638.413	2169.12
638.767	2180.42
639.121	2150.82
639.474	2182.46
639.828	2168.9
640.181	2200.54
640.534	2219.52
640.888	2201.89
641.241	2212.06
641.594	2220.42
641.947	2233.08
642.301	2212.06
642.654	2202.8
643.007	2236.69
643.36	2207.77
643.713	2211.83
644.066	2260.19
644.419	2276.47
644.771	2238.5
645.124	2276.01
645.477	2268.56
645.83	2205.06
646.182	2229.24
646.535	2188.11
646.888	2283.25
647.24	2249.8
647.593	2244.38
647.945	2285.73
648.298	2246.86
648.65	2266.75
649.002	2259.29
649.355	2272.62
649.707	2307.88
650.059	2316.46
650.411	2342.68
650.763	2335
651.115	2418.38
651.467	2373.86
651.819	2372.06
652.171	2408.67
652.523	2422.68
652.875	2401.89
653.227	2435.56
653.578	2445.73
653.93	2448.66
654.282	2477.36
654.633	2469.23
654.985	2468.1
655.337	2492.51
655.688	2469.91
656.039	2514.2
656.391	2509.68
656.742	2516.91
657.094	2555.55
657.445	2560.07
657.796	2587.42
658.147	2566.4
658.498	2554.2
658.849	2589.23
659.2	2598.49
659.551	2604.37
659.902	2644.37
660.253	2611.6
660.604	2621.54
660.955	2655.21
661.306	2678.49
661.656	2650.24
662.007	2685.95
662.358	2715.1
662.708	2748.09
663.059	2728.88
663.409	2730.24
663.76	2721.43
664.11	2755.77
664.461	2772.05
664.811	2797.13
665.161	2778.6
665.511	2793.74
665.862	2833.97
666.212	2819.95
666.562	2830.8
666.912	2823.57
667.262	2871.93
667.612	2877.81
667.962	2917.13
668.312	2889.56
668.662	2903.57
669.011	2957.8
669.361	2976.11
669.711	2977.24
670.06	2949.22
670.41	2984.24
670.76	3004.36
671.109	3005.94
671.459	2995.77
671.808	3015.43
672.157	3040.74
672.507	3049.78
672.856	3047.52
673.205	3100.17
673.554	3095.43
673.904	3075.09
674.253	3128.65
674.602	3112.38
674.951	3120.96
675.3	3114.18
675.649	3110.12
675.998	3141.75
676.346	3218.14
676.695	3212.26
677.044	3184.46
677.393	3249.32
677.741	3242.09
678.09	3267.85
678.438	3275.08
678.787	3275.31
679.135	3245.03
679.484	3286.61
679.832	3286.83
680.181	3261.75
680.529	3312.14
680.877	3327.29
681.225	3329.77
681.573	3383.56
681.922	3346.49
682.27	3357.12
682.618	3394.18
682.966	3357.34
683.314	3396.66
683.661	3375.42
684.009	3398.92
684.357	3340.62
684.705	3379.71
685.053	3429.2
685.4	3430.56
685.748	3436.21
686.095	3431.92
686.443	3441.18
686.79	3430.79
687.138	3485.47
687.485	3478.69
687.832	3433.27
688.18	3498.58
688.527	3495.42
688.874	3461.52
689.221	3511.46
689.568	3488.64
689.915	3513.5
690.262	3486.38
690.609	3479.82
690.956	3552.82
691.303	3528.86
691.65	3502.42
691.997	3525.47
692.344	3508.52
692.69	3529.54
693.037	3572.93
693.383	3523.66
693.73	3547.62
694.077	3528.86
694.423	3514.63
694.769	3541.07
695.116	3571.12
695.462	3557.34
695.808	3553.04
696.155	3572.48
696.501	3512.59
696.847	3536.55
697.193	3515.98
697.539	3555.75
697.885	3531.57
698.231	3538.81
698.577	3528.18
698.923	3551.23
699.269	3535.42
699.614	3505.36
699.96	3477.11
700.306	3498.81
700.651	3467.17
700.997	3518.92
701.342	3499.71
701.688	3476.43
702.033	3503.33
702.379	3525.25
702.724	3493.16
703.069	3523.44
703.415	3466.49
703.76	3482.99
704.105	3486.6
704.45	3501.29
704.795	3466.26
705.14	3474.63
705.485	3508.75
705.83	3463.33
706.175	3468.07
706.52	3418.58
706.865	3481.86
707.209	3504.91
707.554	3428.75
707.899	3479.37
708.243	3434.85
708.588	3423.1
708.932	3431.46
709.277	3394.63
709.621	3467.85
709.966	3420.84
710.31	3418.81
710.654	3416.32
710.998	3401.63
711.342	3432.59
711.687	3451.58
712.031	3379.49
712.375	3340.62
712.719	3425.81
713.063	3424.01
713.407	3445.25
713.75	3374.74
714.094	3408.64
714.438	3399.37
714.782	3396.89
715.125	3392.82
715.469	3413.16
715.812	3384.01
716.156	3381.52
716.499	3387.62
716.843	3367.28
717.186	3375.87
717.53	3401.41
717.873	3402.31
718.216	3394.85
718.559	3413.61
718.902	3390.11
719.246	3384.91
719.589	3359.6
719.932	3400.96
720.275	3396.66
720.617	3422.65
720.96	3343.1
721.303	3403.89
721.646	3403.44
721.989	3415.87
722.331	3413.38
722.674	3384.46
723.016	3364.35
723.359	3411.8
723.701	3392.14
724.044	3369.32
724.386	3374.52
724.729	3351.69
725.071	3384.23
725.413	3378.36
725.755	3428.3
726.097	3384.46
726.439	3370.9
726.782	3380.39
727.124	3387.85
727.465	3364.12
727.807	3404.8
728.149	3367.96
728.491	3360.05
728.833	3377.23
729.175	3359.83
729.516	3358.25
729.858	3398.47
730.199	3375.42
730.541	3421.07
730.882	3395.53
731.224	3449.09
731.565	3415.64
731.906	3440.28
732.248	3434.4
732.589	3434.18
732.93	3417.23
733.271	3433.95
733.612	3444.34
733.953	3430.33
734.294	3456.32
734.635	3410.9
734.976	3453.61
735.317	3445.02
735.658	3452.71
735.999	3454.51
736.339	3480.73
736.68	3451.35
737.021	3488.41
737.361	3488.86
737.702	3480.5
738.042	3504.23
738.383	3480.5
738.723	3523.66
739.063	3491.57
739.404	3517.34
739.744	3509.43
740.084	3525.02
740.424	3572.93
740.764	3545.36
741.104	3555.53
741.444	3549.88
741.784	3539.71
742.124	3589.2
742.464	3576.77
742.804	3569.31
743.143	3564.57
743.483	3592.82
743.823	3615.87
744.162	3610.44
744.502	3610.89
744.841	3613.15
745.181	3662.64
745.52	3655.19
745.86	3674.85
746.199	3704.22
746.538	3699.93
746.877	3736.31
747.216	3676.2
747.556	3739.7
747.895	3768.18
748.234	3693.38
748.573	3789.65
748.911	3796.65
749.25	3796.43
749.589	3822.19
749.928	3845.24
750.267	3863.77
750.605	3861.96
750.944	3917.55
751.283	3921.39
751.621	3943.77
751.96	3916.87
752.298	3977.44
752.636	4012.92
752.975	3966.59
753.313	3962.75
753.651	4041.16
753.989	4067.83
754.327	4071.45
754.666	4069.64
755.004	4118.45
755.342	4115.97
755.679	4135.17
756.017	4139.47
756.355	4123.42
756.693	4110.77
757.031	4215.62
757.368	4165.68
757.706	4211.56
758.044	4268.05
758.381	4283.42
758.719	4262.4
759.056	4290.65
759.394	4273.7
759.731	4262.18
760.068	4348.5
760.405	4322.29
760.743	4337.43
761.08	4375.85
761.417	4373.81
761.754	4430.53
762.091	4423.08
762.428	4407.71
762.765	4398.44
763.102	4412.23
763.438	4379.01
763.775	4433.25
764.112	4417.65
764.449	4492
764.785	4483.87
765.122	4442.51
765.458	4443.41
765.795	4452.68
766.131	4475.73
766.467	4477.76
766.804	4457.2
767.14	4451.32
767.476	4495.39
767.812	4459.91
768.148	4520.47
768.485	4480.7
768.821	4482.28
769.157	4516.18
769.492	4489.74
769.828	4470.53
770.164	4447.03
770.5	4479.57
770.836	4486.12
771.171	4442.96
771.507	4457.43
771.842	4447.93
772.178	4460.14
772.513	4438.44
772.849	4452.68
773.184	4420.36
773.519	4404.32
773.855	4420.82
774.19	4453.81
774.525	4400.48
774.86	4369.74
775.195	4415.84
775.53	4390.08
775.865	4353.25
776.2	4331.55
776.535	4296.3
776.87	4337.65
777.205	4317.32
777.539	4296.98
777.874	4330.65
778.209	4283.19
778.543	4284.32
778.878	4267.15
779.212	4282.29
779.547	4223.76
779.881	4302.4
780.215	4193.7
780.55	4252.23
780.884	4228.96
781.218	4205.45
781.552	4217.88
781.886	4166.59
782.22	4175.85
782.554	4157.77
782.888	4147.83
783.222	4114.16
783.556	4102.86
783.889	4115.51
784.223	4080.71
784.557	4074.38
784.89	4061.73
785.224	4036.87
785.557	4055.4
785.891	4088.62
786.224	4025.57
786.558	4046.14
786.891	3978.79
787.224	3996.87
787.557	3987.83
787.891	3969.75
788.224	3997.1
788.557	3955.74
788.89	3910.09
789.223	3952.58
789.556	3931.56
789.888	3958
790.221	3896.76
790.554	3877.78
790.887	3877.33
791.219	3885.01
791.552	3884.33
791.884	3893.37
792.217	3840.04
792.549	3841.85
792.882	3807.05
793.214	3800.95
793.546	3793.94
793.879	3805.01
794.211	3734.28
794.543	3763.43
794.875	3765.92
795.207	3814.28
795.539	3793.71
795.871	3785.35
796.203	3712.59
796.535	3706.03
796.867	3751.23
797.198	3705.81
797.53	3674.39
797.862	3676.88
798.193	3633.72
798.525	3656.99
798.856	3645.47
799.188	3635.07
799.519	3594.85
799.85	3601.4
800.182	3591.01
800.513	3618.35
800.844	3586.94
801.175	3577.22
801.506	3592.59
801.837	3577.67
802.168	3552.82
802.499	3523.21
802.83	3502.87
803.161	3543.1
803.491	3514.63
803.822	3564.79
804.153	3513.5
804.483	3487.96
804.814	3492.48
805.145	3454.29
805.475	3499.03
805.805	3426.27
806.136	3500.39
806.466	3413.84
806.796	3406.83
807.126	3438.47
807.457	3407.28
807.787	3419.71
808.117	3396.21
808.447	3413.16
808.777	3389.88
809.107	3395.53
809.436	3397.57
809.766	3398.7
810.096	3344.01
810.426	3315.99
810.755	3337.91
811.085	3349.66
811.414	3367.96
811.744	3319.38
812.073	3284.57
812.403	3268.3
812.732	3283.9
813.061	3296.55
813.39	3228.98
813.719	3220.62
814.049	3304.46
814.378	3273.73
814.707	3236.89
815.036	3228.3
815.365	3221.98
815.693	3225.37
816.022	3211.36
816.351	3207.06
816.68	3199.83
817.008	3198.02
817.337	3155.76
817.665	3157.35
817.994	3194.41
818.322	3167.29
818.651	3121.42
818.979	3154.41
819.307	3158.93
819.636	3169.1
819.964	3149.66
820.292	3149.66
820.62	3121.87
820.948	3146.27
821.276	3134.75
821.604	3160.28
821.932	3116.9
822.259	3137.01
822.587	3156.44
822.915	3127.06
823.243	3153.73
823.57	3100.17
823.898	3097.69
824.225	3082.32
824.553	3094.52
824.88	3100.17
825.207	3144.92
825.535	3116.22
825.862	3126.61
826.189	3080.06
826.516	3123.45
826.843	3097.69
827.17	3081.42
827.497	3113.51
827.824	3123.9
828.151	3144.69
828.478	3166.61
828.805	3130.91
829.131	3122.77
829.458	3116.44
829.785	3112.6
830.111	3138.36
830.438	3105.14
830.764	3129.32
831.09	3120.06
831.417	3101.08
831.743	3127.52
832.069	3114.41
832.395	3086.84
832.722	3143.56
833.048	3127.52
833.374	3132.49
833.7	3136.78
834.026	3118.25
834.351	3153.05
834.677	3138.14
835.003	3068.54
835.329	3103.79
835.654	3055.65
835.98	3075.99
836.306	3039.84
836.631	3075.77
836.956	3132.49
837.282	3086.84
837.607	3035.54
837.932	3063.11
838.258	3059.72
838.583	3066.28
838.908	3047.29
839.233	3065.6
839.558	3021.76
839.883	3006.84
840.208	3020.17
840.533	3029.21
840.858	2998.03
841.182	3030.8
841.507	3034.86
841.832	2995.32
842.156	3009.78
842.481	2999.84
842.805	2987.41
843.13	3031.7
843.454	2945.83
843.778	2940.4
844.103	2985.83
844.427	2950.57
844.751	2970.91
845.075	2934.08
845.399	2932.04
845.723	2925.71
846.047	2920.29
846.371	2892.27
846.695	2899.27
847.019	2891.14
847.343	2897.47
847.666	2905.6
847.99	2885.26
848.313	2855.89
848.637	2871.25
848.96	2853.4
849.284	2827.86
849.607	2817.47
849.931	2813.85
850.254	2841.87
850.577	2779.05
850.9	2777.02
851.223	2789.45
851.546	2718.94
851.869	2712.16
852.192	2714.42
852.515	2729.11
852.838	2731.82
853.161	2711.71
853.483	2700.64
853.806	2687.75
854.129	2687.75
854.451	2676
854.774	2688.43
855.096	2649.11
855.419	2671.26
855.741	2623.8
856.063	2649.34
856.385	2646.4
856.708	2620.64
857.03	2648.89
857.352	2602.56
857.674	2591.71
857.996	2590.13
858.318	2585.84
858.64	2592.16
858.961	2583.35
859.283	2603.91
859.605	2600.07
859.926	2575.67
860.248	2580.41
860.57	2542.45
860.891	2551.71
861.212	2568.21
861.534	2576.57
861.855	2573.41
862.176	2544.03
862.498	2500.19
862.819	2523.92
863.14	2524.14
863.461	2501.32
863.782	2527.53
864.103	2519.85
864.424	2463.81
864.745	2548.77
865.065	2511.71
865.386	2502.67
865.707	2472.84
866.027	2498.15
866.348	2494.99
866.668	2488.44
866.989	2447.99
867.309	2464.26
867.63	2453.18
867.95	2474.2
868.27	2443.47
868.59	2455.9
868.91	2439.85
869.23	2445.5
869.55	2446.18
869.87	2450.47
870.19	2451.15
870.51	2449.12
870.83	2382.9
871.15	2423.35
871.469	2455.22
871.789	2456.12
872.109	2425.84
872.428	2377.48
872.748	2420.87
873.067	2419.06
873.386	2429
873.706	2411.15
874.025	2426.29
874.344	2375.22
874.663	2396.91
874.982	2365.28
875.301	2359.85
875.62	2362.11
875.939	2381.55
876.258	2353.3
876.577	2326.63
876.896	2404.37
877.214	2367.31
877.533	2379.06
877.852	2329.8
878.17	2365.05
878.489	2348.33
878.807	2314.66
879.125	2333.41
879.444	2331.38
879.762	2336.8
880.08	2335.45
880.398	2328.22
880.716	2318.95
881.034	2320.53
881.352	2315.11
881.67	2335.22
881.988	2304.71
882.306	2314.66
882.624	2289.8
882.941	2269.01
883.259	2299.52
883.577	2282.79
883.894	2272.4
884.212	2264.94
884.529	2253.64
884.846	2291.15
885.164	2255
885.481	2284.37
885.798	2257.93
886.115	2248.67
886.432	2235.34
886.75	2231.04
887.067	2262.45
887.383	2236.01
887.7	2224.49
888.017	2237.82
888.334	2245.51
888.651	2264.94
888.967	2187.65
889.284	2210.7
889.6	2184.72
889.917	2178.62
890.233	2172.97
890.55	2193.76
890.866	2163.93
891.182	2172.51
891.498	2165.73
891.815	2158.05
892.131	2165.96
892.447	2146.07
892.763	2155.79
893.079	2142.46
893.395	2136.81
893.71	2125.06
894.026	2126.86
894.342	2117.37
894.657	2142.23
894.973	2083.02
895.289	2109.01
895.604	2107.43
895.92	2093.65
896.235	2085.51
896.55	2104.27
896.865	2102.23
897.181	2032.4
897.496	2077.37
897.811	2066.75
898.126	2028.11
898.441	2043.03
898.756	2057.94
899.071	2039.18
899.386	2026.08
899.7	2017.26
900.015	1996.92
900.33	2008.45
900.644	2005.06
900.959	1961.9
901.273	1998.73
901.588	1978.85
901.902	1983.37
902.216	1971.39
902.531	2000.54
902.845	1967.32
903.159	1970.26
903.473	1953.99
903.787	1970.71
904.101	1936.14
904.415	1932.97
904.729	1935.68
905.042	1906.31
905.356	1936.81
905.67	1895.46
905.984	1907.21
906.297	1900.43
906.611	1926.42
906.924	1881.9
907.237	1889.81
907.551	1886.19
907.864	1873.76
908.177	1871.96
908.491	1866.31
908.804	1856.14
909.117	1858.85
909.43	1829.7
909.743	1837.16
910.056	1852.52
910.368	1840.09
910.681	1824.05
910.994	1797.83
911.307	1827.21
911.619	1832.64
911.932	1813.88
912.244	1782.02
912.557	1812.52
912.869	1770.94
913.181	1753.09
913.494	1783.82
913.806	1742.92
914.118	1717.84
914.43	1729.36
914.742	1735.24
915.054	1744.05
915.366	1757.84
915.678	1732.53
915.99	1726.2
916.302	1746.99
916.613	1711.28
916.925	1724.39
917.236	1699.08
917.548	1669.7
917.859	1698.63
918.171	1677.61
918.482	1685.52
918.794	1650.49
919.105	1681.45
919.416	1673.54
919.727	1657.05
920.038	1672.41
920.349	1641
920.66	1660.21
920.971	1643.94
921.282	1627.44
921.593	1609.14
921.903	1605.07
922.214	1595.13
922.525	1606.88
922.835	1601.23
923.146	1605.07
923.456	1577.5
923.767	1577.5
924.077	1578.86
924.387	1581.57
924.697	1560.33
925.008	1584.51
925.318	1575.69
925.628	1550.16
925.938	1550.61
926.248	1546.99
926.558	1536.6
926.867	1544.51
927.177	1559.42
927.487	1513.77
927.796	1500.67
928.106	1495.7
928.416	1502.02
928.725	1484.85
929.034	1500.89
929.344	1522.81
929.653	1480.1
929.962	1476.71
930.271	1481.68
930.581	1467
930.89	1478.52
931.199	1425.64
931.508	1473.55
931.817	1434
932.125	1443.72
932.434	1444.4
932.743	1459.99
933.051	1457.05
933.36	1409.37
933.669	1387.9
933.977	1398.75
934.286	1401.46
934.594	1408.47
934.902	1377.73
935.21	1413.44
935.519	1406.66
935.827	1398.3
936.135	1397.62
936.443	1397.84
936.751	1375.7
937.059	1363.27
937.367	1362.37
937.674	1361.46
937.982	1346.55
938.29	1368.47
938.597	1340.9
938.905	1358.3
939.213	1338.64
939.52	1318.3
939.827	1340.44
940.135	1343.16
940.442	1327.79
940.749	1306.32
941.056	1315.59
941.363	1314.68
941.67	1316.49
941.977	1302.03
942.284	1316.26
942.591	1311.07
942.898	1310.84
943.205	1269.49
943.511	1295.93
943.818	1284.63
944.125	1288.47
944.431	1254.57
944.738	1267
945.044	1251.86
945.35	1280.79
945.657	1234.91
945.963	1247.57
946.269	1239.43
946.575	1237.4
946.881	1223.16
947.187	1224.06
947.493	1218.41
947.799	1226.78
948.105	1204.63
948.41	1234.69
948.716	1224.97
949.022	1205.76
949.327	1198.75
949.633	1203.5
949.938	1170.05
950.244	1200.79
950.549	1162.6
950.854	1188.36
951.16	1192.2
951.465	1160.79
951.77	1177.06
952.075	1143.16
952.38	1158.98
952.685	1167.34
952.99	1140.68
953.294	1146.1
953.599	1162.14
953.904	1124.63
954.209	1138.64
954.513	1142.26
954.818	1112.88
955.122	1141.81
955.426	1135.03
955.731	1122.6
956.035	1119.89
956.339	1126.21
956.643	1114.24
956.948	1109.04
957.252	1100
957.556	1106.78
957.86	1081.24
958.163	1106.1
958.467	1102.49
958.771	1083.73
959.075	1105.2
959.378	1064.29
959.682	1085.08
959.985	1065.2
960.289	1043.05
960.592	1073.33
960.896	1049.38
961.199	1065.42
961.502	1058.19
961.805	1067.68
962.108	1036.5
962.411	1042.6
962.714	1039.44
963.017	1031.75
963.32	1040.79
963.623	1026.1
963.926	1033.33
964.228	1007.8
964.531	1014.13
964.833	1035.82
965.136	1002.83
965.438	1002.83
965.741	994.01
966.043	998.31
966.345	991.75
966.648	987.91
966.95	987.69
967.252	998.08
967.554	991.3
967.856	999.66
968.158	981.58
968.46	985.2
968.761	990.4
969.063	997.4
969.365	968.03
969.666	971.64
969.968	960.57
970.269	968.93
970.571	974.35
970.872	973.22
971.174	958.08
971.475	938.2
971.776	952.88
972.077	937.52
972.378	958.53
972.679	946.11
972.98	953.56
973.281	927.8
973.582	915.15
973.883	924.41
974.183	919.67
974.484	921.92
974.785	938.2
975.085	914.24
975.386	923.28
975.686	909.95
975.986	896.39
976.287	908.37
976.587	916.5
976.887	907.24
977.187	918.08
977.487	908.59
977.787	887.8
978.087	899.1
978.387	895.48
978.687	888.93
978.987	862.94
979.286	900
979.586	869.04
979.885	862.04
980.185	869.95
980.484	861.36
980.784	849.38
981.083	854.36
981.382	846.45
981.682	854.81
981.981	871.08
982.28	840.12
982.579	871.76
982.878	846.22
983.177	848.71
983.475	834.47
983.774	843.28
984.073	854.58
984.372	821.36
984.67	848.03
984.969	833.11
985.267	840.57
985.566	839.44
985.864	815.04
986.162	838.09
986.461	810.97
986.759	822.49
987.057	812.32
987.355	808.71
987.653	804.87
987.951	799.67
988.249	788.82
988.547	788.82
988.844	806
989.142	791.76
989.44	771.65
989.737	769.84
990.035	778.2
990.332	792.21
990.63	775.71
990.927	765.77
991.224	795.37
991.521	761.03
991.819	777.75
992.116	758.99
992.413	768.93
992.71	778.2
993.006	793.79
993.303	761.48
993.6	757.64
993.897	754.47
994.193	756.73
994.49	767.13
994.787	766.67
995.083	725.32
995.379	749.5
995.676	726.22
995.972	739.56
996.268	722.83
996.565	764.87
996.861	737.07
997.157	729.61
997.453	755.6
997.749	707.47
998.044	724.87
998.34	704.98
998.636	702.27
998.932	716.73
999.227	719.67
999.523	691.2
999.818	720.8
1000.114	698.2
1000.409	714.7
1000.704	704.08
1001	690.29
1001.295	693.46
1001.59	665.21
1001.885	694.36
1002.18	702.27
1002.475	690.52
1002.77	690.74
1003.065	677.86
1003.359	688.71
1003.654	663.17
1003.949	689.61
1004.243	682.38
1004.538	675.6
1004.832	660.01
1005.127	665.21
1005.421	643.29
1005.715	680.58
1006.009	660.24
1006.304	664.53
1006.598	671.99
1006.892	657.75
1007.186	679.45
1007.48	652.55
1007.773	657.3
1008.067	652.78
1008.361	637.86
1008.655	645.77
1008.948	637.41
1009.242	643.74
1009.535	634.7
1009.829	631.99
1010.122	652.78
1010.415	624.31
1010.708	649.62
1011.001	629.5
1011.295	629.05
1011.588	631.99
1011.881	615.04
1012.173	613.68
1012.466	617.53
1012.759	611.2
1013.052	613.91
1013.344	624.53
1013.637	582.27
1013.93	618.43
1014.222	599
1014.514	609.39
1014.807	591.99
1015.099	585.66
1015.391	592.22
1015.683	589.96
1015.976	593.35
1016.268	569.17
1016.56	559.67
1016.851	602.61
1017.143	593.12
1017.435	569.39
1017.727	573.01
1018.018	568.71
1018.31	565.55
1018.602	592.22
1018.893	578.66
1019.185	577.08
1019.476	536.85
1019.767	563.97
1020.058	553.35
1020.35	567.81
1020.641	557.19
1020.932	557.41
1021.223	575.72
1021.514	567.13
1021.804	553.35
1022.095	543.63
1022.386	548.83
1022.677	558.32
1022.967	553.8
1023.258	528.71
1023.548	547.02
1023.839	552.22
1024.129	551.31
1024.419	532.1
1024.709	543.18
1025	542.27
1025.29	519
1025.58	525.55
1025.87	545.89
1026.16	506.12
1026.449	528.26
1026.739	534.59
1027.029	525.33
1027.319	490.98
1027.608	545.44
1027.898	505.44
1028.187	516.74
1028.477	508.6
1028.766	481.26
1029.055	516.29
1029.344	481.26
1029.634	507.47
1029.923	486.91
1030.212	492.56
1030.501	518.09
1030.79	486.91
1031.078	493.69
1031.367	519
1031.656	494.59
1031.945	495.95
1032.233	496.85
1032.522	480.81
1032.81	494.59
1033.099	495.04
1033.387	499.79
1033.675	463.63
1033.963	472.45
1034.251	476.06
1034.54	463.86
1034.828	469.06
1035.116	470.41
1035.403	457.53
1035.691	455.95
1035.979	457.98
1036.267	462.05
1036.554	463.86
1036.842	469.06
1037.129	465.21
1037.417	467.25
1037.704	471.99
1037.992	486.91
1038.279	470.64
1038.566	430.86
1038.853	430.86
1039.14	430.86
