Data from blue_surface_keyboard_FLMS001491_033.txt Node
Date: Tue Feb 07 11:13:00 GMT 2017
User: dcchb
Spectrometer: FLMS00149
Trigger mode: 0
Integration Time (sec): 2.000000E-2
Scans to average: 10
Electric dark correction enabled: true
Nonlinearity correction enabled: false
Boxcar width: 0
XAxis mode: Wavelengths
Number of Pixels in Spectrum: 2048
>>>>>Begin Spectral Data<<<<<
341.393	-11.4
341.776	-11.4
342.16	-11.4
342.543	-59.76
342.927	-63.37
343.31	-82.81
343.693	-71.28
344.077	-71.74
344.46	-58.85
344.843	-35.13
345.226	-50.94
345.61	-24.28
345.993	-20.44
346.376	-3.49
346.759	3.74
347.142	32.44
347.525	45.32
347.908	72.89
348.291	87.36
348.674	67.7
349.057	109.5
349.44	117.41
349.823	140.69
350.206	159.67
350.588	192.44
350.971	208.71
351.354	207.35
351.737	200.8
352.119	238.31
352.502	250.97
352.884	246.22
353.267	258.88
353.65	265.2
354.032	285.32
354.414	312.44
354.797	295.94
355.179	285.09
355.562	290.97
355.944	304.98
356.326	311.76
356.709	323.28
357.091	307.46
357.473	304.07
357.855	310.18
358.238	293.45
358.62	300.01
359.002	320.34
359.384	316.5
359.766	327.35
360.148	308.37
360.53	334.58
360.912	323.28
361.294	312.89
361.676	302.94
362.057	322.83
362.439	285.77
362.821	290.29
363.203	297.29
363.584	289.39
363.966	294.81
364.348	282.83
364.729	304.53
365.111	281.25
365.493	304.75
365.874	281.93
366.256	303.17
366.637	301.36
367.019	304.53
367.4	292.55
367.781	291.87
368.163	290.74
368.544	311.53
368.925	292.32
369.306	301.81
369.688	282.38
370.069	285.54
370.45	304.07
370.831	295.49
371.212	287.35
371.593	275.83
371.974	294.13
372.355	307.24
372.736	296.39
373.117	297.97
373.498	289.61
373.879	277.18
374.26	273.79
374.641	293
375.021	272.66
375.402	291.87
375.783	308.37
376.163	305.43
376.544	288.93
376.925	267.01
377.305	282.38
377.686	304.75
378.066	299.78
378.447	284.19
378.827	307.24
379.208	313.57
379.588	288.26
379.968	299.33
380.349	301.36
380.729	298.65
381.109	273.57
381.489	304.75
381.87	304.53
382.25	304.3
382.63	320.12
383.01	303.85
383.39	313.57
383.77	307.69
384.15	316.73
384.53	307.46
384.91	309.72
385.29	298.42
385.67	296.84
386.049	313.11
386.429	295.71
386.809	333.9
387.189	334.58
387.568	314.7
387.948	321.25
388.328	318.76
388.707	309.05
389.087	323.51
389.466	317.18
389.846	307.01
390.225	302.72
390.605	326.67
390.984	318.99
391.363	332.32
391.743	322.38
392.122	328.25
392.501	311.08
392.881	314.7
393.26	343.62
393.639	322.38
394.018	345.43
394.397	310.63
394.776	315.83
395.155	319.89
395.534	334.58
395.913	338.42
396.292	324.41
396.671	345.65
397.05	339.55
397.429	315.37
397.808	345.43
398.186	347.24
398.565	324.41
398.944	317.63
399.323	319.21
399.701	340.01
400.08	318.76
400.458	351.76
400.837	357.86
401.215	320.34
401.594	337.07
401.972	337.97
402.351	329.84
402.729	351.98
403.107	346.33
403.486	351.3
403.864	354.24
404.242	361.02
404.62	360.57
404.999	356.73
405.377	354.92
405.755	350.17
406.133	343.62
406.511	376.39
406.889	362.83
407.267	377.52
407.645	350.17
408.023	358.08
408.401	355.37
408.779	369.61
409.156	364.41
409.534	345.88
409.912	382.04
410.29	366.9
410.667	347.01
411.045	363.28
411.422	366.67
411.8	339.55
412.178	365.54
412.555	393.79
412.933	358.54
413.31	375.71
413.687	396.95
414.065	387.69
414.442	388.14
414.819	387.91
415.197	368.7
415.574	403.51
415.951	379.55
416.328	392.89
416.705	382.26
417.082	363.28
417.46	396.73
417.837	370.96
418.214	379.78
418.591	390.17
418.967	397.86
419.344	407.8
419.721	385.2
420.098	388.82
420.475	387.24
420.852	417.97
421.228	402.15
421.605	394.24
421.982	416.61
422.358	403.73
422.735	402.38
423.111	409.83
423.488	398.99
423.864	389.5
424.241	397.86
424.617	407.35
424.994	422.04
425.37	420.68
425.746	409.16
426.123	422.04
426.499	420.46
426.875	435.37
427.251	426.78
427.627	423.39
428.003	427.01
428.379	433.79
428.756	429.49
429.132	437.18
429.507	442.6
429.883	432.21
430.259	459.55
430.635	438.53
431.011	463.62
431.387	435.6
431.763	436.73
432.138	456.16
432.514	455.26
432.89	462.49
433.265	455.48
433.641	479.66
434.016	464.07
434.392	478.08
434.767	483.28
435.143	488.02
435.518	487.35
435.894	482.83
436.269	479.66
436.644	473.79
437.02	482.83
437.395	495.03
437.77	499.1
438.145	491.19
438.52	494.58
438.895	489.38
439.271	505.42
439.646	517.4
440.021	482.6
440.395	514.01
440.77	530.28
441.145	501.58
441.52	502.26
441.895	499.77
442.27	523.5
442.645	525.09
443.019	514.24
443.394	516.05
443.769	534.35
444.143	513.33
444.518	520.34
444.892	534.58
445.267	535.93
445.641	530.06
446.016	540
446.39	508.14
446.764	513.79
447.139	552.88
447.513	538.42
447.887	546.1
448.262	541.36
448.636	536.38
449.01	561.47
449.384	571.64
449.758	534.58
450.132	550.17
450.506	579.09
450.88	558.76
451.254	535.03
451.628	562.37
452.002	544.29
452.376	573.9
452.75	586.78
453.123	566.44
453.497	615.48
453.871	568.25
454.244	587.91
454.618	592.65
454.992	618.64
455.365	612.09
455.739	568.47
456.112	596.27
456.486	604.41
456.859	612.54
457.232	615.93
457.606	619.55
457.979	586.55
458.352	635.36
458.725	644.18
459.099	627.91
459.472	633.78
459.845	631.3
460.218	629.49
460.591	643.95
460.964	644.4
461.337	643.5
461.71	651.64
462.083	677.4
462.456	666.78
462.829	690.73
463.201	688.02
463.574	669.04
463.947	685.76
464.32	686.21
464.692	681.47
465.065	699.32
465.438	706.1
465.81	693.44
466.183	711.97
466.555	722.59
466.928	733.22
467.3	716.04
467.672	708.81
468.045	724.18
468.417	721.46
468.789	730.96
469.161	750.62
469.534	741.12
469.906	751.07
470.278	754.68
470.65	776.6
471.022	776.6
471.394	765.3
471.766	775.02
472.138	821.12
472.51	801.24
472.882	797.39
473.253	831.97
473.625	803.5
473.997	821.8
474.369	833.78
474.74	839.43
475.112	852.31
475.484	850.5
475.855	855.7
476.227	866.32
476.598	861.35
476.97	871.29
477.341	908.58
477.713	883.72
478.084	891.86
478.455	906.54
478.827	913.55
479.198	954.23
479.569	940.22
479.94	961.46
480.311	950.16
480.682	970.5
481.053	1000.33
481.424	993.77
481.795	1026.77
482.166	999.2
482.537	1017.28
482.908	1030.16
483.279	1058.18
483.65	1061.12
484.021	1065.64
484.391	1072.42
484.762	1077.84
485.133	1090.72
485.503	1072.64
485.874	1091.17
486.244	1097.95
486.615	1095.69
486.985	1115.8
487.356	1104.05
487.726	1144.5
488.097	1152.87
488.467	1130.27
488.837	1181.79
489.207	1161.45
489.578	1150.83
489.948	1174.79
490.318	1224.95
490.688	1208.46
491.058	1200.55
491.428	1225.86
491.798	1203.49
492.168	1242.58
492.538	1230.83
492.908	1231.96
493.278	1229.02
493.648	1237.16
494.017	1260.21
494.387	1260.43
494.757	1278.96
495.126	1264.73
495.496	1262.01
495.866	1279.87
496.235	1302.01
496.605	1298.4
496.974	1285.07
497.344	1297.04
497.713	1290.04
498.082	1294.56
498.452	1305.86
498.821	1293.65
499.19	1323.71
499.559	1332.75
499.928	1301.11
500.298	1345.85
500.667	1341.33
501.036	1339.53
501.405	1335.46
501.774	1362.13
502.143	1307.21
502.512	1335.23
502.88	1340.2
503.249	1344.05
503.618	1364.16
503.987	1393.31
504.356	1382.24
504.724	1356.93
505.093	1356.93
505.462	1349.02
505.83	1401.22
506.199	1392.86
506.567	1359.19
506.936	1415.46
507.304	1401.22
507.672	1384.05
508.041	1397.15
508.409	1410.03
508.777	1412.29
509.145	1409.58
509.514	1419.07
509.882	1419.98
510.25	1416.59
510.618	1412.52
510.986	1436.02
511.354	1408.45
511.722	1444.83
512.09	1456.81
512.458	1450.94
512.826	1418.62
513.193	1430.6
513.561	1459.52
513.929	1425.4
514.297	1470.37
514.664	1443.7
515.032	1452.29
515.4	1431.05
515.767	1473.76
516.135	1478.96
516.502	1474.44
516.869	1473.08
517.237	1471.27
517.604	1476.92
517.972	1488.22
518.339	1488.45
518.706	1483.03
519.073	1481.22
519.44	1497.71
519.808	1497.49
520.175	1487.32
520.542	1526.19
520.909	1525.28
521.276	1499.07
521.643	1517.6
522.009	1503.14
522.376	1526.64
522.743	1507.66
523.11	1517.38
523.477	1531.16
523.843	1565.28
524.21	1538.39
524.577	1556.92
524.943	1571.16
525.31	1554.21
525.676	1549.01
526.043	1579.75
526.409	1587.66
526.776	1577.49
527.142	1568.45
527.508	1588.33
527.874	1574.1
528.241	1598.28
528.607	1552.4
528.973	1592.85
529.339	1587.2
529.705	1609.35
530.071	1647.77
530.437	1585.4
530.803	1604.83
531.169	1637.6
531.535	1635.56
531.901	1586.07
532.267	1602.34
532.632	1605.73
532.998	1619.29
533.364	1617.03
533.73	1633.08
534.095	1633.3
534.461	1614.77
534.826	1665.39
535.192	1620.65
535.557	1626.3
535.923	1610.48
536.288	1665.39
536.653	1620.42
537.019	1620.42
537.384	1650.25
537.749	1657.71
538.114	1631.72
538.479	1654.09
538.845	1632.85
539.21	1649.8
539.575	1636.02
539.94	1650.71
540.305	1660.87
540.67	1659.52
541.034	1650.25
541.399	1639.86
541.764	1658.84
542.129	1636.02
542.494	1645.96
542.858	1662.46
543.223	1664.49
543.587	1697.26
543.952	1673.76
544.316	1667.2
544.681	1654.55
545.045	1696.58
545.41	1675.11
545.774	1673.3
546.138	1671.27
546.503	1659.29
546.867	1683.92
547.231	1671.72
547.595	1670.37
547.959	1688.67
548.324	1678.28
548.688	1672.17
549.052	1670.82
549.416	1686.86
549.779	1693.19
550.143	1679.18
550.507	1680.99
550.871	1688.44
551.235	1687.09
551.599	1680.53
551.962	1705.17
552.326	1639.63
552.689	1681.44
553.053	1697.26
553.417	1722.12
553.78	1676.47
554.143	1709.69
554.507	1712.85
554.87	1720.76
555.234	1703.36
555.597	1685.51
555.96	1713.53
556.323	1709.91
556.686	1695.22
557.05	1726.18
557.413	1709.69
557.776	1723.92
558.139	1720.31
558.502	1750.82
558.865	1747.43
559.228	1748.33
559.59	1732.74
559.953	1711.49
560.316	1736.35
560.679	1732.28
561.041	1763.24
561.404	1744.71
561.767	1766.63
562.129	1773.64
562.492	1738.84
562.854	1763.02
563.217	1746.3
563.579	1749.69
563.941	1762.11
564.304	1755.11
564.666	1780.87
565.028	1764.83
565.39	1765.96
565.753	1763.24
566.115	1759.4
566.477	1805.05
566.839	1781.55
567.201	1778.39
567.563	1782
567.925	1783.58
568.287	1804.37
568.648	1794.2
569.01	1815.67
569.372	1820.19
569.734	1812.28
570.095	1828.55
570.457	1804.15
570.819	1843.02
571.18	1846.86
571.542	1808.22
571.903	1804.6
572.265	1816.58
572.626	1857.93
572.987	1843.02
573.349	1831.27
573.71	1860.64
574.071	1867.42
574.432	1864.94
574.794	1858.61
575.155	1886.41
575.516	1844.37
575.877	1869.46
576.238	1854.54
576.599	1871.49
576.96	1869.68
577.32	1825.84
577.681	1881.89
578.042	1860.87
578.403	1855.45
578.763	1895.9
579.124	1869.91
579.485	1910.36
579.845	1877.37
580.206	1890.47
580.566	1865.16
580.927	1873.3
581.287	1876.69
581.648	1887.31
582.008	1903.13
582.368	1887.08
582.728	1905.16
583.089	1900.42
583.449	1882.11
583.809	1903.13
584.169	1916.46
584.529	1925.73
584.889	1916.91
585.249	1889.79
585.609	1888.21
585.969	1877.59
586.329	1877.14
586.688	1904.03
587.048	1890.02
587.408	1862.68
587.768	1906.29
588.127	1883.02
588.487	1885.95
588.846	1926.63
589.206	1906.52
589.565	1889.12
589.925	1922.56
590.284	1893.64
590.643	1902.9
591.003	1921.21
591.362	1929.34
591.721	1910.59
592.08	1917.36
592.44	1912.39
592.799	1920.53
593.158	1909.46
593.517	1949.68
593.876	1950.58
594.235	1921.21
594.593	1912.62
594.952	1909.23
595.311	1925.27
595.67	1936.57
596.029	1948.1
596.387	1937.25
596.746	1950.58
597.104	1915.78
597.463	1922.11
597.822	1976.8
598.18	1938.61
598.538	1953.97
598.897	1931.15
599.255	1960.53
599.613	1939.74
599.972	1940.87
600.33	1930.92
600.688	1955.1
601.046	1954.43
601.404	1967.53
601.762	1958.49
602.12	1957.82
602.478	1970.47
602.836	1949
603.194	1974.54
603.552	1987.19
603.91	1947.87
604.268	1965.27
604.625	1985.84
604.983	1962.56
605.341	1971.6
605.698	1998.04
606.056	1988.32
606.413	1994.2
606.771	1996.23
607.128	2021.77
607.485	1995.1
607.843	2011.83
608.2	1980.64
608.557	2015.67
608.914	1974.09
609.272	2000.3
609.629	2023.12
609.986	2009.57
610.343	2007.76
610.7	2015.22
611.057	2033.75
611.414	2003.01
611.771	2027.64
612.127	2018.61
612.484	2042.33
612.841	2059.28
613.198	2006.18
613.554	2036.91
613.911	2025.16
614.267	2035.55
614.624	2056.34
614.98	2038.27
615.337	2038.72
615.693	2025.38
616.05	2062.67
616.406	2034.88
616.762	2056.12
617.118	2058.83
617.475	2025.38
617.831	2038.04
618.187	2036.68
618.543	2069.68
618.899	2090.92
619.255	2088.21
619.611	2072.84
619.967	2075.55
620.323	2064.93
620.678	2067.64
621.034	2079.62
621.39	2067.64
621.746	2089.11
622.101	2107.42
622.457	2080.75
622.812	2080.75
623.168	2086.17
623.523	2102.67
623.879	2116.46
624.234	2079.17
624.589	2077.13
624.945	2123.01
625.3	2118.26
625.655	2118.26
626.01	2135.89
626.365	2094.76
626.72	2117.36
627.075	2134.99
627.43	2153.52
627.785	2122.33
628.14	2137.92
628.495	2150.58
628.85	2127.75
629.205	2101.99
629.559	2170.92
629.914	2111.71
630.269	2137.25
630.623	2148.77
630.978	2185.61
631.332	2181.31
631.687	2144.93
632.041	2142.44
632.396	2155.1
632.75	2184.93
633.104	2142.44
633.459	2157.13
633.813	2174.08
634.167	2159.84
634.521	2152.16
634.875	2173.4
635.229	2161.65
635.583	2156.68
635.937	2187.19
636.291	2198.49
636.645	2187.87
636.999	2190.8
637.352	2214.98
637.706	2185.38
638.06	2189.22
638.413	2238.49
638.767	2207.07
639.121	2200.3
639.474	2225.61
639.828	2219.73
640.181	2203.68
640.534	2241.88
640.888	2214.08
641.241	2211.59
641.594	2238.94
641.947	2245.49
642.301	2242.55
642.654	2263.12
643.007	2252.05
643.36	2248.43
643.713	2266.73
644.066	2288.88
644.419	2294.98
644.771	2290.91
645.124	2265.38
645.477	2293.4
645.83	2243.68
646.182	2235.77
646.535	2272.84
646.888	2263.57
647.24	2284.81
647.593	2308.54
647.945	2306.06
648.298	2284.13
648.65	2287.98
649.002	2300.18
649.355	2344.02
649.707	2327.75
650.059	2338.14
650.411	2375.66
650.763	2355.77
651.115	2390.35
651.467	2422.89
651.819	2400.97
652.171	2432.38
652.523	2425.83
652.875	2432.38
653.227	2396
653.578	2476.9
653.93	2487.29
654.282	2445.26
654.633	2457.69
654.985	2467.41
655.337	2476.22
655.688	2506.5
656.039	2534.3
656.391	2502.66
656.742	2512.83
657.094	2554.18
657.445	2558.03
657.796	2551.25
658.147	2533.62
658.498	2531.36
658.849	2579.04
659.2	2604.8
659.551	2567.97
659.902	2571.58
660.253	2618.36
660.604	2634.63
660.955	2617.46
661.306	2679.15
661.656	2651.36
662.007	2681.86
662.358	2701.07
662.708	2684.58
663.059	2704.69
663.409	2696.33
663.76	2707.63
664.11	2740.39
664.461	2771.35
664.811	2778.59
665.161	2779.26
665.511	2777.23
665.862	2787.85
666.212	2809.32
666.562	2794.63
666.912	2846.15
667.262	2838.7
667.612	2851.58
667.962	2846.38
668.312	2878.7
668.662	2890.45
669.011	2905.81
669.361	2939.48
669.711	2922.08
670.06	2911.24
670.41	2936.55
670.76	2954.17
671.109	2946.04
671.459	2997.34
671.808	2964.34
672.157	3002.76
672.507	3009.99
672.856	3005.47
673.205	2995.53
673.554	3052.7
673.904	3024.23
674.253	3058.13
674.602	3040.73
674.951	3043.89
675.3	3026.26
675.649	3083.89
675.998	3093.38
676.346	3100.38
676.695	3155.3
677.044	3118.24
677.393	3172.25
677.741	3177.22
678.09	3118.69
678.438	3148.74
678.787	3160.5
679.135	3172.02
679.484	3159.37
679.832	3214.96
680.181	3220.61
680.529	3224.68
680.877	3189.42
681.225	3215.86
681.573	3233.49
681.922	3248.4
682.27	3252.47
682.618	3275.07
682.966	3275.07
683.314	3267.84
683.661	3256.09
684.009	3274.39
684.357	3267.16
684.705	3294.28
685.053	3306.93
685.4	3276.88
685.748	3301.51
686.095	3294.73
686.443	3332.24
686.79	3341.73
687.138	3353.26
687.485	3349.19
687.832	3324.33
688.18	3346.48
688.527	3346.48
688.874	3344.22
689.221	3341.06
689.568	3359.13
689.915	3325.01
690.262	3379.25
690.609	3369.3
690.956	3379.25
691.303	3384.67
691.65	3370.89
691.997	3388.96
692.344	3355.97
692.69	3341.28
693.037	3388.96
693.383	3355.75
693.73	3358.91
694.077	3346.93
694.423	3343.54
694.769	3338.8
695.116	3402.98
695.462	3388.06
695.808	3362.98
696.155	3374.28
696.501	3354.39
696.847	3333.15
697.193	3376.54
697.539	3376.76
697.885	3336.54
698.231	3377.21
698.577	3376.08
698.923	3329.53
699.269	3365.01
699.614	3302.19
699.96	3334.73
700.306	3332.47
700.651	3309.64
700.997	3341.51
701.342	3294.73
701.688	3329.53
702.033	3339.02
702.379	3286.82
702.724	3330.89
703.069	3307.16
703.415	3323.43
703.76	3304
704.105	3317.1
704.45	3328.18
704.795	3295.63
705.14	3252.02
705.485	3243.88
705.83	3280.94
706.175	3270.1
706.52	3249.31
706.865	3223.77
707.209	3220.38
707.554	3278.23
707.899	3251.34
708.243	3250.21
708.588	3274.39
708.932	3248.86
709.277	3218.35
709.621	3196.88
709.966	3222.19
710.31	3241.85
710.654	3201.4
710.998	3204.79
711.342	3224.9
711.687	3221.96
712.031	3190.1
712.375	3239.36
712.719	3224.68
713.063	3193.72
713.407	3229.87
713.75	3171.34
714.094	3201.17
714.438	3200.49
714.782	3183.55
715.125	3194.39
715.469	3199.82
715.812	3196.2
716.156	3186.03
716.499	3176.54
716.843	3206.37
717.186	3155.75
717.53	3188.07
717.873	3179.93
718.216	3201.62
718.559	3211.79
718.902	3163.89
719.246	3154.39
719.589	3187.39
719.932	3202.08
720.275	3145.13
720.617	3179.93
720.96	3165.92
721.303	3155.52
721.646	3167.5
721.989	3158.24
722.331	3160.5
722.674	3158.24
723.016	3162.08
723.359	3170.89
723.701	3201.4
724.044	3150.33
724.386	3138.12
724.729	3167.28
725.071	3202.3
725.413	3205.47
725.755	3186.94
726.097	3155.3
726.439	3169.31
726.782	3182.42
727.124	3193.49
727.465	3181.51
727.807	3195.52
728.149	3182.87
728.491	3208.86
728.833	3193.04
729.175	3191
729.516	3193.94
729.858	3169.99
730.199	3209.99
730.541	3172.93
730.882	3182.19
731.224	3196.43
731.565	3167.28
731.906	3191
732.248	3171.12
732.589	3220.61
732.93	3205.69
733.271	3203.21
733.612	3235.52
733.953	3216.09
734.294	3202.98
734.635	3218.57
734.976	3213.83
735.317	3206.6
735.658	3213.15
735.999	3254.73
736.339	3240.72
736.68	3263.09
737.021	3269.42
737.361	3267.61
737.702	3269.42
738.042	3247.95
738.383	3303.32
738.723	3270.78
739.063	3278.23
739.404	3307.61
739.744	3300.61
740.084	3260.83
740.424	3280.49
740.764	3311.9
741.104	3315.97
741.444	3310.1
741.784	3355.52
742.124	3370.43
742.464	3331.34
742.804	3373.37
743.143	3354.39
743.483	3383.09
743.823	3383.99
744.162	3397.1
744.502	3401.62
744.841	3413.37
745.181	3447.04
745.52	3457.21
745.86	3471.45
746.199	3433.48
746.538	3468.74
746.877	3492.01
747.216	3470.09
747.556	3525.91
747.895	3493.59
748.234	3539.24
748.573	3527.94
748.911	3574.27
749.25	3605.91
749.589	3591.45
749.928	3611.11
750.267	3632.57
750.605	3648.39
750.944	3652.01
751.283	3688.17
751.621	3699.92
751.96	3683.42
752.298	3701.95
752.636	3717.54
752.975	3694.27
753.313	3776.3
753.651	3797.77
753.989	3786.24
754.327	3843.64
754.666	3826.24
755.004	3883.87
755.342	3882.06
755.679	3915.28
756.017	3919.12
756.355	3951.66
756.693	3941.72
757.031	3983.75
757.368	4013.58
757.706	4012.45
758.044	4012
758.381	4075.05
758.719	4052.22
759.056	4123.18
759.394	4107.14
759.731	4103.07
760.068	4133.58
760.405	4136.74
760.743	4150.53
761.08	4174.48
761.417	4180.36
761.754	4189.17
762.091	4187.81
762.428	4200.92
762.765	4209.51
763.102	4230.3
763.438	4245.67
763.775	4228.49
764.112	4296.96
764.449	4256.96
764.785	4261.94
765.122	4233.24
765.458	4229.17
765.795	4255.61
766.131	4258.32
766.467	4257.42
766.804	4269.17
767.14	4256.74
767.476	4297.64
767.812	4247.25
768.148	4270.52
768.485	4285.21
768.821	4257.64
769.157	4234.59
769.492	4287.47
769.828	4282.05
770.164	4209.06
770.5	4279.56
770.836	4267.36
771.171	4273.24
771.507	4277.98
771.842	4202.28
772.178	4254.7
772.513	4265.55
772.849	4224.2
773.184	4249.28
773.519	4245.44
773.855	4201.15
774.19	4204.08
774.525	4202.5
774.86	4224.42
775.195	4205.21
775.53	4200.69
775.865	4123.41
776.2	4142.62
776.535	4137.87
776.87	4165.22
777.205	4114.14
777.539	4097.65
777.874	4127.48
778.209	4119.79
778.543	4094.26
778.878	4055.61
779.212	4098.32
779.547	4059.91
779.881	4106.69
780.215	4092.22
780.55	4081.15
780.884	4018.1
781.218	4010.19
781.552	4032.34
781.886	4001.6
782.22	4004.54
782.554	3995.5
782.888	3952.34
783.222	3941.27
783.556	3950.76
783.889	3925.67
784.223	3958.44
784.557	3876.41
784.89	3927.03
785.224	3896.07
785.557	3884.32
785.891	3885.67
786.224	3826.24
786.558	3872.12
786.891	3836.18
787.224	3823.53
787.557	3818.33
787.891	3779.69
788.224	3792.8
788.557	3780.37
788.89	3806.35
789.223	3746.02
789.556	3755.96
789.888	3767.71
790.221	3747.6
790.554	3707.83
790.887	3715.51
791.219	3710.09
791.552	3687.04
791.884	3649.75
792.217	3665.34
792.549	3669.86
792.882	3652.91
793.214	3637.55
793.546	3652.46
793.879	3611.11
794.211	3571.11
794.543	3625.57
794.875	3624.21
795.207	3598.9
795.539	3588.51
795.871	3608.39
796.203	3559.58
796.535	3578.34
796.867	3479.58
797.198	3526.81
797.53	3526.36
797.862	3484.78
798.193	3501.05
798.525	3520.71
798.856	3488.17
799.188	3442.3
799.519	3460.15
799.85	3421.28
800.182	3490.43
800.513	3440.04
800.844	3405.24
801.175	3438.68
801.506	3394.61
801.837	3419.7
802.168	3415.86
802.499	3391.68
802.83	3383.31
803.161	3380.6
803.491	3353.94
803.822	3392.58
804.153	3369.3
804.483	3327.05
804.814	3332.69
805.145	3346.93
805.475	3311.9
805.805	3286.37
806.136	3279.14
806.466	3289.76
806.796	3330.89
807.126	3285.24
807.457	3250.21
807.787	3276.88
808.117	3264.67
808.447	3200.04
808.777	3213.15
809.107	3273.49
809.436	3233.94
809.766	3264.22
810.096	3246.14
810.426	3156.88
810.755	3183.77
811.085	3191
811.414	3168.18
811.744	3188.29
812.073	3154.39
812.403	3182.42
812.732	3139.93
813.061	3184.68
813.39	3137.45
813.719	3115.75
814.049	3136.32
814.378	3127.28
814.707	3123.66
815.036	3115.98
815.365	3131.8
815.693	3060.16
816.022	3088.18
816.351	3029.65
816.68	3072.36
817.008	3096.32
817.337	3035.53
817.665	3084.79
817.994	3011.35
818.322	3036.21
818.651	3009.99
818.979	3017.22
819.307	3043.89
819.636	3027.39
819.964	3018.13
820.292	3025.81
820.62	3011.57
820.948	2993.95
821.276	3007.73
821.604	3024.68
821.932	3001.63
822.259	2996.43
822.587	3011.8
822.915	2994.4
823.243	3022.87
823.57	3009.54
823.898	3019.48
824.225	2983.33
824.553	2985.13
824.88	2991.69
825.207	3015.42
825.535	2997.11
825.862	3020.61
826.189	2997.34
826.516	2994.62
826.843	3010.67
827.17	3013.61
827.497	2997.79
827.824	3003.21
828.151	3006.6
828.478	2999.14
828.805	3028.07
829.131	2972.93
829.458	2983.33
829.785	2970.9
830.111	3009.54
830.438	3034.17
830.764	2985.13
831.09	3026.94
831.417	2970.44
831.743	2977.9
832.069	2967.73
832.395	2940.39
832.722	2956.89
833.048	2976.55
833.374	3023.55
833.7	2963.21
834.026	2986.49
834.351	2983.78
834.677	2977.45
835.003	2964.57
835.329	2981.29
835.654	2958.02
835.98	2919.6
836.306	2957.34
836.631	2931.35
836.956	2981.74
837.282	2919.6
837.607	2912.59
837.932	2919.37
838.258	2952.82
838.583	2939.48
838.908	2901.07
839.233	2929.09
839.558	2900.39
839.883	2899.49
840.208	2882.31
840.533	2904.23
840.858	2879.83
841.182	2933.16
841.507	2905.14
841.832	2847.06
842.156	2847.96
842.481	2855.19
842.805	2898.36
843.13	2875.98
843.454	2870.79
843.778	2831.47
844.103	2845.25
844.427	2850.67
844.751	2823.56
845.075	2818.36
845.399	2801.86
845.723	2783.33
846.047	2829.88
846.371	2772.94
846.695	2808.19
847.019	2772.03
847.343	2800.51
847.666	2757.57
847.99	2723.67
848.313	2752.15
848.637	2732.94
848.96	2706.5
849.284	2743.56
849.607	2697.91
849.931	2720.51
850.254	2702.2
850.577	2652.71
850.9	2638.02
851.223	2644.35
851.546	2653.62
851.869	2635.09
852.192	2628.76
852.515	2586.95
852.838	2593.73
853.161	2596.22
853.483	2601.87
853.806	2579.27
854.129	2595.09
854.451	2563.45
854.774	2566.61
855.096	2544.02
855.419	2530.46
855.741	2554.64
856.063	2549.44
856.385	2534.98
856.708	2494.98
857.03	2506.5
857.352	2507.18
857.674	2490.68
857.996	2488.65
858.318	2461.31
858.64	2484.81
858.961	2482.77
859.283	2477.8
859.605	2453.4
859.926	2447.52
860.248	2474.86
860.57	2431.02
860.891	2479.84
861.212	2403.23
861.534	2451.36
861.855	2411.14
862.176	2481.19
862.498	2421.53
862.819	2433.51
863.14	2391.7
863.461	2423.79
863.782	2400.29
864.103	2407.97
864.424	2404.13
864.745	2402.78
865.065	2404.13
865.386	2409.56
865.707	2410.23
866.027	2391.7
866.348	2404.13
866.668	2375.21
866.989	2374.98
867.309	2361.19
867.63	2387.41
867.95	2372.49
868.27	2352.16
868.59	2359.61
868.91	2370.01
869.23	2353.96
869.55	2356.45
869.87	2332.72
870.19	2327.98
870.51	2351.93
870.83	2321.42
871.15	2342.89
871.469	2319.61
871.789	2339.5
872.109	2359.39
872.428	2310.35
872.748	2322.78
873.067	2305.6
873.386	2311.7
873.706	2289.78
874.025	2302.21
874.344	2315.77
874.663	2315.77
874.982	2274.87
875.301	2323.46
875.62	2274.87
875.939	2290.24
876.258	2252.95
876.577	2276.9
876.896	2266.73
877.214	2277.58
877.533	2305.38
877.852	2260.63
878.17	2260.63
878.489	2243.23
878.807	2262.89
879.125	2244.14
879.444	2286.62
879.762	2225.83
880.08	2245.72
880.398	2253.4
880.716	2231.25
881.034	2219.28
881.352	2227.19
881.67	2240.07
881.988	2226.51
882.306	2202.33
882.624	2197.13
882.941	2166.17
883.259	2200.07
883.577	2218.83
883.894	2181.99
884.212	2165.95
884.529	2213.63
884.846	2178.6
885.164	2175.89
885.481	2190.35
885.798	2196
886.115	2152.84
886.432	2153.06
886.75	2153.52
887.067	2154.65
887.383	2109.45
887.7	2141.31
888.017	2145.61
888.334	2156.23
888.651	2140.64
888.967	2126.4
889.284	2131.37
889.6	2097.93
889.917	2135.66
890.233	2129.56
890.55	2087.53
890.866	2078.04
891.182	2081.43
891.498	2090.47
891.815	2045.27
892.131	2070.36
892.447	2078.72
892.763	2080.07
893.079	2054.99
893.395	2066.97
893.71	2034.65
894.026	2039.17
894.342	2057.47
894.657	2024.25
894.973	2012.96
895.289	2037.14
895.604	2044.37
895.92	1993.3
896.235	2013.86
896.55	2009.57
896.865	1996.91
897.181	1959.17
897.496	1985.84
897.811	2014.54
898.126	1973.86
898.441	1972.05
898.756	1965.73
899.071	1969.34
899.386	1966.86
899.7	1953.3
900.015	1940.64
900.33	1913.52
900.644	1926.4
900.959	1913.98
901.273	1919.4
901.588	1917.14
901.902	1900.42
902.216	1938.38
902.531	1900.64
902.845	1910.59
903.159	1897.48
903.473	1889.12
903.787	1901.77
904.101	1861.55
904.415	1858.16
904.729	1876.91
905.042	1879.4
905.356	1865.84
905.67	1841.21
905.984	1844.37
906.297	1847.31
906.611	1845.95
906.924	1854.54
907.237	1848.44
907.551	1832.4
907.864	1814.54
908.177	1797.37
908.491	1789.91
908.804	1806.41
909.117	1815.45
909.43	1786.75
909.743	1752.85
910.056	1792.62
910.368	1739.29
910.681	1773.64
910.994	1765.5
911.307	1765.05
911.619	1734.54
911.932	1736.13
912.244	1732.28
912.557	1720.99
912.869	1706.75
913.181	1721.89
913.494	1718.05
913.806	1681.89
914.118	1674.66
914.43	1675.79
914.742	1713.98
915.054	1657.71
915.366	1663.13
915.678	1640.54
915.99	1653.64
916.302	1671.27
916.613	1664.72
916.925	1615
917.236	1635.11
917.548	1634.66
917.859	1607.54
918.171	1620.2
918.482	1630.82
918.794	1591.27
919.105	1605.06
919.416	1610.25
919.727	1585.4
920.038	1558.28
920.349	1570.71
920.66	1565.96
920.971	1596.02
921.282	1596.47
921.593	1560.09
921.903	1558.96
922.214	1570.48
922.525	1557.15
922.835	1552.4
923.146	1529.35
923.456	1488
923.767	1524.61
924.077	1525.28
924.387	1513.31
924.697	1509.69
925.008	1500.88
925.318	1501.56
925.628	1508.11
925.938	1518.73
926.248	1457.26
926.558	1513.53
926.867	1459.52
927.177	1445.51
927.487	1459.75
927.796	1439.64
928.106	1443.48
928.416	1452.97
928.725	1438.96
929.034	1433.31
929.344	1435.57
929.653	1469.92
929.962	1419.52
930.271	1422.24
930.581	1410.26
930.89	1420.43
931.199	1402.35
931.508	1386.53
931.817	1375.23
932.125	1380.66
932.434	1381.33
932.743	1326.65
933.051	1374.33
933.36	1351.28
933.669	1360.32
933.977	1342.24
934.286	1356.7
934.594	1358.96
934.902	1351.05
935.21	1350.83
935.519	1375.01
935.827	1324.39
936.135	1337.04
936.443	1347.44
936.751	1339.75
937.059	1327.1
937.367	1315.12
937.674	1304.27
937.982	1293.43
938.29	1301.79
938.597	1292.52
938.905	1292.07
939.213	1290.04
939.52	1274.22
939.827	1299.75
940.135	1280.09
940.442	1270.6
940.749	1262.24
941.056	1279.42
941.363	1259.98
941.67	1251.62
941.977	1238.74
942.284	1248.46
942.591	1265.86
942.898	1232.64
943.205	1254.56
943.511	1237.83
943.818	1229.7
944.125	1252.98
944.431	1219.53
944.738	1210.04
945.044	1194.22
945.35	1223.82
945.657	1200.32
945.963	1178.63
946.269	1208.23
946.575	1224.73
946.881	1189.02
947.187	1173.2
947.493	1161.45
947.799	1181.56
948.105	1190.6
948.41	1149.02
948.716	1170.04
949.022	1167.1
949.327	1153.54
949.633	1162.13
949.938	1148.57
950.244	1165.07
950.549	1146.76
950.854	1144.5
951.16	1110.61
951.465	1148.12
951.77	1155.12
952.075	1137.27
952.38	1121.45
952.685	1130.04
952.99	1093.88
953.294	1112.19
953.599	1102.25
953.904	1102.47
954.209	1109.48
954.513	1099.31
954.818	1106.54
955.122	1092.98
955.426	1107.89
955.731	1072.87
956.035	1081
956.339	1058.63
956.643	1070.61
956.948	1066.77
957.252	1069.25
957.556	1073.77
957.86	1054.11
958.163	1039.42
958.467	1045.07
958.771	1071.06
959.075	1044.39
959.378	1054.11
959.682	1012.76
959.985	1013.43
960.289	1058.18
960.592	1022.25
960.896	1038.07
961.199	1056.37
961.502	1023.6
961.805	1008.91
962.108	1020.44
962.411	1005.75
962.714	1020.67
963.017	1005.52
963.32	999.65
963.623	995.36
963.926	989.48
964.228	986.99
964.531	986.09
964.833	974.79
965.136	974.11
965.438	987.22
965.741	962.59
966.043	969.37
966.345	998.29
966.648	964.62
966.95	972.08
967.252	956.71
967.554	950.61
967.856	971.63
968.158	970.27
968.46	949.25
968.761	944.74
969.063	929.37
969.365	947.22
969.666	934.11
969.968	965.07
970.269	929.59
970.571	914
970.872	927.79
971.174	942.93
971.475	930.27
971.776	910.39
972.077	900.89
972.378	918.75
972.679	915.36
972.98	893.66
973.281	910.39
973.582	899.31
973.883	886.21
974.183	914.23
974.484	882.14
974.785	882.59
975.085	894.34
975.386	898.63
975.686	876.94
975.986	903.15
976.287	875.58
976.587	860.9
976.887	880.33
977.187	865.19
977.487	867
977.787	885.08
978.087	873.1
978.387	862.48
978.687	858.18
978.987	878.3
979.286	838.75
979.586	836.94
979.885	856.6
980.185	848.01
980.484	871.06
980.784	816.83
981.083	833.33
981.382	824.29
981.682	851.4
981.981	852.99
982.28	847.11
982.579	829.03
982.878	821.57
983.177	836.26
983.475	824.96
983.774	810.28
984.073	790.61
984.372	822.25
984.67	807.34
984.969	806.21
985.267	788.81
985.566	799.2
985.864	814.12
986.162	805.76
986.461	791.29
986.759	796.94
987.057	789.26
987.355	793.1
987.653	798.3
987.951	778.41
988.249	753.55
988.547	773.44
988.844	744.51
989.142	780.67
989.44	783.38
989.737	753.78
990.035	781.8
990.332	773.67
990.63	751.97
990.927	779.09
991.224	776.6
991.521	749.03
991.819	778.19
992.116	754.23
992.413	750.39
992.71	737.28
993.006	743.61
993.303	732.54
993.6	741.35
993.897	756.49
994.193	729.37
994.49	738.86
994.787	718.75
995.083	726.21
995.379	731.63
995.676	721.24
995.972	710.84
996.268	724.18
996.565	717.85
996.861	716.04
997.157	728.47
997.453	749.26
997.749	712.88
998.044	715.59
998.34	694.12
998.636	701.58
998.932	693.67
999.227	691.18
999.523	699.32
999.818	689.37
1000.114	691.86
1000.409	663.61
1000.704	685.98
1001	678.08
1001.295	670.39
1001.59	694.12
1001.885	695.02
1002.18	675.36
1002.475	670.17
1002.77	662.71
1003.065	667.68
1003.359	678.98
1003.654	647.34
1003.949	667.68
1004.243	647.12
1004.538	649.15
1004.832	638.98
1005.127	653.9
1005.421	645.53
1005.715	647.34
1006.009	634.91
1006.304	636.49
1006.598	645.99
1006.892	625.42
1007.186	617.51
1007.48	633.78
1007.773	641.24
1008.067	622.71
1008.361	660.45
1008.655	639.43
1008.948	628.59
1009.242	638.75
1009.535	623.16
1009.829	607.57
1010.122	611.41
1010.415	599.21
1010.708	617.51
1011.001	624.07
1011.295	624.74
1011.588	610.05
1011.881	596.04
1012.173	595.82
1012.466	597.85
1012.759	591.07
1013.052	616.38
1013.344	629.04
1013.637	589.72
1013.93	585.2
1014.222	586.55
1014.514	598.98
1014.807	583.84
1015.099	585.65
1015.391	572.09
1015.683	587.91
1015.976	596.04
1016.268	572.32
1016.56	590.85
1016.851	576.61
1017.143	575.25
1017.435	562.15
1017.727	570.96
1018.018	569.6
1018.31	549.04
1018.602	564.41
1018.893	546.78
1019.185	540.9
1019.476	557.4
1019.767	538.64
1020.058	559.43
1020.35	543.62
1020.641	544.97
1020.932	542.03
1021.223	558.53
1021.514	555.82
1021.804	550.17
1022.095	541.81
1022.386	544.07
1022.677	527.57
1022.967	500.9
1023.258	535.48
1023.548	527.57
1023.839	530.73
1024.129	520.79
1024.419	523.05
1024.709	536.84
1025	522.15
1025.29	524.41
1025.58	519.21
1025.87	518.98
1026.16	530.51
1026.449	507.46
1026.739	517.18
1027.029	522.37
1027.319	537.51
1027.608	502.49
1027.898	514.24
1028.187	527.8
1028.477	494.8
1028.766	496.61
1029.055	509.72
1029.344	493.67
1029.634	490.74
1029.923	498.87
1030.212	486.22
1030.501	493.22
1030.79	495.26
1031.078	470.62
1031.367	486.22
1031.656	490.74
1031.945	478.08
1032.233	500.23
1032.522	478.31
1032.81	464.52
1033.099	472.66
1033.387	470.85
1033.675	463.84
1033.963	493.22
1034.251	470.4
1034.54	461.13
1034.828	449.61
1035.116	447.8
1035.403	449.15
1035.691	466.56
1035.979	459.55
1036.267	455.48
1036.554	453
1036.842	448.48
1037.129	441.92
1037.417	468.36
1037.704	451.64
1037.992	441.47
1038.279	458.87
1038.566	446.9
1038.853	446.9
1039.14	446.9
