Data from blue_surface_keyboard_FLMS001491_090.txt Node
Date: Tue Feb 07 11:13:47 GMT 2017
User: dcchb
Spectrometer: FLMS00149
Trigger mode: 0
Integration Time (sec): 2.000000E-2
Scans to average: 10
Electric dark correction enabled: true
Nonlinearity correction enabled: false
Boxcar width: 0
XAxis mode: Wavelengths
Number of Pixels in Spectrum: 2048
>>>>>Begin Spectral Data<<<<<
341.393	-12.17
341.776	-12.17
342.16	-12.17
342.543	-56.47
342.927	-59.63
343.31	-80.42
343.693	-61.21
344.077	-74.09
344.46	-59.18
344.843	-60.08
345.226	-46.98
345.61	-19.86
345.993	-18.28
346.376	-3.81
346.759	24.66
347.142	20.14
347.525	36.86
347.908	54.94
348.291	75.73
348.674	88.16
349.057	123.41
349.44	123.87
349.823	141.49
350.206	163.19
350.588	188.72
350.971	181.49
351.354	210.19
351.737	216.07
352.119	220.59
352.502	223.98
352.884	263.3
353.267	271.66
353.65	250.64
354.032	284.54
354.414	278.89
354.797	287.93
355.179	296.97
355.562	297.65
355.944	308.49
356.326	317.08
356.709	332
357.091	328.61
357.473	297.87
357.855	324.54
358.238	333.35
358.62	315.27
359.002	325.44
359.384	327.25
359.766	327.93
360.148	314.14
360.53	297.87
360.912	327.7
361.294	319.12
361.676	289.96
362.057	319.34
362.439	296.29
362.821	299.46
363.203	309.17
363.584	302.39
363.966	290.64
364.348	321.83
364.729	306.91
365.111	296.29
365.493	306.91
365.874	297.87
366.256	296.52
366.637	299.23
367.019	292.9
367.4	290.42
367.781	287.03
368.163	301.72
368.544	286.8
368.925	279.12
369.306	286.12
369.688	295.39
370.069	294.71
370.45	299.68
370.831	285.67
371.212	297.2
371.593	291.09
371.974	280.7
372.355	282.51
372.736	298.1
373.117	296.74
373.498	278.44
373.879	270.08
374.26	282.73
374.641	283.86
375.021	309.85
375.402	281.83
375.783	289.29
376.163	302.17
376.544	307.82
376.925	303.07
377.305	277.08
377.686	287.03
378.066	288.61
378.447	295.16
378.827	296.74
379.208	284.31
379.588	299.23
379.968	315.27
380.349	309.85
380.729	310.08
381.109	310.08
381.489	310.08
381.87	294.94
382.25	314.37
382.63	314.37
383.01	299
383.39	300.36
383.77	288.61
384.15	306.23
384.53	321.6
384.91	308.27
385.29	303.75
385.67	307.36
386.049	289.06
386.429	308.04
386.809	319.34
387.189	302.39
387.568	315.95
387.948	309.4
388.328	317.53
388.707	309.17
389.087	312.56
389.466	334.48
389.846	311.88
390.225	300.13
390.605	308.27
390.984	334.48
391.363	320.7
391.743	324.77
392.122	307.14
392.501	343.75
392.881	335.16
393.26	335.39
393.639	321.38
394.018	326.35
394.397	327.25
394.776	338.55
395.155	329.96
395.534	322.28
395.913	342.17
396.292	338.78
396.671	348.49
397.05	324.31
397.429	332.45
397.808	347.59
398.186	323.41
398.565	332.67
398.944	331.54
399.323	335.16
399.701	341.26
400.08	346.69
400.458	341.71
400.837	329.74
401.215	339.68
401.594	351.21
401.972	337.65
402.351	358.44
402.729	350.08
403.107	362.28
403.486	342.84
403.864	351.43
404.242	356.86
404.62	333.13
404.999	345.1
405.377	346.69
405.755	354.6
406.133	327.93
406.511	352.34
406.889	374.26
407.267	345.78
407.645	356.86
408.023	362.28
408.401	356.18
408.779	331.32
409.156	350.75
409.534	377.42
409.912	368.61
410.29	381.04
410.667	394.59
411.045	366.57
411.422	365.22
411.8	392.79
412.178	362.28
412.555	364.09
412.933	376.52
413.31	371.32
413.687	370.19
414.065	386.46
414.442	374.03
414.819	386.46
415.197	387.36
415.574	381.94
415.951	380.36
416.328	398.66
416.705	391.2
417.082	390.53
417.46	398.21
417.837	379
418.214	410.86
418.591	400.24
418.967	390.3
419.344	402.28
419.721	389.85
420.098	404.76
420.475	407.7
420.852	427.59
421.228	422.39
421.605	417.42
421.982	413.58
422.358	407.02
422.735	400.24
423.111	438.66
423.488	416.97
423.864	431.2
424.241	453.8
424.617	416.51
424.994	410.41
425.37	430.75
425.746	419.68
426.123	438.66
426.499	429.62
426.875	421.71
427.251	430.53
427.627	416.97
428.003	433.69
428.379	425.1
428.756	434.59
429.132	446.12
429.507	435.5
429.883	441.6
430.259	471.65
430.635	456.74
431.011	434.59
431.387	432.56
431.763	469.39
432.138	473.24
432.514	481.37
432.89	455.84
433.265	481.15
433.641	467.13
434.016	475.27
434.392	460.13
434.767	463.74
435.143	477.76
435.518	478.89
435.894	487.47
436.269	492.67
436.644	480.24
437.02	495.16
437.395	490.86
437.77	490.18
438.145	509.39
438.52	498.09
438.895	510.07
439.271	495.83
439.646	503.52
440.021	497.87
440.395	527.02
440.77	525.44
441.145	504.2
441.52	517.53
441.895	505.33
442.27	515.95
442.645	526.12
443.019	534.7
443.394	524.31
443.769	530.18
444.143	557.3
444.518	523.63
444.892	534.48
445.267	550.3
445.641	540.35
446.016	545.78
446.39	546.91
446.764	550.75
447.139	544.42
447.513	551.2
447.887	535.83
448.262	535.83
448.636	564.76
449.01	553.69
449.384	560.24
449.758	566.12
450.132	581.26
450.506	559.79
450.88	562.05
451.254	555.27
451.628	565.89
452.002	560.24
452.376	555.27
452.75	593.91
453.123	602.95
453.497	595.27
453.871	601.37
454.244	617.64
454.618	622.84
454.992	613.12
455.365	594.14
455.739	618.32
456.112	600.01
456.486	624.42
456.859	627.58
457.232	621.03
457.606	614.93
457.979	633.91
458.352	633.01
458.725	655.6
459.099	642.95
459.472	654.02
459.845	665.32
460.218	631.2
460.591	659.67
460.964	678.2
461.337	677.98
461.71	666.68
462.083	674.81
462.456	677.07
462.829	678.65
463.201	683.17
463.574	683.63
463.947	667.36
464.32	723.85
464.692	700.8
465.065	713.23
465.438	694.7
465.81	724.3
466.183	708.94
466.555	745.32
466.928	732.89
467.3	736.51
467.672	753
468.045	755.71
468.417	746.45
468.789	767.01
469.161	761.59
469.534	739.9
469.906	773.34
470.278	776.05
470.65	789.39
471.022	786.45
471.394	830.74
471.766	790.06
472.138	803.4
472.51	820.12
472.882	822.83
473.253	837.07
473.625	850.63
473.997	848.59
474.369	857.86
474.74	837.29
475.112	850.4
475.484	876.16
475.855	890.17
476.227	875.49
476.598	877.97
476.97	906.45
477.341	930.4
477.713	913
478.084	914.13
478.455	953.45
478.827	965.43
479.198	962.49
479.569	949.38
479.94	993.9
480.311	987.12
480.682	1024.18
481.053	1026.44
481.424	1003.39
481.795	1035.93
482.166	1033.45
482.537	1046.1
482.908	1048.14
483.279	1089.04
483.65	1087.01
484.021	1093.11
484.391	1094.69
484.762	1097.17
485.133	1111.19
485.503	1117.74
485.874	1129.94
486.244	1134.69
486.615	1136.04
486.985	1162.26
487.356	1152.77
487.726	1155.03
488.097	1198.41
488.467	1179.21
488.837	1201.35
489.207	1207.45
489.578	1224.18
489.948	1224.63
490.318	1258.75
490.688	1232.54
491.058	1234.12
491.428	1267.57
491.798	1252.88
492.168	1278.64
492.538	1252.42
492.908	1282.25
493.278	1291.07
493.648	1277.51
494.017	1294.46
494.387	1291.07
494.757	1308.02
495.126	1331.07
495.496	1337.62
495.866	1314.12
496.235	1325.42
496.605	1334.23
496.974	1352.76
497.344	1344.85
497.713	1331.07
498.082	1342.82
498.452	1372.2
498.821	1394.79
499.19	1361.57
499.559	1352.76
499.928	1369.71
500.298	1393.89
500.667	1396.6
501.036	1386.88
501.405	1381.69
501.774	1388.01
502.143	1389.6
502.512	1389.14
502.88	1399.31
503.249	1412.19
503.618	1406.32
503.987	1403.83
504.356	1417.84
504.724	1405.64
505.093	1398.86
505.462	1411.74
505.83	1437.05
506.199	1437.96
506.567	1420.56
506.936	1464.17
507.304	1444.06
507.672	1468.24
508.041	1464.4
508.409	1470.27
508.777	1462.81
509.145	1469.14
509.514	1433.89
509.882	1467.33
510.25	1465.53
510.618	1453.55
510.986	1458.75
511.354	1476.83
511.722	1475.47
512.09	1509.82
512.458	1496.49
512.826	1503.72
513.193	1484.96
513.561	1505.07
513.929	1487.9
514.297	1483.38
514.664	1539.87
515.032	1508.92
515.4	1540.78
515.767	1496.03
516.135	1515.92
516.502	1490.84
516.869	1548.24
517.237	1507.79
517.604	1552.53
517.972	1529.71
518.339	1545.98
518.706	1533.1
519.073	1526.09
519.44	1521.12
519.808	1538.07
520.175	1552.3
520.542	1566.99
520.909	1564.73
521.276	1536.03
521.643	1572.64
522.009	1596.6
522.376	1570.61
522.743	1577.61
523.11	1588.24
523.477	1598.4
523.843	1599.31
524.21	1598.63
524.577	1614.9
524.943	1582.36
525.31	1612.42
525.676	1626.2
526.043	1640.89
526.409	1630.72
526.776	1637.73
527.142	1622.81
527.508	1644.5
527.874	1629.14
528.241	1658.06
528.607	1622.58
528.973	1624.17
529.339	1658.06
529.705	1663.71
530.071	1649.7
530.437	1667.33
530.803	1699.19
531.169	1675.46
531.535	1685.86
531.901	1666.65
532.267	1678.4
532.632	1679.98
532.998	1681.34
533.364	1691.28
533.73	1692.87
534.095	1662.81
534.461	1714.33
534.826	1689.02
535.192	1687.89
535.557	1698.51
535.923	1701.45
536.288	1715.01
536.653	1687.67
537.019	1702.36
537.384	1703.26
537.749	1691.96
538.114	1712.53
538.479	1687.67
538.845	1724.28
539.21	1677.95
539.575	1709.59
539.94	1705.07
540.305	1719.76
540.67	1711.85
541.034	1738.74
541.399	1705.29
541.764	1724.28
542.129	1705.52
542.494	1746.2
542.858	1710.27
543.223	1722.92
543.587	1726.31
543.952	1706.2
544.316	1733.09
544.681	1703.26
545.045	1701
545.41	1729.02
545.774	1740.1
546.138	1731.51
546.503	1744.16
546.867	1727.89
547.231	1744.62
547.595	1711.62
547.959	1705.75
548.324	1723.82
548.688	1749.36
549.052	1732.41
549.416	1697.84
549.779	1730.15
550.143	1733.32
550.507	1750.94
550.871	1778.74
551.235	1728.34
551.599	1755.69
551.962	1754.33
552.326	1742.81
552.689	1755.24
553.053	1764.95
553.417	1735.8
553.78	1758.63
554.143	1755.91
554.507	1745.97
554.87	1733.99
555.234	1765.63
555.597	1754.33
555.96	1764.73
556.323	1770.6
556.686	1764.05
557.05	1750.72
557.413	1774.44
557.776	1789.81
558.139	1774.67
558.502	1784.39
558.865	1776.25
559.228	1782.35
559.59	1797.04
559.953	1773.31
560.316	1747.55
560.679	1799.98
561.041	1828.68
561.404	1778.51
561.767	1815.12
562.129	1824.39
562.492	1801.56
562.854	1792.07
563.217	1815.57
563.579	1808.79
563.941	1804.05
564.304	1820.32
564.666	1844.05
565.028	1836.59
565.39	1830.94
565.753	1818.96
566.115	1820.32
566.477	1847.44
566.839	1826.19
567.201	1846.08
567.563	1839.75
567.925	1821.45
568.287	1851.05
568.648	1855.8
569.01	1855.35
569.372	1855.35
569.734	1827.78
570.095	1842.24
570.457	1898.06
570.819	1865.97
571.18	1850.83
571.542	1876.82
571.903	1852.18
572.265	1882.01
572.626	1868.23
572.987	1889.02
573.349	1866.65
573.71	1894.22
574.071	1914.33
574.432	1896.48
574.794	1926.08
575.155	1897.61
575.516	1888.11
575.877	1906.42
576.238	1895.8
576.599	1864.39
576.96	1911.16
577.32	1899.19
577.681	1929.7
578.042	1928.79
578.403	1932.18
578.763	1913.65
579.124	1931.05
579.485	1915.68
579.845	1925.85
580.206	1904.38
580.566	1931.95
580.927	1906.87
581.287	1927.44
581.648	1913.2
582.008	1946.87
582.368	1933.76
582.728	1938.51
583.089	1925.63
583.449	1939.86
583.809	1943.93
584.169	1940.99
584.529	1929.47
584.889	1968.79
585.249	1943.48
585.609	1952.97
585.969	1983.93
586.329	1922.01
586.688	1922.24
587.048	1956.81
587.408	1934.44
587.768	1943.71
588.127	1948.23
588.487	1929.7
588.846	1978.96
589.206	1958.17
589.565	1981.45
589.925	1941.22
590.284	1964.04
590.643	1952.29
591.003	1963.14
591.362	1953.42
591.721	1950.49
592.08	1960.88
592.44	1940.99
592.799	1973.54
593.158	1978.28
593.517	1961.78
593.876	1962.46
594.235	1973.31
594.593	1987.55
594.952	2003.82
595.311	1981.9
595.67	1985.06
596.029	1989.81
596.387	1993.65
596.746	2011.05
597.104	1992.97
597.463	2000.88
597.822	2019.41
598.18	1998.39
598.538	1985.96
598.897	1989.13
599.255	2014.44
599.613	1994.78
599.972	1983.93
600.33	2004.5
600.688	1982.12
601.046	2013.99
601.404	2036.81
601.762	2014.44
602.12	2002.91
602.478	2011.05
602.836	2024.83
603.194	2006.08
603.552	2003.14
603.91	1981.22
604.268	2008.34
604.625	2046.53
604.983	2022.8
605.341	1986.19
605.698	2006.3
606.056	2052.63
606.413	2025.06
606.771	2026.42
607.128	2037.49
607.485	2029.81
607.843	2032.97
608.2	2086.98
608.557	2061.22
608.914	2049.69
609.272	2044.27
609.629	2067.32
609.986	2061.44
610.343	2027.77
610.7	2075.23
611.057	2021.44
611.414	2065.51
611.771	2060.54
612.127	2078.84
612.484	2063.93
612.841	2084.27
613.198	2095.11
613.554	2072.06
613.911	2091.05
614.267	2091.5
614.624	2098.96
614.98	2111.61
615.337	2071.84
615.693	2117.94
616.05	2085.85
616.406	2126.07
616.762	2105.06
617.118	2119.75
617.475	2107.09
617.831	2121.78
618.187	2104.83
618.543	2116.13
618.899	2129.24
619.255	2150.03
619.611	2129.69
619.967	2133.53
620.323	2137.83
620.678	2135.57
621.034	2181.89
621.39	2122.23
621.746	2114.55
622.101	2204.94
622.457	2164.49
622.812	2178.05
623.168	2167.65
623.523	2170.59
623.879	2185.06
624.234	2162.91
624.589	2178.95
624.945	2175.56
625.3	2191.38
625.655	2168.33
626.01	2170.14
626.365	2195.9
626.72	2215.56
627.075	2211.27
627.43	2208.56
627.785	2173.98
628.14	2200.87
628.495	2211.72
628.85	2215.79
629.205	2218.28
629.559	2219.18
629.914	2215.79
630.269	2235
630.623	2188.9
630.978	2234.09
631.332	2235.45
631.687	2235.45
632.041	2218.73
632.396	2254.43
632.75	2224.83
633.104	2246.52
633.459	2249.46
633.813	2235.22
634.167	2251.49
634.521	2278.39
634.875	2272.28
635.229	2283.13
635.583	2240.65
635.937	2236.13
636.291	2304.37
636.645	2280.65
636.999	2291.95
637.352	2304.6
637.706	2266.41
638.06	2287.2
638.413	2283.13
638.767	2290.59
639.121	2311.61
639.474	2300.31
639.828	2317.48
640.181	2323.81
640.534	2311.83
640.888	2300.98
641.241	2352.73
641.594	2330.59
641.947	2336.46
642.301	2343.7
642.654	2318.84
643.007	2346.41
643.36	2375.56
643.713	2395.67
644.066	2394.32
644.419	2407.65
644.771	2380.98
645.124	2369.23
645.477	2380.98
645.83	2340.76
646.182	2359.29
646.535	2355.67
646.888	2373.98
647.24	2379.85
647.593	2387.76
647.945	2392.96
648.298	2376.91
648.65	2385.95
649.002	2400.19
649.355	2419.85
649.707	2407.2
650.059	2434.99
650.411	2481.54
650.763	2458.95
651.115	2511.6
651.467	2522.67
651.819	2499.17
652.171	2515.44
652.523	2550.02
652.875	2550.47
653.227	2561.54
653.578	2566.97
653.93	2592.73
654.282	2571.94
654.633	2593.41
654.985	2579.4
655.337	2635.67
655.688	2612.61
656.039	2612.39
656.391	2632.5
656.742	2643.35
657.094	2660.98
657.445	2645.61
657.796	2689
658.147	2699.62
658.498	2691.93
658.849	2733.97
659.2	2723.8
659.551	2762.67
659.902	2735.78
660.253	2748.88
660.604	2789.56
660.955	2768.09
661.306	2801.76
661.656	2769.22
662.007	2831.37
662.358	2841.54
662.708	2848.31
663.059	2842.21
663.409	2842.44
663.76	2866.17
664.11	2907.75
664.461	2889.67
664.811	2913.85
665.161	2924.02
665.511	2910.46
665.862	2966.28
666.212	2987.52
666.562	2976.22
666.912	2980.29
667.262	3026.39
667.612	3034.3
667.962	2994.75
668.312	2997.92
668.662	3074.3
669.011	3055.99
669.361	3051.47
669.711	3091.25
670.06	3094.86
670.41	3140.51
670.76	3155.43
671.109	3118.82
671.459	3149.32
671.808	3163.56
672.157	3177.8
672.507	3194.97
672.856	3198.81
673.205	3158.59
673.554	3208.76
673.904	3205.82
674.253	3220.28
674.602	3278.81
674.951	3233.62
675.3	3228.42
675.649	3254.41
675.998	3319.94
676.346	3289.89
676.695	3338.7
677.044	3369.88
677.393	3326.95
677.741	3364.23
678.09	3377.79
678.438	3347.06
678.787	3399.49
679.135	3415.08
679.484	3406.72
679.832	3439.49
680.181	3416.66
680.529	3388.19
680.877	3459.37
681.225	3416.44
681.573	3472.48
681.922	3500.05
682.27	3491.24
682.618	3514.51
682.966	3512.93
683.314	3516.09
683.661	3551.8
684.009	3564
684.357	3501.86
684.705	3511.8
685.053	3523.33
685.4	3560.61
685.748	3557.45
686.095	3567.84
686.443	3582.53
686.79	3577.79
687.138	3605.58
687.485	3578.69
687.832	3621.18
688.18	3630.89
688.527	3625.02
688.874	3604
689.221	3610.78
689.568	3629.54
689.915	3624.79
690.262	3630.89
690.609	3632.48
690.956	3644.9
691.303	3624.34
691.65	3622.76
691.997	3666.37
692.344	3606.71
692.69	3662.53
693.037	3663.89
693.383	3616.88
693.73	3694.39
694.077	3589.54
694.423	3639.03
694.769	3649.2
695.116	3680.84
695.462	3658.92
695.808	3650.78
696.155	3674.06
696.501	3609.65
696.847	3652.36
697.193	3605.13
697.539	3661.63
697.885	3639.71
698.231	3600.39
698.577	3670.89
698.923	3614.85
699.269	3655.07
699.614	3633.83
699.96	3657.56
700.306	3610.55
700.651	3614.4
700.997	3630.22
701.342	3656.88
701.688	3623.44
702.033	3650.33
702.379	3615.98
702.724	3634.51
703.069	3583.89
703.415	3594.06
703.76	3615.98
704.105	3589.76
704.45	3582.76
704.795	3536.66
705.14	3574.4
705.485	3585.7
705.83	3569.65
706.175	3598.58
706.52	3587.96
706.865	3567.62
707.209	3527.39
707.554	3578.24
707.899	3576.43
708.243	3551.35
708.588	3573.27
708.932	3549.31
709.277	3545.02
709.621	3558.35
709.966	3531.23
710.31	3528.52
710.654	3524.23
710.998	3544.34
711.342	3518.35
711.687	3561.29
712.031	3546.38
712.375	3558.8
712.719	3532.82
713.063	3528.07
713.407	3523.33
713.75	3493.72
714.094	3536.88
714.438	3513.16
714.782	3521.29
715.125	3484.23
715.469	3498.69
715.812	3501.18
716.156	3510.67
716.499	3550.44
716.843	3518.35
717.186	3492.59
717.53	3523.78
717.873	3496.89
718.216	3503.66
718.559	3516.55
718.902	3462.54
719.246	3498.02
719.589	3488.3
719.932	3491.91
720.275	3508.41
720.617	3500.05
720.96	3518.13
721.303	3493.72
721.646	3540.27
721.989	3481.52
722.331	3478.13
722.674	3491.91
723.016	3502.54
723.359	3500.95
723.701	3458.02
724.044	3479.26
724.386	3466.83
724.729	3480.84
725.071	3496.21
725.413	3519.48
725.755	3491.01
726.097	3477.22
726.439	3479.48
726.782	3503.21
727.124	3486.04
727.465	3473.61
727.807	3518.35
728.149	3497.11
728.491	3512.93
728.833	3501.86
729.175	3500.28
729.516	3501.18
729.858	3491.01
730.199	3505.25
730.541	3513.61
730.882	3510.44
731.224	3498.92
731.565	3524
731.906	3557
732.248	3549.31
732.589	3531.23
732.93	3517.68
733.271	3520.39
733.612	3497.56
733.953	3553.83
734.294	3559.48
734.635	3512.25
734.976	3544.12
735.317	3535.3
735.658	3541.63
735.999	3581.63
736.339	3564.23
736.68	3559.93
737.021	3567.17
737.361	3569.43
737.702	3587.5
738.042	3626.6
738.383	3605.13
738.723	3601.52
739.063	3593.83
739.404	3631.8
739.744	3645.58
740.084	3611.91
740.424	3621.85
740.764	3662.53
741.104	3655.53
741.444	3673.83
741.784	3670.44
742.124	3668.63
742.464	3636.09
742.804	3706.6
743.143	3695.07
743.483	3709.99
743.823	3659.37
744.162	3695.3
744.502	3744.79
744.841	3737.33
745.181	3755.18
745.52	3764
745.86	3768.29
746.199	3763.32
746.538	3802.41
746.877	3849.19
747.216	3835.41
747.556	3807.16
747.895	3877.67
748.234	3866.14
748.573	3905.91
748.911	3905.69
749.25	3897.78
749.589	3964.9
749.928	3906.37
750.267	3953.6
750.605	4023.43
750.944	3952.47
751.283	3970.55
751.621	4013.93
751.96	4004.22
752.298	4064.1
752.636	4065.46
752.975	4051.9
753.313	4125.12
753.651	4089.19
753.989	4136.19
754.327	4173.25
754.666	4157.21
755.004	4192.46
755.342	4232.01
755.679	4254.61
756.017	4230.88
756.355	4323.76
756.693	4361.27
757.031	4294.6
757.368	4354.26
757.706	4348.39
758.044	4346.58
758.381	4372.12
758.719	4402.62
759.056	4393.36
759.394	4412.12
759.731	4420.48
760.068	4457.54
760.405	4411.66
760.743	4473.36
761.08	4494.37
761.417	4442.4
761.754	4472.23
762.091	4485.79
762.428	4526.01
762.765	4505.45
763.102	4510.19
763.438	4546.12
763.775	4566.01
764.112	4523.53
764.449	4590.87
764.785	4546.35
765.122	4563.07
765.458	4577.31
765.795	4547.25
766.131	4603.97
766.467	4575.28
766.804	4550.42
767.14	4563.52
767.476	4598.55
767.812	4550.64
768.148	4619.79
768.485	4575.28
768.821	4581.83
769.157	4645.78
769.492	4537.08
769.828	4565.56
770.164	4564.88
770.5	4519.91
770.836	4528.72
771.171	4562.39
771.507	4546.8
771.842	4544.32
772.178	4520.14
772.513	4513.81
772.849	4582.28
773.184	4508.61
773.519	4577.08
773.855	4572.11
774.19	4525.33
774.525	4479.46
774.86	4449.63
775.195	4515.62
775.53	4474.49
775.865	4468.16
776.2	4443.98
776.535	4383.64
776.87	4443.3
777.205	4418.67
777.539	4397.88
777.874	4462.96
778.209	4382.74
778.543	4360.59
778.878	4310.88
779.212	4372.34
779.547	4312.68
779.881	4359.91
780.215	4309.75
780.55	4333.02
780.884	4284.89
781.218	4286.02
781.552	4277.66
781.886	4227.04
782.22	4238.33
782.554	4266.13
782.888	4233.82
783.222	4211.67
783.556	4227.71
783.889	4150.65
784.223	4172.35
784.557	4176.87
784.89	4195.17
785.224	4189.3
785.557	4113.37
785.891	4152.24
786.224	4123.31
786.558	4096.42
786.891	4100.49
787.224	4088.51
787.557	4109.75
787.891	4081.95
788.224	4055.29
788.557	4087.15
788.89	4041.5
789.223	4043.54
789.556	3999.02
789.888	3985.91
790.221	4010.09
790.554	3976.19
790.887	3950.43
791.219	3963.09
791.552	3928.74
791.884	3961.96
792.217	3961.96
792.549	3921.73
792.882	3888.29
793.214	3888.51
793.546	3865.92
793.879	3877.89
794.211	3823.2
794.543	3828.4
794.875	3851.23
795.207	3861.4
795.539	3847.16
795.871	3813.94
796.203	3790.66
796.535	3794.96
796.867	3767.84
797.198	3766.48
797.53	3742.98
797.862	3740.95
798.193	3736.43
798.525	3724
798.856	3761.96
799.188	3692.13
799.519	3685.36
799.85	3595.87
800.182	3642.19
800.513	3677.22
800.844	3580.95
801.175	3647.16
801.506	3630.67
801.837	3634.96
802.168	3605.13
802.499	3658.69
802.83	3642.42
803.161	3597.67
803.491	3604.91
803.822	3586.83
804.153	3574.4
804.483	3566.04
804.814	3549.54
805.145	3562.42
805.475	3527.17
805.805	3546.38
806.136	3500.5
806.466	3488.07
806.796	3519.03
807.126	3506.38
807.457	3467.51
807.787	3473.61
808.117	3488.07
808.447	3446.49
808.777	3485.81
809.107	3444.91
809.436	3437
809.766	3428.86
810.096	3434.06
810.426	3387.06
810.755	3390.45
811.085	3396.78
811.414	3383.44
811.744	3385.02
812.073	3386.61
812.403	3406.49
812.732	3338.47
813.061	3378.24
813.39	3363.78
813.719	3291.69
814.049	3385.25
814.378	3319.94
814.707	3323.78
815.036	3358.58
815.365	3272.71
815.693	3255.08
816.022	3278.81
816.351	3261.41
816.68	3279.26
817.008	3299.15
817.337	3244.46
817.665	3252.37
817.994	3235.88
818.322	3260.51
818.651	3199.72
818.979	3222.32
819.307	3216.21
819.636	3236.33
819.964	3191.13
820.292	3189.55
820.62	3222.99
820.948	3189.55
821.276	3232.49
821.604	3197.01
821.932	3229.1
822.259	3171.24
822.587	3215.31
822.915	3199.72
823.243	3209.89
823.57	3212.83
823.898	3192.71
824.225	3168.53
824.553	3217.12
824.88	3187.74
825.207	3206.95
825.535	3175.99
825.862	3170.57
826.189	3166.72
826.516	3199.72
826.843	3189.77
827.17	3178.02
827.497	3178.02
827.824	3234.75
828.151	3185.93
828.478	3220.96
828.805	3175.54
829.131	3211.7
829.458	3177.35
829.785	3154.3
830.111	3175.76
830.438	3190
830.764	3185.93
831.09	3183.22
831.417	3162.88
831.743	3173.28
832.069	3209.21
832.395	3135.09
832.722	3164.01
833.048	3139.15
833.374	3113.39
833.7	3151.58
834.026	3141.19
834.351	3170.79
834.677	3158.59
835.003	3133.05
835.329	3127.18
835.654	3154.07
835.98	3169.44
836.306	3139.15
836.631	3165.59
836.956	3124.24
837.282	3132.15
837.607	3122.88
837.932	3124.69
838.258	3190
838.583	3119.72
838.908	3083.56
839.233	3056.67
839.558	3116.78
839.883	3083.34
840.208	3078.59
840.533	3076.33
840.858	3100.06
841.182	3100.51
841.507	3067.74
841.832	3081.98
842.156	3032.49
842.481	3095.54
842.805	3046.95
843.13	3052.6
843.454	3011.93
843.778	3026.39
844.103	3056.45
844.427	3001.08
844.751	3023.23
845.075	2986.39
845.399	2984.13
845.723	2973.74
846.047	2991.36
846.371	2925.38
846.695	2981.19
847.019	2953.62
847.343	2943.68
847.666	2928.76
847.99	2895.09
848.313	2918.82
848.637	2888.77
848.96	2916.34
849.284	2880.4
849.607	2851.03
849.931	2879.5
850.254	2847.41
850.577	2837.24
850.9	2829.78
851.223	2799.05
851.546	2825.49
851.869	2794.76
852.192	2811.03
852.515	2830.24
852.838	2790.01
853.161	2733.74
853.483	2720.63
853.806	2732.16
854.129	2735.78
854.451	2724.02
854.774	2745.94
855.096	2702.78
855.419	2682.67
855.741	2677.02
856.063	2687.64
856.385	2653.74
856.708	2662.56
857.03	2642.22
857.352	2647.87
857.674	2654.42
857.996	2666.85
858.318	2655.55
858.64	2688.55
858.961	2612.39
859.283	2640.86
859.605	2608.32
859.926	2605.61
860.248	2591.82
860.57	2556.8
860.891	2625.27
861.212	2588.89
861.534	2602.9
861.855	2584.82
862.176	2557.02
862.498	2580.75
862.819	2538.27
863.14	2541.88
863.461	2538.49
863.782	2561.99
864.103	2562.22
864.424	2558.38
864.745	2543.46
865.065	2514.76
865.386	2553.86
865.707	2532.39
866.027	2599.28
866.348	2516.57
866.668	2533.29
866.989	2478.83
867.309	2528.32
867.63	2507.76
867.95	2497.14
868.27	2488.1
868.59	2504.6
868.91	2488.1
869.23	2493.52
869.55	2485.16
869.87	2493.75
870.19	2456.91
870.51	2484.93
870.83	2467.76
871.15	2434.09
871.469	2444.94
871.789	2462.11
872.109	2438.16
872.428	2467.99
872.748	2479.06
873.067	2467.99
873.386	2435.22
873.706	2463.92
874.025	2434.31
874.344	2426.41
874.663	2426.18
874.982	2441.09
875.301	2402.9
875.62	2451.26
875.939	2420.08
876.258	2416.01
876.577	2425.5
876.896	2409.46
877.214	2406.07
877.533	2415.33
877.852	2392.73
878.17	2399.97
878.489	2396.8
878.807	2382.34
879.125	2406.07
879.444	2369.01
879.762	2355.22
880.08	2412.39
880.398	2391.38
880.716	2389.57
881.034	2380.08
881.352	2329.01
881.67	2370.59
881.988	2346.86
882.306	2338.27
882.624	2371.49
882.941	2334.88
883.259	2354.09
883.577	2320.65
883.894	2304.6
884.212	2321.55
884.529	2298.27
884.846	2293.98
885.164	2277.48
885.481	2313.87
885.798	2302.11
886.115	2342.11
886.432	2271.61
886.75	2307.54
887.067	2292.62
887.383	2283.81
887.7	2277.71
888.017	2264.38
888.334	2275.45
888.651	2287.2
888.967	2253.08
889.284	2256.24
889.6	2223.47
889.917	2231.83
890.233	2248.78
890.55	2235.45
890.866	2242.91
891.182	2210.37
891.498	2204.72
891.815	2198.39
892.131	2231.83
892.447	2184.83
892.763	2195
893.079	2183.25
893.395	2179.41
893.71	2166.52
894.026	2186.64
894.342	2185.06
894.657	2171.95
894.973	2146.86
895.289	2143.25
895.604	2135.79
895.92	2099.18
896.235	2108.45
896.55	2142.12
896.865	2133.08
897.181	2098.96
897.496	2112.52
897.811	2089.01
898.126	2100.54
898.441	2106.87
898.756	2075
899.071	2068.67
899.386	2074.32
899.7	2063.7
900.015	2056.02
900.33	2039.52
900.644	2058.05
900.959	1996.36
901.273	1976.47
901.588	2021.9
901.902	2022.8
902.216	2023.93
902.531	1996.59
902.845	1981.9
903.159	2012.86
903.473	1987.09
903.787	1979.41
904.101	1928.34
904.415	1956.59
904.729	1934.89
905.042	1970.6
905.356	1966.53
905.67	1955.01
905.984	1963.82
906.297	1962.69
906.611	1951.84
906.924	1926.98
907.237	1921.11
907.551	1944.84
907.864	1874.56
908.177	1903.26
908.491	1929.24
908.804	1876.59
909.117	1877.27
909.43	1891.28
909.743	1869.81
910.056	1844.95
910.368	1863.26
910.681	1827.32
910.994	1857.38
911.307	1830.04
911.619	1839.98
911.932	1820.09
912.244	1807.66
912.557	1821
912.869	1830.26
913.181	1802.92
913.494	1814.9
913.806	1764.5
914.118	1781.45
914.43	1783.94
914.742	1745.75
915.054	1745.97
915.366	1751.39
915.678	1777.16
915.99	1753.2
916.302	1723.15
916.613	1738.97
916.925	1721.11
917.236	1738.51
917.548	1704.62
917.859	1714.33
918.171	1724.73
918.482	1702.36
918.794	1702.58
919.105	1678.63
919.416	1703.26
919.727	1722.02
920.038	1689.48
920.349	1683.15
920.66	1667.78
920.971	1649.25
921.282	1632.98
921.593	1612.19
921.903	1634.34
922.214	1611.96
922.525	1622.58
922.835	1592.08
923.146	1604.51
923.456	1586.88
923.767	1582.13
924.077	1622.81
924.387	1616.48
924.697	1581.23
925.008	1557.05
925.318	1568.57
925.628	1592.98
925.938	1581.23
926.248	1559.54
926.558	1557.28
926.867	1560.44
927.177	1534.45
927.487	1545.07
927.796	1542.81
928.106	1509.37
928.416	1492.19
928.725	1516.15
929.034	1508.69
929.344	1526.54
929.653	1499.2
929.962	1489.25
930.271	1494
930.581	1508.92
930.89	1461.23
931.199	1478.41
931.508	1449.26
931.817	1472.53
932.125	1472.31
932.434	1476.37
932.743	1462.59
933.051	1449.26
933.36	1456.04
933.669	1447
933.977	1454.91
934.286	1442.02
934.594	1437.05
934.902	1413.32
935.21	1416.26
935.519	1415.81
935.827	1420.56
936.135	1426.21
936.443	1416.04
936.751	1367.45
937.059	1401.35
937.367	1407.9
937.674	1368.81
937.982	1378.07
938.29	1404.96
938.597	1372.87
938.905	1340.56
939.213	1369.71
939.52	1328.58
939.827	1350.28
940.135	1348.92
940.442	1325.19
940.749	1317.51
941.056	1349.82
941.363	1331.29
941.67	1319.09
941.977	1317.28
942.284	1324.06
942.591	1313.21
942.898	1305.53
943.205	1290.39
943.511	1298.53
943.818	1298.75
944.125	1289.26
944.431	1280.67
944.738	1282.25
945.044	1284.97
945.35	1253.55
945.657	1260.33
945.963	1245.87
946.269	1253.55
946.575	1264.18
946.881	1251.29
947.187	1251.97
947.493	1228.92
947.799	1255.36
948.105	1218.53
948.41	1211.3
948.716	1237.74
949.022	1237.74
949.327	1227.79
949.633	1223.27
949.938	1195.93
950.244	1204.52
950.549	1194.35
950.854	1194.12
951.16	1201.8
951.465	1195.03
951.77	1185.99
952.075	1193.9
952.38	1166.55
952.685	1162.94
952.99	1180.79
953.294	1197.74
953.599	1181.69
953.904	1142.15
954.209	1133.78
954.513	1138.76
954.818	1168.59
955.122	1145.08
955.426	1152.77
955.731	1137.17
956.035	1126.78
956.339	1117.51
956.643	1142.15
956.948	1148.92
957.252	1101.69
957.556	1105.31
957.86	1090.85
958.163	1101.92
958.467	1114.8
958.771	1087.46
959.075	1114.35
959.378	1096.72
959.682	1095.82
959.985	1098.08
960.289	1102.82
960.592	1073.45
960.896	1096.5
961.199	1060.57
961.502	1075.25
961.805	1063.28
962.108	1079.55
962.411	1053.11
962.714	1044.97
963.017	1058.31
963.32	1070.06
963.623	1062.37
963.926	1033
964.228	1013.33
964.531	1022.83
964.833	1033.22
965.136	1030.28
965.438	1022.37
965.741	1028.7
966.043	1028.93
966.345	983.51
966.648	1000
966.95	1030.51
967.252	993
967.554	1004.75
967.856	995.71
968.158	979.21
968.46	986.67
968.761	998.65
969.063	985.99
969.365	979.89
969.666	968.82
969.968	949.16
970.269	991.64
970.571	960.68
970.872	981.7
971.174	958.65
971.475	984.41
971.776	960
972.077	957.07
972.378	958.42
972.679	931.3
972.98	941.25
973.281	945.99
973.582	961.36
973.883	947.57
974.183	931.08
974.484	923.17
974.785	941.47
975.085	924.52
975.386	933.34
975.686	877.07
975.986	932.21
976.287	929.04
976.587	901.25
976.887	907.8
977.187	920.46
977.487	896.5
977.787	898.31
978.087	889.5
978.387	903.73
978.687	880.91
978.987	912.09
979.286	897.63
979.586	880.68
979.885	878.65
980.185	881.81
980.484	882.94
980.784	877.07
981.083	867.35
981.382	865.09
981.682	873.68
981.981	852.89
982.28	859.67
982.579	880.23
982.878	853.79
983.177	860.57
983.475	866.67
983.774	824.64
984.073	845.2
984.372	840.46
984.67	825.77
984.969	852.21
985.267	811.76
985.566	834.13
985.864	837.52
986.162	834.81
986.461	817.86
986.759	809.72
987.057	820.12
987.355	816.73
987.653	818.31
987.951	792.32
988.249	805.43
988.547	785.32
988.844	816.5
989.142	802.27
989.44	802.94
989.737	792.1
990.035	788.03
990.332	794.13
990.63	793.91
990.927	794.81
991.224	807.24
991.521	787.35
991.819	787.35
992.116	780.57
992.413	790.52
992.71	784.41
993.006	770.86
993.303	767.92
993.6	738.54
993.897	783.28
994.193	773.12
994.49	760.69
994.787	749.61
995.083	762.72
995.379	731.76
995.676	765.43
995.972	755.49
996.268	760.91
996.565	777.41
996.861	750.74
997.157	729.27
997.453	719.78
997.749	722.95
998.044	734.02
998.34	742.61
998.636	723.4
998.932	743.74
999.227	727.69
999.523	723.17
999.818	731.99
1000.114	720.01
1000.409	710.52
1000.704	721.82
1001	724.3
1001.295	696.51
1001.59	696.28
1001.885	683.63
1002.18	713.46
1002.475	703.51
1002.77	705.55
1003.065	709.61
1003.359	673.91
1003.654	688.6
1003.949	684.76
1004.243	685.66
1004.538	691.08
1004.832	683.85
1005.127	656.96
1005.421	679.33
1005.715	659.67
1006.009	688.82
1006.304	669.62
1006.598	669.16
1006.892	669.16
1007.186	690.63
1007.48	652.21
1007.773	671.87
1008.067	646.79
1008.361	676.39
1008.655	637.3
1008.948	637.07
1009.242	660.35
1009.535	635.94
1009.829	648.15
1010.122	650.86
1010.415	655.15
1010.708	625.32
1011.001	620.12
1011.295	646.11
1011.588	622.84
1011.881	633.46
1012.173	616.96
1012.466	630.52
1012.759	616.96
1013.052	614.02
1013.344	613.35
1013.637	593.46
1013.93	589.39
1014.222	618.09
1014.514	628.03
1014.807	613.8
1015.099	597.53
1015.391	602.05
1015.683	576.28
1015.976	614.48
1016.268	583.06
1016.56	572.44
1016.851	589.84
1017.143	595.27
1017.435	574.25
1017.727	572.44
1018.018	579
1018.31	590.3
1018.602	570.41
1018.893	583.74
1019.185	564.53
1019.476	534.7
1019.767	567.02
1020.058	565.66
1020.35	572.67
1020.641	543.29
1020.932	576.28
1021.223	550.3
1021.514	567.7
1021.804	572.67
1022.095	550.75
1022.386	545.1
1022.677	537.19
1022.967	542.84
1023.258	519.34
1023.548	554.36
1023.839	529.51
1024.129	529.73
1024.419	551.65
1024.709	552.78
1025	514.82
1025.29	546.45
1025.58	536.74
1025.87	539
1026.16	539
1026.449	531.54
1026.739	507.81
1027.029	517.98
1027.319	531.54
1027.608	525.66
1027.898	506.46
1028.187	508.26
1028.477	531.31
1028.766	514.59
1029.055	489.96
1029.344	522.5
1029.634	489.28
1029.923	508.72
1030.212	505.78
1030.501	504.65
1030.79	501.94
1031.078	479.11
1031.367	502.84
1031.656	528.38
1031.945	495.83
1032.233	489.96
1032.522	478.21
1032.81	478.66
1033.099	513.69
1033.387	506.23
1033.675	481.15
1033.963	489.05
1034.251	486.34
1034.54	477.3
1034.828	479.11
1035.116	463.52
1035.403	470.98
1035.691	478.21
1035.979	478.89
1036.267	482.73
1036.554	473.46
1036.842	463.97
1037.129	468.94
1037.417	469.39
1037.704	453.12
1037.992	456.97
1038.279	478.89
1038.566	461.94
1038.853	461.94
1039.14	461.94
