Data from blue_clamp_base_FLMS001491_00048.txt Node
Date: Wed Feb 08 15:16:04 GMT 2017
User: dcchb
Spectrometer: FLMS00149
Trigger mode: 0
Integration Time (sec): 2.000000E-2
Scans to average: 10
Electric dark correction enabled: true
Nonlinearity correction enabled: false
Boxcar width: 0
XAxis mode: Wavelengths
Number of Pixels in Spectrum: 2048
>>>>>Begin Spectral Data<<<<<
341.393	-0.93
341.776	-0.93
342.16	-0.93
342.543	-67.37
342.927	-70.99
343.31	-44.77
343.693	-55.17
344.077	-58.33
344.46	-64.89
344.843	-54.26
345.226	-41.61
345.61	-30.08
345.993	-48.39
346.376	-16.07
346.759	28.45
347.142	12.85
347.525	56.24
347.908	65.73
348.291	82.46
348.674	79.74
349.057	88.11
349.44	114.77
349.823	119.97
350.206	168.55
350.588	203.36
350.971	203.58
351.354	236.12
351.737	250.81
352.119	265.95
352.502	272.28
352.884	304.6
353.267	302.56
353.65	312.51
354.032	309.79
354.414	306.63
354.797	307.76
355.179	323.13
355.562	318.61
355.944	328.32
356.326	345.73
356.709	336.46
357.091	342.79
357.473	349.34
357.855	333.97
358.238	332.39
358.62	346.86
359.002	364.03
359.384	372.62
359.766	343.01
360.148	348.66
360.53	327.42
360.912	352.28
361.294	341.88
361.676	349.57
362.057	356.8
362.439	337.59
362.821	362.67
363.203	362
363.584	331.26
363.966	358.38
364.348	339.85
364.729	324.26
365.111	343.01
365.493	342.34
365.874	338.72
366.256	326.29
366.637	327.87
367.019	335.78
367.4	318.61
367.781	334.65
368.163	353.86
368.544	322.9
368.925	329.23
369.306	339.4
369.688	345.95
370.069	347.31
370.45	309.79
370.831	319.96
371.212	314.31
371.593	335.78
371.974	339.62
372.355	319.51
372.736	355.89
373.117	340.3
373.498	339.62
373.879	333.07
374.26	341.88
374.641	333.3
375.021	342.34
375.402	339.4
375.783	368.55
376.163	346.86
376.544	334.65
376.925	368.78
377.305	355.89
377.686	346.86
378.066	367.19
378.447	341.43
378.827	374.65
379.208	363.8
379.588	365.39
379.968	379.62
380.349	355.22
380.729	359.74
381.109	372.39
381.489	372.39
381.87	387.76
382.25	376.91
382.63	398.15
383.01	375.78
383.39	379.17
383.77	366.97
384.15	404.71
384.53	410.13
384.91	398.15
385.29	397.7
385.67	408.32
386.049	406.97
386.429	411.71
386.809	429.56
387.189	406.29
387.568	398.15
387.948	437.7
388.328	436.8
388.707	413.75
389.087	420.3
389.466	422.79
389.846	428.21
390.225	443.58
390.605	462.11
390.984	447.64
391.363	448.77
391.743	445.38
392.122	450.36
392.501	434.54
392.881	453.75
393.26	466.17
393.639	483.57
394.018	480.19
394.397	474.08
394.776	503.69
395.155	496
395.534	484.48
395.913	494.2
396.292	504.14
396.671	498.94
397.05	501.65
397.429	502.11
397.808	501.43
398.186	523.12
398.565	550.01
398.944	520.41
399.323	532.16
399.701	562.22
400.08	528.55
400.458	558.38
400.837	549.56
401.215	565.38
401.594	569.67
401.972	574.42
402.351	572.61
402.729	578.49
403.107	580.3
403.486	608.09
403.864	606.28
404.242	616.23
404.62	601.31
404.999	615.77
405.377	616.9
405.755	633.63
406.133	658.03
406.511	657.13
406.889	664.59
407.267	690.35
407.645	684.02
408.023	693.06
408.401	698.03
408.779	702.1
409.156	711.14
409.534	711.82
409.912	735.55
410.29	730.57
410.667	740.07
411.045	770.12
411.422	766.28
411.8	789.1
412.178	779.61
412.555	805.83
412.933	803.34
413.31	795.21
413.687	822.1
414.065	822.1
414.442	832.49
414.819	857.58
415.197	872.72
415.574	876.78
415.951	892.15
416.328	908.65
416.705	912.72
417.082	928.08
417.46	908.65
417.837	935.54
418.214	933.96
418.591	970.57
418.967	974.86
419.344	950.91
419.721	980.06
420.098	978.48
420.475	1022.54
420.852	1003.79
421.228	1024.13
421.605	1005.14
421.982	1008.98
422.358	1026.84
422.735	1040.85
423.111	1061.64
423.488	1074.52
423.864	1060.51
424.241	1082.88
424.617	1083.79
424.994	1111.35
425.37	1125.82
425.746	1104.35
426.123	1152.03
426.499	1159.04
426.875	1160.39
427.251	1198.81
427.627	1217.57
428.003	1229.54
428.379	1239.94
428.756	1259.15
429.132	1253.72
429.507	1258.47
429.883	1319.71
430.259	1332.82
430.635	1327.62
431.011	1334.4
431.387	1362.2
431.763	1395.19
432.138	1409.65
432.514	1436.54
432.89	1425.02
433.265	1460.27
433.641	1489.88
434.016	1483.32
434.392	1511.12
434.767	1520.38
435.143	1540.95
435.518	1548.86
435.894	1586.37
436.269	1588.86
436.644	1651.23
437.02	1629.99
437.395	1655.07
437.77	1679.25
438.145	1686.03
438.52	1684.67
438.895	1725.8
439.271	1743.65
439.646	1802.18
440.021	1803.77
440.395	1759.02
440.77	1774.84
441.145	1809.42
441.52	1847.83
441.895	1851
442.27	1856.42
442.645	1858.91
443.019	1887.83
443.394	1929.41
443.769	1926.25
444.143	1902.52
444.518	1959.02
444.892	1922.63
445.267	2002.18
445.641	1980.48
446.016	1973.03
446.39	2000.6
446.764	2030.2
447.139	2052.12
447.513	2052.8
447.887	2082.4
448.262	2112.91
448.636	2114.94
449.01	2152.68
449.384	2161.72
449.758	2173.93
450.132	2210.54
450.506	2201.27
450.88	2229.97
451.254	2207.82
451.628	2250.31
452.002	2269.97
452.376	2289.63
452.75	2322.17
453.123	2317.42
453.497	2344.77
453.871	2393.58
454.244	2455.05
454.618	2412.11
454.992	2498.66
455.365	2476.97
455.739	2592.45
456.112	2560.81
456.486	2583.86
456.859	2637.19
457.232	2684.65
457.606	2623.86
457.979	2656.63
458.352	2755.83
458.725	2733.01
459.099	2782.05
459.472	2820.46
459.845	2844.64
460.218	2846
460.591	2934.36
460.964	2908.14
461.337	2984.07
461.71	2999.44
462.083	3089.38
462.456	3063.85
462.829	3064.07
463.201	3144.75
463.574	3143.39
463.947	3184.75
464.32	3217.51
464.692	3274.91
465.065	3292.31
465.438	3301.35
465.81	3333.67
466.183	3370.96
466.555	3462.48
466.928	3432.2
467.3	3456.6
467.672	3534.12
468.045	3584.74
468.417	3574.57
468.789	3623.15
469.161	3672.64
469.534	3703.38
469.906	3826.54
470.278	3834.22
470.65	3839.42
471.022	3895.24
471.394	3987.66
471.766	4003.71
472.138	4052.97
472.51	4109.92
472.882	4156.47
473.253	4195.34
473.625	4253.42
473.997	4329.58
474.369	4308.33
474.74	4397.14
475.112	4436.24
475.484	4499.74
475.855	4619.96
476.227	4557.14
476.598	4768.43
476.97	4772.95
477.341	4824.7
477.713	4928.88
478.084	4964.14
478.455	5084.58
478.827	5076.22
479.198	5196.9
479.569	5175.88
479.94	5325.93
480.311	5340.17
480.682	5427.63
481.053	5562.54
481.424	5597.79
481.795	5640.05
482.166	5714.4
482.537	5835.52
482.908	5827.84
483.279	5907.84
483.65	5992.13
484.021	6119.81
484.391	6135.86
484.762	6215.4
485.133	6252.46
485.503	6316.42
485.874	6393.25
486.244	6372.01
486.615	6513.92
486.985	6577.65
487.356	6637.76
487.726	6703.75
488.097	6834.59
488.467	6845.22
488.837	6940.13
489.207	6963.86
489.578	7074.81
489.948	7162.95
490.318	7115.49
490.688	7182.83
491.058	7292.44
491.428	7374.92
491.798	7330.4
492.168	7466.67
492.538	7513.9
492.908	7546.21
493.278	7674.8
493.648	7610.17
494.017	7715.48
494.387	7662.14
494.757	7743.27
495.126	7822.36
495.496	7828.69
495.866	7885.64
496.235	7898.07
496.605	7936.26
496.974	7923.61
497.344	8021.68
497.713	7990.04
498.082	8109.36
498.452	8159.76
498.821	8181.68
499.19	8177.84
499.559	8247.21
499.928	8291.28
500.298	8284.05
500.667	8340.54
501.036	8301.22
501.405	8402.01
501.774	8300.54
502.143	8419.19
502.512	8432.97
502.88	8471.61
503.249	8458.05
503.618	8482.46
503.987	8552.29
504.356	8606.75
504.724	8603.36
505.093	8644.49
505.462	8653.3
505.83	8732.17
506.199	8776.92
506.567	8837.25
506.936	8806.29
507.304	8850.81
507.672	8875.22
508.041	8929.45
508.409	8992.5
508.777	9036.57
509.145	9012.84
509.514	9011.49
509.882	9046.51
510.25	9086.96
510.618	9148.66
510.986	9162.67
511.354	9241.99
511.722	9169.9
512.09	9308.65
512.458	9283.12
512.826	9295.09
513.193	9343.23
513.561	9355.43
513.929	9329.22
514.297	9486.95
514.664	9496.9
515.032	9493.28
515.4	9544.13
515.767	9566.95
516.135	9609.66
516.502	9561.3
516.869	9723.78
517.237	9731.69
517.604	9637.91
517.972	9749.09
518.339	9816.89
518.706	9752.03
519.073	9815.98
519.44	9913.61
519.808	9942.08
520.175	10012.59
520.542	10049.2
520.909	9973.72
521.276	10020.5
521.643	10128.29
522.009	10148.41
522.376	10187.5
522.743	10177.11
523.11	10269.31
523.477	10351.34
523.843	10376.87
524.21	10459.81
524.577	10507.94
524.943	10523.31
525.31	10621.39
525.676	10644.21
526.043	10651.67
526.409	10701.16
526.776	10850.76
527.142	10859.12
527.508	10914.26
527.874	10970.53
528.241	10961.27
528.607	11077.87
528.973	11062.96
529.339	11024.31
529.705	11156.06
530.071	11243.52
530.437	11227.25
530.803	11330.07
531.169	11335.27
531.535	11394.93
531.901	11400.12
532.267	11410.75
532.632	11529.61
532.998	11556.05
533.364	11605.99
533.73	11574.36
534.095	11697.07
534.461	11729.83
534.826	11780.68
535.192	11827.68
535.557	11914.69
535.923	11805.09
536.288	11843.95
536.653	11931.18
537.019	11956.72
537.384	12012.76
537.749	12116.04
538.114	12009.6
538.479	12016.15
538.845	12074.91
539.21	12133.21
539.575	12173.89
539.94	12163.04
540.305	12256.15
540.67	12238.07
541.034	12297.28
541.399	12362.36
541.764	12349.7
542.129	12398.97
542.494	12407.56
542.858	12509.47
543.223	12500.21
543.587	12530.94
543.952	12514.67
544.316	12570.26
544.681	12598.96
545.045	12603.03
545.41	12631.96
545.774	12746.53
546.138	12687.32
546.503	12742.69
546.867	12818.84
547.231	12966.86
547.595	12849.58
547.959	12866.3
548.324	13004.6
548.688	12870.37
549.052	12984.26
549.416	13014.09
549.779	13011.38
550.143	13003.7
550.507	13086.86
550.871	13109.68
551.235	13152.85
551.599	13231.04
551.962	13222.22
552.326	13245.95
552.689	13343.8
553.053	13273.75
553.417	13350.13
553.78	13474.42
554.143	13464.02
554.507	13518.03
554.87	13506.74
555.234	13567.98
555.597	13563.91
555.96	13584.47
556.323	13585.6
556.686	13594.87
557.05	13757.12
557.413	13765.26
557.776	13813.62
558.139	13892.71
558.502	13783.79
558.865	13950.34
559.228	13982.65
559.59	13970
559.953	14029.66
560.316	14104.69
560.679	14139.26
561.041	14176.1
561.404	14277.11
561.767	14296.77
562.129	14313.49
562.492	14465.58
562.854	14391.46
563.217	14414.28
563.579	14507.16
563.941	14468.07
564.304	14551.23
564.666	14728.17
565.028	14739.25
565.39	14869.64
565.753	14823.76
566.115	14899.24
566.477	14914.61
566.839	14991.22
567.201	15121.61
567.563	15126.13
567.925	15118.22
568.287	15235.5
568.648	15213.13
569.01	15403.18
569.372	15370.42
569.734	15448.15
570.095	15411.77
570.457	15493.12
570.819	15520.47
571.18	15579
571.542	15708.26
571.903	15718.88
572.265	15728.6
572.626	15830.29
572.987	15767.47
573.349	15992.32
573.71	15988.25
574.071	16035.48
574.432	16017.63
574.794	16212.43
575.155	16177.85
575.516	16162.03
575.877	16149.83
576.238	16232.54
576.599	16384.17
576.96	16331.29
577.32	16262.59
577.681	16448.58
578.042	16444.51
578.403	16453.78
578.763	16526.32
579.124	16492.87
579.485	16579.2
579.845	16561.12
580.206	16571.51
580.566	16577.39
580.927	16609.25
581.287	16749.36
581.648	16664.39
582.008	16745.52
582.368	16608.57
582.728	16797.95
583.089	16653.77
583.449	16778.29
583.809	16787.78
584.169	16806.99
584.529	16844.73
584.889	16885.4
585.249	16710.49
585.609	16804.05
585.969	16895.8
586.329	16850.83
586.688	16944.84
587.048	16972.86
587.408	16777.84
587.768	16879.3
588.127	16878.4
588.487	16942.13
588.846	17010.6
589.206	16858.74
589.565	16999.75
589.925	16983.03
590.284	17072.07
590.643	16927.89
591.003	17014.89
591.362	17076.58
591.721	17094.21
592.08	17037.49
592.44	17154.1
592.799	17040.2
593.158	17071.61
593.517	17112.06
593.876	17140.99
594.235	17169.24
594.593	17144.38
594.952	17134.44
595.311	17127.21
595.67	17138.28
596.029	17269.8
596.387	17258.73
596.746	17227.09
597.104	17161.1
597.463	17249.69
597.822	17242.23
598.18	17224.15
598.538	17241.78
598.897	17251.04
599.255	17191.16
599.613	17432.51
599.972	17301.44
600.33	17375.79
600.688	17331.04
601.046	17309.35
601.404	17416.69
601.762	17256.24
602.12	17416.69
602.478	17425.05
602.836	17370.36
603.194	17258.05
603.552	17406.07
603.91	17280.87
604.268	17543.24
604.625	17376.24
604.983	17504.6
605.341	17416.24
605.698	17506.86
606.056	17467.54
606.413	17547.98
606.771	17551.6
607.128	17609.23
607.485	17522.9
607.843	17500.53
608.2	17607.19
608.557	17672.28
608.914	17543.01
609.272	17670.92
609.629	17728.77
609.986	17789.79
610.343	17684.48
610.7	17757.24
611.057	17816.23
611.414	17700.07
611.771	17739.39
612.127	17815.77
612.484	17847.41
612.841	17969.44
613.198	17815.32
613.554	17786.4
613.911	17957.24
614.267	17858.03
614.624	17933.29
614.98	17884.25
615.337	18087.63
615.693	17978.03
616.05	18056.45
616.406	18173.51
616.762	18016
617.118	18015.54
617.475	17984.81
617.831	18134.86
618.187	18158.82
618.543	18158.82
618.899	18260.73
619.255	18248.98
619.611	18192.04
619.967	18279.49
620.323	18321.07
620.678	18184.13
621.034	18266.84
621.39	18203.11
621.746	18272.71
622.101	18384.57
622.457	18259.15
622.812	18364.69
623.168	18433.61
623.523	18397.45
623.879	18519.03
624.234	18297.57
624.589	18413.72
624.945	18466.38
625.3	18502.08
625.655	18459.83
626.01	18458.02
626.365	18441.29
626.72	18488.07
627.075	18429.32
627.43	18550.44
627.785	18493.5
628.14	18547.28
628.495	18425.25
628.85	18553.83
629.205	18533.04
629.559	18664.57
629.914	18545.92
630.269	18594.06
630.623	18521.07
630.978	18548.64
631.332	18580.05
631.687	18633.15
632.041	18642.87
632.396	18665.02
632.75	18574.4
633.104	18634.96
633.459	18535.3
633.813	18587.05
634.167	18614.62
634.521	18639.93
634.875	18649.88
635.229	18626.83
635.583	18641.97
635.937	18695.75
636.291	18620.73
636.645	18737.56
636.999	18622.31
637.352	18723.1
637.706	18629.54
638.06	18726.03
638.413	18684.68
638.767	18669.99
639.121	18699.37
639.474	18575.53
639.828	18631.8
640.181	18539.37
640.534	18790.21
640.888	18669.31
641.241	18538.92
641.594	18623.44
641.947	18700.72
642.301	18679.71
642.654	18644.23
643.007	18725.13
643.36	18779.14
643.713	18726.26
644.066	18854.62
644.419	18720.38
644.771	18565.36
645.124	18378.7
645.477	18299.83
645.83	18222.32
646.182	18359.49
646.535	18263.9
646.888	18318.36
647.24	18255.31
647.593	18422.54
647.945	18475.64
648.298	18468.41
648.65	18427.74
649.002	18334.63
649.355	18438.13
649.707	18440.16
650.059	18379.6
650.411	18699.37
650.763	18738.24
651.115	19001.28
651.467	18855.97
651.819	18940.49
652.171	18913.6
652.523	18917.67
652.875	18896.42
653.227	18859.59
653.578	19066.36
653.93	19094.16
654.282	18975.74
654.633	18959.93
654.985	18968.51
655.337	19029.3
655.688	19018.91
656.039	19121.73
656.391	18971.22
656.742	18958.34
657.094	19042.41
657.445	19169.19
657.796	19051.22
658.147	19046.02
658.498	19062.07
658.849	19157.89
659.2	19112.69
659.551	19067.49
659.902	19149.52
660.253	19123.08
660.604	19141.16
660.955	19084.67
661.306	19135.97
661.656	19024.1
662.007	19079.47
662.358	19186.81
662.708	19202.4
663.059	19131.22
663.409	18990.66
663.76	19150.88
664.11	19191.78
664.461	19175.29
664.811	19189.07
665.161	19242.63
665.511	19191.78
665.862	19097.1
666.212	19213.25
666.562	19229.07
666.912	19165.57
667.262	19164.89
667.612	19139.36
667.962	19175.74
668.312	19076.31
668.662	19166.02
669.011	19151.56
669.361	19070.88
669.711	19067.04
670.06	19017.32
670.41	18951.79
670.76	18947.27
671.109	19003.54
671.459	18965.12
671.808	18923.99
672.157	18957.21
672.507	18766.48
672.856	18848.29
673.205	18823.43
673.554	18937.78
673.904	18692.14
674.253	18808.06
674.602	18789.99
674.951	18511.35
675.3	18373.73
675.649	18675.64
675.998	18641.52
676.346	18603.55
676.695	18705.02
677.044	18413.27
677.393	18553.83
677.741	18557
678.09	18417.57
678.438	18412.37
678.787	18505.7
679.135	18397.68
679.484	18228.64
679.832	18347.96
680.181	18286.04
680.529	18173.96
680.877	18205.82
681.225	18167.86
681.573	18250.79
681.922	18183.22
682.27	18060.74
682.618	18077.01
682.966	18070.68
683.314	18051.25
683.661	17827.07
684.009	17873.4
684.357	17861.87
684.705	17818.49
685.053	17796.34
685.4	17801.09
685.748	17764.93
686.095	17655.33
686.443	17723.8
686.79	17590.24
687.138	17656.91
687.485	17621.43
687.832	17649
688.18	17644.93
688.527	17483.35
688.874	17518.61
689.221	17492.62
689.568	17386.86
689.915	17386.41
690.262	17432.28
690.609	17349.8
690.956	17235.9
691.303	17338.05
691.65	17176.47
691.997	17212.4
692.344	17078.62
692.69	17205.4
693.037	17103.25
693.383	17098.73
693.73	17087.21
694.077	16986.87
694.423	17006.98
694.769	16970.82
695.116	16887.66
695.462	16944.38
695.808	16824.84
696.155	16804.95
696.501	16819.42
696.847	16783.94
697.193	16662.13
697.539	16670.27
697.885	16610.16
698.231	16575.13
698.577	16731.96
698.923	16654.9
699.269	16588.01
699.614	16472.98
699.96	16520.89
700.306	16556.6
700.651	16517.05
700.997	16377.85
701.342	16369.26
701.688	16441.12
702.033	16383.5
702.379	16446.09
702.724	16301.46
703.069	16360.22
703.415	16230.73
703.76	16280.45
704.105	16309.15
704.45	16189.38
704.795	16037.29
705.14	16061.7
705.485	16183.5
705.83	16079.1
706.175	16136.5
706.52	15966.33
706.865	15972.89
707.209	15998.42
707.554	16075.48
707.899	15991.42
708.243	15979.66
708.588	16011.3
708.932	15851.76
709.277	15918.88
709.621	15802.95
709.966	15825.77
710.31	15818.09
710.654	15706.23
710.998	15782.61
711.342	15802.49
711.687	15819.44
712.031	15738.77
712.375	15669.39
712.719	15726.56
713.063	15613.35
713.407	15739.22
713.75	15667.36
714.094	15692.21
714.438	15599.79
714.782	15681.37
715.125	15455.38
715.469	15655.38
715.812	15597.3
716.156	15434.37
716.499	15531.09
716.843	15541.71
717.186	15464.65
717.53	15584.65
717.873	15648.6
718.216	15536.51
718.559	15470.3
718.902	15374.48
719.246	15460.81
719.589	15413.58
719.932	15308.95
720.275	15297.65
720.617	15376.74
720.96	15351.88
721.303	15339
721.646	15376.74
721.989	15237.99
722.331	15466.01
722.674	15337.65
723.016	15363.86
723.359	15313.24
723.701	15287.25
724.044	15191.66
724.386	15245.9
724.729	15329.96
725.071	15262.85
725.413	15279.57
725.755	15322.28
726.097	15193.02
726.439	15137.65
726.782	15146.69
727.124	15266.91
727.465	15095.39
727.807	15153.7
728.149	15153.47
728.491	15061.5
728.833	15107.82
729.175	15148.27
729.516	15183.08
729.858	15123.42
730.199	15144.88
730.541	15110.53
730.882	15156.41
731.224	15190.08
731.565	15123.87
731.906	15133.36
732.248	15215.39
732.589	15105.56
732.93	15167.03
733.271	15179.46
733.612	15205
733.953	15188.95
734.294	15151.21
734.635	15181.04
734.976	15223.07
735.317	15125.9
735.658	15207.48
735.999	15246.8
736.339	15262.85
736.68	15200.93
737.021	15190.31
737.361	15125.45
737.702	15275.95
738.042	15298.55
738.383	15260.81
738.723	15332.22
739.063	15242.06
739.404	15320.02
739.744	15390.98
740.084	15285.45
740.424	15336.97
740.764	15340.13
741.104	15486.34
741.444	15370.42
741.784	15444.09
742.124	15396.4
742.464	15476.17
742.804	15371.54
743.143	15479.34
743.483	15538.09
743.823	15442.5
744.162	15527.7
744.502	15545.55
744.841	15587.13
745.181	15722.72
745.52	15650.18
745.86	15652.44
746.199	15715.72
746.538	15720.46
746.877	15743.06
747.216	15795.94
747.556	15760.69
747.895	15961.13
748.234	15837.3
748.573	15810.18
748.911	15871.42
749.25	16007.46
749.589	15914.81
749.928	16102.83
750.267	16001.81
750.605	16058.76
750.944	16098.31
751.283	16044.52
751.621	16054.01
751.96	16040.68
752.298	16149.38
752.636	16056.5
752.975	16117.97
753.313	16163.16
753.651	16246.32
753.989	16186.66
754.327	16175.37
754.666	16244.97
755.004	16326.1
755.342	16371.52
755.679	16349.82
756.017	16335.81
756.355	16349.82
756.693	16394.12
757.031	16413.55
757.368	16324.29
757.706	16416.26
758.044	16445.19
758.381	16467.56
758.719	16515.7
759.056	16488.58
759.394	16503.49
759.731	16464.85
760.068	16549.59
760.405	16636.6
760.743	16635.47
761.08	16625.75
761.417	16616.26
761.754	16597.73
762.091	16616.71
762.428	16627.33
762.765	16612.19
763.102	16692.64
763.438	16664.84
763.775	16628.46
764.112	16642.92
764.449	16733.77
764.785	16609.25
765.122	16620.78
765.458	16582.81
765.795	16613.55
766.131	16656.93
766.467	16695.8
766.804	16630.04
767.14	16546.88
767.476	16621.68
767.812	16607.44
768.148	16659.42
768.485	16627.78
768.821	16611.74
769.157	16617.39
769.492	16608.12
769.828	16602.47
770.164	16389.82
770.5	16476.15
770.836	16521.8
771.171	16481.12
771.507	16413.33
771.842	16433.44
772.178	16452.42
772.513	16525.86
772.849	16473.89
773.184	16456.04
773.519	16476.6
773.855	16403.83
774.19	16369.26
774.525	16372.42
774.86	16472.53
775.195	16394.34
775.53	16397.05
775.865	16268.47
776.2	16325.42
776.535	16154.8
776.87	16279.77
777.205	16182.15
777.539	16219.66
777.874	16335.59
778.209	16188.92
778.543	16235.7
778.878	16074.35
779.212	16190.73
779.547	16005.43
779.881	16190.96
780.215	15943.51
780.55	16092.43
780.884	16045.43
781.218	16096.95
781.552	16028.7
781.886	15958.87
782.22	15872.32
782.554	15893.79
782.888	15850.4
783.222	15903.28
783.556	15721.14
783.889	15781.93
784.223	15738.54
784.557	15806.34
784.89	15777.18
785.224	15659.67
785.557	15619.22
785.891	15729.73
786.224	15590.75
786.558	15786
786.891	15594.14
787.224	15546
787.557	15523.41
787.891	15653.8
788.224	15579
788.557	15454.93
788.89	15505.78
789.223	15487.47
789.556	15414.03
789.888	15446.8
790.221	15339.91
790.554	15278.21
790.887	15287.93
791.219	15266.01
791.552	15387.14
791.884	15189.18
792.217	15212.68
792.549	15149.86
792.882	15136.52
793.214	15045.23
793.546	15137.2
793.879	15095.85
794.211	15014.49
794.543	15094.94
794.875	15043.42
795.207	15085
795.539	15030.76
795.871	14998
796.203	14810.88
796.535	14794.61
796.867	14854.27
797.198	14840.71
797.53	14886.36
797.862	14734.05
798.193	14792.8
798.525	14775.63
798.856	14777.21
799.188	14579.02
799.519	14556.65
799.85	14575.63
800.182	14511.68
800.513	14569.53
800.844	14482.08
801.175	14550.78
801.506	14629.87
801.837	14485.47
802.168	14435.52
802.499	14486.14
802.83	14470.33
803.161	14419.03
803.491	14424.45
803.822	14378.8
804.153	14425.58
804.483	14236.66
804.814	14196.43
805.145	14191.91
805.475	14207.28
805.805	14201.86
806.136	14150.56
806.466	14180.16
806.796	14158.24
807.126	14100.17
807.457	13986.72
807.787	14143.78
808.117	14000.28
808.447	13977.01
808.777	13924.13
809.107	13984.69
809.436	13985.37
809.766	13857.01
810.096	13826.05
810.426	13812.94
810.755	13878.48
811.085	13814.75
811.414	13814.3
811.744	13692.72
812.073	13708.54
812.403	13665.38
812.732	13660.4
813.061	13659.95
813.39	13554.87
813.719	13558.26
814.049	13671.02
814.378	13526.85
814.707	13518.94
815.036	13475.1
815.365	13495.44
815.693	13404.82
816.022	13366.17
816.351	13362.33
816.68	13328.89
817.008	13331.6
817.337	13213.41
817.665	13210.92
817.994	13281.88
818.322	13344.93
818.651	13190.81
818.979	13117.14
819.307	13226.97
819.636	13150.36
819.964	13152.17
820.292	13129.12
820.62	13155.33
820.948	13177.7
821.276	13130.47
821.604	13150.13
821.932	13099.51
822.259	13158.95
822.587	13117.82
822.915	13125.5
823.243	13101.32
823.57	13117.82
823.898	13178.16
824.225	13107.88
824.553	13067.65
824.88	13064.26
825.207	13153.3
825.535	13103.13
825.862	13145.39
826.189	13052.74
826.516	13123.02
826.843	13226.29
827.17	13193.3
827.497	13271.49
827.824	13203.47
828.151	13290.92
828.478	13217.93
828.805	13207.76
829.131	13191.72
829.458	13104.03
829.785	13099.74
830.111	13152.17
830.438	13244.37
830.764	13156.91
831.09	13210.02
831.417	13184.71
831.743	13160.98
832.069	13146.52
832.395	13108.78
832.722	13255.67
833.048	13205.05
833.374	13172.05
833.7	13126.63
834.026	13151.94
834.351	13135.22
834.677	13099.29
835.003	13233.97
835.329	13149.68
835.654	13113.75
835.98	13106.07
836.306	13064.49
836.631	13057.03
836.956	13186.29
837.282	13130.02
837.607	13071.27
837.932	13023.36
838.258	12990.14
838.583	13005.51
838.908	12884.38
839.233	12970.93
839.558	12869.46
839.883	12914.89
840.208	12858.39
840.533	12895.68
840.858	12805.06
841.182	12883.25
841.507	12817.26
841.832	12719.19
842.156	12790.6
842.481	12710.37
842.805	12673.31
843.13	12731.61
843.454	12705.17
843.778	12608.91
844.103	12668.57
844.427	12606.87
844.751	12628.79
845.075	12561.9
845.399	12442.13
845.723	12500.43
846.047	12478.74
846.371	12347.22
846.695	12403.04
847.019	12308.35
847.343	12271.06
847.666	12192.87
847.99	12111.97
848.313	12116.49
848.637	12099.09
848.96	12025.19
849.284	11983.16
849.607	11960.79
849.931	11895.25
850.254	11784.07
850.577	11746.56
850.9	11834.69
851.223	11757.85
851.546	11718.53
851.869	11608.48
852.192	11639.67
852.515	11511.99
852.838	11484.64
853.161	11480.12
853.483	11383.4
853.806	11405.32
854.129	11377.07
854.451	11319.45
854.774	11191.32
855.096	11220.02
855.419	11199.45
855.741	11227.25
856.063	11080.13
856.385	11059.79
856.708	11066.57
857.03	11076.29
857.352	11040.59
857.674	10969.85
857.996	10963.53
858.318	10905.67
858.64	10880.36
858.961	10908.61
859.283	10872
859.605	10753.81
859.926	10816.18
860.248	10780.03
860.57	10781.61
860.891	10740.93
861.212	10701.39
861.534	10618.45
861.855	10701.61
862.176	10756.3
862.498	10630.65
862.819	10688.05
863.14	10614.38
863.461	10599.69
863.782	10536.64
864.103	10507.27
864.424	10549.3
864.745	10509.75
865.065	10576.87
865.386	10465.23
865.707	10446.02
866.027	10469.3
866.348	10434.95
866.668	10406.7
866.989	10451.22
867.309	10317.89
867.63	10394.73
867.95	10298.46
868.27	10285.58
868.59	10315.41
868.91	10251.68
869.23	10163.77
869.55	10262.07
869.87	10323.54
870.19	10316.31
870.51	10200.83
870.83	10196.09
871.15	10063.66
871.469	10174.17
871.789	10145.69
872.109	10104.79
872.428	9999.93
872.748	10136.88
873.067	10087.62
873.386	10106.6
873.706	10025.7
874.025	10008.52
874.344	9942.08
874.663	9934.63
874.982	9926.72
875.301	9996.55
875.62	9877.68
875.939	9867.73
876.258	9831.58
876.577	9914.51
876.896	9907.28
877.214	9855.53
877.533	9854.63
877.852	9936.21
878.17	9886.04
878.489	9855.31
878.807	9802.65
879.125	9801.97
879.444	9773.73
879.762	9798.58
880.08	9786.61
880.398	9715.65
880.716	9730.11
881.034	9729.21
881.352	9609.44
881.67	9667.51
881.988	9656.89
882.306	9624.13
882.624	9545.26
882.941	9501.19
883.259	9506.84
883.577	9470.46
883.894	9485.37
884.212	9486.95
884.529	9501.64
884.846	9365.38
885.164	9398.14
885.481	9394.53
885.798	9352.49
886.115	9315.21
886.432	9326.28
886.75	9331.48
887.067	9336
887.383	9235.44
887.7	9274.3
888.017	9214.42
888.334	9178.71
888.651	9160.86
888.967	9227.07
889.284	9104.82
889.6	9059.62
889.917	9028.43
890.233	9072.28
890.55	8979.62
890.866	8965.84
891.182	9023.69
891.498	8984.82
891.815	8939.4
892.131	8888.78
892.447	8851.49
892.763	8897.82
893.079	8855.33
893.395	8799.06
893.71	8714.77
894.026	8706.86
894.342	8771.49
894.657	8720.19
894.973	8696.92
895.289	8692.17
895.604	8662.12
895.92	8607.88
896.235	8493.76
896.55	8579.86
896.865	8522.69
897.181	8508.9
897.496	8474.1
897.811	8423.25
898.126	8409.24
898.441	8410.15
898.756	8342.35
899.071	8358.17
899.386	8302.8
899.7	8305.06
900.015	8216.93
900.33	8152.3
900.644	8138.29
900.959	8171.06
901.273	8116.59
901.588	8011.29
901.902	8053.77
902.216	8030.95
902.531	8028.24
902.845	7980.1
903.159	7969.71
903.473	7889.26
903.787	7877.28
904.101	7793.21
904.415	7852.65
904.729	7755.93
905.042	7815.36
905.356	7728.58
905.67	7696.72
905.984	7666.44
906.297	7706.89
906.611	7607.46
906.924	7616.49
907.237	7551.19
907.551	7604.07
907.864	7528.81
908.177	7513.67
908.491	7441.36
908.804	7449.27
909.117	7386.44
909.43	7352.55
909.743	7311.64
910.056	7303.73
910.368	7273.45
910.681	7235.49
910.994	7179.44
911.307	7214.92
911.619	7195.71
911.932	7120.91
912.244	7046.57
912.557	7053.57
912.869	6990.07
913.181	7003.86
913.494	7056.51
913.806	6943.07
914.118	6941.71
914.43	6867.59
914.742	6882.28
915.054	6890.41
915.366	6873.24
915.678	6810.41
915.99	6743.3
916.302	6707.14
916.613	6688.61
916.925	6701.94
917.236	6626.92
917.548	6635.73
917.859	6631.44
918.171	6550.31
918.482	6529.74
918.794	6539.91
919.105	6497.88
919.416	6476.64
919.727	6420.14
920.038	6434.15
920.349	6380.82
920.66	6385.11
920.971	6409.75
921.282	6337.66
921.593	6311.22
921.903	6258.79
922.214	6233.48
922.525	6251.78
922.835	6177.89
923.146	6106.48
923.456	6104.67
923.767	6084.33
924.077	6076.2
924.387	6022.64
924.697	5979.7
925.008	6055.41
925.318	5962.3
925.628	5961.4
925.938	5936.76
926.248	5889.99
926.558	5872.59
926.867	5822.87
927.177	5839.14
927.487	5756.2
927.796	5713.95
928.106	5718.24
928.416	5695.19
928.725	5675.98
929.034	5632.37
929.344	5654.51
929.653	5623.55
929.962	5570.67
930.271	5557.34
930.581	5522.76
930.89	5516.44
931.199	5417.68
931.508	5473.73
931.817	5484.35
932.125	5429.89
932.434	5405.93
932.743	5327.29
933.051	5342.43
933.36	5340.85
933.669	5300.85
933.977	5306.05
934.286	5271.25
934.594	5251.13
934.902	5193.51
935.21	5172.94
935.519	5193.28
935.827	5160.29
936.135	5121.87
936.443	5006.17
936.751	5083.23
937.059	5068.54
937.367	5045.49
937.674	5034.19
937.982	5017.92
938.29	4971.14
938.597	4965.04
938.905	4923.46
939.213	4895.44
939.52	4839.62
939.827	4897.47
940.135	4867.87
940.442	4829.68
940.749	4833.74
941.056	4818.6
941.363	4790.13
941.67	4765.27
941.977	4775.44
942.284	4672.17
942.591	4708.1
942.898	4701.09
943.205	4624.26
943.511	4630.81
943.818	4638.27
944.125	4569.57
944.431	4579.29
944.738	4527.54
945.044	4531.38
945.35	4507.65
945.657	4457.93
945.963	4501.1
946.269	4485.73
946.575	4447.31
946.881	4393.3
947.187	4410.93
947.493	4372.06
947.799	4425.39
948.105	4336.13
948.41	4293.64
948.716	4324.83
949.022	4274.44
949.327	4258.84
949.633	4207.77
949.938	4240.99
950.244	4223.82
950.549	4225.17
950.854	4177.26
951.16	4154.21
951.465	4142.46
951.77	4133.2
952.075	4098.4
952.38	4107.21
952.685	4095.01
952.99	4041.9
953.294	4054.1
953.599	3994.44
953.904	3992.18
954.209	4008.45
954.513	3969.36
954.818	3929.81
955.122	3954.67
955.426	3917.16
955.731	3910.83
956.035	3880.77
956.339	3884.84
956.643	3878.51
956.948	3881
957.252	3843.03
957.556	3806.2
957.86	3791.74
958.163	3807.56
958.467	3761.23
958.771	3768.46
959.075	3708.57
959.378	3679.42
959.682	3709.48
959.985	3655.02
960.289	3639.2
960.592	3624.06
960.896	3642.14
961.199	3650.05
961.502	3575.7
961.805	3554.45
962.108	3528.92
962.411	3559.43
962.714	3504.96
963.017	3498.64
963.32	3560.1
963.623	3485.08
963.926	3461.58
964.228	3474
964.531	3438.07
964.833	3412.76
965.136	3401.46
965.438	3397.4
965.741	3379.54
966.043	3384.97
966.345	3378.87
966.648	3340.9
966.95	3354.23
967.252	3264.74
967.554	3306.55
967.856	3300.9
968.158	3251.64
968.46	3261.58
968.761	3229.49
969.063	3217.29
969.365	3210.73
969.666	3216.38
969.968	3192.2
970.269	3189.27
970.571	3120.12
970.872	3175.03
971.174	3121.02
971.475	3135.03
971.776	3079.66
972.077	3058.2
972.378	3070.17
972.679	3053
972.98	3062.72
973.281	3011.42
973.582	3008.93
973.883	3006.45
974.183	3000.34
974.484	2998.09
974.785	2937.07
975.085	2935.04
975.386	2957.41
975.686	2961.93
975.986	2886.68
976.287	2902.27
976.587	2903.85
976.887	2877.64
977.187	2858.88
977.487	2857.52
977.787	2886.45
978.087	2858.88
978.387	2834.02
978.687	2838.99
978.987	2791.76
979.286	2778.43
979.586	2746.34
979.885	2744.08
980.185	2720.8
980.484	2713.12
980.784	2724.87
981.083	2713.8
981.382	2724.87
981.682	2680.13
981.981	2674.03
982.28	2659.56
982.579	2639.22
982.878	2631.99
983.177	2663.4
983.475	2594.03
983.774	2603.07
984.073	2601.94
984.372	2585.67
984.67	2592.22
984.969	2584.54
985.267	2560.13
985.566	2554.03
985.864	2528.49
986.162	2509.51
986.461	2511.54
986.759	2510.64
987.057	2451.88
987.355	2471.32
987.653	2482.62
987.951	2473.81
988.249	2423.64
988.547	2407.37
988.844	2421.6
989.142	2402.62
989.44	2387.48
989.737	2365.11
990.035	2367.59
990.332	2331.89
990.63	2320.59
990.927	2345.22
991.224	2323.3
991.521	2300.93
991.819	2320.36
992.116	2342.06
992.413	2274.49
992.71	2268.16
993.006	2248.27
993.303	2223.64
993.6	2243.98
993.897	2210.31
994.193	2217.09
994.49	2220.93
994.787	2208.28
995.083	2219.57
995.379	2163.53
995.676	2160.37
995.972	2183.64
996.268	2179.58
996.565	2136.86
996.861	2151.1
997.157	2119.69
997.453	2127.83
997.749	2094.15
998.044	2084.44
998.34	2086.02
998.636	2085.34
998.932	2083.53
999.227	2059.58
999.523	2035.17
999.818	2019.35
1000.114	2019.35
1000.409	2004.66
1000.704	1970.09
1001	1996.98
1001.295	1971.9
1001.59	1959.69
1001.885	1952.69
1002.18	1941.84
1002.475	1932.12
1002.77	1930.32
1003.065	1894.39
1003.359	1934.61
1003.654	1881.05
1003.949	1846.02
1004.243	1876.76
1004.538	1870.43
1004.832	1855.29
1005.127	1830.88
1005.421	1798.12
1005.715	1851.67
1006.009	1821.17
1006.304	1837.89
1006.598	1787.27
1006.892	1776.65
1007.186	1747.95
1007.48	1770.32
1007.773	1755.86
1008.067	1744.78
1008.361	1710.89
1008.655	1720.6
1008.948	1701.4
1009.242	1698.91
1009.535	1704.11
1009.829	1686.71
1010.122	1662.07
1010.415	1659.82
1010.708	1648.97
1011.001	1622.08
1011.295	1612.13
1011.588	1612.58
1011.881	1620.49
1012.173	1600.16
1012.466	1622.98
1012.759	1601.96
1013.052	1575.07
1013.344	1573.72
1013.637	1578.01
1013.93	1580.5
1014.222	1536.88
1014.514	1525.58
1014.807	1546.6
1015.099	1510.67
1015.391	1502.53
1015.683	1486.94
1015.976	1490.55
1016.268	1518.12
1016.56	1479.71
1016.851	1489.42
1017.143	1477.45
1017.435	1439.93
1017.727	1425.02
1018.018	1439.03
1018.31	1391.57
1018.602	1414.62
1018.893	1416.21
1019.185	1408.07
1019.476	1340.5
1019.767	1384.12
1020.058	1379.14
1020.35	1370.56
1020.641	1356.32
1020.932	1336.66
1021.223	1353.38
1021.514	1292.37
1021.804	1291.92
1022.095	1316.77
1022.386	1302.99
1022.677	1301.63
1022.967	1283.78
1023.258	1298.92
1023.548	1288.3
1023.839	1244.91
1024.129	1241.97
1024.419	1246.27
1024.709	1214.63
1025	1220.96
1025.29	1207.62
1025.58	1216.66
1025.87	1194.29
1026.16	1183.9
1026.449	1183.9
1026.739	1175.99
1027.029	1176.89
1027.319	1180.28
1027.608	1148.19
1027.898	1144.8
1028.187	1177.57
1028.477	1128.76
1028.766	1136.67
1029.055	1136.67
1029.344	1120.62
1029.634	1112.94
1029.923	1092.82
1030.212	1089.89
1030.501	1094.86
1030.79	1077.23
1031.078	1045.59
1031.367	1076.1
1031.656	1065.71
1031.945	1053.05
1032.233	1019.83
1032.522	1033.16
1032.81	1026.84
1033.099	1022.32
1033.387	1038.14
1033.675	977.8
1033.963	990.68
1034.251	979.16
1034.54	987.74
1034.828	980.96
1035.116	980.96
1035.403	997.46
1035.691	966.95
1035.979	955.43
1036.267	968.31
1036.554	934.86
1036.842	917.69
1037.129	922.89
1037.417	909.55
1037.704	905.26
1037.992	921.08
1038.279	914.75
1038.566	908.87
1038.853	908.87
1039.14	908.87
