Data from blue_shiny_book_FLMS001491_00016.txt Node
Date: Wed Feb 08 15:26:36 GMT 2017
User: dcchb
Spectrometer: FLMS00149
Trigger mode: 0
Integration Time (sec): 2.000000E-2
Scans to average: 10
Electric dark correction enabled: true
Nonlinearity correction enabled: false
Boxcar width: 0
XAxis mode: Wavelengths
Number of Pixels in Spectrum: 2048
>>>>>Begin Spectral Data<<<<<
341.393	-8.23
341.776	-8.23
342.16	-8.23
342.543	-35.13
342.927	-56.82
343.31	-71.96
343.693	-74.9
344.077	-58.85
344.46	-43.26
344.843	-54.11
345.226	-41
345.61	-32.64
345.993	-7.78
346.376	-10.49
346.759	8.04
347.142	16.17
347.525	44.42
347.908	48.49
348.291	82.38
348.674	83.06
349.057	112.44
349.44	132.78
349.823	158.09
350.206	175.94
350.588	202.16
350.971	215.49
351.354	242.83
351.737	249.16
352.119	254.58
352.502	281.48
352.884	297.29
353.267	291.64
353.65	306.33
354.032	323.96
354.414	323.96
354.797	333.9
355.179	336.84
355.562	348.59
355.944	354.69
356.326	335.71
356.709	368.25
357.091	384.98
357.473	354.69
357.855	365.54
358.238	366.22
358.62	384.52
359.002	388.59
359.384	370.29
359.766	364.86
360.148	349.04
360.53	365.09
360.912	366.45
361.294	383.62
361.676	347.69
362.057	363.96
362.439	371.19
362.821	351.98
363.203	361.25
363.584	375.48
363.966	349.27
364.348	362.15
364.729	358.31
365.111	331.19
365.493	349.95
365.874	337.29
366.256	333.23
366.637	357.41
367.019	369.83
367.4	360.34
367.781	363.51
368.163	356.05
368.544	355.15
368.925	361.93
369.306	375.94
369.688	356.5
370.069	369.61
370.45	354.69
370.831	352.43
371.212	343.85
371.593	361.7
371.974	352.89
372.355	362.15
372.736	367.12
373.117	343.62
373.498	356.73
373.879	338.2
374.26	375.03
374.641	393.11
375.021	383.17
375.402	362.6
375.783	386.11
376.163	400.34
376.544	403.96
376.925	393.11
377.305	398.99
377.686	410.51
378.066	388.37
378.447	404.18
378.827	423.62
379.208	410.96
379.588	399.66
379.968	398.99
380.349	404.18
380.729	422.04
381.109	433.56
381.489	417.07
381.87	417.74
382.25	430.85
382.63	434.24
383.01	427.46
383.39	440.12
383.77	434.24
384.15	458.65
384.53	447.12
384.91	451.41
385.29	456.39
385.67	450.74
386.049	461.36
386.429	463.62
386.809	493.45
387.189	481.92
387.568	495.93
387.948	489.15
388.328	502.49
388.707	472.43
389.087	490.74
389.466	508.81
389.846	526.89
390.225	520.11
390.605	508.14
390.984	520.79
391.363	528.7
391.743	547.68
392.122	561.02
392.501	561.47
392.881	552.65
393.26	576.84
393.639	561.47
394.018	569.15
394.397	580.45
394.776	593.11
395.155	567.12
395.534	607.79
395.913	596.95
396.292	609.15
396.671	607.79
397.05	644.63
397.429	610.96
397.808	608.02
398.186	627.68
398.565	654.57
398.944	652.09
399.323	655.25
399.701	677.62
400.08	660.67
400.458	687.57
400.837	693.22
401.215	705.65
401.594	699.32
401.972	696.15
402.351	719.88
402.729	716.94
403.107	730.05
403.486	736.15
403.864	748.36
404.242	742.93
404.62	772.54
404.999	777.96
405.377	794.91
405.755	793.33
406.133	826.55
406.511	822.03
406.889	813.89
407.267	835.59
407.645	840.33
408.023	833.55
408.401	859.77
408.779	891.63
409.156	915.58
409.534	927.33
409.912	920.33
410.29	961.23
410.667	945.41
411.045	970.95
411.422	968.69
411.8	996.71
412.178	1027.67
412.555	1024.51
412.933	1051.62
413.31	1055.69
413.687	1067.67
414.065	1092.98
414.442	1093.66
414.819	1130.49
415.197	1135.69
415.574	1168.91
415.951	1157.84
416.328	1145.63
416.705	1169.59
417.082	1182.24
417.46	1193.54
417.837	1217.04
418.214	1249.13
418.591	1237.16
418.967	1271.96
419.344	1265.63
419.721	1311.51
420.098	1303.37
420.475	1319.64
420.852	1304.27
421.228	1337.72
421.605	1367.77
421.982	1371.16
422.358	1392.86
422.735	1435.57
423.111	1425.63
423.488	1499.07
423.864	1488.68
424.241	1488.22
424.617	1505.62
424.994	1512.63
425.37	1520.99
425.746	1559.86
426.123	1585.17
426.499	1574.32
426.875	1619.29
427.251	1661.33
427.627	1696.58
428.003	1703.81
428.379	1703.36
428.756	1792.4
429.132	1807.99
429.507	1783.13
429.883	1822.68
430.259	1854.54
430.635	1836.01
431.011	1871.26
431.387	1909.91
431.763	1925.05
432.138	1998.94
432.514	2045.05
432.89	2033.75
433.265	2092.73
433.641	2139.05
434.016	2120.75
434.392	2167.98
434.767	2177.7
435.143	2190.58
435.518	2197.81
435.894	2251.59
436.269	2298.37
436.644	2346.73
437.02	2353.96
437.395	2413.85
437.77	2440.51
438.145	2465.6
438.52	2502.21
438.895	2512.6
439.271	2507.41
439.646	2564.35
440.021	2602.09
440.395	2605.48
440.77	2592.15
441.145	2629.89
441.52	2679.15
441.895	2716.89
442.27	2775.87
442.645	2773.61
443.019	2828.75
443.394	2793.95
443.769	2864.23
444.143	2826.04
444.518	2901.07
444.892	2892.93
445.267	2967.05
445.641	2950.33
446.016	2976.09
446.39	2994.85
446.764	3033.04
447.139	3050.22
447.513	3081.85
447.887	3111.68
448.262	3141.74
448.636	3183.32
449.01	3194.39
449.384	3188.07
449.758	3224.45
450.132	3277.33
450.506	3261.96
450.88	3299.02
451.254	3353.49
451.628	3384.9
452.002	3447.95
452.376	3474.84
452.75	3543.08
453.123	3536.53
453.497	3603.65
453.871	3633.93
454.244	3750.99
454.618	3752.57
454.992	3776.75
455.365	3762.74
455.739	3902.62
456.112	3979.68
456.486	3968.61
456.859	4008.84
457.232	4140.58
457.606	4093.8
457.979	4196.63
458.352	4285.44
458.725	4334.7
459.099	4355.72
459.472	4467.58
459.845	4503.51
460.218	4501.48
460.591	4609.5
460.964	4621.02
461.337	4685.65
461.71	4777.4
462.083	4914.35
462.456	4905.08
462.829	4950.73
463.201	5021.92
463.574	5067.11
463.947	5161.12
464.32	5285.86
464.692	5331.74
465.065	5374
465.438	5464.84
465.81	5529.47
466.183	5510.72
466.555	5716.81
466.928	5710.26
467.3	5699.86
467.672	5867.54
468.045	6007.43
468.417	6009.69
468.789	6082.23
469.161	6229.57
469.534	6298.49
469.906	6434.99
470.278	6447.42
470.65	6523.57
471.022	6647.41
471.394	6798.14
471.766	6853.51
472.138	6902.32
472.51	7073.39
472.882	7232.71
473.253	7241.97
473.625	7388.86
473.997	7570.32
474.369	7678.34
474.74	7795.85
475.112	7927.6
475.484	8108.61
475.855	8191.78
476.227	8189.52
476.598	8444.42
476.97	8536.85
477.341	8723.74
477.713	8882.61
478.084	9014.81
478.455	9167.8
478.827	9277.62
479.198	9548.8
479.569	9575.47
479.94	9835.35
480.311	9999.41
480.682	10259.74
481.053	10493.41
481.424	10576.35
481.795	10684.59
482.166	10854.98
482.537	11081.19
482.908	11241.19
483.279	11301.75
483.65	11569.54
484.021	11753.49
484.391	11892.92
484.762	12110.09
485.133	12212.01
485.503	12425.11
485.874	12781.49
486.244	12870.07
486.615	13159.78
486.985	13263.51
487.356	13526.33
487.726	13635.02
488.097	13882.25
488.467	13978.52
488.837	14284.95
489.207	14463.02
489.578	14598.39
489.948	14779.85
490.318	14948.43
490.688	15054.19
491.058	15350.46
491.428	15613.05
491.798	15718.36
492.168	16139.59
492.538	16205.35
492.908	16476.98
493.278	16574.38
493.648	16705.45
494.017	16939.57
494.387	16996.74
494.757	17158.32
495.126	17381.14
495.496	17465.88
495.866	17539.78
496.235	17742.03
496.605	17984.51
496.974	18073.78
497.344	18275.8
497.713	18406.65
498.082	18611.62
498.452	18846.64
498.821	19008.21
499.19	19140.19
499.559	19343.57
499.928	19377.02
500.298	19539.5
500.667	19774.75
501.036	19661.31
501.405	19889.77
501.774	19885.03
502.143	20080.73
502.512	20207.28
502.88	20517.55
503.249	20437.1
503.618	20734.05
503.987	20805.91
504.356	20976.98
504.724	21177.2
505.093	21243.18
505.462	21407.93
505.83	21611.31
506.199	21826.45
506.567	22045.2
506.936	21967.46
507.304	22184.18
507.672	22317.05
508.041	22460.55
508.409	22710.26
508.777	22803.6
509.145	22883.59
509.514	22969.92
509.882	23241.1
510.25	23232.06
510.618	23514.31
510.986	23602.44
511.354	23989.78
511.722	24194.07
512.09	24377.34
512.458	24538.46
512.826	24725.13
513.193	24764
513.561	24849.87
513.929	25013.93
514.297	25118.34
514.664	25309.29
515.032	25374.38
515.4	25651.2
515.767	25671.09
516.135	25972.33
516.502	25699.79
516.869	26351.75
517.237	26535.93
517.604	26547
517.972	27006.87
518.339	27236.93
518.706	27253.87
519.073	27546.3
519.44	27848.21
519.808	28012.05
520.175	28009.56
520.542	28302.66
520.909	28543.11
521.276	28518.93
521.643	28698.13
522.009	28787.62
522.376	28968.86
522.743	29132.24
523.11	29521.84
523.477	29669.86
523.843	29769.97
524.21	30303.96
524.577	30607.46
524.943	30815.14
525.31	31078.63
525.676	31451.28
526.043	31726.07
526.409	31975.33
526.776	32172.84
527.142	32429.33
527.508	32563.11
527.874	32642.66
528.241	32707.06
528.607	32772.37
528.973	33118.8
529.339	33068.18
529.705	33380.94
530.071	33571.67
530.437	33657.32
530.803	34088.04
531.169	34176.63
531.535	34332.33
531.901	34538.43
532.267	34633.57
532.632	35137.51
532.998	35295.24
533.364	35619.53
533.73	35722.58
534.095	36050.03
534.461	36285.73
534.826	36387.19
535.192	36499.96
535.557	36651.59
535.923	36508.77
536.288	36619.5
536.653	36643.68
537.019	36572.95
537.384	36814.98
537.749	37026.72
538.114	37082.09
538.479	36984.69
538.845	37339.94
539.21	37339.03
539.575	37663.09
539.94	37928.4
540.305	38310.53
540.67	38176.98
541.034	38590.98
541.399	38800.69
541.764	38880.23
542.129	38961.36
542.494	39065.31
542.858	39041.13
543.223	39126.1
543.587	39352.54
543.952	39142.15
544.316	39348.47
544.681	39086.78
545.045	39199.1
545.41	39437.51
545.774	39543.72
546.138	39544.62
546.503	39631.85
546.867	39808.35
547.231	40195.91
547.595	40272.06
547.959	40477.25
548.324	40680.87
548.688	40999.28
549.052	41083.79
549.416	41328.53
549.779	41325.14
550.143	41383.22
550.507	41611.01
550.871	41607.62
551.235	41514.29
551.599	41697.34
551.962	41632.25
552.326	41704.34
552.689	41808.29
553.053	41601.75
553.417	41750.44
553.78	42234.04
554.143	42034.5
554.507	42133.26
554.87	42452.57
555.234	42794.48
555.597	42716.07
555.96	43088.26
556.323	43384.75
556.686	43479.21
557.05	43895.47
557.413	43936.15
557.776	44100.21
558.139	44430.82
558.502	44507.88
558.865	44529.13
559.228	44621.33
559.59	44647.99
559.953	44750.81
560.316	44980.41
560.679	44976.8
561.041	45011.15
561.404	45109.45
561.767	45343.12
562.129	45222.21
562.492	45591.24
562.854	45591.02
563.217	45763.22
563.579	45947.17
563.941	46252.24
564.304	46527.27
564.666	46809.97
565.028	47041.6
565.39	47283.4
565.753	47465.09
566.115	47540.35
566.477	47923.84
566.839	47983.95
567.201	48033.89
567.563	48087
567.925	48309.59
568.287	48245.41
568.648	48007.68
569.01	48261.01
569.372	48348.91
569.734	48116.6
570.095	48342.81
570.457	48458.97
570.819	48400.89
571.18	48534.9
571.542	48682.91
571.903	48847.66
572.265	48957.71
572.626	49141.43
572.987	49384.37
573.349	49560.86
573.71	49919.94
574.071	49972.82
574.432	50195.42
574.794	50453.04
575.155	50344.57
575.516	50262.76
575.877	50437.44
576.238	50467.05
576.599	50595.63
576.96	50528.74
577.32	50453.49
577.681	50596.76
578.042	50610.32
578.403	50612.36
578.763	50648.29
579.124	50679.92
579.485	50801.28
579.845	50634.5
580.206	50653.03
580.566	50846.02
580.927	50786.36
581.287	50966.24
581.648	50989.75
582.008	51262.51
582.368	51134.6
582.728	51453.46
583.089	51383.86
583.449	51440.13
583.809	51543.86
584.169	51626.79
584.529	51562.39
584.889	51866.79
585.249	51573.46
585.609	51496.85
585.969	51630.18
586.329	51453.92
586.688	51476.29
587.048	51289.63
587.408	51377.76
587.768	51271.32
588.127	51210.76
588.487	51185.22
588.846	51391.77
589.206	51176.18
589.565	51100.7
589.925	51321.49
590.284	51239.68
590.643	51352.45
591.003	51476.51
591.362	51605.55
591.721	51618.2
592.08	51744.08
592.44	51768.03
592.799	51844.41
593.158	51806.22
593.517	51986.1
593.876	52055.03
594.235	52000.79
594.593	52043.73
594.952	51981.36
595.311	51853.9
595.67	51953.79
596.029	52008.03
596.387	52017.74
596.746	51881.02
597.104	51770.74
597.463	51720.35
597.822	51785.21
598.18	51690.75
598.538	51701.37
598.897	51893
599.255	51562.39
599.613	52001.92
599.972	51794.92
600.33	52026.56
600.688	51944.3
601.046	52078.98
601.404	52219.09
601.762	52220.67
602.12	52456.37
602.478	52482.59
602.836	52535.24
603.194	52422.25
603.552	52661.79
603.91	52528.92
604.268	52594.22
604.625	52453.89
604.983	52646.43
605.341	52307.45
605.698	52451.63
606.056	52616.6
606.413	52457.5
606.771	52561.23
607.128	52462.02
607.485	52328.69
607.843	52368.92
608.2	52560.55
608.557	52614.56
608.914	52438.75
609.272	52545.64
609.629	52679.65
609.986	52732.3
610.343	52548.8
610.7	52837.61
611.057	52845.97
611.414	52892.97
611.771	52931.16
612.127	53068.79
612.484	53133.19
612.841	53235.79
613.198	53229.69
613.554	53305.84
613.911	53412.96
614.267	53514.2
614.624	53416.35
614.98	53500.64
615.337	53598.27
615.693	53501.77
616.05	53461.77
616.406	53581.32
616.762	53447.99
617.118	53483.47
617.475	53409.34
617.831	53456.57
618.187	53502
618.543	53437.14
618.899	53568.66
619.255	53527.99
619.611	53382.68
619.967	53524.14
620.323	53521.66
620.678	53398.05
621.034	53459.96
621.39	53475.78
621.746	53544.93
622.101	53734.99
622.457	53613.41
622.812	53646.17
623.168	53817.47
623.523	53746.96
623.879	53998.26
624.234	53847.98
624.589	53935.43
624.945	53982.89
625.3	53989.89
625.655	53931.36
626.01	53987.41
626.365	53950.12
626.72	53952.15
627.075	53737.7
627.43	53796.9
627.785	53787.87
628.14	53809.33
628.495	53680.07
628.85	53647.08
629.205	53562.33
629.559	53655.21
629.914	53482.79
630.269	53452.05
630.623	53437.82
630.978	53297.48
631.332	53367.99
631.687	53517.36
632.041	53416.8
632.396	53560.75
632.75	53403.92
633.104	53439.63
633.459	53366.41
633.813	53362.79
634.167	53373.64
634.521	53376.8
634.875	53421.32
635.229	53355.11
635.583	53361.21
635.937	53318.73
636.291	53335
636.645	53457.03
636.999	53322.34
637.352	53390.36
637.706	53234.21
638.06	53217.71
638.413	53096.13
638.767	52982.24
639.121	53057.26
639.474	52840.32
639.828	52782.92
640.181	52629.48
640.534	52600.78
640.888	52508.35
641.241	52343.61
641.594	52435.36
641.947	52492.31
642.301	52370.73
642.654	52455.92
643.007	52318.75
643.36	52313.1
643.713	52257.74
644.066	52458.18
644.419	52344.06
644.771	52297.51
645.124	52214.12
645.477	52189.49
645.83	52039.21
646.182	51744.76
646.535	51510.86
646.888	51427.02
647.24	51349.74
647.593	51506.12
647.945	51312
648.298	51266.12
648.65	51174.15
649.002	51071.1
649.355	51324.43
649.707	51248.72
650.059	51380.02
650.411	51827.24
650.763	51774.58
651.115	52021.13
651.467	51750.4
651.819	51645.1
652.171	51643.74
652.523	51543.63
652.875	51589.28
653.227	51356.06
653.578	51570.07
653.93	51488.72
654.282	51308.83
654.633	51145.22
654.985	51288.72
655.337	51448.49
655.688	51361.26
656.039	51416.63
656.391	51186.8
656.742	51390.41
657.094	51486.68
657.445	51594.7
657.796	51538.43
658.147	51600.35
658.498	51628.83
658.849	51702.5
659.2	51627.24
659.551	51586.79
659.902	51783.62
660.253	51615.72
660.604	51753.57
660.955	51577.3
661.306	51615.27
661.656	51549.73
662.007	51463.41
662.358	51286.01
662.708	51409.17
663.059	51321.72
663.409	51153.58
663.76	51367.82
664.11	51149.52
664.461	51066.13
664.811	50965.57
665.161	50927.38
665.511	50870.88
665.862	50852.35
666.212	50973.02
666.562	50939.8
666.912	50883.08
667.262	50795.63
667.612	50854.16
667.962	51043.53
668.312	50925.34
668.662	51146.13
669.011	51038.79
669.361	51090.76
669.711	51044.66
670.06	51052.12
670.41	51030.65
670.76	50993.81
671.109	51219.57
671.459	51132.57
671.808	51101.61
672.157	51136.18
672.507	51066.81
672.856	51005.57
673.205	51093.02
673.554	51133.92
673.904	51009.86
674.253	51028.16
674.602	50946.13
674.951	50415.3
675.3	50107.06
675.649	50518.12
675.998	50386.15
676.346	50385.24
676.695	50239.94
677.044	49885.82
677.393	50127.4
677.741	50054.63
678.09	49958.59
678.438	49730.57
678.787	49661.42
679.135	49758.59
679.484	49482.44
679.832	49805.6
680.181	49669.1
680.529	49759.04
680.877	49754.98
681.225	49712.04
681.573	49974.63
681.922	49796.11
682.27	49726.5
682.618	49925.37
682.966	49766.5
683.314	49924.24
683.661	49778.93
684.009	49644.7
684.357	49651.02
684.705	49598.82
685.053	49762.21
685.4	49611.48
685.748	49444.7
686.095	49379.62
686.443	49352.5
686.79	49223.47
687.138	49190.7
687.485	49135.11
687.832	48930.82
688.18	48849.92
688.527	48444.5
688.874	48436.37
689.221	48185.53
689.568	48016.94
689.915	48017.4
690.262	47971.75
690.609	47795.71
690.956	47531.76
691.303	47544.19
691.65	47226.23
691.997	47299
692.344	46968.61
692.69	46970.19
693.037	46899.46
693.383	46671.44
693.73	46813.13
694.077	46620.82
694.423	46589.86
694.769	46580.15
695.116	46513.25
695.462	46654.04
695.808	46609.07
696.155	46743.3
696.501	46529.53
696.847	46411.11
697.193	46181.06
697.539	46344.22
697.885	46153.49
698.231	45971.57
698.577	45928.19
698.923	45982.19
699.269	45849.32
699.614	45513.51
699.96	45368.65
700.306	45326.17
700.651	45149.67
700.997	44919.4
701.342	44575
701.688	44366.64
702.033	44264.95
702.379	44295.23
702.724	44037.39
703.069	44059.08
703.415	43609.38
703.76	43444.41
704.105	43444.18
704.45	43209.84
704.795	43107.69
705.14	42760.58
705.485	42620.93
705.83	42542.51
706.175	42670.87
706.52	42540.48
706.865	42403.76
707.209	42420.03
707.554	42360.82
707.899	42524.43
708.243	42404.89
708.588	42428.39
708.932	42177.55
709.277	42305.23
709.621	42305
709.966	42116.99
710.31	42334.61
710.654	42024.11
710.998	42124.44
711.342	42101.17
711.687	41987.5
712.031	42025.24
712.375	41890.55
712.719	41794.96
713.063	41473.84
713.407	41674.74
713.75	41497.12
714.094	41435.42
714.438	41254.18
714.782	41350.9
715.125	41128.76
715.469	41057.58
715.812	40704.37
716.156	40420.08
716.499	40444.04
716.843	40433.19
717.186	40130.6
717.53	40035.68
717.873	39920.43
718.216	39816.71
718.559	39721.34
718.902	39326.32
719.246	39594.11
719.589	39485.42
719.932	39238.42
720.275	39369.04
720.617	39303.5
720.96	39265.76
721.303	39103.28
721.646	39324.74
721.989	39127.46
722.331	39341.69
722.674	39393.22
723.016	39410.62
723.359	39476.83
723.701	39490.61
724.044	39408.58
724.386	39226.21
724.729	39354.35
725.071	39375.59
725.413	39362.03
725.755	39244.07
726.097	39196.16
726.439	39101.25
726.782	39073.22
727.124	39265.54
727.465	38987.8
727.807	39031.42
728.149	38798.43
728.491	38682.27
728.833	38748.03
729.175	38550.07
729.516	38516.63
729.858	38506.01
730.199	38346.46
730.541	38183.3
730.882	38103.98
731.224	38228.5
731.565	37976.76
731.906	37842.07
732.248	37912.12
732.589	37656.09
732.93	37512.59
733.271	37630.32
733.612	37569.76
733.953	37569.76
734.294	37317.11
734.635	37448.86
734.976	37426.49
735.317	37204.8
735.658	37447.05
735.999	37410.22
736.339	37504.23
736.68	37571.34
737.021	37464.23
737.361	37378.35
737.702	37547.84
738.042	37512.59
738.383	37594.39
738.723	37643.88
739.063	37557.56
739.404	37620.15
739.744	37708.06
740.084	37669.87
740.424	37711.23
740.764	37782.41
741.104	37849.98
741.444	37565.92
741.784	37690.44
742.124	37636.43
742.464	37712.13
742.804	37697.44
743.143	37557.11
743.483	37525.92
743.823	37244.12
744.162	37176.1
744.502	37325.02
744.841	37219.71
745.181	37349.65
745.52	37098.36
745.86	37196.44
746.199	37078.25
746.538	37089.1
746.877	37007.06
747.216	37205.02
747.556	36948.99
747.895	36975.2
748.234	36773.62
748.573	36901.98
748.911	36618.15
749.25	36828.31
749.589	36688.65
749.928	36573.85
750.267	36727.07
750.605	36757.8
750.944	36676.68
751.283	36716.9
751.621	36804.58
751.96	36792.15
752.298	36721.42
752.636	36931.59
752.975	36693.63
753.313	36842.77
753.651	36919.16
753.989	36881.19
754.327	36843.45
754.666	36685.04
755.004	37016.1
755.342	37062.43
755.679	37122.09
756.017	36917.12
756.355	37172.03
756.693	36847.97
757.031	37058.59
757.368	36897.24
757.706	37003
758.044	36858.82
758.381	36989.66
758.719	36838.71
759.056	37016.78
759.394	36815.66
759.731	36740.86
760.068	36627.86
760.405	36643.23
760.743	36388.1
761.08	36627.64
761.417	36248.67
761.754	36255.22
762.091	36327.31
762.428	36117.82
762.765	35962.8
763.102	35958.05
763.438	35791.73
763.775	35584.5
764.112	35603.94
764.449	35705.85
764.785	35435.13
765.122	35445.52
765.458	35176.15
765.795	35307.9
766.131	35369.37
766.467	35141.58
766.804	35091.18
767.14	34943.62
767.476	35095.48
767.812	34830.62
768.148	35077.4
768.485	34830.62
768.821	34725.99
769.157	34711.98
769.492	34577.07
769.828	34669.72
770.164	34311.09
770.5	34453.01
770.836	34515.6
771.171	34254.14
771.507	34218.21
771.842	34053.02
772.178	34071.77
772.513	34168.95
772.849	34042.62
773.184	33857.54
773.519	33846.24
773.855	33791.1
774.19	33506.36
774.525	33527.38
774.86	33468.63
775.195	33355.86
775.53	33350.21
775.865	33249.87
776.2	32978.92
776.535	32813.05
776.87	32778.93
777.205	32644.92
777.539	32447.18
777.874	32423.91
778.209	32103.24
778.543	32063.01
778.878	31807.43
779.212	31845.39
779.547	31707.09
779.881	31813.08
780.215	31535.12
780.55	31544.61
780.884	31223.71
781.218	31181.45
781.552	31145.97
781.886	30852.88
782.22	30737.62
782.554	30520.91
782.888	30383.96
783.222	30352.32
783.556	30216.28
783.889	30080.47
784.223	29790.08
784.557	29842.05
784.89	29998.21
785.224	29624.88
785.557	29770.42
785.891	29605.22
786.224	29468.28
786.558	29551.67
786.891	29341.05
787.224	29208.62
787.557	29183.77
787.891	29262.41
788.224	29120.27
788.557	29192.81
788.89	29115.75
789.223	29112.36
789.556	28911.46
789.888	28867.16
790.221	28882.31
790.554	28630.11
790.887	28574.29
791.219	28548.75
791.552	28405.26
791.884	28399.83
792.217	28214.07
792.549	28107.18
792.882	27901.09
793.214	27801.2
793.546	27834.2
793.879	27705.16
794.211	27740.19
794.543	27615.45
794.875	27442.12
795.207	27631.04
795.539	27306.3
795.871	27328.22
796.203	26881.45
796.535	26742.7
796.867	26881.91
797.198	26666.54
797.53	26648.92
797.862	26434.01
798.193	26433.78
798.525	26271.98
798.856	26250.96
799.188	26022.95
799.519	25903.4
799.85	25751.99
800.182	25652.56
800.513	25728.04
800.844	25429.06
801.175	25643.97
801.506	25647.81
801.837	25392
802.168	25297.54
802.499	25293.7
802.83	25264.55
803.161	25148.84
803.491	25162.63
803.822	25029.98
804.153	24895.97
804.483	24798.35
804.814	24743.66
805.145	24731.68
805.475	24763.77
805.805	24696.43
806.136	24726.26
806.466	24678.35
806.796	24523.55
807.126	24501.63
807.457	24448.07
807.787	24459.15
808.117	24327.4
808.447	24215.54
808.777	24381.18
809.107	24339.83
809.436	24241.07
809.766	24201.75
810.096	24124.69
810.426	24044.24
810.755	24016.22
811.085	23879.73
811.414	23820.29
811.744	23747.3
812.073	23670.69
812.403	23739.39
812.732	23568.55
813.061	23551.37
813.39	23287.2
813.719	23188.67
814.049	23338.04
814.378	23198.61
814.707	23032.06
815.036	23076.81
815.365	22976.92
815.693	22634.79
816.022	22722.92
816.351	22539.87
816.68	22433.21
817.008	22457.84
817.337	22214.68
817.665	22275.02
817.994	22359.09
818.322	22233.21
818.651	22003.39
818.979	21916.84
819.307	22011.98
819.636	21877.97
819.964	21822.6
820.292	21867.12
820.62	21914.35
820.948	21825.77
821.276	21899.21
821.604	21887.91
821.932	21822.6
822.259	21810.18
822.587	21757.52
822.915	21887.91
823.243	21914.58
823.57	21895.6
823.898	21984.18
824.225	21800.91
824.553	21875.94
824.88	21991.41
825.207	22023.28
825.535	21968.82
825.862	22071.41
826.189	21856.05
826.516	22079.77
826.843	22103.73
827.17	22223.5
827.497	22101.47
827.824	22208.13
828.151	22049.26
828.478	22096.72
828.805	22167.91
829.131	22156.38
829.458	22022.15
829.785	22028.7
830.111	22134.91
830.438	22103.05
830.764	22171.52
831.09	22178.98
831.417	21938.76
831.743	22173.78
832.069	22066.44
832.395	21986.89
832.722	22056.27
833.048	22020.79
833.374	21971.53
833.7	21787.35
834.026	21781.48
834.351	21919.55
834.677	21894.69
835.003	21801.14
835.329	21729.95
835.654	21707.8
835.98	21547.13
836.306	21517.3
836.631	21499.22
836.956	21476.62
837.282	21470.07
837.607	21251.55
837.932	21196.86
838.258	21164.09
838.583	21132.45
838.908	20996.19
839.233	20981.27
839.558	20886.58
839.883	20872.35
840.208	20776.98
840.533	20918.45
840.858	20876.87
841.182	20948.95
841.507	20902.18
841.832	20689.98
842.156	20699.47
842.481	20630.32
842.805	20640.71
843.13	20574.5
843.454	20605.91
843.778	20429.65
844.103	20477.78
844.427	20413.83
844.751	20448.4
845.075	20447.95
845.399	20437.56
845.723	20226.71
846.047	20306.49
846.371	20111.46
846.695	20141.97
847.019	20072.82
847.343	19982.43
847.666	19907.17
847.99	19970.22
848.313	19833.05
848.637	19798.48
848.96	19794.18
849.284	19760.06
849.607	19523.91
849.931	19492.95
850.254	19417.7
850.577	19241.66
850.9	19036.91
851.223	19108.78
851.546	19024.71
851.869	18869.01
852.192	19050.02
852.515	18723.93
852.838	18615.91
853.161	18683.03
853.483	18570.71
853.806	18549.92
854.129	18520.32
854.451	18296.37
854.774	18175.69
855.096	18126.2
855.419	17996.72
855.741	18103.83
856.063	17908.13
856.385	17852.54
856.708	17722.37
857.03	17697.51
857.352	17729.15
857.674	17601.25
857.996	17580.68
858.318	17415.49
858.64	17418.43
858.961	17292.55
859.283	17264.76
859.605	17172.78
859.926	17199.67
860.248	17108.83
860.57	16996.74
860.891	17022.05
861.212	16951.55
861.534	16872
861.855	16807.37
862.176	16787.93
862.498	16860.25
862.819	16911.32
863.14	16948.16
863.461	16850.31
863.782	16710.65
864.103	16824.09
864.424	16715.62
864.745	16828.61
865.065	16633.14
865.386	16643.31
865.707	16582.06
866.027	16653.93
866.348	16610.54
866.668	16701.38
866.989	16631.78
867.309	16609.86
867.63	16566.25
867.95	16652.34
868.27	16449.86
868.59	16614.38
868.91	16520.37
869.23	16480.15
869.55	16450.32
869.87	16540.26
870.19	16403.99
870.51	16500.48
870.83	16449.41
871.15	16343.43
871.469	16329.64
871.789	16345.01
872.109	16409.41
872.428	16192.7
872.748	16410.77
873.067	16255.52
873.386	16206.48
873.706	16153.37
874.025	16090.55
874.344	16006.71
874.663	16062.53
874.982	16030.21
875.301	15894.85
875.62	15802.88
875.939	15838.35
876.258	15734.85
876.577	15714.06
876.896	15685.59
877.214	15619.38
877.533	15558.59
877.852	15542.32
878.17	15516.1
878.489	15531.02
878.807	15393.17
879.125	15442.43
879.444	15395.88
879.762	15412.38
880.08	15323.79
880.398	15169.67
880.716	15283.57
881.034	15195.21
881.352	15157.69
881.67	15176.68
881.988	15129.9
882.306	15064.36
882.624	15013.74
882.941	15025.04
883.259	14897.36
883.577	14845.61
883.894	14871.15
884.212	14758.84
884.529	14911.83
884.846	14775.78
885.164	14820.3
885.481	14891.04
885.798	14800.19
886.115	14710.25
886.432	14733.3
886.75	14719.06
887.067	14798.16
887.383	14690.59
887.7	14685.39
888.017	14652.62
888.334	14764.71
888.651	14580.31
888.967	14641.78
889.284	14564.49
889.6	14528.33
889.917	14512.29
890.233	14501.67
890.55	14436.81
890.866	14487.66
891.182	14380.99
891.498	14366.53
891.815	14334.67
892.131	14327.43
892.447	14207.21
892.763	14197.72
893.079	14157.27
893.395	14102.81
893.71	14110.72
894.026	14084.95
894.342	14025.3
894.657	13966.09
894.973	13925.18
895.289	13814.45
895.604	13888.8
895.92	13698.3
896.235	13682.93
896.55	13551.86
896.865	13564.74
897.181	13507.57
897.496	13491.07
897.811	13414.69
898.126	13281.59
898.441	13221.7
898.756	13196.84
899.071	13181.48
899.386	13089.73
899.7	13006.34
900.015	12867.81
900.33	12717.08
900.644	12794.59
900.959	12790.75
901.273	12687.93
901.588	12646.12
901.902	12515.28
902.216	12465.11
902.531	12463.08
902.845	12430.99
903.159	12343.31
903.473	12351.21
903.787	12267.6
904.101	12170.2
904.415	12207.04
904.729	12080.26
905.042	12111.45
905.356	12097.44
905.67	12017.44
905.984	11989.19
906.297	12060.83
906.611	11915.97
906.924	11876.88
907.237	11830.55
907.551	11802.08
907.864	11747.39
908.177	11772.25
908.491	11749.65
908.804	11637.56
909.117	11576.77
909.43	11552.37
909.743	11525.47
910.056	11573.38
910.368	11491.58
910.681	11502.42
910.994	11487.28
911.307	11396.44
911.619	11372.71
911.932	11380.17
912.244	11244.35
912.557	11310.56
912.869	11258.81
913.181	11185.37
913.494	11178.82
913.806	11138.14
914.118	11082.1
914.43	11040.74
914.742	11013.4
915.054	10942.21
915.366	10877.13
915.678	10898.82
915.99	10905.83
916.302	10776.57
916.613	10683.24
916.925	10714.65
917.236	10669.45
917.548	10588.78
917.859	10621.09
918.171	10476.46
918.482	10491.15
918.794	10415.67
919.105	10381.1
919.416	10216.58
919.727	10312.85
920.038	10162.8
920.349	10101.78
920.66	9973.2
920.971	10014.1
921.282	9965.74
921.593	9837.16
921.903	9794.9
922.214	9739.98
922.525	9685.97
922.835	9651.17
923.146	9599.2
923.456	9539.76
923.767	9514.45
924.077	9448.01
924.387	9417.28
924.697	9364.85
925.008	9344.97
925.318	9341.8
925.628	9269.71
925.938	9175.03
926.248	9125.99
926.558	9031.98
926.867	9081.02
927.177	8989.72
927.487	9003.51
927.796	8950.4
928.106	8933.23
928.416	8848.26
928.725	8873.11
929.034	8767.13
929.344	8807.35
929.653	8729.84
929.962	8704.76
930.271	8651.88
930.581	8646.45
930.89	8683.97
931.199	8563.07
931.508	8615.04
931.817	8585.21
932.125	8499.79
932.434	8507.25
932.743	8436.52
933.051	8483.75
933.36	8384.54
933.669	8353.35
933.977	8339.12
934.286	8403.07
934.594	8315.84
934.902	8303.19
935.21	8205.34
935.519	8266.12
935.827	8289.4
936.135	8273.58
936.443	8136.86
936.751	8154.04
937.059	8116.52
937.367	8126.69
937.674	8129.63
937.982	8052.57
938.29	8016.87
938.597	8017.32
938.905	7881.5
939.213	7914.72
939.52	7836.76
939.827	7899.35
940.135	7735.74
940.442	7757.21
940.749	7670.89
941.056	7740.94
941.363	7523.09
941.67	7588.85
941.977	7553.15
942.284	7533.04
942.591	7500.72
942.898	7431.8
943.205	7407.84
943.511	7306.83
943.818	7300.05
944.125	7212.82
944.431	7199.49
944.738	7176.66
945.044	7155.19
945.35	7105.7
945.657	7050.56
945.963	7067.51
946.269	7022.09
946.575	6982.32
946.881	6891.25
947.187	6912.94
947.493	6864.35
947.799	6795.65
948.105	6836.56
948.41	6798.37
948.716	6745.49
949.022	6662.1
949.327	6606.06
949.633	6569.67
949.938	6529.67
950.244	6546.85
950.549	6444.48
950.854	6478.37
951.16	6471.14
951.465	6382.33
951.77	6378.94
952.075	6350.47
952.38	6311.37
952.685	6294.65
952.99	6275.67
953.294	6298.27
953.599	6222.34
953.904	6251.49
954.209	6200.19
954.513	6191.38
954.818	6138.27
955.122	6127.88
955.426	6129.23
955.731	6093.98
956.035	6086.07
956.339	6056.92
956.643	6003.59
956.948	5987.77
957.252	6018.5
957.556	5990.25
957.86	5893.53
958.163	5949.12
958.467	5915.45
958.771	5895.11
959.075	5902.34
959.378	5879.07
959.682	5879.07
959.985	5769.92
960.289	5766.76
960.592	5768.79
960.896	5764.95
961.199	5765.63
961.502	5672.07
961.805	5676.36
962.108	5683.37
962.411	5653.31
962.714	5635.91
963.017	5652.86
963.32	5646.08
963.623	5556.82
963.926	5556.14
964.228	5517.04
964.531	5507.55
964.833	5438.4
965.136	5451.06
965.438	5425.3
965.741	5431.62
966.043	5409.48
966.345	5320.89
966.648	5336.94
966.95	5293.77
967.252	5284.06
967.554	5250.61
967.856	5228.24
968.158	5109.15
968.46	5143.95
968.761	5101.01
969.063	5088.58
969.365	5029.37
969.666	5050.16
969.968	4988.92
970.269	4971.75
970.571	4892.65
970.872	4908.7
971.174	4862.37
971.475	4923.61
971.776	4837.51
972.077	4758.87
972.378	4800.45
972.679	4764.75
972.98	4715.94
973.281	4708.93
973.582	4681.13
973.883	4670.51
974.183	4600.68
974.484	4577.63
974.785	4581.7
975.085	4542.83
975.386	4606.79
975.686	4530.86
975.986	4481.14
976.287	4506
976.587	4441.82
976.887	4444.53
977.187	4398.43
977.487	4406.56
977.787	4376.06
978.087	4357.3
978.387	4343.74
978.687	4289.28
978.987	4266.46
979.286	4246.34
979.586	4242.28
979.885	4233.46
980.185	4221.03
980.484	4223.97
980.784	4202.73
981.083	4197.98
981.382	4161.6
981.682	4134.71
981.981	4107.36
982.28	4156.18
982.579	4116.86
982.878	4145.1
983.177	4092.22
983.475	4080.47
983.774	4027.14
984.073	4042.51
984.372	4089.74
984.67	4002.28
984.969	4015.84
985.267	4035.73
985.566	3965.22
985.864	3990.3
986.162	3917.76
986.461	3952.11
986.759	3940.36
987.057	3892.68
987.355	3899.23
987.653	3909.18
987.951	3840.93
988.249	3866.47
988.547	3809.97
988.844	3795.28
989.142	3784.21
989.44	3778.33
989.737	3749.41
990.035	3725.9
990.332	3732.01
990.63	3708.5
990.927	3644.1
991.224	3668.28
991.521	3652.91
991.819	3635.51
992.116	3595.51
992.413	3619.69
992.71	3558
993.006	3560.26
993.303	3519.81
993.6	3500.83
993.897	3522.29
994.193	3463.54
994.49	3462.86
994.787	3405.91
995.083	3407.72
995.379	3381.73
995.676	3365.46
995.972	3371.34
996.268	3319.14
996.565	3341.06
996.861	3321.85
997.157	3274.39
997.453	3276.43
997.749	3254.28
998.044	3201.85
998.34	3218.57
998.636	3177.44
998.932	3164.11
999.227	3132.93
999.523	3143.1
999.818	3107.84
1000.114	3077.33
1000.409	3075.75
1000.704	3017.67
1001	3011.57
1001.295	3009.99
1001.59	2969.77
1001.885	2982.42
1002.18	2940.39
1002.475	2950.78
1002.77	2932.25
1003.065	2868.3
1003.359	2916.43
1003.654	2868.75
1003.949	2873.27
1004.243	2802.99
1004.538	2798.47
1004.832	2819.49
1005.127	2778.36
1005.421	2763.22
1005.715	2772.26
1006.009	2749.43
1006.304	2733.84
1006.598	2680.28
1006.892	2683.9
1007.186	2640.28
1007.48	2620.85
1007.773	2654.75
1008.067	2614.75
1008.361	2591.92
1008.655	2609.78
1008.948	2611.58
1009.242	2598.48
1009.535	2562.55
1009.829	2579.49
1010.122	2531.81
1010.415	2557.8
1010.708	2554.64
1011.001	2517.35
1011.295	2506.73
1011.588	2506.05
1011.881	2492.26
1012.173	2504.24
1012.466	2482.77
1012.759	2471.02
1013.052	2412.95
1013.344	2400.06
1013.637	2398.26
1013.93	2405.26
1014.222	2380.4
1014.514	2364.58
1014.807	2358.48
1015.099	2341.08
1015.391	2317.81
1015.683	2308.54
1015.976	2291.37
1016.268	2278.03
1016.56	2253.4
1016.851	2251.59
1017.143	2250.01
1017.435	2218.37
1017.727	2221.54
1018.018	2206.85
1018.31	2181.09
1018.602	2188.32
1018.893	2154.87
1019.185	2156.91
1019.476	2112.61
1019.767	2152.84
1020.058	2102.22
1020.35	2078.72
1020.641	2064.48
1020.932	2055.89
1021.223	2046.85
1021.514	2024.48
1021.804	2025.61
1022.095	1998.49
1022.386	1972.05
1022.677	1964.82
1022.967	1939.96
1023.258	1947.19
1023.548	1926.86
1023.839	1927.99
1024.129	1876.01
1024.419	1886.86
1024.709	1850.25
1025	1851.6
1025.29	1868.1
1025.58	1839.85
1025.87	1776.13
1026.16	1789.68
1026.449	1762.34
1026.739	1763.24
1027.029	1760.31
1027.319	1747.2
1027.608	1735.45
1027.898	1746.3
1028.187	1709.91
1028.477	1695.45
1028.766	1666.07
1029.055	1659.52
1029.344	1663.59
1029.634	1645.28
1029.923	1629.91
1030.212	1628.33
1030.501	1604.38
1030.79	1600.31
1031.078	1580.2
1031.367	1575.68
1031.656	1547.43
1031.945	1543.59
1032.233	1543.59
1032.522	1524.83
1032.81	1536.13
1033.099	1523.93
1033.387	1500.2
1033.675	1472.86
1033.963	1480.09
1034.251	1468.11
1034.54	1476.47
1034.828	1452.07
1035.116	1454.78
1035.403	1451.16
1035.691	1410.94
1035.979	1423.37
1036.267	1399.64
1036.554	1396.25
1036.842	1379.3
1037.129	1377.04
1037.417	1393.31
1037.704	1374.33
1037.992	1360.54
1038.279	1344.27
1038.566	1309.47
1038.853	1309.47
1039.14	1309.47
