Data from blue_surface_keyboard_FLMS001491_053.txt Node
Date: Tue Feb 07 11:13:19 GMT 2017
User: dcchb
Spectrometer: FLMS00149
Trigger mode: 0
Integration Time (sec): 2.000000E-2
Scans to average: 10
Electric dark correction enabled: true
Nonlinearity correction enabled: false
Boxcar width: 0
XAxis mode: Wavelengths
Number of Pixels in Spectrum: 2048
>>>>>Begin Spectral Data<<<<<
341.393	-5.73
341.776	-5.73
342.16	-5.73
342.543	-79.18
342.927	-42.57
343.31	-55.68
343.693	-73.3
344.077	-76.69
344.46	-73.76
344.843	-81.21
345.226	-28.11
345.61	-26.3
345.993	-13.64
346.376	-21.78
346.759	14.83
347.142	30.2
347.525	39.46
347.908	50.76
348.291	86.01
348.674	102.51
349.057	126.69
349.44	121.95
349.823	137.99
350.206	168.95
350.588	163.75
350.971	178.44
351.354	175.5
351.737	216.18
352.119	239.68
352.502	253.02
352.884	236.52
353.267	260.25
353.65	261.15
354.032	272.22
354.414	272.45
354.797	283.98
355.179	289.4
355.562	293.92
355.944	313.58
356.326	319.45
356.709	312.22
357.091	296.86
357.473	315.61
357.855	308.61
358.238	320.81
358.62	319.45
359.002	295.95
359.384	309.06
359.766	311.32
360.148	310.19
360.53	307.7
360.912	314.94
361.294	313.81
361.676	314.94
362.057	307.93
362.439	313.81
362.821	288.04
363.203	311.32
363.584	285.78
363.966	285.56
364.348	294.6
364.729	280.13
365.111	289.17
365.493	296.18
365.874	292.79
366.256	293.47
366.637	291.66
367.019	282.39
367.4	279
367.781	289.4
368.163	293.92
368.544	304.09
368.925	272.68
369.306	284.43
369.688	293.01
370.069	276.29
370.45	273.35
370.831	279.46
371.212	293.69
371.593	288.72
371.974	295.73
372.355	283.3
372.736	268.16
373.117	277.42
373.498	291.66
373.879	286.46
374.26	284.88
374.641	300.47
375.021	288.95
375.402	295.27
375.783	308.38
376.163	294.82
376.544	283.3
376.925	273.35
377.305	306.57
377.686	301.6
378.066	302.73
378.447	294.82
378.827	295.5
379.208	270.42
379.588	310.87
379.968	304.31
380.349	298.44
380.729	303.41
381.109	299.57
381.489	310.87
381.87	292.79
382.25	278.33
382.63	286.46
383.01	302.28
383.39	301.38
383.77	291.21
384.15	306.8
384.53	319.68
384.91	282.39
385.29	308.61
385.67	297.08
386.049	300.92
386.429	311.55
386.809	302.96
387.189	314.48
387.568	326.69
387.948	320.36
388.328	299.57
388.707	326.91
389.087	304.99
389.466	317.2
389.846	338.89
390.225	324.43
390.605	290.76
390.984	316.07
391.363	326.46
391.743	309.29
392.122	316.74
392.501	307.48
392.881	324.88
393.26	321.26
393.639	324.65
394.018	318.78
394.397	325.1
394.776	329.4
395.155	305.67
395.534	324.65
395.913	304.54
396.292	342.51
396.671	316.97
397.05	342.51
397.429	325.1
397.808	317.42
398.186	336.18
398.565	329.17
398.944	341.6
399.323	340.25
399.701	330.75
400.08	344.54
400.458	337.08
400.837	338.66
401.215	321.71
401.594	325.56
401.972	332.79
402.351	338.89
402.729	353.35
403.107	359.68
403.486	363.52
403.864	336.86
404.242	335.05
404.62	357.87
404.999	364.43
405.377	382.96
405.755	345.67
406.133	351.32
406.511	360.36
406.889	365.33
407.267	383.18
407.645	360.36
408.023	359.23
408.401	374.14
408.779	361.71
409.156	373.69
409.534	380.47
409.912	362.39
410.29	377.53
410.667	349.51
411.045	359.23
411.422	370.53
411.8	387.25
412.178	394.48
412.555	376.4
412.933	378.66
413.31	364.88
413.687	368.95
414.065	382.5
414.442	363.97
414.819	384.31
415.197	385.44
415.574	397.19
415.951	392.45
416.328	403.52
416.705	382.05
417.082	406.46
417.46	380.7
417.837	384.31
418.214	387.25
418.591	388.61
418.967	431.09
419.344	403.29
419.721	383.63
420.098	404.42
420.475	414.59
420.852	429.96
421.228	412.79
421.605	385.89
421.982	400.36
422.358	399.45
422.735	434.48
423.111	402.84
423.488	404.42
423.864	413.01
424.241	427.25
424.617	419.57
424.994	412.11
425.37	424.08
425.746	413.92
426.123	422.28
426.499	418.89
426.875	424.31
427.251	418.89
427.627	438.77
428.003	436.74
428.379	429.06
428.756	455.72
429.132	422.5
429.507	445.55
429.883	446.91
430.259	446.91
430.635	429.28
431.011	445.1
431.387	445.1
431.763	466.57
432.138	460.47
432.514	468.83
432.89	464.99
433.265	469.28
433.641	478.77
434.016	483.97
434.392	482.61
434.767	467.7
435.143	464.31
435.518	469.06
435.894	476.51
436.269	479.9
436.644	502.5
437.02	489.85
437.395	520.13
437.77	496.63
438.145	510.64
438.52	502.27
438.895	486.91
439.271	504.08
439.646	481.48
440.021	515.16
440.395	494.59
440.77	516.06
441.145	489.85
441.52	516.96
441.895	513.57
442.27	523.52
442.645	516.96
443.019	503.86
443.394	524.65
443.769	521.26
444.143	543.18
444.518	526.46
444.892	528.94
445.267	540.01
445.641	546.12
446.016	536.17
446.39	564.65
446.764	540.47
447.139	543.18
447.513	540.92
447.887	541.6
448.262	543.18
448.636	576.85
449.01	578.88
449.384	565.55
449.758	561.26
450.132	556.74
450.506	570.75
450.88	595.38
451.254	581.14
451.628	577.08
452.002	568.49
452.376	611.65
452.75	594.02
453.123	570.07
453.497	577.3
453.871	563.06
454.244	608.03
454.618	602.84
454.992	619.56
455.365	590.18
455.739	605.1
456.112	615.94
456.486	641.48
456.859	637.19
457.232	630.41
457.606	624.53
457.979	617.75
458.352	638.77
458.725	647.58
459.099	628.15
459.472	644.64
459.845	650.07
460.218	673.8
460.591	644.42
460.964	666.56
461.337	662.04
461.71	660.46
462.083	682.38
462.456	668.6
462.829	660.69
463.201	680.8
463.574	686.9
463.947	671.76
464.32	695.72
464.692	698.2
465.065	704.3
465.438	708.37
465.81	731.65
466.183	725.55
466.555	721.25
466.928	716.51
467.3	742.27
467.672	757.18
468.045	743.4
468.417	730.07
468.789	749.73
469.161	753.34
469.534	767.58
469.906	766.9
470.278	767.13
470.65	769.16
471.022	791.31
471.394	775.04
471.766	800.8
472.138	777.3
472.51	825.43
472.882	817.75
473.253	840.8
473.625	849.38
473.997	848.93
474.369	825.88
474.74	827.46
475.112	849.16
475.484	861.14
475.855	882.6
476.227	885.77
476.598	909.95
476.97	913.79
477.341	934.35
477.713	914.92
478.084	935.26
478.455	937.74
478.827	949.95
479.198	950.17
479.569	958.99
479.94	984.07
480.311	1001.24
480.682	1018.19
481.053	1025.43
481.424	1008.7
481.795	1032.43
482.166	993.11
482.537	1047.8
482.908	1050.74
483.279	1069.27
483.65	1052.77
484.021	1064.52
484.391	1112.88
484.762	1088.02
485.133	1093.9
485.503	1118.98
485.874	1142.71
486.244	1130.28
486.615	1142.48
486.985	1154.24
487.356	1146.33
487.726	1160.79
488.097	1175.03
488.467	1177.96
488.837	1179.77
489.207	1194.46
489.578	1215.25
489.948	1231.52
490.318	1223.39
490.688	1225.19
491.058	1219.77
491.428	1250.96
491.798	1248.92
492.168	1260
492.538	1273.55
492.908	1263.84
493.278	1281.01
493.648	1316.94
494.017	1268.81
494.387	1288.47
494.757	1301.8
495.126	1319.2
495.496	1329.15
495.866	1333.67
496.235	1342.93
496.605	1332.54
496.974	1326.21
497.344	1325.76
497.713	1342.7
498.082	1354.91
498.452	1344.29
498.821	1336.6
499.19	1357.39
499.559	1359.65
499.928	1368.47
500.298	1359.65
500.667	1391.29
501.036	1393.55
501.405	1407.79
501.774	1366.88
502.143	1390.39
502.512	1406.43
502.88	1418.18
503.249	1381.57
503.618	1389.48
503.987	1392.87
504.356	1422.25
504.724	1436.71
505.093	1431.74
505.462	1426.54
505.83	1435.36
506.199	1398.3
506.567	1443.72
506.936	1430.39
507.304	1464.28
507.672	1445.98
508.041	1449.37
508.409	1453.21
508.777	1432.42
509.145	1443.49
509.514	1446.66
509.882	1445.53
510.25	1467.67
510.618	1466.77
510.986	1463.38
511.354	1450.27
511.722	1493.66
512.09	1498.86
512.458	1484.4
512.826	1475.58
513.193	1478.07
513.561	1485.98
513.929	1474.9
514.297	1512.42
514.664	1508.35
515.032	1503.83
515.4	1523.72
515.767	1486.66
516.135	1510.61
516.502	1533.89
516.869	1518.29
517.237	1531.4
517.604	1520.78
517.972	1514.68
518.339	1527.56
518.706	1549.25
519.073	1514.45
519.44	1526.65
519.808	1546.99
520.175	1548.35
520.542	1532.98
520.909	1527.33
521.276	1577.95
521.643	1568.69
522.009	1561.46
522.376	1557.16
522.743	1557.39
523.11	1580.66
523.477	1576.6
523.843	1622.7
524.21	1579.31
524.577	1588.57
524.943	1601.46
525.31	1596.48
525.676	1610.95
526.043	1599.65
526.409	1609.82
526.776	1643.04
527.142	1612.08
527.508	1621.79
527.874	1638.97
528.241	1630.38
528.607	1627.22
528.973	1608.01
529.339	1651.85
529.705	1628.12
530.071	1666.76
530.437	1646.2
530.803	1634.45
531.169	1650.49
531.535	1657.05
531.901	1655.92
532.267	1688.68
532.632	1695.69
532.998	1666.99
533.364	1658.85
533.73	1680.32
534.095	1679.65
534.461	1677.16
534.826	1718.51
535.192	1651.4
535.557	1712.86
535.923	1673.77
536.288	1691.62
536.653	1681.9
537.019	1690.27
537.384	1649.59
537.749	1666.99
538.114	1687.33
538.479	1692.07
538.845	1674.67
539.21	1669.7
539.575	1699.98
539.94	1664.5
540.305	1695.24
540.67	1689.81
541.034	1723.71
541.399	1682.36
541.764	1693.66
542.129	1691.85
542.494	1671.74
542.858	1678.06
543.223	1683.94
543.587	1727.1
543.952	1706.31
544.316	1697.72
544.681	1718.74
545.045	1715.58
545.41	1690.49
545.774	1704.96
546.138	1729.59
546.503	1700.44
546.867	1688.23
547.231	1726.2
547.595	1716.93
547.959	1715.12
548.324	1721.45
548.688	1703.37
549.052	1737.04
549.416	1705.18
549.779	1730.94
550.143	1725.97
550.507	1733.2
550.871	1720.55
551.235	1739.08
551.599	1732.75
551.962	1730.94
552.326	1728.23
552.689	1733.2
553.053	1726.88
553.417	1718.51
553.78	1730.49
554.143	1730.27
554.507	1754.67
554.87	1761.45
555.234	1732.75
555.597	1744.05
555.96	1772.98
556.323	1758.06
556.686	1759.64
557.05	1750.38
557.413	1759.19
557.776	1726.65
558.139	1760.32
558.502	1752.86
558.865	1772.75
559.228	1762.81
559.59	1788.12
559.953	1763.71
560.316	1770.49
560.679	1769.13
561.041	1816.59
561.404	1776.59
561.767	1776.82
562.129	1739.98
562.492	1764.61
562.854	1781.11
563.217	1797.38
563.579	1822.24
563.941	1796.03
564.304	1821.11
564.666	1810.04
565.028	1789.92
565.39	1783.37
565.753	1822.47
566.115	1828.79
566.477	1824.27
566.839	1831.96
567.201	1842.13
567.563	1820.21
567.925	1850.94
568.287	1814.78
568.648	1836.48
569.01	1827.89
569.372	1864.27
569.734	1889.81
570.095	1844.39
570.457	1899.98
570.819	1877.83
571.18	1856.36
571.542	1865.63
571.903	1845.97
572.265	1878.28
572.626	1839.64
572.987	1854.33
573.349	1851.17
573.71	1906.76
574.071	1864.95
574.432	1873.31
574.794	1897.94
575.155	1913.99
575.516	1904.72
575.877	1890.71
576.238	1892.29
576.599	1902.46
576.96	1909.24
577.32	1887.32
577.681	1900.66
578.042	1909.47
578.403	1915.57
578.763	1912.18
579.124	1911.73
579.485	1928.68
579.845	1913.09
580.206	1918.96
580.566	1899.07
580.927	1900.43
581.287	1926.42
581.648	1936.59
582.008	1918.06
582.368	1916.02
582.728	1923.03
583.089	1918.06
583.449	1927.55
583.809	1915.12
584.169	1934.55
584.529	1899.75
584.889	1904.27
585.249	1905.18
585.609	1928.23
585.969	1887.32
586.329	1890.49
586.688	1925.29
587.048	1915.12
587.408	1915.57
587.768	1932.75
588.127	1928.23
588.487	1926.19
588.846	1937.72
589.206	1901.33
589.565	1933.2
589.925	1903.37
590.284	1909.24
590.643	1931.84
591.003	1911.05
591.362	1928.9
591.721	1954.67
592.08	1924.38
592.44	1943.37
592.799	1974.33
593.158	1969.81
593.517	1977.04
593.876	1928
594.235	1920.32
594.593	1937.94
594.952	1931.16
595.311	1931.16
595.67	1951.05
596.029	1966.64
596.387	1949.69
596.746	1994.21
597.104	1950.15
597.463	1956.02
597.822	1992.41
598.18	1959.64
598.538	1918.28
598.897	1967.55
599.255	1976.81
599.613	1949.69
599.972	1966.42
600.33	1968
600.688	1979.52
601.046	1982.24
601.404	1993.99
601.762	1956.02
602.12	1989.92
602.478	1996.7
602.836	1979.3
603.194	2006.42
603.552	1967.1
603.91	2017.94
604.268	1991.5
604.625	1992.63
604.983	1988.56
605.341	1966.64
605.698	1982.91
606.056	2001.44
606.413	2018.85
606.771	2009.13
607.128	2008.22
607.485	2011.16
607.843	1985.4
608.2	2034.21
608.557	2012.74
608.914	2015.91
609.272	2035.12
609.629	2038.05
609.986	2057.04
610.343	2056.13
610.7	2026.08
611.057	2061.33
611.414	2050.03
611.771	2032.4
612.127	2067.43
612.484	2023.82
612.841	2077.37
613.198	2043.48
613.554	2038.73
613.911	2076.7
614.267	2080.76
614.624	2062.91
614.98	2057.49
615.337	2082.8
615.693	2121.44
616.05	2088
616.406	2095.68
616.762	2082.57
617.118	2077.83
617.475	2070.6
617.831	2086.87
618.187	2107.88
618.543	2113.31
618.899	2080.31
619.255	2094.78
619.611	2128.9
619.967	2127.32
620.323	2123.93
620.678	2133.64
621.034	2113.98
621.39	2125.28
621.746	2148.11
622.101	2134.55
622.457	2144.49
622.812	2163.02
623.168	2158.5
623.523	2177.49
623.879	2146.3
624.234	2157.15
624.589	2146.07
624.945	2110.59
625.3	2159.41
625.655	2189.69
626.01	2190.59
626.365	2210.48
626.72	2167.09
627.075	2188.56
627.43	2186.52
627.785	2154.66
628.14	2172.06
628.495	2199.18
628.85	2203.25
629.205	2193.98
629.559	2217.48
629.914	2197.82
630.269	2199.63
630.623	2189.91
630.978	2203.02
631.332	2212.06
631.687	2220.2
632.041	2173.19
632.396	2215.45
632.75	2188.56
633.104	2223.81
633.459	2236.24
633.813	2232.4
634.167	2243.7
634.521	2229.69
634.875	2229.01
635.229	2227.43
635.583	2238.95
635.937	2225.39
636.291	2273.53
636.645	2253.42
636.999	2249.8
637.352	2251.16
637.706	2260.87
638.06	2297.71
638.413	2265.39
638.767	2260.65
639.121	2283.25
639.474	2292.51
639.828	2284.37
640.181	2299.97
640.534	2320.53
640.888	2283.92
641.241	2328.67
641.594	2354.43
641.947	2319.18
642.301	2347.42
642.654	2374.99
643.007	2355.79
643.36	2374.54
643.713	2329.12
644.066	2359.4
644.419	2377.03
644.771	2363.02
645.124	2348.78
645.477	2365.95
645.83	2336.35
646.182	2354.66
646.535	2353.3
646.888	2345.39
647.24	2337.71
647.593	2361.89
647.945	2407.76
648.298	2396.91
648.65	2370.25
649.002	2394.43
649.355	2441.66
649.707	2421.32
650.059	2398.04
650.411	2427.87
650.763	2459.29
651.115	2523.92
651.467	2521.88
651.819	2528.89
652.171	2528.66
652.523	2503.13
652.875	2521.43
653.227	2535.89
653.578	2566.4
653.93	2579.06
654.282	2536.57
654.633	2593.07
654.985	2594.65
655.337	2590.81
655.688	2632.39
656.039	2639.62
656.391	2619.51
656.742	2631.26
657.094	2638.72
657.445	2669.9
657.796	2697.47
658.147	2686.4
658.498	2696.57
658.849	2685.49
659.2	2696.57
659.551	2699.28
659.902	2713.97
660.253	2756.9
660.604	2761.88
660.955	2757.58
661.306	2772.5
661.656	2768.2
662.007	2845.94
662.358	2834.42
662.708	2845.04
663.059	2840.74
663.409	2843.46
663.76	2901.53
664.11	2876.22
664.461	2912.38
664.811	2939.72
665.161	2931.36
665.511	2917.8
665.862	2951.7
666.212	2984.02
666.562	2999.16
666.912	3032.15
667.262	2982.66
667.612	3023.34
667.962	3003.68
668.312	3075.54
668.662	3067.41
669.011	3057.46
669.361	3112.83
669.711	3098.59
670.06	3085.71
670.41	3112.83
670.76	3118.48
671.109	3138.14
671.459	3172.04
671.808	3157.8
672.157	3188.08
672.507	3174.07
672.856	3219.94
673.205	3203.22
673.554	3219.27
673.904	3263.11
674.253	3265.14
674.602	3248.87
674.951	3255.65
675.3	3234.63
675.649	3325.25
675.998	3329.55
676.346	3327.29
676.695	3365.93
677.044	3334.52
677.393	3339.26
677.741	3364.8
678.09	3388.07
678.438	3387.62
678.787	3399.37
679.135	3415.64
679.484	3376.32
679.832	3440.73
680.181	3426.72
680.529	3429.43
680.877	3454.74
681.225	3481.18
681.573	3463.78
681.922	3521.4
682.27	3485.47
682.618	3490.9
682.966	3504.91
683.314	3520.95
683.661	3509.88
684.009	3495.19
684.357	3553.04
684.705	3565.7
685.053	3566.38
685.4	3591.69
685.748	3571.35
686.095	3596.43
686.443	3595.3
686.79	3571.57
687.138	3568.86
687.485	3635.53
687.832	3602.08
688.18	3617.9
688.527	3628.52
688.874	3646.37
689.221	3621.29
689.568	3655.86
689.915	3613.38
690.262	3631.23
690.609	3614.74
690.956	3654.51
691.303	3633.94
691.65	3658.58
691.997	3640.27
692.344	3639.59
692.69	3622.87
693.037	3636.88
693.383	3683.43
693.73	3682.08
694.077	3665.13
694.423	3635.98
694.769	3672.36
695.116	3681.4
695.462	3668.07
695.808	3673.04
696.155	3723.66
696.501	3650.21
696.847	3672.59
697.193	3671.23
697.539	3671.46
697.885	3638.01
698.231	3654.73
698.577	3633.49
698.923	3661.06
699.269	3658.8
699.614	3649.08
699.96	3657.22
700.306	3652.47
700.651	3638.24
700.997	3645.24
701.342	3649.31
701.688	3630.1
702.033	3626.71
702.379	3649.08
702.724	3657.9
703.069	3651.12
703.415	3642.76
703.76	3626.94
704.105	3621.97
704.45	3600.5
704.795	3588.3
705.14	3626.71
705.485	3633.72
705.83	3594.4
706.175	3616.77
706.52	3585.13
706.865	3605.47
707.209	3607.05
707.554	3551.46
707.899	3593.72
708.243	3589.65
708.588	3589.43
708.932	3563.89
709.277	3572.02
709.621	3564.79
709.966	3537
710.31	3574.06
710.654	3529.99
710.998	3534.51
711.342	3550.1
711.687	3555.08
712.031	3541.52
712.375	3533.38
712.719	3551.46
713.063	3554.62
713.407	3548.75
713.75	3543.55
714.094	3556.88
714.438	3541.07
714.782	3577.22
715.125	3513.04
715.469	3529.54
715.812	3515.76
716.156	3556.21
716.499	3553.95
716.843	3525.02
717.186	3499.94
717.53	3533.38
717.873	3546.94
718.216	3528.18
718.559	3546.49
718.902	3518.69
719.246	3541.07
719.589	3522.53
719.932	3509.2
720.275	3539.03
720.617	3502.42
720.96	3482.99
721.303	3507.62
721.646	3493.83
721.989	3499.71
722.331	3536.09
722.674	3492.03
723.016	3512.59
723.359	3530.44
723.701	3522.08
724.044	3525.47
724.386	3533.38
724.729	3503.55
725.071	3489.09
725.413	3563.21
725.755	3531.57
726.097	3503.78
726.439	3506.26
726.782	3517.56
727.124	3511.91
727.465	3524.57
727.807	3530.67
728.149	3511.69
728.491	3504.68
728.833	3529.77
729.175	3548.52
729.516	3502.87
729.858	3536.32
730.199	3527.28
730.541	3554.17
730.882	3528.41
731.224	3527.96
731.565	3537
731.906	3564.12
732.248	3557.11
732.589	3527.96
732.93	3527.73
733.271	3522.76
733.612	3527.51
733.953	3528.64
734.294	3543.55
734.635	3590.1
734.976	3564.57
735.317	3544.45
735.658	3604.34
735.999	3568.41
736.339	3588.75
736.68	3577.67
737.021	3578.8
737.361	3569.09
737.702	3644.34
738.042	3608.41
738.383	3603.44
738.723	3586.26
739.063	3595.53
739.404	3675.52
739.744	3630.55
740.084	3615.87
740.424	3692.93
740.764	3647.5
741.104	3676.43
741.444	3656.09
741.784	3664.23
742.124	3654.96
742.464	3652.25
742.804	3672.81
743.143	3695.19
743.483	3669.88
743.823	3682.3
744.162	3711.68
744.502	3738.8
744.841	3722.76
745.181	3722.76
745.52	3755.75
745.86	3767.73
746.199	3789.65
746.538	3800.95
746.877	3824.45
747.216	3833.71
747.556	3833.26
747.895	3854.73
748.234	3863.77
748.573	3853.6
748.911	3875.07
749.25	3901.06
749.589	3917.1
749.928	3934.73
750.267	3966.14
750.605	3973.37
750.944	3966.59
751.283	3950.77
751.621	4013.37
751.96	4057.66
752.298	4026.93
752.636	4043.2
752.975	4052.69
753.313	4073.03
753.651	4087.72
753.989	4150.54
754.327	4133.59
754.666	4173.82
755.004	4204.55
755.342	4226.47
755.679	4238.45
756.017	4226.02
756.355	4271.22
756.693	4264.21
757.031	4235.28
757.368	4329.07
757.706	4320.93
758.044	4308.05
758.381	4346.02
758.719	4363.42
759.056	4410.19
759.394	4324.32
759.731	4367.26
760.068	4426.69
760.405	4432.12
760.743	4447.48
761.08	4443.19
761.417	4432.34
761.754	4510.31
762.091	4463.98
762.428	4484.77
762.765	4449.97
763.102	4494.49
763.438	4520.93
763.775	4507.14
764.112	4543.3
764.449	4531.32
764.785	4538.33
765.122	4518.21
765.458	4566.8
765.795	4534.03
766.131	4520.7
766.467	4537.42
766.804	4555.95
767.14	4514.15
767.476	4557.08
767.812	4515.5
768.148	4532.23
768.485	4504.2
768.821	4511.89
769.157	4530.19
769.492	4535.62
769.828	4526.58
770.164	4501.94
770.5	4522.73
770.836	4468.27
771.171	4478.89
771.507	4442.06
771.842	4463.3
772.178	4536.97
772.513	4474.37
772.849	4459.46
773.184	4471.66
773.519	4434.6
773.855	4474.6
774.19	4485.22
774.525	4449.97
774.86	4485.22
775.195	4428.27
775.53	4400.03
775.865	4411.32
776.2	4388.27
776.535	4394.38
776.87	4374.49
777.205	4344.21
777.539	4363.64
777.874	4365.45
778.209	4353.93
778.543	4291.55
778.878	4292.68
779.212	4315.51
779.547	4330.65
779.881	4265.11
780.215	4258.33
780.55	4312.12
780.884	4280.71
781.218	4272.8
781.552	4261.27
781.886	4255.85
782.22	4175.17
782.554	4194.83
782.888	4187.38
783.222	4176.08
783.556	4139.02
783.889	4182.86
784.223	4138.11
784.557	4121.84
784.89	4145.12
785.224	4089.07
785.557	4082.52
785.891	4081.62
786.224	4062.86
786.558	4099.92
786.891	4047.27
787.224	3965.69
787.557	4021.96
787.891	3998.68
788.224	4039.58
788.557	4012.69
788.89	3999.36
789.223	3966.14
789.556	3965.69
789.888	3946.25
790.221	3926.14
790.554	3899.7
790.887	3962.75
791.219	3922.75
791.552	3906.03
791.884	3921.39
792.217	3867.84
792.549	3843.43
792.882	3831
793.214	3838.46
793.546	3844.11
793.879	3822.19
794.211	3808.4
794.543	3777.67
794.875	3790.1
795.207	3804.11
795.539	3781.96
795.871	3723.21
796.203	3744.45
796.535	3744.9
796.867	3732.92
797.198	3722.3
797.53	3709.65
797.862	3716.2
798.193	3726.82
798.525	3678.46
798.856	3679.14
799.188	3612.48
799.519	3649.99
799.85	3622.87
800.182	3626.26
800.513	3645.7
800.844	3588.07
801.175	3588.52
801.506	3648.18
801.837	3599.59
802.168	3593.27
802.499	3532.48
802.83	3560.5
803.161	3581.97
803.491	3534.06
803.822	3539.03
804.153	3517.11
804.483	3502.42
804.814	3520.05
805.145	3534.51
805.475	3484.8
805.805	3493.83
806.136	3459.03
806.466	3459.49
806.796	3449.09
807.126	3423.1
807.457	3412.25
807.787	3451.12
808.117	3412.93
808.447	3411.35
808.777	3348.98
809.107	3376.1
809.436	3405.48
809.766	3371.8
810.096	3361.63
810.426	3361.41
810.755	3372.48
811.085	3336.78
811.414	3322.77
811.744	3328.87
812.073	3344.69
812.403	3339.49
812.732	3308.08
813.061	3289.09
813.39	3242.99
813.719	3238.02
814.049	3322.54
814.378	3268.08
814.707	3301.52
815.036	3253.62
815.365	3242.77
815.693	3261.52
816.022	3246.61
816.351	3235.54
816.68	3219.49
817.008	3241.41
817.337	3172.94
817.665	3177.68
817.994	3204.35
818.322	3210
818.651	3207.51
818.979	3178.14
819.307	3210.68
819.636	3200.96
819.964	3158.02
820.292	3152.15
820.62	3214.29
820.948	3142.66
821.276	3163
821.604	3157.35
821.932	3127.06
822.259	3139.27
822.587	3129.1
822.915	3184.46
823.243	3113.51
823.57	3156.67
823.898	3118.25
824.225	3146.05
824.553	3206.16
824.88	3140.62
825.207	3150.79
825.535	3128.19
825.862	3125.93
826.189	3104.69
826.516	3169.1
826.843	3164.13
827.17	3190.34
827.497	3155.54
827.824	3147.86
828.151	3170.23
828.478	3161.19
828.805	3165.71
829.131	3107.63
829.458	3131.58
829.785	3137.91
830.111	3115.99
830.438	3157.12
830.764	3149.44
831.09	3132.04
831.417	3117.8
831.743	3146.05
832.069	3170.91
832.395	3120.29
832.722	3124.35
833.048	3142.88
833.374	3134.07
833.7	3134.75
834.026	3112.15
834.351	3131.13
834.677	3109.21
835.003	3128.19
835.329	3109.89
835.654	3107.63
835.98	3064.69
836.306	3116.22
836.631	3064.24
836.956	3101.75
837.282	3059.27
837.607	3076.9
837.932	3074.18
838.258	3075.09
838.583	3081.64
838.908	3050.23
839.233	3033.73
839.558	3016.33
839.883	3036.9
840.208	3010.68
840.533	3047.07
840.858	3053.62
841.182	3035.99
841.507	3015.43
841.832	3003.23
842.156	2993.73
842.481	3034.19
842.805	3005.03
843.13	3002.32
843.454	2984.47
843.778	2954.19
844.103	2949.22
844.427	2995.77
844.751	2968.65
845.075	2962.78
845.399	2951.48
845.723	2930.46
846.047	2902.66
846.371	2935.43
846.695	2894.3
847.019	2908.31
847.343	2857.02
847.666	2913.06
847.99	2871.48
848.313	2842.1
848.637	2859.28
848.96	2837.81
849.284	2895.66
849.607	2788.54
849.931	2814.98
850.254	2781.09
850.577	2819.95
850.9	2793.97
851.223	2788.09
851.546	2774.76
851.869	2701.09
852.192	2785.6
852.515	2754.87
852.838	2747.87
853.161	2753.97
853.483	2704.93
853.806	2748.54
854.129	2727.53
854.451	2674.2
854.774	2662.44
855.096	2678.26
855.419	2665.83
855.741	2634.2
856.063	2663.8
856.385	2654.76
856.708	2643.91
857.03	2640.75
857.352	2608.21
857.674	2631.71
857.996	2608.21
858.318	2599.62
858.64	2639.17
858.961	2596.91
859.283	2560.75
859.605	2562.79
859.926	2600.52
860.248	2592.62
860.57	2562.56
860.891	2559.85
861.212	2529.57
861.534	2551.03
861.855	2572.05
862.176	2531.6
862.498	2564.37
862.819	2572.5
863.14	2496.8
863.461	2504.26
863.782	2533.18
864.103	2523.01
864.424	2496.35
864.745	2509
865.065	2512.62
865.386	2504.93
865.707	2491.6
866.027	2519.4
866.348	2505.39
866.668	2499.96
866.989	2489.12
867.309	2463.58
867.63	2489.79
867.95	2489.57
868.27	2464.94
868.59	2425.16
868.91	2449.34
869.23	2444.6
869.55	2430.59
869.87	2487.31
870.19	2440.3
870.51	2433.07
870.83	2442.11
871.15	2428.1
871.469	2438.72
871.789	2460.87
872.109	2425.39
872.428	2402.79
872.748	2465.84
873.067	2418.61
873.386	2425.84
873.706	2401.66
874.025	2400.53
874.344	2401.21
874.663	2427.87
874.982	2394.65
875.301	2415.44
875.62	2365.28
875.939	2399.63
876.258	2381.55
876.577	2399.17
876.896	2427.65
877.214	2401.21
877.533	2336.58
877.852	2351.72
878.17	2390.13
878.489	2412.96
878.807	2386.75
879.125	2372.06
879.444	2372.73
879.762	2332.74
880.08	2330.93
880.398	2358.95
880.716	2355.79
881.034	2346.29
881.352	2355.56
881.67	2338.61
881.988	2329.57
882.306	2328.44
882.624	2333.87
882.941	2319.63
883.259	2286.18
883.577	2307.43
883.894	2321.44
884.212	2317.59
884.529	2293.64
884.846	2297.93
885.164	2285.5
885.481	2282.57
885.798	2313.98
886.115	2280.76
886.432	2246.41
886.75	2281.44
887.067	2244.6
887.383	2263.36
887.7	2235.11
888.017	2237.82
888.334	2257.48
888.651	2269.91
888.967	2229.69
889.284	2218.39
889.6	2195.11
889.917	2234.21
890.233	2208.67
890.55	2224.94
890.866	2161.89
891.182	2165.73
891.498	2181.1
891.815	2197.6
892.131	2154.66
892.447	2144.94
892.763	2168.45
893.079	2166.64
893.395	2157.37
893.71	2167.32
894.026	2137.94
894.342	2128.22
894.657	2124.15
894.973	2147.88
895.289	2133.42
895.604	2109.01
895.92	2118.96
896.235	2092.52
896.55	2084.83
896.865	2096.36
897.181	2083.48
897.496	2093.19
897.811	2073.31
898.126	2056.13
898.441	2064.27
898.756	2063.36
899.071	2076.24
899.386	2071.95
899.7	2005.74
900.015	2046.87
900.33	2022.91
900.644	2049.13
900.959	2030.14
901.273	1993.54
901.588	2013.42
901.902	2004.16
902.216	1962.35
902.531	2017.94
902.845	1966.64
903.159	1954.21
903.473	1988.11
903.787	1961.67
904.101	1953.54
904.415	1980.43
904.729	1951.28
905.042	1936.59
905.356	1967.55
905.67	1953.99
905.984	1930.26
906.297	1908.79
906.611	1887.32
906.924	1906.08
907.237	1878.74
907.551	1855.91
907.864	1878.51
908.177	1858.62
908.491	1911.05
908.804	1863.37
909.117	1883.03
909.43	1843.71
909.743	1839.19
910.056	1836.48
910.368	1835.12
910.681	1821.11
910.994	1828.12
911.307	1841.45
911.619	1786.76
911.932	1788.79
912.244	1806.87
912.557	1774.56
912.869	1781.79
913.181	1767.78
913.494	1778.85
913.806	1771.17
914.118	1758.06
914.43	1771.62
914.742	1747.44
915.054	1734.56
915.366	1751.96
915.678	1749.02
915.99	1735.69
916.302	1699.08
916.613	1687.55
916.925	1721.23
917.236	1698.63
917.548	1714.45
917.859	1695.24
918.171	1666.09
918.482	1661.57
918.794	1651.17
919.105	1681.23
919.416	1643.94
919.727	1649.14
920.038	1642.81
920.349	1669.02
920.66	1645.07
920.971	1666.76
921.282	1625.41
921.593	1644.62
921.903	1626.31
922.214	1625.64
922.525	1607.56
922.835	1606.2
923.146	1619.99
923.456	1561.68
923.767	1563.94
924.077	1586.99
924.387	1565.52
924.697	1588.57
925.008	1558.52
925.318	1548.58
925.628	1553.77
925.938	1561.46
926.248	1523.72
926.558	1541.12
926.867	1553.55
927.177	1538.41
927.487	1524.17
927.796	1510.61
928.106	1523.04
928.416	1535.47
928.725	1528.46
929.034	1496.37
929.344	1497.05
929.653	1482.36
929.962	1484.17
930.271	1492.76
930.581	1470.61
930.89	1474
931.199	1460.67
931.508	1462.93
931.817	1457.28
932.125	1453.44
932.434	1442.36
932.743	1454.79
933.051	1389.48
933.36	1410.27
933.669	1424.51
933.977	1433.1
934.286	1429.03
934.594	1425.19
934.902	1409.82
935.21	1417.51
935.519	1413.21
935.827	1388.13
936.135	1400.78
936.443	1363.72
936.751	1351.52
937.059	1368.92
937.367	1370.95
937.674	1366.21
937.982	1368.24
938.29	1351.97
938.597	1350.61
938.905	1328.92
939.213	1338.19
939.52	1344.06
939.827	1328.69
940.135	1359.65
940.442	1328.02
940.749	1314.23
941.056	1330.95
941.363	1322.82
941.67	1303.84
941.977	1314.23
942.284	1277.62
942.591	1292.76
942.898	1299.99
943.205	1256.83
943.511	1285.98
943.818	1275.81
944.125	1256.15
944.431	1266.77
944.738	1246.44
945.044	1255.25
945.35	1281.69
945.657	1273.33
945.963	1253.67
946.269	1240.56
946.575	1253.67
946.881	1246.89
947.187	1242.37
947.493	1219.54
947.799	1207.12
948.105	1228.81
948.41	1207.34
948.716	1222.71
949.022	1199.21
949.327	1201.69
949.633	1213.89
949.938	1178.87
950.244	1195.14
950.549	1184.52
950.854	1193.1
951.16	1135.25
951.465	1169.83
951.77	1178.87
952.075	1195.14
952.38	1171.41
952.685	1152.43
952.99	1142.26
953.294	1155.59
953.599	1121.47
953.904	1128.7
954.209	1110.85
954.513	1140.45
954.818	1130.51
955.122	1126.89
955.426	1123.05
955.731	1099.1
956.035	1118.98
956.339	1132.99
956.643	1138.19
956.948	1091.41
957.252	1101.13
957.556	1091.41
957.86	1093.22
958.163	1114.01
958.467	1087.8
958.771	1091.41
959.075	1085.54
959.378	1067.01
959.682	1083.95
959.985	1056.38
960.289	1061.13
960.592	1078.08
960.896	1065.88
961.199	1071.75
961.502	1050.06
961.805	1061.58
962.108	1045.31
962.411	1081.92
962.714	1013.22
963.017	1015.71
963.32	1044.41
963.623	1053.22
963.926	1024.07
964.228	1042.15
964.531	1012.54
964.833	1011.41
965.136	1017.52
965.438	1010.74
965.741	1030.62
966.043	1007.12
966.345	988.36
966.648	997.4
966.95	994.47
967.252	980.45
967.554	1003.96
967.856	976.16
968.158	980.45
968.46	994.24
968.761	984.3
969.063	976.16
969.365	944.75
969.666	963.05
969.968	986.33
970.269	958.08
970.571	953.56
970.872	960.57
971.174	957.86
971.475	942.94
971.776	943.17
972.077	948.36
972.378	955.82
972.679	933.45
972.98	941.36
973.281	932.32
973.582	927.12
973.883	911.53
974.183	935.48
974.484	948.14
974.785	942.04
975.085	929.61
975.386	940.68
975.686	910.63
975.986	891.19
976.287	913.11
976.587	882.15
976.887	887.58
977.187	911.3
977.487	882.83
977.787	901.13
978.087	873.56
978.387	897.52
978.687	904.52
978.987	874.47
979.286	872.21
979.586	864.07
979.885	860.23
980.185	868.37
980.484	886.45
980.784	869.72
981.083	855.49
981.382	869.95
981.682	857.07
981.981	851.87
982.28	843.73
982.579	850.29
982.878	829.5
983.177	838.54
983.475	870.17
983.774	826.33
984.073	833.34
984.372	849.84
984.67	836.5
984.969	826.11
985.267	829.72
985.566	824.98
985.864	827.24
986.162	801.25
986.461	823.85
986.759	814.81
987.057	810.29
987.355	818.2
987.653	813
987.951	793.11
988.249	815.94
988.547	822.27
988.844	796.05
989.142	804.19
989.44	770.06
989.737	803.51
990.035	794.7
990.332	794.7
990.63	795.83
990.927	801.93
991.224	782.72
991.521	800.57
991.819	796.73
992.116	787.69
992.413	772.78
992.71	779.33
993.006	756.05
993.303	740.23
993.6	763.96
993.897	773.23
994.193	753.12
994.49	749.05
994.787	746.34
995.083	747.92
995.379	745.66
995.676	757.64
995.972	724.87
996.268	724.87
996.565	730.07
996.861	743.85
997.157	735.04
997.453	732.33
997.749	741.59
998.044	732.55
998.34	711.31
998.636	713.34
998.932	703.63
999.227	706.34
999.523	694.81
999.818	707.02
1000.114	707.02
1000.409	697.52
1000.704	692.33
1001	712.44
1001.295	683.29
1001.59	698.65
1001.885	698.65
1002.18	682.61
1002.475	688.94
1002.77	678.99
1003.065	698.43
1003.359	651.42
1003.654	665.21
1003.949	678.54
1004.243	680.35
1004.538	675.6
1004.832	669.28
1005.127	699.11
1005.421	671.76
1005.715	667.24
1006.009	662.72
1006.304	666.11
1006.598	652.1
1006.892	648.71
1007.186	669.73
1007.48	636.06
1007.773	656.17
1008.067	641.03
1008.361	626.79
1008.655	642.16
1008.948	648.03
1009.242	660.69
1009.535	618.88
1009.829	640.12
1010.122	616.4
1010.415	629.28
1010.708	623.85
1011.001	614.81
1011.295	624.98
1011.588	612.78
1011.881	619.11
1012.173	615.49
1012.466	601.93
1012.759	604.65
1013.052	596.96
1013.344	604.87
1013.637	612.1
1013.93	618.2
1014.222	603.74
1014.514	618.66
1014.807	616.4
1015.099	578.66
1015.391	592.89
1015.683	592.22
1015.976	580.69
1016.268	578.43
1016.56	578.66
1016.851	573.23
1017.143	566.91
1017.435	579.79
1017.727	585.21
1018.018	576.62
1018.31	578.43
1018.602	553.8
1018.893	561.48
1019.185	560.13
1019.476	568.26
1019.767	548.15
1020.058	582.05
1020.35	555.15
1020.641	551.77
1020.932	537.3
1021.223	556.06
1021.514	568.49
1021.804	543.4
1022.095	534.14
1022.386	538.21
1022.677	545.21
1022.967	536.62
1023.258	542.73
1023.548	526.91
1023.839	515.61
1024.129	540.47
1024.419	541.37
1024.709	521.26
1025	539.56
1025.29	537.75
1025.58	525.55
1025.87	539.79
1026.16	503.86
1026.449	521.48
1026.739	516.29
1027.029	518.09
1027.319	509.51
1027.608	509.05
1027.898	504.08
1028.187	527.81
1028.477	497.98
1028.766	519.45
1029.055	504.53
1029.344	487.59
1029.634	500.02
1029.923	499.79
1030.212	483.97
1030.501	495.04
1030.79	498.21
1031.078	494.37
1031.367	500.47
1031.656	502.73
1031.945	507.92
1032.233	494.82
1032.522	489.62
1032.81	479.68
1033.099	486.46
1033.387	461.82
1033.675	480.35
1033.963	472.9
1034.251	472.9
1034.54	472.67
1034.828	475.38
1035.116	471.09
1035.403	471.32
1035.691	465.67
1035.979	476.06
1036.267	457.3
1036.554	479.22
1036.842	440.36
1037.129	473.12
1037.417	469.73
1037.704	464.31
1037.992	464.76
1038.279	453.91
1038.566	457.76
1038.853	457.76
1039.14	457.76
