Data from blue_shiny_book_FLMS001491_00022.txt Node
Date: Wed Feb 08 15:26:44 GMT 2017
User: dcchb
Spectrometer: FLMS00149
Trigger mode: 0
Integration Time (sec): 2.000000E-2
Scans to average: 10
Electric dark correction enabled: true
Nonlinearity correction enabled: false
Boxcar width: 0
XAxis mode: Wavelengths
Number of Pixels in Spectrum: 2048
>>>>>Begin Spectral Data<<<<<
341.393	-14.31
341.776	-14.31
342.16	-14.31
342.543	-79.39
342.927	-64.02
343.31	-61.54
343.693	-78.26
344.077	-56.11
344.46	-51.14
344.843	-49.11
345.226	-16.57
345.61	-37.36
345.993	-24.7
346.376	6.03
346.759	6.71
347.142	10.1
347.525	34.05
347.908	54.17
348.291	53.04
348.674	107.27
349.057	103.43
349.44	130.55
349.823	153.15
350.206	156.31
350.588	198.57
350.971	234.05
351.354	226.36
351.737	255.06
352.119	266.36
352.502	268.62
352.884	280.6
353.267	299.81
353.65	317.89
354.032	287.15
354.414	321.73
354.797	329.86
355.179	345.01
355.562	353.37
355.944	342.07
356.326	344.78
356.709	361.5
357.091	355.17
357.473	345.68
357.855	368.96
358.238	364.89
358.62	351.56
359.002	358.11
359.384	359.69
359.766	352.46
360.148	352.01
360.53	355.4
360.912	360.82
361.294	360.37
361.676	361.5
362.057	330.77
362.439	348.62
362.821	355.4
363.203	371.67
363.584	335.74
363.966	369.64
364.348	343.42
364.729	354.5
365.111	358.34
365.493	356.08
365.874	341.62
366.256	361.28
366.637	336.87
367.019	342.52
367.4	356.98
367.781	322.41
368.163	343.42
368.544	337.77
368.925	342.29
369.306	367.15
369.688	361.28
370.069	333.25
370.45	332.35
370.831	348.39
371.212	342.29
371.593	362.18
371.974	361.73
372.355	363.08
372.736	369.86
373.117	364.44
373.498	347.94
373.879	348.85
374.26	359.02
374.641	349.52
375.021	348.17
375.402	359.69
375.783	377.55
376.163	394.95
376.544	394.04
376.925	393.37
377.305	375.06
377.686	369.41
378.066	371.9
378.447	403.99
378.827	398.11
379.208	393.37
379.588	409.86
379.968	418.45
380.349	411.44
380.729	402.63
381.109	432.46
381.489	427.49
381.87	383.42
382.25	417.77
382.63	412.57
383.01	410.99
383.39	428.17
383.77	418.68
384.15	425.68
384.53	437.21
384.91	411.22
385.29	438.34
385.67	439.69
386.049	449.86
386.429	437.66
386.809	465.45
387.189	447.6
387.568	447.15
387.948	474.49
388.328	462.74
388.707	484.44
389.087	467.26
389.466	489.86
389.846	476.53
390.225	491.89
390.605	499.58
390.984	512.91
391.363	521.05
391.743	510.2
392.122	511.78
392.501	523.98
392.881	525.57
393.26	533.93
393.639	556.3
394.018	544.32
394.397	556.52
394.776	552.46
395.155	595.17
395.534	556.3
395.913	563.53
396.292	573.02
396.671	566.02
397.05	596.75
397.429	585.68
397.808	603.76
398.186	580.48
398.565	609.86
398.944	661.38
399.323	627.94
399.701	637.43
400.08	633.81
400.458	636.07
400.837	647.82
401.215	651.21
401.594	643.53
401.972	672.68
402.351	656.41
402.729	672.91
403.107	677.65
403.486	682.62
403.864	678.1
404.242	707.03
404.62	712.23
404.999	703.41
405.377	733.7
405.755	741.6
406.133	754.94
406.511	780.93
406.889	767.14
407.267	801.04
407.645	790.87
408.023	808.95
408.401	828.83
408.779	813.02
409.156	832.9
409.534	824.09
409.912	838.1
410.29	861.38
410.667	885.1
411.045	901.15
411.422	903.86
411.8	908.83
412.178	951.99
412.555	959.45
412.933	975.04
413.31	969.85
413.687	992.9
414.065	1007.36
414.442	1001.48
414.819	1009.85
415.197	1039.68
415.574	1053.46
415.951	1061.14
416.328	1079.45
416.705	1074.48
417.082	1095.49
417.46	1135.27
417.837	1135.49
418.214	1129.17
418.591	1152.44
418.967	1121.71
419.344	1157.19
419.721	1194.93
420.098	1199.67
420.475	1229.5
420.852	1242.38
421.228	1227.24
421.605	1241.7
421.982	1284.42
422.358	1328.03
422.735	1293.45
423.111	1296.39
423.488	1345.66
423.864	1343.62
424.241	1360.12
424.617	1386.11
424.994	1384.98
425.37	1405.09
425.746	1425.65
426.123	1460.23
426.499	1466.78
426.875	1493.22
427.251	1536.84
427.627	1535.71
428.003	1508.14
428.379	1567.57
428.756	1590.4
429.132	1593.56
429.507	1626.1
429.883	1658.64
430.259	1678.53
430.635	1716.49
431.011	1721.69
431.387	1769.15
431.763	1795.59
432.138	1786.55
432.514	1826.32
432.89	1841.01
433.265	1871.74
433.641	1903.83
434.016	1939.99
434.392	1982.48
434.767	1997.39
435.143	2006.43
435.518	2031.74
435.894	2067.45
436.269	2090.72
436.644	2130.04
437.02	2137.73
437.395	2156.71
437.77	2202.58
438.145	2229.02
438.52	2229.48
438.895	2295.01
439.271	2258.18
439.646	2325.52
440.021	2343.82
440.395	2411.84
440.77	2383.37
441.145	2407.32
441.52	2479.64
441.895	2473.76
442.27	2491.16
442.645	2496.13
443.019	2539.98
443.394	2525.51
443.769	2566.64
444.143	2538.17
444.518	2592.63
444.892	2630.14
445.267	2645.06
445.641	2700.88
446.016	2717.37
446.39	2772.74
446.764	2742.46
447.139	2757.6
447.513	2813.19
447.887	2757.15
448.262	2840.98
448.636	2816.58
449.01	2863.58
449.384	2903.13
449.758	2923.69
450.132	2959.85
450.506	3036.91
450.88	3044.14
451.254	3035.56
451.628	3083.24
452.002	3156.46
452.376	3153.74
452.75	3186.06
453.123	3234.87
453.497	3239.39
453.871	3297.24
454.244	3348.99
454.618	3364.13
454.992	3456.11
455.365	3445.71
455.739	3548.54
456.112	3597.35
456.486	3644.81
456.859	3651.13
457.232	3723.45
457.606	3743.33
457.979	3792.37
458.352	3901.3
458.725	3910.79
459.099	3916.44
459.472	4047.96
459.845	4052.48
460.218	4123.89
460.591	4136.54
460.964	4206.15
461.337	4281.62
461.71	4369.31
462.083	4417.89
462.456	4489.08
462.829	4517.78
463.201	4543.76
463.574	4528.62
463.947	4647.94
464.32	4758.45
464.692	4795.06
465.065	4827.37
465.438	4872.57
465.81	4966.58
466.183	5048.16
466.555	5152.11
466.928	5182.39
467.3	5175.16
467.672	5296.29
468.045	5468.03
468.417	5472.33
468.789	5498.54
469.161	5583.51
469.534	5659.44
469.906	5783.28
470.278	5808.82
470.65	5901.7
471.022	5985.08
471.394	6126.1
471.766	6188.92
472.138	6239.77
472.51	6403.83
472.882	6512.98
473.253	6556.59
473.625	6667.1
473.997	6837.49
474.369	6841.56
474.74	6994.32
475.112	7162.45
475.484	7253.52
475.855	7327.19
476.227	7420.3
476.598	7585.49
476.97	7651.03
477.341	7875.65
477.713	7974.41
478.084	8073.39
478.455	8342.99
478.827	8394.74
479.198	8615.07
479.569	8616.65
479.94	8849.64
480.311	8961.28
480.682	9144.32
481.053	9390.87
481.424	9493.92
481.795	9603.07
482.166	9772.33
482.537	9899.56
482.908	10192.66
483.279	10266.78
483.65	10310.84
484.021	10630.84
484.391	10772.75
484.762	10902.47
485.133	10972.97
485.503	11232.4
485.874	11487.76
486.244	11542
486.615	11745.61
486.985	11855.44
487.356	12196.44
487.726	12181.08
488.097	12475.31
488.467	12562.76
488.837	12786.71
489.207	13033.48
489.578	13227.38
489.948	13283.2
490.318	13612.23
490.688	13581.27
491.058	13815.84
491.428	14075.49
491.798	14239.55
492.168	14534.01
492.538	14598.19
492.908	14675.25
493.278	14842.03
493.648	14871.85
494.017	15194.11
494.387	15335.12
494.757	15391.39
495.126	15607.88
495.496	15783.47
495.866	15922.9
496.235	16070.69
496.605	16312.95
496.974	16296
497.344	16453.28
497.713	16601.3
498.082	16737.79
498.452	16957.9
498.821	17077.45
499.19	17127.84
499.559	17310.66
499.928	17393.6
500.298	17465.23
500.667	17722.18
501.036	17664.55
501.405	17886.24
501.774	17989.29
502.143	18278.32
502.512	18328.94
502.88	18515.37
503.249	18448.48
503.618	18662.94
503.987	18832.43
504.356	18935.02
504.724	18914.91
505.093	19093.89
505.462	19187.9
505.83	19369.82
506.199	19584.73
506.567	19683.25
506.936	19715.34
507.304	19957.82
507.672	20048.89
508.041	20263.58
508.409	20387.87
508.777	20594.87
509.145	20802.32
509.514	20838.93
509.882	20989.21
510.25	21171.8
510.618	21253.38
510.986	21377.9
511.354	21554.39
511.722	21839.36
512.09	21912.35
512.458	21901.5
512.826	21987.83
513.193	22206.58
513.561	22236.41
513.929	22404.99
514.297	22793.45
514.664	22893.34
515.032	22981.25
515.4	23292.65
515.767	23349.82
516.135	23660.32
516.502	23461.23
516.869	23915.68
517.237	24045.4
517.604	24056.7
517.972	24276.58
518.339	24333.98
518.706	24528.55
519.073	24564.71
519.44	24759.73
519.808	25117.69
520.175	25054.41
520.542	25395.87
520.909	25522.65
521.276	25508.86
521.643	25816.2
522.009	26016.87
522.376	26276.53
522.743	26586.57
523.11	26825.89
523.477	27021.37
523.843	27191.08
524.21	27623.38
524.577	27761.01
524.943	27799.88
525.31	27932.3
525.676	28206.42
526.043	28400.76
526.409	28398.96
526.776	28711.04
527.142	28864.48
527.508	28977.25
527.874	29127.07
528.241	29479.61
528.607	29546.5
528.973	29888.41
529.339	29970.89
529.705	30296.08
530.071	30614.04
530.437	30639.35
530.803	31100.35
531.169	31087.93
531.535	31179.67
531.901	31378.77
532.267	31616.5
532.632	31718.64
532.998	31899.66
533.364	31953.67
533.73	32051.29
534.095	32220.78
534.461	32284.05
534.826	32513.65
535.192	32597.94
535.557	32790.71
535.923	32800.2
536.288	32963.58
536.653	33121.09
537.019	33216.46
537.384	33466.62
537.749	33657.58
538.114	33940.96
538.479	33846.72
538.845	34092.37
539.21	34039.94
539.575	34244.68
539.94	34360.16
540.305	34574.16
540.67	34530.77
541.034	34645.12
541.399	34728.06
541.764	34780.94
542.129	34765.79
542.494	34912.91
542.858	35146.58
543.223	34960.14
543.587	35329.17
543.952	35323.75
544.316	35462.05
544.681	35554.7
545.045	35876.5
545.41	36121.47
545.774	36125.99
546.138	36099.77
546.503	36284.63
546.867	36403.49
547.231	36865.85
547.595	36848.45
547.959	36934.33
548.324	36915.57
548.688	36922.8
549.052	36993.53
549.416	37032.85
549.779	37026.07
550.143	37145.62
550.507	37296.58
550.871	37187.65
551.235	37306.52
551.599	37556.91
551.962	37525.27
552.326	37650.69
552.689	37887.29
553.053	37860.63
553.417	38123.22
553.78	38708.06
554.143	38540.38
554.507	38774.5
554.87	39060.15
555.234	39422.17
555.597	39199.58
555.96	39152.12
556.323	39460.59
556.686	39542.17
557.05	39615.16
557.413	39755.95
557.776	39692.67
558.139	39881.14
558.502	39713.46
558.865	39864.87
559.228	40026
559.59	40113.22
559.953	40145.77
560.316	40515.25
560.679	40702.14
561.041	40932.19
561.404	41236.59
561.767	41474.55
562.129	41344.38
562.492	41913.4
562.854	41985.27
563.217	42024.59
563.579	42278.82
563.941	42464.58
564.304	42564.69
564.666	42752.7
565.028	42808.52
565.39	42909.76
565.753	43101.62
566.115	43151.11
566.477	43140.49
566.839	43212.8
567.201	43291.67
567.563	43257.78
567.925	43513.59
568.287	43475.62
568.648	43629.52
569.01	43837.42
569.372	44214.81
569.734	44056.62
570.095	44448.03
570.457	44666.55
570.819	44695.7
571.18	44890.95
571.542	45279.87
571.903	45372.97
572.265	45535
572.626	45643.7
572.987	45736.13
573.349	45904.49
573.71	45998.27
574.071	46090.47
574.432	46195.55
574.794	46200.75
575.155	46076.91
575.516	45861.55
575.877	46033.75
576.238	46087.31
576.599	46292.27
576.96	46062.22
577.32	46266.96
577.681	46421.76
578.042	46582.21
578.403	46547.63
578.763	46634.18
579.124	46700.17
579.485	46987.62
579.845	47137.45
580.206	47239.37
580.566	47400.72
580.927	47415.41
581.287	47616.08
581.648	47532.46
582.008	47768.62
582.368	47623.08
582.728	47765
583.089	47746.02
583.449	47560.26
583.809	47635.51
584.169	47587.83
584.529	47433.71
584.889	47685.91
585.249	47384.22
585.609	47187.16
585.969	47411.34
586.329	47170.21
586.688	47293.15
587.048	47382.64
587.408	47428.51
587.768	47446.59
588.127	47477.55
588.487	47488.4
588.846	47863.53
589.206	47642.29
589.565	47719.13
589.925	47966.8
590.284	47939.69
590.643	48082.51
591.003	48081.83
591.362	48313.24
591.721	48083.41
592.08	48046.58
592.44	48236.85
592.799	48192.33
593.158	48099.68
593.517	47996.18
593.876	47986.69
594.235	47922.96
594.593	47914.38
594.952	47958.67
595.311	47820.37
595.67	47853.81
596.029	47915.51
596.387	48099.23
596.746	48026.01
597.104	47887.71
597.463	47923.42
597.822	48179.68
598.18	48127.03
598.538	48100.36
598.897	48402.95
599.255	48099.68
599.613	48769.27
599.972	48603.4
600.33	48724.98
600.688	48631.42
601.046	48798.42
601.404	48952.54
601.762	48835.26
602.12	49001.13
602.478	48809.04
602.836	48771.08
603.194	48637.75
603.552	48711.87
603.91	48535.83
604.268	48666.22
604.625	48450.63
604.983	48531.31
605.341	48349.84
605.698	48369.28
606.056	48518.2
606.413	48477.52
606.771	48688.37
607.128	48680.46
607.485	48570.86
607.843	48601.82
608.2	49004.52
608.557	49078.41
608.914	49126.1
609.272	49259.43
609.629	49383.49
609.986	49553.2
610.343	49355.24
610.7	49641.11
611.057	49651.51
611.414	49664.16
611.771	49714.55
612.127	49924.49
612.484	49789.35
612.841	49847.21
613.198	49691.28
613.554	49691.73
613.911	49892.4
614.267	49786.42
614.624	49630.26
614.98	49681.79
615.337	49645.4
615.693	49714.55
616.05	49574.67
616.406	49849.92
616.762	49646.53
617.118	49532.64
617.475	49688.11
617.831	49680.43
618.187	49852.63
618.543	49859.41
618.899	50176.01
619.255	50131.27
619.611	50089.23
619.967	50282.9
620.323	50410.36
620.678	50380.75
621.034	50424.37
621.39	50463.24
621.746	50331.71
622.101	50713.85
622.457	50453.74
622.812	50537.81
623.168	50644.47
623.523	50555.21
623.879	50724.92
624.234	50331.94
624.589	50447.64
624.945	50432.95
625.3	50325.39
625.655	50216.46
626.01	50158.61
626.365	50122.45
626.72	50092.85
627.075	50139.85
627.43	50125.39
627.785	50078.84
628.14	50074.32
628.495	50056.01
628.85	49947.09
629.205	49939.86
629.559	50146.63
629.914	50058.95
630.269	50241.32
630.623	50311.83
630.978	50307.08
631.332	50398.83
631.687	50616
632.041	50371.26
632.396	50487.19
632.75	50395.89
633.104	50386.63
633.459	50316.57
633.813	50222.79
634.167	50132.85
634.521	50099.18
634.875	50035.45
635.229	49863.25
635.583	49810.6
635.937	49806.08
636.291	49637.72
636.645	49559.53
636.999	49528.34
637.352	49489.02
637.706	49205.64
638.06	49337.84
638.413	49316.82
638.767	49115.93
639.121	49065.08
639.474	48867.35
639.828	48942.37
640.181	48897.85
640.534	49030.5
640.888	48947.79
641.241	48958.87
641.594	49083.84
641.947	49256.71
642.301	49166.55
642.654	49226.43
643.007	49261.68
643.36	49194.79
643.713	49129.71
644.066	49392.08
644.419	49195.7
644.771	49239.99
645.124	49041.35
645.477	48983.5
645.83	48485.21
646.182	48343.07
646.535	47883.64
646.888	47654.5
647.24	47255.41
647.593	47417.44
647.945	47136.77
648.298	47031.01
648.65	46884.12
649.002	46786.95
649.355	47065.36
649.707	46959.82
650.059	47483.65
650.411	47822.63
650.763	47765
651.115	48037.76
651.467	48039.8
651.819	47898.56
652.171	47986.46
652.523	47865.34
652.875	47893.36
653.227	47839.35
653.578	48317.3
653.93	48170.87
654.282	48104.2
654.633	47957.99
654.985	48076.63
655.337	48071.21
655.688	48018.78
656.039	48279.11
656.391	47956.63
656.742	47895.62
657.094	47986.46
657.445	48046.8
657.796	48093.81
658.147	47883.19
658.498	47870.54
658.849	47958.89
659.2	47719.58
659.551	47643.2
659.902	47583.54
660.253	47569.3
660.604	47543.76
660.955	47404.56
661.306	47515.06
661.656	47310.32
662.007	47323.43
662.358	47217.22
662.708	47266.26
663.059	47238.46
663.409	47024.46
663.76	47266.94
664.11	47272.58
664.461	47248.18
664.811	47262.64
665.161	47183.1
665.511	47304.22
665.862	47418.57
666.212	47570.2
666.562	47662.63
666.912	47642.52
667.262	47586.47
667.612	47733.59
667.962	47736.75
668.312	47637.55
668.662	47850.87
669.011	47732.91
669.361	47674.83
669.711	47756.64
670.06	47506.02
670.41	47471
670.76	47445.91
671.109	47470.09
671.459	47258.57
671.808	47070.56
672.157	47172.47
672.507	46962.54
672.856	47073.95
673.205	46938.81
673.554	46932.03
673.904	46751.02
674.253	46973.61
674.602	46678.25
674.951	46164.59
675.3	45874.43
675.649	46473.06
675.998	46363
676.346	46350.58
676.695	46526.39
677.044	46200.07
677.393	46393.06
677.741	46571.81
678.09	46513.96
678.438	46418.82
678.787	46497.92
679.135	46471.48
679.484	46426.51
679.832	46633.96
680.181	46371.14
680.529	46576.56
680.877	46554.19
681.225	46462.66
681.573	46668.31
681.922	46353.51
682.27	46230.8
682.618	46461.76
682.966	46233.29
683.314	46115.78
683.661	46044.37
684.009	45749.01
684.357	45603.25
684.705	45528.9
685.053	45427.89
685.4	45261.34
685.748	44964.4
686.095	45038.75
686.443	44818.86
686.79	44567.8
687.138	44694.35
687.485	44610.28
687.832	44354.47
688.18	44404.64
688.527	44165.77
688.874	44197.86
689.221	44044.42
689.568	44046.23
689.915	43952.22
690.262	43858.66
690.609	43816.63
690.956	43638.78
691.303	43664.54
691.65	43554.26
691.997	43602.85
692.344	43460.71
692.69	43381.16
693.037	43573.25
693.383	43206.93
693.73	43509.29
694.077	43341.16
694.423	43278.11
694.769	43136.87
695.116	42950.89
695.462	42808.3
695.808	42626.61
696.155	42822.08
696.501	42514.74
696.847	42317.01
697.193	42182.1
697.539	42257.58
697.885	41938.71
698.231	41724.93
698.577	41624.82
698.923	41518.16
699.269	41226.19
699.614	41039.08
699.96	40810.16
700.306	40799.76
700.651	40646.77
700.997	40319.55
701.342	40279.77
701.688	40130.17
702.033	40094.92
702.379	39969.95
702.724	39906
703.069	40038.88
703.415	39691.09
703.76	39660.81
704.105	39712.56
704.45	39668.94
704.795	39594.37
705.14	39386.92
705.485	39529.29
705.83	39289.52
706.175	39497.2
706.52	39281.83
706.865	39228.05
707.209	39320.03
707.554	39292.23
707.899	39196.41
708.243	39068.28
708.588	39110.99
708.932	38948.28
709.277	38845.46
709.621	38859.02
709.966	38688.4
710.31	38553.94
710.654	38247.06
710.998	38285.02
711.342	38287.06
711.687	38115.54
712.031	37882.78
712.375	37601.2
712.719	37633.52
713.063	37464.71
713.407	37482.11
713.75	37261.77
714.094	37131.83
714.438	36973.42
714.782	36992.86
715.125	36682.35
715.469	36801.67
715.812	36484.85
716.156	36265.19
716.499	36216.38
716.843	36351.06
717.186	36086.44
717.53	36174.35
717.873	36297.73
718.216	36235.36
718.559	36073.78
718.902	36067.91
719.246	36318.97
719.589	36204.63
719.932	36290.73
720.275	36226.55
720.617	36085.76
720.96	36124.4
721.303	36245.08
721.646	36114.01
721.989	36163.72
722.331	36163.95
722.674	36099.09
723.016	36125.99
723.359	36131.86
723.701	36082.6
724.044	35943.84
724.386	35781.14
724.729	35891.19
725.071	35787.46
725.413	35760.35
725.755	35590.18
726.097	35427.92
726.439	35237.65
726.782	35185.44
727.124	35205.11
727.465	34985.68
727.807	34833.14
728.149	34627.72
728.491	34534.16
728.833	34650.32
729.175	34538.46
729.516	34489.87
729.858	34345.47
730.199	34455.97
730.541	34417.78
730.882	34319.48
731.224	34433.6
731.565	34188.86
731.906	34270.67
732.248	34370.78
732.589	34153.16
732.93	34066.83
733.271	34309.08
733.612	34280.84
733.953	34330.55
734.294	34263.66
734.635	34148.64
734.976	34421.4
735.317	34284
735.658	34312.02
735.999	34443.32
736.339	34422.3
736.68	34580.94
737.021	34610.54
737.361	34326.03
737.702	34591.34
738.042	34486.03
738.383	34391.57
738.723	34465.24
739.063	34454.84
739.404	34512.47
739.744	34348.86
740.084	34109.77
740.424	34279.71
740.764	34259.59
741.104	34362.64
741.444	33974.86
741.784	33998.81
742.124	33942.77
742.464	33872.03
742.804	33688.99
743.143	33644.92
743.483	33761.08
743.823	33448.99
744.162	33562.44
744.502	33476.56
744.841	33534.41
745.181	33442.21
745.52	33388.66
745.86	33408.32
746.199	33381.2
746.538	33405.15
746.877	33591.59
747.216	33534.64
747.556	33504.36
747.895	33504.59
748.234	33455.09
748.573	33354.76
748.911	33575.77
749.25	33604.92
749.589	33579.61
749.928	33602.89
750.267	33712.26
750.605	33684.47
750.944	33775.09
751.283	33671.81
751.621	33901.18
751.96	33788.65
752.298	33926.27
752.636	33928.98
752.975	33784.13
753.313	33947.06
753.651	34085.36
753.989	33822.09
754.327	33870.45
754.666	33787.29
755.004	34015.53
755.342	33895.76
755.679	33919.04
756.017	33755.43
756.355	33813.5
756.693	33789.1
757.031	33739.83
757.368	33649.67
757.706	33548.2
758.044	33367.19
758.381	33486.96
758.719	33255.33
759.056	33402.67
759.394	33163.8
759.731	33017.82
760.068	32988.21
760.405	32906.18
760.743	32947.31
761.08	32968.1
761.417	32731.27
761.754	32846.3
762.091	32923.58
762.428	32743.02
762.765	32543.25
763.102	32751.38
763.438	32672.29
763.775	32437.95
764.112	32580.09
764.449	32643.36
764.785	32416.48
765.122	32420.32
765.458	32307.1
765.795	32442.47
766.131	32336.25
766.467	32399.3
766.804	32438.4
767.14	32359.08
767.476	32402.69
767.812	32369.25
768.148	32511.16
768.485	32188.69
768.821	32162.7
769.157	31982.14
769.492	32097.84
769.828	32022.14
770.164	31845.19
770.5	31880.67
770.836	31666.22
771.171	31619.89
771.507	31528.14
771.842	31361.82
772.178	31441.59
772.513	31320.01
772.849	31209.96
773.184	31049.28
773.519	30861.04
773.855	30826.24
774.19	30676.18
774.525	30702.62
774.86	30615.85
775.195	30503.08
775.53	30459.02
775.865	30216.31
776.2	30002.76
776.535	29753.95
776.87	29811.12
777.205	29703.56
777.539	29398.93
777.874	29505.82
778.209	29129.33
778.543	29100.86
778.878	28911.26
779.212	28950.81
779.547	28852.73
779.881	28902.9
780.215	28719.63
780.55	28766.63
780.884	28602.34
781.218	28498.16
781.552	28520.54
781.886	28362.35
782.22	28288.23
782.554	28100.89
782.888	27977.95
783.222	27967.56
783.556	27831.06
783.889	27913.32
784.223	27743.15
784.557	27834.23
784.89	27824.51
785.224	27618.86
785.557	27630.16
785.891	27494.12
786.224	27541.13
786.558	27430.62
786.891	27203.73
787.224	27142.04
787.557	27147.46
787.891	27018.65
788.224	26916.28
788.557	26967.36
788.89	26858.21
789.223	26815.04
789.556	26600.13
789.888	26421.61
790.221	26389.52
790.554	26197.43
790.887	26230.2
791.219	26125.8
791.552	25960.6
791.884	25855.97
792.217	25655.53
792.549	25492.59
792.882	25411.92
793.214	25285.14
793.546	25276.1
793.879	25257.34
794.211	24957.69
794.543	24996.33
794.875	24893.96
795.207	24812.61
795.539	24678.38
795.871	24671.15
796.203	24398.84
796.535	24325.62
796.867	24338.5
797.198	24236.13
797.53	24248.11
797.862	24074.32
798.193	24246.3
798.525	23976.47
798.856	24069.35
799.188	23715.46
799.519	23861.22
799.85	23702.13
800.182	23588.24
800.513	23822.81
800.844	23533.77
801.175	23630.95
801.506	23588.69
801.837	23533.77
802.168	23411.74
802.499	23343.04
802.83	23273.67
803.161	23356.15
803.491	23257.4
803.822	23290.39
804.153	23081.81
804.483	22917.74
804.814	22989.83
805.145	22980.79
805.475	23005.65
805.805	22892.89
806.136	22886.56
806.466	22929.72
806.796	22723.4
807.126	22616.06
807.457	22564.08
807.787	22625.78
808.117	22407.25
808.447	22406.8
808.777	22371.77
809.107	22306.69
809.436	22173.81
809.766	22052
810.096	22000.48
810.426	21789.64
810.755	21809.75
811.085	21793.71
811.414	21762.07
811.744	21535.41
812.073	21532.47
812.403	21475.3
812.732	21280.05
813.061	21274.62
813.39	21170.67
813.719	21030.34
814.049	21164.57
814.378	20990.34
814.707	20928.19
815.036	20941.75
815.365	20690.01
815.693	20668.76
816.022	20747.86
816.351	20578.15
816.68	20532.04
817.008	20623.79
817.337	20454.31
817.665	20462.67
817.994	20435.1
818.322	20311.03
818.651	20230.36
818.979	20241.66
819.307	20383.12
819.636	20296.12
819.964	20181.55
820.292	20343.12
820.62	20305.38
820.948	20220.19
821.276	20320.53
821.604	20291.83
821.932	20454.98
822.259	20317.14
822.587	20224.26
822.915	20270.13
823.243	20384.93
823.57	20371.6
823.898	20368.89
824.225	20273.07
824.553	20296.34
824.88	20400.52
825.207	20459.73
825.535	20369.56
825.862	20393.52
826.189	20254.31
826.516	20383.8
826.843	20534.3
827.17	20504.7
827.497	20420.86
827.824	20341.77
828.151	20295.67
828.478	20380.41
828.805	20388.09
829.131	20269
829.458	20243.24
829.785	20090.93
830.111	20063.58
830.438	20262.9
830.764	20127.76
831.09	20092.28
831.417	19899.29
831.743	19984.71
832.069	20005.73
832.395	19821.33
832.722	19925.28
833.048	19802.57
833.374	19900.2
833.7	19766.87
834.026	19833.31
834.351	19735.91
834.677	19647.77
835.003	19734.1
835.329	19765.51
835.654	19617.72
835.98	19496.14
836.306	19581.34
836.631	19526.87
836.956	19608.23
837.282	19627.21
837.607	19468.12
837.932	19471.73
838.258	19434.67
838.583	19567.1
838.908	19411.17
839.233	19452.75
839.558	19445.07
839.883	19392.19
840.208	19302.7
840.533	19368.23
840.858	19370.04
841.182	19457.04
841.507	19361
841.832	19256.15
842.156	19189.71
842.481	19283.26
842.805	19164.85
843.13	19215.47
843.454	19147.22
843.778	19100.9
844.103	19035.81
844.427	18976.83
844.751	19012.76
845.075	18965.31
845.399	18913.78
845.723	18849.6
846.047	18851.41
846.371	18757.85
846.695	18620.91
847.019	18484.87
847.343	18485.32
847.666	18340.24
847.99	18382.27
848.313	18150.19
848.637	18142.28
848.96	18092.56
849.284	17990.64
849.607	17855.73
849.931	17756.75
850.254	17731.44
850.577	17414.16
850.9	17456.87
851.223	17417.55
851.546	17223.43
851.869	17123.09
852.192	17261.4
852.515	17017.56
852.838	16996.09
853.161	16891.24
853.483	16831.13
853.806	16630.45
854.129	16700.51
854.451	16630.45
854.774	16537.8
855.096	16551.36
855.419	16343.23
855.741	16331.7
856.063	16250.8
856.385	16247.19
856.708	16145.95
857.03	16194.31
857.352	16136.23
857.674	16149.56
857.996	16012.39
858.318	15941.88
858.64	15995.44
858.961	15971.26
859.283	15860.98
859.605	15892.62
859.926	15916.8
860.248	15922.67
860.57	15878.16
860.891	15933.97
861.212	15812.39
861.534	15780.76
861.855	15754.54
862.176	15745.5
862.498	15794.54
862.819	15769.46
863.14	15689.91
863.461	15667.54
863.782	15650.14
864.103	15675
864.424	15676.13
864.745	15691.72
865.065	15690.14
865.386	15508.22
865.707	15462.12
866.027	15469.35
866.348	15397.49
866.668	15428
866.989	15340.77
867.309	15288.79
867.63	15311.62
867.95	15266.87
868.27	15145.75
868.59	15296.48
868.91	15181.9
869.23	15189.13
869.55	15117.95
869.87	15132.64
870.19	15075.69
870.51	15003.83
870.83	14940.55
871.15	14888.13
871.469	14802.7
871.789	14810.84
872.109	14766.32
872.428	14625.31
872.748	14726.32
873.067	14534.46
873.386	14658.98
873.706	14471.64
874.025	14545.76
874.344	14453.11
874.663	14441.81
874.982	14443.17
875.301	14450.4
875.62	14308.93
875.939	14270.29
876.258	14363.85
876.577	14190.74
876.896	14242.27
877.214	14204.3
877.533	14313
877.852	14233.23
878.17	14275.71
878.489	14239.55
878.807	14221.93
879.125	14151.65
879.444	14159.33
879.762	14208.82
880.08	14227.8
880.398	14049.96
880.716	14068.94
881.034	13992.78
881.352	14049.05
881.67	14022.16
881.988	14062.38
882.306	14057.41
882.624	13918.66
882.941	14010.18
883.259	13936.96
883.577	13957.3
883.894	13858.1
884.212	13943.52
884.529	13854.25
884.846	13808.83
885.164	13908.26
885.481	13856.97
885.798	13946.68
886.115	13824.88
886.432	13762.05
886.75	13727.03
887.067	13759.34
887.383	13671.89
887.7	13656.29
888.017	13584.66
888.334	13596.86
888.651	13493.59
888.967	13475.28
889.284	13475.96
889.6	13383.53
889.917	13251.33
890.233	13246.81
890.55	13250.88
890.866	13339.47
891.182	13185.35
891.498	13100.15
891.815	13175.18
892.131	13082.98
892.447	13035.52
892.763	12930.21
893.079	12861.74
893.395	12725.92
893.71	12745.36
894.026	12651.8
894.342	12666.94
894.657	12543.55
894.973	12596.89
895.289	12544.23
895.604	12452.94
895.92	12290.68
896.235	12273.73
896.55	12268.76
896.865	12229.89
897.181	12185.82
897.496	12079.39
897.811	12076
898.126	11945.38
898.441	11963.68
898.756	11997.58
899.071	11908.54
899.386	11979.28
899.7	11785.83
900.015	11815.44
900.33	11677.81
900.644	11742.45
900.959	11713.29
901.273	11642.79
901.588	11646.85
901.902	11603.01
902.216	11562.34
902.531	11564.6
902.845	11547.42
903.159	11452.06
903.473	11405.05
903.787	11364.83
904.101	11299.75
904.415	11355.11
904.729	11336.81
905.042	11255.68
905.356	11233.53
905.67	11272.18
905.984	11202.12
906.297	11187.66
906.611	11113.08
906.924	11151.27
907.237	11038.28
907.551	10944.73
907.864	10957.38
908.177	10926.87
908.491	10938.17
908.804	10843.49
909.117	10824.05
909.43	10810.04
909.743	10700.21
910.056	10726.88
910.368	10633.32
910.681	10581.35
910.994	10570.05
911.307	10562.14
911.619	10427.68
911.932	10541.8
912.244	10419.54
912.557	10404.63
912.869	10265.2
913.181	10295.93
913.494	10212.54
913.806	10127.8
914.118	10045.99
914.43	10012.55
914.742	10001.02
915.054	9984.07
915.366	9909.95
915.678	9844.64
915.99	9811.87
916.302	9824.53
916.613	9713.12
916.925	9689.17
917.236	9575.72
917.548	9536.4
917.859	9493.92
918.171	9458.89
918.482	9468.61
918.794	9390.19
919.105	9290.31
919.416	9330.76
919.727	9165.34
920.038	9170.08
920.349	9135.96
920.66	9100.71
920.971	9104.32
921.282	8993.82
921.593	8972.57
921.903	8962.41
922.214	8858.91
922.525	8882.41
922.835	8777.55
923.146	8735.07
923.456	8763.54
923.767	8760.6
924.077	8757.89
924.387	8649.65
924.697	8654.17
925.008	8691.9
925.318	8565.13
925.628	8559.48
925.938	8530.33
926.248	8495.98
926.558	8440.16
926.867	8450.78
927.177	8423.21
927.487	8365.81
927.796	8326.72
928.106	8286.04
928.416	8289.65
928.725	8255.98
929.034	8213.27
929.344	8202.88
929.653	8157.91
929.962	8170.11
930.271	8119.49
930.581	8066.38
930.89	8064.12
931.199	8031.81
931.508	8027.06
931.817	7945.94
932.125	7994.3
932.434	7969.21
932.743	7894.19
933.051	7808.54
933.36	7871.36
933.669	7798.14
933.977	7757.47
934.286	7748.2
934.594	7740.52
934.902	7629.33
935.21	7648.77
935.519	7633.85
935.827	7554.98
936.135	7457.81
936.443	7436.57
936.751	7449
937.059	7458.49
937.367	7374.42
937.674	7368.1
937.982	7287.42
938.29	7262.11
938.597	7192.73
938.905	7155.45
939.213	7136.01
939.52	7033.19
939.827	7089.91
940.135	6974.44
940.442	6968.56
940.749	7012.17
941.056	6923.82
941.363	6807.66
941.67	6880.88
941.977	6821.44
942.284	6709.81
942.591	6671.17
942.898	6708.68
943.205	6634.11
943.511	6646.31
943.818	6578.06
944.125	6567.67
944.431	6556.14
944.738	6576.71
945.044	6464.62
945.35	6414.22
945.657	6344.17
945.963	6347.79
946.269	6328.8
946.575	6352.3
946.881	6261.69
947.187	6254.68
947.493	6193.21
947.799	6242.03
948.105	6233.89
948.41	6187.11
948.716	6171.29
949.022	6167.68
949.327	6156.6
949.633	6073.67
949.938	6060.11
950.244	6064.85
950.549	5994.35
950.854	6005.65
951.16	6046.55
951.465	5936.95
951.77	5952.32
952.075	5904.86
952.38	5915.48
952.685	5910.96
952.99	5880.9
953.294	5843.39
953.599	5868.93
953.904	5800.91
954.209	5762.04
954.513	5754.13
954.818	5812.66
955.122	5764.98
955.426	5717.97
955.731	5673.23
956.035	5653.79
956.339	5651.31
956.643	5616.05
956.948	5598.43
957.252	5606.34
957.556	5599.1
957.86	5542.16
958.163	5506.68
958.467	5496.73
958.771	5521.82
959.075	5470.29
959.378	5402.5
959.682	5428.94
959.985	5379.45
960.289	5301.03
960.592	5293.8
960.896	5245.44
961.199	5229.62
961.502	5271.2
961.805	5220.36
962.108	5207.02
962.411	5148.95
962.714	5132.9
963.017	5106.01
963.32	5098.33
963.623	5077.08
963.926	5071.66
964.228	5005.67
964.531	4986.69
964.833	4993.47
965.136	4917.99
965.438	4916.41
965.741	4903.08
966.043	4837.99
966.345	4844.32
966.648	4783.08
966.95	4764.78
967.252	4732.46
967.554	4734.49
967.856	4658.79
968.158	4654.72
968.46	4651.33
968.761	4633.03
969.063	4612.01
969.365	4560.49
969.666	4595.29
969.968	4518.23
970.269	4514.39
970.571	4490.21
970.872	4500.6
971.174	4440.49
971.475	4480.26
971.776	4434.16
972.077	4415.41
972.378	4404.79
972.679	4385.8
972.98	4386.48
973.281	4336.76
973.582	4341.96
973.883	4315.97
974.183	4279.82
974.484	4245.02
974.785	4275.52
975.085	4230.33
975.386	4243.89
975.686	4160.5
975.986	4153.49
976.287	4196.2
976.587	4180.38
976.887	4158.92
977.187	4139.26
977.487	4162.98
977.787	4076.43
978.087	4082.08
978.387	4071.23
978.687	4047.51
978.987	4009.32
979.286	4004.34
979.586	3981.75
979.885	3975.64
980.185	3953.72
980.484	3954.63
980.784	3904.01
981.083	3931.8
981.382	3968.86
981.682	3923.67
981.981	3917.34
982.28	3903.78
982.579	3838.47
982.878	3816.1
983.177	3809.55
983.475	3854.29
983.774	3824.91
984.073	3774.97
984.372	3791.24
984.67	3745.59
984.969	3776.55
985.267	3691.58
985.566	3707.85
985.864	3695.2
986.162	3685.03
986.461	3655.2
986.759	3643.68
987.057	3599.83
987.355	3611.81
987.653	3617.69
987.951	3543.57
988.249	3572.49
988.547	3510.35
988.844	3496.33
989.142	3518.71
989.44	3479.61
989.737	3456.79
990.035	3425.38
990.332	3403
990.63	3399.39
990.927	3403.46
991.224	3349.22
991.521	3353.74
991.819	3332.95
992.116	3304.02
992.413	3278.94
992.71	3240.75
993.006	3280.52
993.303	3228.32
993.6	3246.62
993.897	3193.07
994.193	3154.87
994.49	3157.59
994.787	3110.81
995.083	3113.29
995.379	3113.75
995.676	3062.45
995.972	3034.88
996.268	3034.65
996.565	3033.75
996.861	3004.37
997.157	2987.42
997.453	2986.29
997.749	2955.78
998.044	2939.51
998.34	2897.93
998.636	2922.34
998.932	2880.08
999.227	2906.97
999.523	2892.51
999.818	2821.1
1000.114	2829.23
1000.409	2819.97
1000.704	2792.4
1001	2779.07
1001.295	2793.98
1001.59	2783.13
1001.885	2780.87
1002.18	2758.73
1002.475	2738.16
1002.77	2706.3
1003.065	2697.94
1003.359	2732.29
1003.654	2699.29
1003.949	2674.66
1004.243	2636.92
1004.538	2628.11
1004.832	2657.26
1005.127	2633.08
1005.421	2626.98
1005.715	2577.94
1006.009	2574.32
1006.304	2539.75
1006.598	2559.86
1006.892	2548.79
1007.186	2544.27
1007.48	2513.76
1007.773	2473.31
1008.067	2461.11
1008.361	2444.61
1008.655	2446.42
1008.948	2451.62
1009.242	2458.62
1009.535	2440.77
1009.829	2413.43
1010.122	2423.14
1010.415	2370.71
1010.708	2371.84
1011.001	2349.47
1011.295	2324.61
1011.588	2352.18
1011.881	2329.59
1012.173	2317.83
1012.466	2301.79
1012.759	2313.54
1013.052	2304.5
1013.344	2257.72
1013.637	2239.42
1013.93	2250.27
1014.222	2236.25
1014.514	2205.52
1014.807	2198.74
1015.099	2182.24
1015.391	2181.57
1015.683	2125.52
1015.976	2096.37
1016.268	2081
1016.56	2072.87
1016.851	2078.52
1017.143	2075.81
1017.435	2058.63
1017.727	2056.37
1018.018	2075.58
1018.31	2028.8
1018.602	2036.03
1018.893	2001.46
1019.185	1996.49
1019.476	1993.78
1019.767	1965.75
1020.058	1939.77
1020.35	1925.75
1020.641	1893.89
1020.932	1923.95
1021.223	1888.24
1021.514	1869.48
1021.804	1850.28
1022.095	1866.55
1022.386	1819.54
1022.677	1841.01
1022.967	1816.6
1023.258	1777.28
1023.548	1783.16
1023.839	1753.78
1024.129	1747.68
1024.419	1741.58
1024.709	1729.6
1025	1727.79
1025.29	1735.03
1025.58	1667.91
1025.87	1681.02
1026.16	1676.72
1026.449	1677.85
1026.739	1665.2
1027.029	1625.2
1027.319	1642.82
1027.608	1609.38
1027.898	1607.12
1028.187	1617.51
1028.477	1570.06
1028.766	1584.29
1029.055	1579.77
1029.344	1563.5
1029.634	1526.89
1029.923	1526.22
1030.212	1539.32
1030.501	1511.98
1030.79	1495.48
1031.078	1482.6
1031.367	1505.88
1031.656	1479.89
1031.945	1490.29
1032.233	1469.04
1032.522	1459.78
1032.81	1429.04
1033.099	1436.73
1033.387	1417.29
1033.675	1392.21
1033.963	1406.67
1034.251	1389.72
1034.54	1379.33
1034.828	1385.66
1035.116	1349.72
1035.403	1350.18
1035.691	1350.63
1035.979	1348.14
1036.267	1333.45
1036.554	1344.3
1036.842	1355.83
1037.129	1325.09
1037.417	1297.75
1037.704	1298.65
1037.992	1256.62
1038.279	1285.77
1038.566	1270.63
1038.853	1270.63
1039.14	1270.63
