Data from blue_chair_FLMS001491_00031.txt Node
Date: Wed Feb 08 10:30:35 GMT 2017
User: dcchb
Spectrometer: FLMS00149
Trigger mode: 0
Integration Time (sec): 2.000000E-2
Scans to average: 10
Electric dark correction enabled: true
Nonlinearity correction enabled: false
Boxcar width: 0
XAxis mode: Wavelengths
Number of Pixels in Spectrum: 2048
>>>>>Begin Spectral Data<<<<<
341.393	-16.1
341.776	-16.1
342.16	-16.1
342.543	-60.39
342.927	-64.24
343.31	-57.23
343.693	-69.89
344.077	-60.17
344.46	-52.26
344.843	-53.84
345.226	-62.43
345.61	-23.56
345.993	-17.68
346.376	2.66
346.759	-20.62
347.142	19.38
347.525	66.83
347.908	76.33
348.291	65.93
348.674	80.62
349.057	105.93
349.44	125.36
349.823	120.84
350.206	159.04
350.588	163.78
350.971	178.92
351.354	199.26
351.737	222.76
352.119	225.93
352.502	236.77
352.884	219.6
353.267	239.71
353.65	256.66
354.032	284.91
354.414	271.57
354.797	263.89
355.179	286.26
355.562	286.94
355.944	302.76
356.326	302.53
356.709	288.3
357.091	304.79
357.473	314.29
357.855	298.01
358.238	302.31
358.62	310.67
359.002	311.35
359.384	308.86
359.766	295.08
360.148	306.15
360.53	296.88
360.912	279.71
361.294	316.32
361.676	299.37
362.057	292.37
362.439	310.67
362.821	307.05
363.203	295.53
363.584	275.64
363.966	281.97
364.348	290.11
364.729	251.24
365.111	304.12
365.493	279.94
365.874	284.23
366.256	280.84
366.637	275.42
367.019	268.86
367.4	252.82
367.781	280.84
368.163	273.16
368.544	285.36
368.925	279.48
369.306	296.88
369.688	273.61
370.069	279.48
370.45	269.77
370.831	275.42
371.212	262.08
371.593	280.61
371.974	283.55
372.355	293.5
372.736	287.39
373.117	266.6
373.498	286.49
373.879	265.47
374.26	268.86
374.641	294.4
375.021	294.17
375.402	289.65
375.783	291.01
376.163	287.39
376.544	286.26
376.925	265.7
377.305	298.69
377.686	264.57
378.066	292.82
378.447	269.31
378.827	284.23
379.208	287.85
379.588	274.51
379.968	294.17
380.349	285.13
380.729	285.81
381.109	286.04
381.489	284
381.87	281.74
382.25	298.47
382.63	301.86
383.01	298.47
383.39	300.73
383.77	273.38
384.15	290.78
384.53	301.4
384.91	292.59
385.29	288.75
385.67	278.81
386.049	312.25
386.429	307.28
386.809	296.43
387.189	301.18
387.568	303.21
387.948	305.25
388.328	296.43
388.707	296.88
389.087	291.91
389.466	318.58
389.846	321.07
390.225	309.09
390.605	303.44
390.984	335.08
391.363	290.56
391.743	293.27
392.122	312.7
392.501	314.06
392.881	302.08
393.26	322.87
393.639	320.16
394.018	319.48
394.397	303.89
394.776	302.31
395.155	308.18
395.534	304.79
395.913	301.4
396.292	308.86
396.671	315.64
397.05	319.48
397.429	329.2
397.808	315.87
398.186	316.55
398.565	334.85
398.944	303.44
399.323	312.25
399.701	329.88
400.08	331.01
400.458	322.87
400.837	337.56
401.215	319.26
401.594	336.43
401.972	312.48
402.351	327.84
402.729	333.95
403.107	326.94
403.486	340.27
403.864	338.47
404.242	319.03
404.62	347.73
404.999	342.08
405.377	332.14
405.755	343.89
406.133	357.22
406.511	349.54
406.889	336.43
407.267	338.69
407.645	361.29
408.023	370.1
408.401	346.15
408.779	364.45
409.156	339.37
409.534	381.85
409.912	349.76
410.29	376.2
410.667	360.16
411.045	359.93
411.422	383.21
411.8	366.26
412.178	378.24
412.555	367.62
412.933	365.36
413.31	383.66
413.687	366.49
414.065	375.75
414.442	399.26
414.819	368.07
415.197	375.75
415.574	392.25
415.951	386.83
416.328	378.46
416.705	395.19
417.082	385.92
417.46	378.69
417.837	387.73
418.214	381.18
418.591	380.27
418.967	388.63
419.344	395.19
419.721	375.75
420.098	390.22
420.475	382.53
420.852	392.93
421.228	409.42
421.605	401.74
421.982	409.2
422.358	411.23
422.735	404.68
423.111	405.13
423.488	392.7
423.864	397.9
424.241	409.65
424.617	405.81
424.994	430.44
425.37	435.19
425.746	420.95
426.123	437.67
426.499	432.25
426.875	437.22
427.251	448.29
427.627	439.71
428.003	461.85
428.379	443.55
428.756	443.32
429.132	453.72
429.507	447.62
429.883	479.25
430.259	437.45
430.635	450.1
431.011	473.83
431.387	454.62
431.763	470.89
432.138	481.74
432.514	452.36
432.89	469.54
433.265	478.12
433.641	499.59
434.016	478.35
434.392	507.05
434.767	498.69
435.143	515.18
435.518	524.9
435.894	514.51
436.269	519.03
436.644	529.42
437.02	547.27
437.395	524.22
437.77	540.95
438.145	541.17
438.52	542.3
438.895	547.95
439.271	572.13
439.646	551.34
440.021	547.27
440.395	567.84
440.77	574.39
441.145	576.65
441.52	588.85
441.895	594.5
442.27	583.21
442.645	603.32
443.019	605.58
443.394	609.42
443.769	589.08
444.143	607.84
444.518	612.58
444.892	609.64
445.267	587.72
445.641	594.05
446.016	605.35
446.39	633.83
446.764	622.75
447.139	634.73
447.513	645.12
447.887	633.15
448.262	661.85
448.636	643.77
449.01	621.4
449.384	642.19
449.758	672.69
450.132	659.59
450.506	664.56
450.88	651.68
451.254	659.14
451.628	650.77
452.002	676.31
452.376	672.92
452.75	681.96
453.123	683.99
453.497	707.5
453.871	694.61
454.244	691.68
454.618	697.33
454.992	720.15
455.365	701.85
455.739	724.44
456.112	715.86
456.486	712.24
456.859	736.65
457.232	747.04
457.606	735.07
457.979	746.59
458.352	772.13
458.725	763.54
459.099	752.24
459.472	795.85
459.845	763.54
460.218	786.14
460.591	813.71
460.964	795.85
461.337	810.77
461.71	811.45
462.083	807.61
462.456	831.56
462.829	811.45
463.201	832.69
463.574	815.52
463.947	834.72
464.32	832.69
464.692	842.41
465.065	836.08
465.438	866.81
465.81	870.2
466.183	879.47
466.555	904.1
466.928	893.93
467.3	892.8
467.672	909.07
468.045	902.52
468.417	938.68
468.789	926.7
469.161	931.67
469.534	951.56
469.906	962.63
470.278	967.15
470.65	941.39
471.022	967.6
471.394	994.49
471.766	999.92
472.138	991.78
472.51	1001.05
472.882	1012.12
473.253	1036.75
473.625	1032.46
473.997	1029.75
474.369	1049.41
474.74	1047.37
475.112	1079.46
475.484	1079.92
475.855	1088.28
476.227	1105.9
476.598	1125.56
476.97	1126.69
477.341	1143.64
477.713	1144.09
478.084	1166.24
478.455	1145
478.827	1172.57
479.198	1179.12
479.569	1195.17
479.94	1211.89
480.311	1212.34
480.682	1236.3
481.053	1264.54
481.424	1274.71
481.795	1293.69
482.166	1281.72
482.537	1293.47
482.908	1325.11
483.279	1341.83
483.65	1352.45
484.021	1352.9
484.391	1372.34
484.762	1375.73
485.133	1351.32
485.503	1401.26
485.874	1405.56
486.244	1407.14
486.615	1428.15
486.985	1441.26
487.356	1457.76
487.726	1469.74
488.097	1468.38
488.467	1476.29
488.837	1462.5
489.207	1524.2
489.578	1487.81
489.948	1536.17
490.318	1566.46
490.688	1560.35
491.058	1545.89
491.428	1560.13
491.798	1535.5
492.168	1590.18
492.538	1564.42
492.908	1595.61
493.278	1618.66
493.648	1616.17
494.017	1608.04
494.387	1579.34
494.757	1633.12
495.126	1646.91
495.496	1603.52
495.866	1650.52
496.235	1641.93
496.605	1663.18
496.974	1653.69
497.344	1658.43
497.713	1667.47
498.082	1646.91
498.452	1695.04
498.821	1685.55
499.19	1679.67
499.559	1694.36
499.928	1672.22
500.298	1692.55
500.667	1676.06
501.036	1690.75
501.405	1711.08
501.774	1678.77
502.143	1729.39
502.512	1704.31
502.88	1721.71
503.249	1702.95
503.618	1697.75
503.987	1698.66
504.356	1705.21
504.724	1714.25
505.093	1721.93
505.462	1692.33
505.83	1722.61
506.199	1722.84
506.567	1721.93
506.936	1713.34
507.304	1775.49
507.672	1696.4
508.041	1704.53
508.409	1712.67
508.777	1766.45
509.145	1731.42
509.514	1726
509.882	1727.36
510.25	1745.66
510.618	1724.64
510.986	1730.97
511.354	1742.04
511.722	1754.7
512.09	1718.77
512.458	1756.73
512.826	1766.45
513.193	1736.62
513.561	1731.2
513.929	1762.84
514.297	1751.31
514.664	1756.96
515.032	1760.12
515.4	1741.59
515.767	1737.07
516.135	1728.49
516.502	1736.85
516.869	1759.9
517.237	1724.87
517.604	1748.82
517.972	1763.74
518.339	1780.01
518.706	1723.29
519.073	1759.9
519.44	1718.77
519.808	1748.37
520.175	1761.71
520.542	1744.76
520.909	1713.34
521.276	1716.73
521.643	1724.87
522.009	1740.91
522.376	1785.89
522.743	1721.03
523.11	1737.3
523.477	1753.8
523.843	1765.32
524.21	1773.46
524.577	1759.22
524.943	1775.49
525.31	1746.34
525.676	1725.77
526.043	1728.03
526.409	1735.04
526.776	1751.08
527.142	1742.95
527.508	1780.46
527.874	1759.67
528.241	1767.58
528.607	1768.71
528.973	1760.12
529.339	1773.68
529.705	1725.1
530.071	1753.12
530.437	1755.38
530.803	1730.75
531.169	1781.14
531.535	1781.14
531.901	1755.83
532.267	1766.68
532.632	1742.27
532.998	1734.36
533.364	1731.88
533.73	1747.24
534.095	1737.3
534.461	1765.32
534.826	1771.2
535.192	1782.5
535.557	1755.15
535.923	1747.69
536.288	1742.5
536.653	1735.49
537.019	1746.34
537.384	1747.92
537.749	1755.6
538.114	1727.13
538.479	1762.38
538.845	1717.19
539.21	1735.04
539.575	1727.81
539.94	1691.42
540.305	1727.81
540.67	1706.11
541.034	1724.42
541.399	1716.06
541.764	1715.15
542.129	1741.59
542.494	1703.4
542.858	1716.51
543.223	1699.33
543.587	1695.49
543.952	1710.63
544.316	1708.15
544.681	1693.68
545.045	1718.32
545.41	1708.37
545.774	1698.2
546.138	1677.87
546.503	1683.97
546.867	1683.97
547.231	1670.18
547.595	1662.95
547.959	1691.65
548.324	1680.8
548.688	1668.15
549.052	1663.18
549.416	1668.6
549.779	1641.48
550.143	1648.26
550.507	1662.72
550.871	1627.02
551.235	1681.93
551.599	1645.32
551.962	1645.55
552.326	1647.13
552.689	1656.4
553.053	1636.96
553.417	1653.46
553.78	1636.96
554.143	1657.53
554.507	1636.51
554.87	1654.82
555.234	1635.61
555.597	1621.37
555.96	1612.56
556.323	1605.55
556.686	1647.13
557.05	1647.36
557.413	1645.1
557.776	1623.86
558.139	1631.54
558.502	1599.9
558.865	1609.84
559.228	1629.96
559.59	1648.49
559.953	1615.72
560.316	1625.21
560.679	1626.34
561.041	1624.76
561.404	1648.26
561.767	1648.26
562.129	1613.69
562.492	1630.41
562.854	1639
563.217	1625.44
563.579	1643.52
563.941	1629.96
564.304	1637.64
564.666	1618.88
565.028	1633.35
565.39	1677.87
565.753	1639.45
566.115	1665.89
566.477	1683.97
566.839	1651.43
567.201	1636.28
567.563	1650.75
567.925	1670.41
568.287	1656.17
568.648	1681.71
569.01	1661.37
569.372	1656.85
569.734	1673.8
570.095	1681.48
570.457	1666.11
570.819	1677.87
571.18	1694.36
571.542	1670.41
571.903	1686.68
572.265	1692.1
572.626	1700.01
572.987	1713.57
573.349	1689.39
573.71	1724.42
574.071	1707.47
574.432	1724.42
574.794	1738.43
575.155	1719.9
575.516	1719.45
575.877	1747.69
576.238	1747.24
576.599	1751.99
576.96	1730.52
577.32	1754.25
577.681	1763.74
578.042	1737.98
578.403	1769.16
578.763	1788.37
579.124	1765.09
579.485	1766.45
579.845	1794.47
580.206	1744.08
580.566	1751.54
580.927	1764.64
581.287	1782.04
581.648	1752.67
582.008	1786.34
582.368	1774.59
582.728	1788.37
583.089	1773.68
583.449	1794.7
583.809	1769.61
584.169	1798.54
584.529	1777.52
584.889	1796.51
585.249	1813.46
585.609	1808.71
585.969	1801.25
586.329	1810.52
586.688	1820.23
587.048	1819.56
587.408	1801.48
587.768	1770.52
588.127	1754.25
588.487	1792.89
588.846	1792.89
589.206	1804.64
589.565	1764.64
589.925	1782.5
590.284	1789.5
590.643	1787.02
591.003	1821.36
591.362	1782.72
591.721	1790.86
592.08	1785.21
592.44	1810.52
592.799	1810.29
593.158	1814.59
593.517	1783.4
593.876	1803.96
594.235	1800.8
594.593	1814.36
594.952	1798.09
595.311	1808.71
595.67	1816.39
596.029	1795.83
596.387	1808.71
596.746	1809.39
597.104	1811.65
597.463	1770.52
597.822	1801.03
598.18	1783.63
598.538	1778.65
598.897	1838.09
599.255	1819.56
599.613	1799.44
599.972	1787.02
600.33	1809.39
600.688	1774.81
601.046	1826.79
601.404	1805.09
601.762	1789.27
602.12	1784.98
602.478	1795.83
602.836	1808.26
603.194	1776.85
603.552	1799.9
603.91	1799.22
604.268	1822.72
604.625	1800.8
604.983	1793.79
605.341	1790.4
605.698	1808.03
606.056	1785.66
606.413	1795.15
606.771	1800.57
607.128	1804.87
607.485	1793.79
607.843	1795.6
608.2	1778.2
608.557	1780.91
608.914	1804.19
609.272	1814.81
609.629	1774.36
609.986	1835.15
610.343	1820.69
610.7	1806.9
611.057	1775.72
611.414	1809.16
611.771	1798.77
612.127	1828.82
612.484	1837.18
612.841	1825.88
613.198	1800.8
613.554	1811.42
613.911	1809.61
614.267	1813.91
614.624	1829.73
614.98	1822.95
615.337	1824.08
615.693	1830.4
616.05	1794.7
616.406	1836.51
616.762	1834.92
617.118	1855.26
617.475	1829.27
617.831	1856.39
618.187	1834.02
618.543	1857.52
618.899	1820.69
619.255	1820.69
619.611	1824.08
619.967	1869.5
620.323	1846.22
620.678	1853.45
621.034	1839.44
621.39	1837.64
621.746	1871.53
622.101	1855.71
622.457	1830.63
622.812	1860.01
623.168	1864.53
623.523	1844.64
623.879	1866.34
624.234	1855.94
624.589	1850.29
624.945	1876.5
625.3	1842.15
625.655	1864.53
626.01	1870.63
626.365	1885.77
626.72	1867.01
627.075	1893.91
627.43	1874.24
627.785	1830.86
628.14	1851.42
628.495	1879.22
628.85	1861.36
629.205	1859.78
629.559	1852.55
629.914	1847.13
630.269	1861.82
630.623	1845.54
630.978	1836.96
631.332	1853.91
631.687	1852.1
632.041	1871.53
632.396	1871.76
632.75	1826.56
633.104	1870.4
633.459	1838.77
633.813	1824.53
634.167	1847.8
634.521	1853.68
634.875	1844.19
635.229	1831.08
635.583	1862.95
635.937	1817.3
636.291	1835.83
636.645	1858.65
636.999	1872.66
637.352	1831.31
637.706	1815.26
638.06	1857.3
638.413	1844.64
638.767	1809.39
639.121	1874.92
639.474	1841.93
639.828	1804.87
640.181	1856.84
640.534	1843.28
640.888	1844.64
641.241	1820.01
641.594	1816.17
641.947	1856.62
642.301	1827.24
642.654	1843.74
643.007	1849.84
643.36	1824.75
643.713	1817.52
644.066	1815.71
644.419	1804.87
644.771	1815.71
645.124	1809.61
645.477	1787.92
645.83	1799.22
646.182	1775.49
646.535	1764.87
646.888	1789.73
647.24	1800.57
647.593	1813.23
647.945	1819.56
648.298	1755.83
648.65	1782.04
649.002	1799.44
649.355	1806.45
649.707	1789.5
650.059	1786.56
650.411	1821.82
650.763	1839.9
651.115	1854.13
651.467	1831.76
651.819	1836.96
652.171	1860.69
652.523	1875.6
652.875	1817.07
653.227	1843.28
653.578	1854.13
653.93	1832.89
654.282	1813.68
654.633	1804.64
654.985	1855.49
655.337	1807.35
655.688	1834.92
656.039	1810.07
656.391	1811.87
656.742	1837.41
657.094	1817.3
657.445	1861.82
657.796	1862.27
658.147	1840.8
658.498	1858.65
658.849	1852.78
659.2	1849.39
659.551	1870.4
659.902	1838.31
660.253	1845.77
660.604	1839.44
660.955	1850.97
661.306	1871.76
661.656	1862.04
662.007	1855.04
662.358	1856.39
662.708	1867.01
663.059	1851.19
663.409	1860.69
663.76	1859.56
664.11	1832.21
664.461	1858.2
664.811	1840.35
665.161	1856.39
665.511	1878.76
665.862	1854.36
666.212	1869.27
666.562	1850.29
666.912	1854.81
667.262	1830.4
667.612	1857.52
667.962	1840.35
668.312	1850.06
668.662	1860.69
669.011	1876.28
669.361	1839.44
669.711	1827.24
670.06	1839.9
670.41	1831.76
670.76	1849.16
671.109	1867.24
671.459	1800.35
671.808	1824.08
672.157	1838.77
672.507	1840.57
672.856	1830.63
673.205	1834.25
673.554	1871.08
673.904	1823.4
674.253	1833.12
674.602	1818.65
674.951	1815.49
675.3	1809.61
675.649	1815.49
675.998	1835.15
676.346	1793.79
676.695	1834.7
677.044	1784.53
677.393	1794.25
677.741	1835.15
678.09	1793.79
678.438	1803.06
678.787	1784.53
679.135	1775.04
679.484	1775.04
679.832	1780.24
680.181	1804.19
680.529	1770.97
680.877	1793.79
681.225	1773.23
681.573	1765.32
681.922	1762.84
682.27	1767.13
682.618	1756.06
682.966	1749.95
683.314	1763.96
683.661	1766.9
684.009	1752.67
684.357	1752.44
684.705	1739.56
685.053	1730.07
685.4	1724.64
685.748	1734.36
686.095	1740.24
686.443	1714.7
686.79	1707.24
687.138	1749.5
687.485	1714.93
687.832	1714.02
688.18	1729.62
688.527	1692.1
688.874	1718.54
689.221	1719.9
689.568	1691.88
689.915	1700.92
690.262	1674.7
690.609	1671.99
690.956	1672.67
691.303	1670.86
691.65	1676.28
691.997	1682.84
692.344	1667.92
692.69	1649.17
693.037	1665.21
693.383	1656.17
693.73	1641.26
694.077	1627.47
694.423	1616.17
694.769	1632.22
695.116	1626.79
695.462	1642.39
695.808	1653.23
696.155	1648.04
696.501	1590.41
696.847	1602.84
697.193	1594.25
697.539	1615.27
697.885	1595.38
698.231	1592.22
698.577	1604.65
698.923	1606.45
699.269	1576.63
699.614	1570.75
699.96	1625.89
700.306	1586.79
700.651	1590.41
700.997	1610.3
701.342	1568.94
701.688	1573.01
702.033	1560.81
702.379	1529.85
702.724	1549.96
703.069	1537.53
703.415	1555.38
703.76	1569.62
704.105	1543.41
704.45	1553.57
704.795	1545.67
705.14	1552.9
705.485	1534.14
705.83	1517.42
706.175	1547.25
706.52	1534.14
706.865	1532.78
707.209	1535.72
707.554	1523.07
707.899	1548.15
708.243	1544.08
708.588	1534.59
708.932	1544.99
709.277	1514.71
709.621	1540.47
709.966	1531.43
710.31	1523.52
710.654	1521.94
710.998	1515.61
711.342	1508.38
711.687	1514.03
712.031	1528.49
712.375	1501.37
712.719	1541.6
713.063	1539.79
713.407	1547.25
713.75	1538.21
714.094	1517.64
714.438	1548.83
714.782	1531.88
715.125	1519.23
715.469	1540.69
715.812	1532.33
716.156	1548.15
716.499	1537.98
716.843	1550.19
717.186	1556.06
717.53	1533.01
717.873	1551.32
718.216	1545.67
718.559	1548.83
718.902	1528.26
719.246	1544.54
719.589	1550.86
719.932	1587.47
720.275	1575.95
720.617	1573.69
720.96	1568.94
721.303	1571.65
721.646	1545.67
721.989	1604.2
722.331	1582.73
722.674	1576.17
723.016	1565.55
723.359	1565.55
723.701	1607.58
724.044	1574.14
724.386	1591.54
724.729	1601.03
725.071	1587.25
725.413	1574.82
725.755	1596.29
726.097	1612.56
726.439	1608.94
726.782	1578.43
727.124	1597.42
727.465	1617.98
727.807	1611.88
728.149	1627.25
728.491	1625.66
728.833	1648.49
729.175	1642.39
729.516	1645.55
729.858	1683.74
730.199	1653.91
730.541	1668.37
730.882	1677.19
731.224	1678.77
731.565	1672.67
731.906	1689.16
732.248	1693.23
732.589	1695.27
732.93	1711.08
733.271	1696.85
733.612	1747.69
733.953	1734.81
734.294	1734.81
734.635	1704.53
734.976	1731.88
735.317	1756.73
735.658	1739.11
735.999	1748.6
736.339	1762.16
736.68	1776.39
737.021	1792.89
737.361	1761.25
737.702	1812.55
738.042	1821.14
738.383	1811.65
738.723	1812.33
739.063	1832.89
739.404	1846.45
739.744	1872.89
740.084	1859.78
740.424	1864.08
740.764	1862.95
741.104	1887.35
741.444	1900.23
741.784	1913.11
742.124	1933.23
742.464	1946.78
742.804	1942.27
743.143	1960.8
743.483	1970.51
743.823	1980
744.162	2011.42
744.502	2028.36
744.841	2012.09
745.181	2075.82
745.52	2076.95
745.86	2108.59
746.199	2120.79
746.538	2139.55
746.877	2139.1
747.216	2175.25
747.556	2157.4
747.895	2241.69
748.234	2222.71
748.573	2277.85
748.911	2309.04
749.25	2323.05
749.589	2346.32
749.928	2372.31
750.267	2404.17
750.605	2443.72
750.944	2452.08
751.283	2485.08
751.621	2511.52
751.96	2562.59
752.298	2615.92
752.636	2629.7
752.975	2641.91
753.313	2669.93
753.651	2722.81
753.989	2793.32
754.327	2774.33
754.666	2827.21
755.004	2895.01
755.342	2892.52
755.679	2966.19
756.017	2984.05
756.355	3028.11
756.693	3071.5
757.031	3114.66
757.368	3138.39
757.706	3196.02
758.044	3217.26
758.381	3256.13
758.719	3285.73
759.056	3349.46
759.394	3403.92
759.731	3385.84
760.068	3446.86
760.405	3525.95
760.743	3531.38
761.08	3569.57
761.417	3619.28
761.754	3631.49
762.091	3686.17
762.428	3715.55
762.765	3723.46
763.102	3826.51
763.438	3825.38
763.775	3825.83
764.112	3888.65
764.449	3935.66
764.785	3979.95
765.122	3956.22
765.458	4027.41
765.795	4093.62
766.131	4081.87
766.467	4141.08
766.804	4114.64
767.14	4150.12
767.476	4168.65
767.812	4185.6
768.148	4271.47
768.485	4251.36
768.821	4291.58
769.157	4319.6
769.492	4360.96
769.828	4349.66
770.164	4327.29
770.5	4416.32
770.836	4436.89
771.171	4428.98
771.507	4445.7
771.842	4407.96
772.178	4450.45
772.513	4490.45
772.849	4484.35
773.184	4514.85
773.519	4538.13
773.855	4549.65
774.19	4528.41
774.525	4487.06
774.86	4509.2
775.195	4573.38
775.53	4583.55
775.865	4529.54
776.2	4532.93
776.535	4511.69
776.87	4543.33
777.205	4585.36
777.539	4574.74
777.874	4589.43
778.209	4596.88
778.543	4598.69
778.878	4577
779.212	4609.09
779.547	4593.95
779.881	4572.93
780.215	4573.83
780.55	4598.92
780.884	4602.53
781.218	4602.08
781.552	4642.99
781.886	4604.57
782.22	4596.21
782.554	4621.52
782.888	4550.11
783.222	4598.69
783.556	4611.57
783.889	4525.02
784.223	4536.55
784.557	4559.37
784.89	4571.8
785.224	4494.29
785.557	4556.43
785.891	4511.46
786.224	4558.24
786.558	4569.31
786.891	4498.13
787.224	4518.24
787.557	4476.66
787.891	4502.88
788.224	4485.02
788.557	4513.95
788.89	4465.59
789.223	4482.31
789.556	4464.46
789.888	4448.41
790.221	4425.36
790.554	4427.62
790.887	4398.02
791.219	4430.34
791.552	4450.67
791.884	4438.02
792.217	4434.4
792.549	4371.13
792.882	4355.31
793.214	4376.55
793.546	4381.52
793.879	4378.36
794.211	4363.44
794.543	4372.94
794.875	4347.4
795.207	4361.18
795.539	4361.18
795.871	4330.45
796.203	4326.84
796.535	4302.2
796.867	4343.56
797.198	4281.41
797.53	4306.27
797.862	4273.05
798.193	4262.2
798.525	4253.84
798.856	4250.23
799.188	4206.16
799.519	4216.78
799.85	4224.47
800.182	4219.04
800.513	4213.62
800.844	4202.77
801.175	4185.6
801.506	4191.02
801.837	4160.74
802.168	4142.43
802.499	4165.26
802.83	4128.65
803.161	4183.11
803.491	4160.29
803.822	4113.06
804.153	4077.12
804.483	4120.29
804.814	4046.39
805.145	4095.66
805.475	4049.33
805.805	4073.51
806.136	4078.71
806.466	4071.7
806.796	4054.53
807.126	4040.52
807.457	4040.74
807.787	4070.34
808.117	4042.78
808.447	4008.43
808.777	4047.75
809.107	3985.83
809.436	4029.44
809.766	4003
810.096	4003.45
810.426	4001.19
810.755	3981.31
811.085	3967.52
811.414	3961.2
811.744	3908.32
812.073	3959.39
812.403	3979.05
812.732	3888.65
813.061	3946.51
813.39	3895.21
813.719	3917.35
814.049	3908.99
814.378	3906.51
814.707	3897.02
815.036	3883.23
815.365	3867.41
815.693	3842.33
816.022	3857.92
816.351	3867.86
816.68	3840.52
817.008	3784.25
817.337	3804.59
817.665	3785.38
817.994	3773.86
818.322	3808.43
818.651	3807.53
818.979	3852.72
819.307	3783.35
819.636	3735.66
819.964	3772.73
820.292	3797.13
820.62	3719.39
820.948	3738.38
821.276	3781.54
821.604	3717.81
821.932	3811.82
822.259	3758.49
822.587	3780.41
822.915	3745.83
823.243	3787.87
823.57	3769.79
823.898	3787.41
824.225	3763.01
824.553	3762.1
824.88	3788.77
825.207	3795.1
825.535	3782.67
825.862	3806.85
826.189	3753.74
826.516	3801.65
826.843	3771.14
827.17	3763.91
827.497	3794.87
827.824	3744.93
828.151	3780.18
828.478	3807.98
828.805	3832.39
829.131	3779.51
829.458	3797.81
829.785	3778.6
830.111	3803.69
830.438	3824.48
830.764	3822.89
831.09	3804.14
831.417	3774.76
831.743	3796.45
832.069	3730.47
832.395	3734.08
832.722	3789.9
833.048	3761.65
833.374	3763.23
833.7	3749.45
834.026	3723.69
834.351	3786.28
834.677	3749.9
835.003	3752.61
835.329	3738.6
835.654	3733.18
835.98	3739.73
836.306	3756
836.631	3752.39
836.956	3751.26
837.282	3697.7
837.607	3722.33
837.932	3694.76
838.258	3707.87
838.583	3721.88
838.908	3706.29
839.233	3681.65
839.558	3716
839.883	3672.84
840.208	3664.93
840.533	3663.35
840.858	3698.15
841.182	3690.69
841.507	3686.63
841.832	3654.54
842.156	3634.2
842.481	3642.56
842.805	3636.46
843.13	3622.67
843.454	3608.66
843.778	3593.3
844.103	3594.2
844.427	3607.98
844.751	3598.72
845.075	3588.1
845.399	3588.78
845.723	3572.28
846.047	3554.43
846.371	3523.01
846.695	3547.42
847.019	3542
847.343	3473.3
847.666	3482.56
847.99	3450.7
848.313	3440.31
848.637	3475.78
848.96	3417.03
849.284	3406.41
849.607	3417.48
849.931	3367.54
850.254	3356.92
850.577	3398.27
850.9	3340.65
851.223	3318.27
851.546	3367.31
851.869	3347.2
852.192	3323.92
852.515	3258.84
852.838	3258.39
853.161	3284.6
853.483	3257.94
853.806	3245.96
854.129	3233.08
854.451	3245.06
854.774	3246.19
855.096	3266.75
855.419	3229.24
855.741	3233.3
856.063	3184.27
856.385	3190.37
856.708	3215.23
857.03	3159.41
857.352	3158.5
857.674	3132.74
857.996	3159.86
858.318	3144.49
858.64	3148.56
858.961	3146.3
859.283	3106.98
859.605	3102.69
859.926	3109.69
860.248	3100.88
860.57	3088.22
860.891	3084.38
861.212	3098.62
861.534	3060.43
861.855	3050.94
862.176	3068.11
862.498	3070.15
862.819	3038.28
863.14	3023.37
863.461	3099.07
863.782	3034.44
864.103	2998.28
864.424	3003.03
864.745	3008.9
865.065	3005.51
865.386	2990.15
865.707	3014.1
866.027	2978.85
866.348	2974.78
866.668	3001.22
866.989	3011.84
867.309	2962.8
867.63	2959.41
867.95	2960.32
868.27	2961.67
868.59	2953.76
868.91	2963.93
869.23	2937.04
869.55	2948.79
869.87	2954.89
870.19	2932.75
870.51	2924.61
870.83	2962.8
871.15	2915.35
871.469	2932.52
871.789	2932.97
872.109	2950.83
872.428	2899.98
872.748	2901.79
873.067	2915.12
873.386	2929.58
873.706	2902.24
874.025	2897.49
874.344	2881.9
874.663	2841.22
874.982	2880.32
875.301	2880.09
875.62	2874.22
875.939	2879.87
876.258	2862.92
876.577	2853.65
876.896	2838.29
877.214	2843.03
877.533	2859.76
877.852	2822.69
878.17	2813.2
878.489	2811.4
878.807	2819.76
879.125	2806.42
879.444	2831.51
879.762	2826.54
880.08	2812.98
880.398	2789.25
880.716	2791.73
881.034	2809.81
881.352	2758.97
881.67	2770.04
881.988	2800.32
882.306	2785.86
882.624	2760.55
882.941	2735.24
883.259	2752.41
883.577	2758.52
883.894	2722.58
884.212	2747.89
884.529	2720.55
884.846	2726.43
885.164	2714.45
885.481	2715.8
885.798	2742.24
886.115	2707.67
886.432	2716.48
886.75	2676.94
887.067	2705.18
887.383	2703.38
887.7	2705.41
888.017	2686.88
888.334	2673.32
888.651	2640.78
888.967	2677.39
889.284	2647.33
889.6	2626.77
889.917	2629.03
890.233	2619.99
890.55	2629.7
890.866	2620.89
891.182	2589.25
891.498	2602.81
891.815	2616.6
892.131	2564.4
892.447	2564.62
892.763	2567.11
893.079	2563.49
893.395	2576.82
893.71	2539.76
894.026	2563.72
894.342	2516.94
894.657	2513.32
894.973	2518.07
895.289	2527.11
895.604	2499.76
895.92	2502.48
896.235	2507.22
896.55	2490.73
896.865	2492.08
897.181	2457.96
897.496	2471.52
897.811	2466.32
898.126	2441.46
898.441	2452.99
898.756	2436.72
899.071	2410.73
899.386	2388.36
899.7	2419.99
900.015	2386.32
900.33	2378.19
900.644	2376.6
900.959	2350.84
901.273	2393.78
901.588	2366.66
901.902	2357.4
902.216	2336.83
902.531	2326.21
902.845	2306.1
903.159	2374.57
903.473	2320.79
903.787	2307.68
904.101	2316.72
904.415	2288.47
904.729	2287.34
905.042	2251.41
905.356	2248.92
905.67	2250.05
905.984	2270.17
906.297	2243.5
906.611	2237.17
906.924	2228.13
907.237	2230.17
907.551	2229.04
907.864	2210.73
908.177	2171.41
908.491	2187
908.804	2176.38
909.117	2174.8
909.43	2170.06
909.743	2132.54
910.056	2158.3
910.368	2144.07
910.681	2140.23
910.994	2106.1
911.307	2121.7
911.619	2126.44
911.932	2094.13
912.244	2089.61
912.557	2069.27
912.869	2099.55
913.181	2098.87
913.494	2065.2
913.806	2053.67
914.118	2048.93
914.43	2050.06
914.742	2030.85
915.054	2050.06
915.366	2015.71
915.678	2018.87
915.99	1999.21
916.302	2011.42
916.613	1999.89
916.925	1985.2
917.236	1993.79
917.548	1956.95
917.859	1961.25
918.171	1959.89
918.482	1936.39
918.794	1947.69
919.105	1951.08
919.416	1926.45
919.727	1964.19
920.038	1910.63
920.349	1903.62
920.66	1905.66
920.971	1902.94
921.282	1865.88
921.593	1886.67
921.903	1872.66
922.214	1887.35
922.525	1875.83
922.835	1831.53
923.146	1827.01
923.456	1866.11
923.767	1836.73
924.077	1859.78
924.387	1815.04
924.697	1834.47
925.008	1834.02
925.318	1813.46
925.628	1816.84
925.938	1831.53
926.248	1776.62
926.558	1764.19
926.867	1767.35
927.177	1756.06
927.487	1731.2
927.796	1754.47
928.106	1769.16
928.416	1761.71
928.725	1733.23
929.034	1725.77
929.344	1725.1
929.653	1712.89
929.962	1724.87
930.271	1728.03
930.581	1730.29
930.89	1691.42
931.199	1700.24
931.508	1684.87
931.817	1693.46
932.125	1695.94
932.434	1668.15
932.743	1657.53
933.051	1643.06
933.36	1637.64
933.669	1640.13
933.977	1659.33
934.286	1641.93
934.594	1641.26
934.902	1616.62
935.21	1598.77
935.519	1620.24
935.827	1613.46
936.135	1585.44
936.443	1601.71
936.751	1581.82
937.059	1610.52
937.367	1574.37
937.674	1596.74
937.982	1573.46
938.29	1553.57
938.597	1560.81
938.905	1557.64
939.213	1523.97
939.52	1547.7
939.827	1526.68
940.135	1521.94
940.442	1530.52
940.749	1537.53
941.056	1528.26
941.363	1482.62
941.67	1497.08
941.977	1483.52
942.284	1492.56
942.591	1490.53
942.898	1485.33
943.205	1488.72
943.511	1476.51
943.818	1469.06
944.125	1475.38
944.431	1446.69
944.738	1466.12
945.044	1439.45
945.35	1454.59
945.657	1416.86
945.963	1441.49
946.269	1420.02
946.575	1421.6
946.881	1414.82
947.187	1417.31
947.493	1423.18
947.799	1393.35
948.105	1392.45
948.41	1375.5
948.716	1374.82
949.022	1381.15
949.327	1366.01
949.633	1374.82
949.938	1364.2
950.244	1346.35
950.549	1332.34
950.854	1338.44
951.16	1366.24
951.465	1342.96
951.77	1328.04
952.075	1306.35
952.38	1325.11
952.685	1318.55
952.99	1326.24
953.294	1336.63
953.599	1307.48
953.904	1297.54
954.209	1298.67
954.513	1311.77
954.818	1295.73
955.122	1279.68
955.426	1288.5
955.731	1264.09
956.035	1271.32
956.339	1304.77
956.643	1281.04
956.948	1256.18
957.252	1241.94
957.556	1264.54
957.86	1245.11
958.163	1237.65
958.467	1237.43
958.771	1206.47
959.075	1235.39
959.378	1210.76
959.682	1217.09
959.985	1193.36
960.289	1240.81
960.592	1182.51
960.896	1221.61
961.199	1208.27
961.502	1198.56
961.805	1186.8
962.108	1173.92
962.411	1175.96
962.714	1161.72
963.017	1173.7
963.32	1170.31
963.623	1166.69
963.926	1192.68
964.228	1145.9
964.531	1145.9
964.833	1134.6
965.136	1153.36
965.438	1155.39
965.741	1124.89
966.043	1140.25
966.345	1156.3
966.648	1116.75
966.95	1141.38
967.252	1126.47
967.554	1107.49
967.856	1104.55
968.158	1140.93
968.46	1108.61
968.761	1117.65
969.063	1098.67
969.365	1102.97
969.666	1113.81
969.968	1082.17
970.269	1086.47
970.571	1049.41
970.872	1084.66
971.174	1090.99
971.475	1097.99
971.776	1058.67
972.077	1053.02
972.378	1088.05
972.679	1062.51
972.98	1053.02
973.281	1052.12
973.582	1026.58
973.883	1048.96
974.183	1038.79
974.484	1034.72
974.785	1006.47
975.085	1036.07
975.386	1016.41
975.686	1024.78
975.986	1016.19
976.287	1010.76
976.587	998.11
976.887	1008.05
977.187	990.43
977.487	996.3
977.787	979.8
978.087	972.35
978.387	1019.35
978.687	1001.95
978.987	1014.15
979.286	985.45
979.586	961.27
979.885	964.66
980.185	991.33
980.484	959.01
980.784	972.8
981.083	952.23
981.382	940.48
981.682	951.33
981.981	963.31
982.28	980.03
982.579	926.47
982.878	955.17
983.177	951.33
983.475	929.18
983.774	899.81
984.073	909.75
984.372	939.81
984.67	923.76
984.969	929.18
985.267	913.37
985.566	927.6
985.864	891.22
986.162	913.37
986.461	914.04
986.759	898
987.057	904.78
987.355	922.86
987.653	906.36
987.951	889.86
988.249	875.17
988.547	872.46
988.844	874.72
989.142	859.13
989.44	876.3
989.737	872.46
990.035	850.54
990.332	854.84
990.63	855.51
990.927	863.42
991.224	855.06
991.521	862.75
991.819	851.22
992.116	828.62
992.413	850.99
992.71	847.38
993.006	848.73
993.303	853.71
993.6	842.41
993.897	832.24
994.193	833.59
994.49	811.67
994.787	802.86
995.083	832.92
995.379	802.86
995.676	812.8
995.972	800.6
996.268	789.08
996.565	786.36
996.861	786.14
997.157	791.11
997.453	792.01
997.749	797.44
998.044	764.67
998.34	789.98
998.636	785.23
998.932	777.32
999.227	798.34
999.523	784.33
999.818	760.6
1000.114	772.8
1000.409	758.12
1000.704	768.96
1001	771
1001.295	751.56
1001.59	739.59
1001.885	755.4
1002.18	766.93
1002.475	740.49
1002.77	743.65
1003.065	742.3
1003.359	718.12
1003.654	717.89
1003.949	739.13
1004.243	724.44
1004.538	729.19
1004.832	729.64
1005.127	728.06
1005.421	728.51
1005.715	702.07
1006.009	732.58
1006.304	701.85
1006.598	712.92
1006.892	718.12
1007.186	711.11
1007.48	712.24
1007.773	697.1
1008.067	679.25
1008.361	678.57
1008.655	687.84
1008.948	674.73
1009.242	683.77
1009.535	664.11
1009.829	692.13
1010.122	662.98
1010.415	703.65
1010.708	645.35
1011.001	659.36
1011.295	645.35
1011.588	665.24
1011.881	665.91
1012.173	678.8
1012.466	654.84
1012.759	653.49
1013.052	655.75
1013.344	654.39
1013.637	667.27
1013.93	642.41
1014.222	623.43
1014.514	638.34
1014.807	632.02
1015.099	625.69
1015.391	636.31
1015.683	646.03
1015.976	622.53
1016.268	613.49
1016.56	637.67
1016.851	613.03
1017.143	603.09
1017.435	608.74
1017.727	595.63
1018.018	615.07
1018.31	618.46
1018.602	612.81
1018.893	597.89
1019.185	615.29
1019.476	571.23
1019.767	592.92
1020.058	581.85
1020.35	590.44
1020.641	587.27
1020.932	582.98
1021.223	586.59
1021.514	559.93
1021.804	608.97
1022.095	558.12
1022.386	576.65
1022.677	578.23
1022.967	548.86
1023.258	554.05
1023.548	550.44
1023.839	589.31
1024.129	560.61
1024.419	580.95
1024.709	551.57
1025	554.51
1025.29	553.15
1025.58	539.59
1025.87	537.78
1026.16	531
1026.449	551.79
1026.739	531.23
1027.029	539.36
1027.319	544.34
1027.608	550.66
1027.898	549.76
1028.187	510.89
1028.477	531
1028.766	519.25
1029.055	534.17
1029.344	526.26
1029.634	520.16
1029.923	512.25
1030.212	513.6
1030.501	498.69
1030.79	506.37
1031.078	517.67
1031.367	514.05
1031.656	506.37
1031.945	495.07
1032.233	499.82
1032.522	515.18
1032.81	500.72
1033.099	491
1033.387	487.84
1033.675	504.56
1033.963	503.89
1034.251	493.94
1034.54	486.71
1034.828	490.1
1035.116	503.66
1035.403	477.45
1035.691	483.77
1035.979	482.64
1036.267	490.1
1036.554	502.53
1036.842	462.98
1037.129	461.85
1037.417	465.92
1037.704	479.48
1037.992	481.29
1038.279	456.43
1038.566	465.69
1038.853	465.69
1039.14	465.69
