Data from blue_chair_FLMS001491_00053.txt Node
Date: Wed Feb 08 10:31:17 GMT 2017
User: dcchb
Spectrometer: FLMS00149
Trigger mode: 0
Integration Time (sec): 2.000000E-2
Scans to average: 10
Electric dark correction enabled: true
Nonlinearity correction enabled: false
Boxcar width: 0
XAxis mode: Wavelengths
Number of Pixels in Spectrum: 2048
>>>>>Begin Spectral Data<<<<<
341.393	-24.38
341.776	-24.38
342.16	-24.38
342.543	-50.14
342.927	-56.24
343.31	-75.68
343.693	-70.25
344.077	-74.09
344.46	-67.31
344.843	-39.52
345.226	-15.56
345.61	-26.64
345.993	-21.89
346.376	-10.37
346.759	22.85
347.142	29.41
347.525	19.91
347.908	55.85
348.291	65.34
348.674	95.84
349.057	112.12
349.44	124.54
349.823	144.88
350.206	163.41
350.588	156.18
350.971	191.66
351.354	211.32
351.737	221.04
352.119	250.19
352.502	236.18
352.884	255.61
353.267	246.8
353.65	267.82
354.032	267.14
354.414	281.6
354.797	308.49
355.179	301.26
355.562	293.58
355.944	279.34
356.326	305.56
356.709	309.85
357.091	303.75
357.473	330.64
357.855	305.56
358.238	317.08
358.62	318.44
359.002	337.65
359.384	336.52
359.766	329.06
360.148	327.93
360.53	314.82
360.912	315.5
361.294	305.33
361.676	305.33
362.057	306.91
362.439	303.07
362.821	308.72
363.203	311.43
363.584	315.27
363.966	314.37
364.348	295.84
364.729	300.81
365.111	302.39
365.493	289.29
365.874	300.81
366.256	326.12
366.637	282.28
367.019	298.33
367.4	284.77
367.781	285.67
368.163	287.7
368.544	276.41
368.925	270.76
369.306	288.83
369.688	281.6
370.069	275.28
370.45	273.47
370.831	290.19
371.212	284.09
371.593	303.3
371.974	282.96
372.355	288.16
372.736	277.31
373.117	287.03
373.498	278.66
373.879	310.75
374.26	301.94
374.641	267.37
375.021	280.47
375.402	289.51
375.783	281.83
376.163	291.32
376.544	307.59
376.925	296.29
377.305	311.43
377.686	307.59
378.066	284.09
378.447	287.48
378.827	296.52
379.208	283.41
379.588	274.15
379.968	299.23
380.349	293.35
380.729	296.52
381.109	304.88
381.489	273.92
381.87	287.93
382.25	314.14
382.63	310.98
383.01	320.47
383.39	285.67
383.77	286.35
384.15	309.62
384.53	316.86
384.91	309.17
385.29	326.35
385.67	317.08
386.049	314.6
386.429	318.66
386.809	309.62
387.189	316.63
387.568	324.31
387.948	307.14
388.328	296.07
388.707	301.49
389.087	302.62
389.466	296.29
389.846	296.52
390.225	343.52
390.605	324.31
390.984	314.14
391.363	301.04
391.743	324.09
392.122	312.11
392.501	319.57
392.881	318.21
393.26	322.51
393.639	323.64
394.018	313.01
394.397	299.68
394.776	327.7
395.155	324.77
395.534	314.82
395.913	334.26
396.292	343.3
396.671	322.05
397.05	345.1
397.429	346.69
397.808	337.42
398.186	335.84
398.565	336.97
398.944	327.7
399.323	348.49
399.701	334.48
400.08	335.16
400.458	327.48
400.837	348.04
401.215	350.75
401.594	331.77
401.972	334.03
402.351	332.9
402.729	364.09
403.107	363.41
403.486	357.53
403.864	336.06
404.242	371.77
404.62	349.4
404.999	353.01
405.377	374.26
405.755	339.68
406.133	367.93
406.511	364.09
406.889	390.3
407.267	382.17
407.645	370.19
408.023	376.74
408.401	383.97
408.779	376.29
409.156	379.68
409.534	386.23
409.912	384.42
410.29	394.14
410.667	393.92
411.045	382.17
411.422	391.88
411.8	397.08
412.178	411.77
412.555	409.28
412.933	418.55
413.31	415.61
413.687	416.51
414.065	417.87
414.442	428.04
414.819	412.45
415.197	429.4
415.574	428.72
415.951	425.1
416.328	428.04
416.705	434.37
417.082	430.53
417.46	425.1
417.837	405.44
418.214	433.92
418.591	435.27
418.967	448.38
419.344	438.43
419.721	408.61
420.098	442.95
420.475	446.34
420.852	423.75
421.228	442.73
421.605	453.58
421.982	455.16
422.358	465.78
422.735	450.41
423.111	475.5
423.488	473.91
423.864	485.67
424.241	491.77
424.617	491.77
424.994	493.35
425.37	502.61
425.746	515.04
426.123	489.96
426.499	490.64
426.875	491.09
427.251	527.02
427.627	549.17
428.003	499.45
428.379	513.91
428.756	524.08
429.132	537.64
429.507	499.68
429.883	527.92
430.259	530.86
430.635	542.39
431.011	552.33
431.387	562.27
431.763	555.95
432.138	556.85
432.514	565.89
432.89	575.15
433.265	572.22
433.641	592.56
434.016	596.85
434.392	581.03
434.767	587.81
435.143	608.83
435.518	614.25
435.894	632.1
436.269	607.24
436.644	619.22
437.02	632.55
437.395	624.87
437.77	644.76
438.145	670.52
438.52	663.97
438.895	676.85
439.271	674.36
439.646	681.37
440.021	704.19
440.395	714.13
440.77	716.39
441.145	723.4
441.52	728.14
441.895	725.43
442.27	755.26
442.645	733.79
443.019	750.07
443.394	734.25
443.769	767.24
444.143	752.1
444.518	767.24
444.892	766.11
445.267	790.06
445.641	771.53
446.016	766.79
446.39	811.31
446.764	789.39
447.139	792.78
447.513	785.32
447.887	813.34
448.262	803.4
448.636	815.37
449.01	837.75
449.384	827.35
449.758	821.7
450.132	828.48
450.506	841.81
450.88	845.88
451.254	852.66
451.628	859.89
452.002	877.75
452.376	880.68
452.75	862.83
453.123	887.91
453.497	900.34
453.871	906.45
454.244	903.73
454.618	925.2
454.992	938.08
455.365	949.38
455.739	952.55
456.112	963.62
456.486	959.33
456.859	940.79
457.232	968.14
457.606	947.8
457.979	977.63
458.352	1007.69
458.725	998.87
459.099	1010.4
459.472	1026.67
459.845	1027.35
460.218	1011.3
460.591	1032.77
460.964	1041.58
461.337	1068.7
461.71	1054.69
462.083	1064.18
462.456	1055.82
462.829	1073.9
463.201	1103.28
463.574	1088.36
463.947	1087.68
464.32	1104.41
464.692	1103.73
465.065	1154.35
465.438	1158.42
465.81	1116.16
466.183	1161.35
466.555	1178.08
466.928	1167
467.3	1183.05
467.672	1192.31
468.045	1217.17
468.417	1191.41
468.789	1221.47
469.161	1220.11
469.534	1225.31
469.906	1244.52
470.278	1240.22
470.65	1248.13
471.022	1284.74
471.394	1254.01
471.766	1302.14
472.138	1286.1
472.51	1319.09
472.882	1331.97
473.253	1334
473.625	1330.39
473.997	1374.68
474.369	1362.03
474.74	1350.28
475.112	1381.46
475.484	1422.36
475.855	1425.75
476.227	1463.94
476.598	1479.09
476.97	1445.64
477.341	1505.75
477.713	1452.19
478.084	1498.29
478.455	1517.05
478.827	1524.73
479.198	1557.05
479.569	1555.47
479.94	1571.29
480.311	1571.06
480.682	1620.78
481.053	1648.8
481.424	1629.36
481.795	1664.17
482.166	1646.76
482.537	1651.51
482.908	1688.57
483.279	1698.97
483.65	1707.33
484.021	1739.19
484.391	1752.98
484.762	1728.12
485.133	1742.81
485.503	1754.78
485.874	1769.25
486.244	1794.11
486.615	1792.07
486.985	1798.17
487.356	1839.98
487.726	1843.6
488.097	1859.41
488.467	1851.73
488.837	1877.27
489.207	1870.04
489.578	1904.16
489.948	1911.84
490.318	1912.97
490.688	1908.68
491.058	1908.23
491.428	1916.59
491.798	1938.73
492.168	1945.29
492.538	1946.87
492.908	1980.99
493.278	1971.95
493.648	1949.81
494.017	2005.4
494.387	1964.04
494.757	1949.13
495.126	1980.09
495.496	1971.28
495.866	1949.36
496.235	1971.28
496.605	1983.7
496.974	2020.09
497.344	1992.97
497.713	1974.67
498.082	1954.55
498.452	1995.46
498.821	1972.41
499.19	2013.99
499.559	1986.87
499.928	1970.37
500.298	1992.29
500.667	1971.5
501.036	1999.3
501.405	2026.64
501.774	1979.41
502.143	1984.61
502.512	2014.66
502.88	1997.94
503.249	1998.62
503.618	1968.79
503.987	1990.71
504.356	1978.51
504.724	1953.65
505.093	1954.55
505.462	1951.62
505.83	1946.64
506.199	1977.38
506.567	1959.52
506.936	1958.85
507.304	1959.52
507.672	1951.62
508.041	1967.21
508.409	1992.74
508.777	1962.46
509.145	1925.4
509.514	1966.53
509.882	1971.73
510.25	1938.28
510.618	1924.72
510.986	1960.2
511.354	1969.24
511.722	1935.12
512.09	1936.7
512.458	1919.3
512.826	1907.55
513.193	1924.95
513.561	1932.86
513.929	1894.89
514.297	1898.51
514.664	1875.46
515.032	1891.5
515.4	1902.13
515.767	1876.36
516.135	1885.85
516.502	1879.53
516.869	1905.97
517.237	1893.99
517.604	1879.75
517.972	1861.9
518.339	1835.69
518.706	1821.68
519.073	1842.92
519.44	1832.07
519.808	1824.61
520.175	1831.39
520.542	1799.98
520.909	1813.31
521.276	1796.59
521.643	1805.18
522.009	1815.12
522.376	1837.49
522.743	1824.61
523.11	1809.02
523.477	1797.04
523.843	1805.18
524.21	1797.72
524.577	1789.36
524.943	1803.6
525.31	1789.81
525.676	1790.04
526.043	1791.39
526.409	1764.5
526.776	1766.08
527.142	1766.76
527.508	1791.17
527.874	1743.03
528.241	1740.32
528.607	1749.59
528.973	1772.19
529.339	1764.05
529.705	1760.21
530.071	1762.69
530.437	1736.71
530.803	1755.91
531.169	1738.51
531.535	1735.35
531.901	1729.25
532.267	1693.09
532.632	1711.17
532.998	1721.79
533.364	1702.36
533.73	1716.37
534.095	1689.02
534.461	1689.02
534.826	1683.6
535.192	1689.25
535.557	1672.75
535.923	1686.31
536.288	1686.99
536.653	1683.15
537.019	1663.94
537.384	1662.13
537.749	1652.19
538.114	1652.41
538.479	1621.45
538.845	1629.14
539.21	1636.82
539.575	1599.08
539.94	1645.18
540.305	1608.8
540.67	1610.16
541.034	1613.32
541.399	1625.07
541.764	1615.58
542.129	1591.17
542.494	1588.46
542.858	1583.49
543.223	1565.86
543.587	1593.21
543.952	1583.26
544.316	1588.24
544.681	1558.86
545.045	1555.02
545.41	1573.77
545.774	1555.02
546.138	1541
546.503	1520.89
546.867	1534.9
547.231	1531.51
547.595	1519.76
547.959	1509.82
548.324	1509.59
548.688	1512.98
549.052	1504.4
549.416	1498.75
549.779	1492.42
550.143	1493.77
550.507	1482.48
550.871	1487.45
551.235	1490.16
551.599	1483.15
551.962	1494
552.326	1463.27
552.689	1432.31
553.053	1453.32
553.417	1474.79
553.78	1459.2
554.143	1455.81
554.507	1423.27
554.87	1442.02
555.234	1453.55
555.597	1439.76
555.96	1440.67
556.323	1431.63
556.686	1450.39
557.05	1451.29
557.413	1449.48
557.776	1451.06
558.139	1420.33
558.502	1449.48
558.865	1411.06
559.228	1408.8
559.59	1418.07
559.953	1443.83
560.316	1433.44
560.679	1420.33
561.041	1405.19
561.404	1442.02
561.767	1425.3
562.129	1409.93
562.492	1435.02
562.854	1420.1
563.217	1414.23
563.579	1387.34
563.941	1402.48
564.304	1415.81
564.666	1408.58
565.028	1421.69
565.39	1424.85
565.753	1418.07
566.115	1423.95
566.477	1434.11
566.839	1400.9
567.201	1435.7
567.563	1425.75
567.925	1462.36
568.287	1463.72
568.648	1430.5
569.01	1441.12
569.372	1449.03
569.734	1446.32
570.095	1452.87
570.457	1450.16
570.819	1447.45
571.18	1445.64
571.542	1454.23
571.903	1436.37
572.265	1446.09
572.626	1455.81
572.987	1456.04
573.349	1459.88
573.71	1472.53
574.071	1457.17
574.432	1471.4
574.794	1471.63
575.155	1476.15
575.516	1459.2
575.877	1475.24
576.238	1498.75
576.599	1482.7
576.96	1489.71
577.32	1467.79
577.681	1506.88
578.042	1471.63
578.403	1513.89
578.763	1512.53
579.124	1483.38
579.485	1476.15
579.845	1507.11
580.206	1497.39
580.566	1483.61
580.927	1486.32
581.287	1502.59
581.648	1478.41
582.008	1520.21
582.368	1512.98
582.728	1528.58
583.089	1508.24
583.449	1518.63
583.809	1517.28
584.169	1514.11
584.529	1523.15
584.889	1515.92
585.249	1523.83
585.609	1505.75
585.969	1516.37
586.329	1521.34
586.688	1514.34
587.048	1513.21
587.408	1510.72
587.768	1519.99
588.127	1514.56
588.487	1487.22
588.846	1481.12
589.206	1481.8
589.565	1492.64
589.925	1501.91
590.284	1499.2
590.643	1503.72
591.003	1526.99
591.362	1522.47
591.721	1504.17
592.08	1513.66
592.44	1515.02
592.799	1520.44
593.158	1547.78
593.517	1516.15
593.876	1526.77
594.235	1521.57
594.593	1510.5
594.952	1521.34
595.311	1507.56
595.67	1516.15
596.029	1523.15
596.387	1526.32
596.746	1517.73
597.104	1543.72
597.463	1503.27
597.822	1504.62
598.18	1490.38
598.538	1503.49
598.897	1527.45
599.255	1498.52
599.613	1506.43
599.972	1518.41
600.33	1495.81
600.688	1490.16
601.046	1534.23
601.404	1536.49
601.762	1479.76
602.12	1519.08
602.478	1532.87
602.836	1515.02
603.194	1495.58
603.552	1504.85
603.91	1523.6
604.268	1503.94
604.625	1511.63
604.983	1518.86
605.341	1515.02
605.698	1527.67
606.056	1538.52
606.413	1489.93
606.771	1482.7
607.128	1524.96
607.485	1538.29
607.843	1532.64
608.2	1515.47
608.557	1519.99
608.914	1502.36
609.272	1540.33
609.629	1552.98
609.986	1541.46
610.343	1521.34
610.7	1533.1
611.057	1520.89
611.414	1561.57
611.771	1537.61
612.127	1531.51
612.484	1562.93
612.841	1534.23
613.198	1520.21
613.554	1543.72
613.911	1555.02
614.267	1517.5
614.624	1550.95
614.98	1551.63
615.337	1547.56
615.693	1556.37
616.05	1529.93
616.406	1545.98
616.762	1525.86
617.118	1547.11
617.475	1563.38
617.831	1573.09
618.187	1569.7
618.543	1565.64
618.899	1537.39
619.255	1562.02
619.611	1548.01
619.967	1553.21
620.323	1546.65
620.678	1584.39
621.034	1552.53
621.39	1551.85
621.746	1523.6
622.101	1584.17
622.457	1581.91
622.812	1563.15
623.168	1522.93
623.523	1571.96
623.879	1621.23
624.234	1554.56
624.589	1570.38
624.945	1563.83
625.3	1560.44
625.655	1570.83
626.01	1571.96
626.365	1554.34
626.72	1564.73
627.075	1561.12
627.43	1546.65
627.785	1548.01
628.14	1562.93
628.495	1573.09
628.85	1593.43
629.205	1581.23
629.559	1598.86
629.914	1565.18
630.269	1563.15
630.623	1620.1
630.978	1569.48
631.332	1566.09
631.687	1563.6
632.041	1565.18
632.396	1588.91
632.75	1561.12
633.104	1575.13
633.459	1570.61
633.813	1558.86
634.167	1579.87
634.521	1561.8
634.875	1579.65
635.229	1564.73
635.583	1576.03
635.937	1551.63
636.291	1541.46
636.645	1556.82
636.999	1531.51
637.352	1568.8
637.706	1554.11
638.06	1567.9
638.413	1550.27
638.767	1536.03
639.121	1529.71
639.474	1535.36
639.828	1542.36
640.181	1560.89
640.534	1545.52
640.888	1568.35
641.241	1560.89
641.594	1559.31
641.947	1550.5
642.301	1527.45
642.654	1549.82
643.007	1562.7
643.36	1562.7
643.713	1544.39
644.066	1561.34
644.419	1537.39
644.771	1551.4
645.124	1545.98
645.477	1542.59
645.83	1546.88
646.182	1505.98
646.535	1533.55
646.888	1540.1
647.24	1553.89
647.593	1529.48
647.945	1541.68
648.298	1526.99
648.65	1513.89
649.002	1548.91
649.355	1522.47
649.707	1518.86
650.059	1542.59
650.411	1569.7
650.763	1544.39
651.115	1581
651.467	1581.91
651.819	1572.42
652.171	1579.2
652.523	1597.05
652.875	1562.93
653.227	1556.82
653.578	1572.42
653.93	1595.24
654.282	1584.17
654.633	1585.52
654.985	1561.57
655.337	1568.8
655.688	1586.2
656.039	1575.81
656.391	1616.48
656.742	1553.43
657.094	1563.83
657.445	1610.83
657.796	1594.11
658.147	1593.43
658.498	1614.22
658.849	1566.99
659.2	1581
659.551	1567.9
659.902	1562.02
660.253	1588.46
660.604	1591.85
660.955	1575.81
661.306	1590.27
661.656	1601.12
662.007	1614.68
662.358	1610.83
662.708	1593.43
663.059	1590.04
663.409	1588.46
663.76	1599.76
664.11	1605.18
664.461	1593.88
664.811	1582.59
665.161	1583.94
665.511	1581.46
665.862	1567.22
666.212	1578.07
666.562	1579.2
666.912	1589.82
667.262	1589.82
667.612	1578.74
667.962	1571.29
668.312	1578.74
668.662	1609.25
669.011	1576.03
669.361	1594.79
669.711	1575.58
670.06	1587.11
670.41	1566.09
670.76	1577.16
671.109	1578.52
671.459	1559.76
671.808	1571.74
672.157	1539.42
672.507	1554.34
672.856	1558.41
673.205	1568.12
673.554	1546.2
673.904	1539.42
674.253	1565.18
674.602	1571.96
674.951	1568.8
675.3	1546.65
675.649	1570.61
675.998	1569.03
676.346	1534.68
676.695	1558.63
677.044	1522.93
677.393	1543.72
677.741	1552.76
678.09	1555.92
678.438	1535.13
678.787	1532.64
679.135	1530.84
679.484	1515.02
679.832	1524.28
680.181	1498.29
680.529	1513.43
680.877	1542.81
681.225	1506.88
681.573	1510.95
681.922	1522.47
682.27	1511.4
682.618	1524.96
682.966	1540.78
683.314	1517.28
683.661	1489.93
684.009	1493.1
684.357	1509.37
684.705	1526.77
685.053	1494.68
685.4	1481.57
685.748	1481.12
686.095	1498.75
686.443	1495.81
686.79	1478.18
687.138	1483.15
687.485	1494.9
687.832	1491.51
688.18	1466.88
688.527	1470.27
688.874	1508.24
689.221	1481.8
689.568	1436.83
689.915	1450.84
690.262	1447.22
690.609	1462.36
690.956	1455.36
691.303	1464.17
691.65	1451.52
691.997	1431.63
692.344	1442.48
692.69	1432.08
693.037	1434.34
693.383	1404.29
693.73	1444.06
694.077	1419.43
694.423	1412.65
694.769	1397.73
695.116	1427.34
695.462	1412.19
695.808	1384.4
696.155	1418.52
696.501	1417.84
696.847	1400.22
697.193	1386.66
697.539	1379.43
697.885	1391.4
698.231	1382.82
698.577	1345.08
698.923	1382.82
699.269	1378.52
699.614	1384.62
699.96	1360.44
700.306	1367.68
700.651	1334.68
700.997	1359.31
701.342	1363.38
701.688	1355.92
702.033	1356.15
702.379	1385.53
702.724	1382.36
703.069	1356.83
703.415	1380.56
703.76	1370.61
704.105	1368.81
704.45	1359.54
704.795	1342.14
705.14	1359.99
705.485	1348.47
705.83	1341.24
706.175	1326.55
706.52	1352.31
706.865	1351.18
707.209	1343.04
707.554	1355.7
707.899	1353.66
708.243	1352.54
708.588	1349.82
708.932	1370.61
709.277	1351.41
709.621	1364.51
709.966	1356.83
710.31	1366.09
710.654	1356.15
710.998	1347.79
711.342	1367.22
711.687	1333.55
712.031	1331.29
712.375	1372.65
712.719	1380.1
713.063	1357.51
713.407	1352.76
713.75	1354.57
714.094	1342.14
714.438	1376.72
714.782	1385.53
715.125	1377.85
715.469	1382.36
715.812	1380.33
716.156	1383.49
716.499	1380.56
716.843	1402.25
717.186	1423.49
717.53	1387.34
717.873	1396.83
718.216	1384.17
718.559	1388.47
718.902	1403.16
719.246	1387.11
719.589	1420.33
719.932	1387.11
720.275	1389.82
720.617	1385.75
720.96	1406.54
721.303	1399.09
721.646	1416.49
721.989	1421.46
722.331	1432.98
722.674	1472.98
723.016	1434.34
723.359	1435.7
723.701	1430.27
724.044	1442.25
724.386	1431.63
724.729	1448.8
725.071	1468.46
725.413	1418.75
725.755	1453.55
726.097	1466.88
726.439	1460.33
726.782	1467.79
727.124	1463.72
727.465	1473.66
727.807	1502.81
728.149	1476.37
728.491	1493.77
728.833	1508.01
729.175	1525.86
729.516	1521.8
729.858	1527.22
730.199	1539.87
730.541	1515.69
730.882	1516.82
731.224	1543.26
731.565	1573.55
731.906	1569.25
732.248	1576.94
732.589	1575.13
732.93	1575.81
733.271	1563.6
733.612	1604.73
733.953	1562.93
734.294	1605.64
734.635	1600.89
734.976	1627.78
735.317	1650.38
735.658	1621.68
735.999	1669.36
736.339	1662.58
736.68	1639.99
737.021	1676.37
737.361	1676.59
737.702	1703.03
738.042	1694.67
738.383	1726.54
738.723	1721.79
739.063	1736.93
739.404	1751.85
739.744	1753.43
740.084	1792.75
740.424	1782.35
740.764	1777.38
741.104	1850.6
741.444	1832.97
741.784	1847.21
742.124	1877.72
742.464	1920.66
742.804	1886.98
743.143	1917.27
743.483	1980.54
743.823	1980.99
744.162	1999.75
744.502	2020.54
744.841	2005.4
745.181	2060.77
745.52	2078.84
745.86	2097.37
746.199	2147.99
746.538	2171.5
746.877	2190.25
747.216	2211.04
747.556	2261.89
747.895	2279.06
748.234	2340.31
748.573	2363.81
748.911	2403.13
749.25	2427.76
749.589	2453.75
749.928	2492.62
750.267	2544.14
750.605	2577.36
750.944	2613.97
751.283	2642.22
751.621	2703.01
751.96	2735.1
752.298	2843.34
752.636	2846.06
752.975	2912.04
753.313	2964.7
753.651	2988.42
753.989	3104.58
754.327	3115.65
754.666	3187.97
755.004	3229.77
755.342	3308.19
755.679	3379.83
756.017	3427.06
756.355	3529.65
756.693	3563.55
757.031	3661.85
757.368	3719.7
757.706	3785.47
758.044	3833.83
758.381	3929.19
758.719	3980.49
759.056	4113.82
759.394	4151.78
759.731	4196.98
760.068	4273.14
760.405	4348.16
760.743	4443.98
761.08	4524.66
761.417	4590.19
761.754	4659.79
762.091	4724.65
762.428	4809.39
762.765	4829.73
763.102	5022.04
763.438	4997.64
763.775	5091.42
764.112	5146.79
764.449	5236.73
764.785	5357.4
765.122	5374.8
765.458	5467.23
765.795	5549.94
766.131	5596.49
766.467	5719.88
766.804	5752.87
767.14	5816.82
767.476	5871.74
767.812	5924.17
768.148	5972.98
768.485	6037.16
768.821	6120.77
769.157	6212.07
769.492	6235.57
769.828	6275.57
770.164	6319.41
770.5	6356.92
770.836	6476.47
771.171	6502
771.507	6559.86
771.842	6558.95
772.178	6654.54
772.513	6724.15
772.849	6807.98
773.184	6771.38
773.519	6868.32
773.855	6874.88
774.19	6958.49
774.525	6988.09
774.86	7004.14
775.195	7090.46
775.53	7040.52
775.865	7156.9
776.2	7128.43
776.535	7129.33
776.87	7123.91
777.205	7217.69
777.539	7263.79
777.874	7318.48
778.209	7266.5
778.543	7329.55
778.878	7336.78
779.212	7335.2
779.547	7408.42
779.881	7424.24
780.215	7466.5
780.55	7500.62
780.884	7472.37
781.218	7501.75
781.552	7576.78
781.886	7558.7
782.22	7555.54
782.554	7594.86
782.888	7568.19
783.222	7499.04
783.556	7581.75
783.889	7533.62
784.223	7516.21
784.557	7566.16
784.89	7586.04
785.224	7564.8
785.557	7623.33
785.891	7545.82
786.224	7648.87
786.558	7608.87
786.891	7622.65
787.224	7664.23
787.557	7629.88
787.891	7612.94
788.224	7652.48
788.557	7660.84
788.89	7631.24
789.223	7651.35
789.556	7701.97
789.888	7683.89
790.221	7613.84
790.554	7621.07
790.887	7636.44
791.219	7609.09
791.552	7614.74
791.884	7667.85
792.217	7585.37
792.549	7616.33
792.882	7581.98
793.214	7612.03
793.546	7608.42
793.879	7637.34
794.211	7594.4
794.543	7593.05
794.875	7570.68
795.207	7648.87
795.539	7588.53
795.871	7585.59
796.203	7587.85
796.535	7514.63
796.867	7504.01
797.198	7536.33
797.53	7522.54
797.862	7436.67
798.193	7530.68
798.525	7506.5
798.856	7543.33
799.188	7396.67
799.519	7389.89
799.85	7388.08
800.182	7433.05
800.513	7400.51
800.844	7373.62
801.175	7338.37
801.506	7426.73
801.837	7394.18
802.168	7355.54
802.499	7340.17
802.83	7299.72
803.161	7397.8
803.491	7292.49
803.822	7297.24
804.153	7208.2
804.483	7286.16
804.814	7253.4
805.145	7262.66
805.475	7259.27
805.805	7186.96
806.136	7278.93
806.466	7236.67
806.796	7266.73
807.126	7117.36
807.457	7189.22
807.787	7181.99
808.117	7100.86
808.447	7111.93
808.777	7178.6
809.107	7099.73
809.436	7077.81
809.766	7116.9
810.096	7099.5
810.426	7122.33
810.755	7120.97
811.085	7084.36
811.414	7037.81
811.744	6991.48
812.073	6995.55
812.403	7036.91
812.732	7039.17
813.061	7031.26
813.39	6924.14
813.719	6980.64
814.049	6996.68
814.378	6964.59
814.707	6903.8
815.036	6865.61
815.365	6914.87
815.693	6884.82
816.022	6927.98
816.351	6895.44
816.68	6868.77
817.008	6922.11
817.337	6860.19
817.665	6788.32
817.994	6787.19
818.322	6861.99
818.651	6802.11
818.979	6827.19
819.307	6796.01
819.636	6806.18
819.964	6754.43
820.292	6842.79
820.62	6806.4
820.948	6772.05
821.276	6793.75
821.604	6753.07
821.932	6764.6
822.259	6787.19
822.587	6767.31
822.915	6780.41
823.243	6840.98
823.57	6803.47
823.898	6819.51
824.225	6728.89
824.553	6727.08
824.88	6812.96
825.207	6777.03
825.535	6799.85
825.862	6820.87
826.189	6766.63
826.516	6854.09
826.843	6898.83
827.17	6762.34
827.497	6804.14
827.824	6860.19
828.151	6830.13
828.478	6862.45
828.805	6883.46
829.131	6843.01
829.458	6909.45
829.785	6777.48
830.111	6762.34
830.438	6876.23
830.764	6819.74
831.09	6831.71
831.417	6782.22
831.743	6868.55
832.069	6833.07
832.395	6830.81
832.722	6799.4
833.048	6815.44
833.374	6817.48
833.7	6804.82
834.026	6766.18
834.351	6827.65
834.677	6836.68
835.003	6807.31
835.329	6773.64
835.654	6826.97
835.98	6777.93
836.306	6824.48
836.631	6705.39
836.956	6758.49
837.282	6788.78
837.607	6726.41
837.932	6694.32
838.258	6739.06
838.583	6697.71
838.908	6658.38
839.233	6731.15
839.558	6625.16
839.883	6662.45
840.208	6658.84
840.533	6645.5
840.858	6629.01
841.182	6651.15
841.507	6663.58
841.832	6608.44
842.156	6591.04
842.481	6607.54
842.805	6599.85
843.13	6570.25
843.454	6556.01
843.778	6555.34
844.103	6532.29
844.427	6494.77
844.751	6500.87
845.075	6469.91
845.399	6449.12
845.723	6386.53
846.047	6396.47
846.371	6317.38
846.695	6356.25
847.019	6304.95
847.343	6297.72
847.666	6270.6
847.99	6231.28
848.313	6306.3
848.637	6239.86
848.96	6163.26
849.284	6175.23
849.607	6164.84
849.931	6089.36
850.254	6101.56
850.577	6090.72
850.9	6047.1
851.223	6043.26
851.546	5996.03
851.869	5944.96
852.192	5966.43
852.515	5918.06
852.838	5896.37
853.161	5866.31
853.483	5904.73
853.806	5857.95
854.129	5866.31
854.451	5841.91
854.774	5876.26
855.096	5749.03
855.419	5722.36
855.741	5775.7
856.063	5755.58
856.385	5731.85
856.708	5709.26
857.03	5695.92
857.352	5684.85
857.674	5649.6
857.996	5633.55
858.318	5542.03
858.64	5589.26
858.961	5604.85
859.283	5523.5
859.605	5500.22
859.926	5519.21
860.248	5530.5
860.57	5548.13
860.891	5485.53
861.212	5458.42
861.534	5469.71
861.855	5451.41
862.176	5445.53
862.498	5426.1
862.819	5441.02
863.14	5397.17
863.461	5383.84
863.782	5384.75
864.103	5369.38
864.424	5389.72
864.745	5406.44
865.065	5390.62
865.386	5315.14
865.707	5345.65
866.027	5355.14
866.348	5325.09
866.668	5310.62
866.989	5238.08
867.309	5285.99
867.63	5273.11
867.95	5302.26
868.27	5248.03
868.59	5328.93
868.91	5233.11
869.23	5265.65
869.55	5177.97
869.87	5213
870.19	5208.03
870.51	5188.37
870.83	5201.02
871.15	5192.89
871.469	5191.76
871.789	5182.72
872.109	5168.71
872.428	5166.45
872.748	5149.5
873.067	5147.24
873.386	5158.31
873.706	5169.38
874.025	5118.54
874.344	5112.89
874.663	5087.35
874.982	5082.38
875.301	5088.71
875.62	5082.15
875.939	5083.28
876.258	5083.28
876.577	5081.48
876.896	5030.63
877.214	5019.78
877.533	5041.7
877.852	5028.37
878.17	4979.11
878.489	5003.06
878.807	4965.55
879.125	4966
879.444	5010.07
879.762	4942.05
880.08	4957.86
880.398	4949.05
880.716	4936.4
881.034	4929.39
881.352	4904.98
881.67	4890.07
881.988	4885.32
882.306	4919.9
882.624	4841.71
882.941	4846.45
883.259	4843.29
883.577	4824.99
883.894	4805.55
884.212	4850.3
884.529	4822.95
884.846	4753.35
885.164	4795.38
885.481	4731.43
885.798	4772.33
886.115	4722.16
886.432	4757.19
886.75	4695.5
887.067	4708.61
887.383	4665.67
887.7	4675.84
888.017	4643.52
888.334	4709.73
888.651	4613.01
888.967	4654.6
889.284	4609.62
889.6	4598.78
889.917	4590.64
890.233	4557.87
890.55	4542.73
890.866	4527.14
891.182	4537.99
891.498	4504.99
891.815	4491.89
892.131	4510.87
892.447	4451.21
892.763	4478.1
893.079	4445.11
893.395	4421.15
893.71	4455.05
894.026	4404.43
894.342	4389.74
894.657	4362.17
894.973	4373.7
895.289	4332.34
895.604	4354.72
895.92	4302.51
896.235	4303.87
896.55	4284.89
896.865	4275.85
897.181	4264.1
897.496	4259.8
897.811	4223.42
898.126	4199.69
898.441	4236.53
898.756	4176.19
899.071	4134.16
899.386	4179.35
899.7	4120.37
900.015	4110.43
900.33	4087.83
900.644	4063.65
900.959	4076.76
901.273	4090.54
901.588	4040.83
901.902	3992.69
902.216	3976.42
902.531	4016.87
902.845	3959.02
903.159	3942.52
903.473	3917.89
903.787	3917.21
904.101	3948.85
904.415	3891.68
904.729	3906.37
905.042	3854.62
905.356	3849.19
905.67	3820.27
905.984	3870.21
906.297	3795.41
906.611	3786.82
906.924	3841.06
907.237	3775.07
907.551	3759.25
907.864	3725.35
908.177	3723.32
908.491	3683.32
908.804	3694.85
909.117	3697.33
909.43	3677.67
909.743	3649.88
910.056	3628.86
910.368	3622.53
910.681	3611.46
910.994	3594.96
911.307	3555.19
911.619	3528.98
911.932	3514.74
912.244	3522.2
912.557	3524.68
912.869	3511.57
913.181	3523.55
913.494	3467.96
913.806	3411.69
914.118	3495.08
914.43	3394.29
914.742	3390.67
915.054	3406.27
915.366	3373.5
915.678	3386.38
915.99	3370.56
916.302	3341.64
916.613	3310.9
916.925	3376.44
917.236	3342.77
917.548	3299.38
917.859	3309.32
918.171	3268.19
918.482	3247.63
918.794	3245.82
919.105	3243.78
919.416	3196.55
919.727	3193.16
920.038	3213.96
920.349	3186.16
920.66	3149.32
920.971	3149.78
921.282	3175.09
921.593	3117.01
921.903	3149.55
922.214	3122.21
922.525	3146.84
922.835	3089.66
923.146	3065.03
923.456	3054.86
923.767	3045.37
924.077	3047.41
924.387	2996.79
924.697	3003.11
925.008	3011.02
925.318	3007.18
925.628	2986.84
925.938	2962.66
926.248	2957.24
926.558	2937.13
926.867	2936.9
927.177	2929.22
927.487	2911.59
927.796	2891.25
928.106	2903.23
928.416	2890.57
928.725	2891.93
929.034	2828.43
929.344	2853.74
929.653	2838.15
929.962	2834.98
930.271	2817.36
930.581	2809.45
930.89	2785.94
931.199	2705.27
931.508	2759.05
931.817	2781.2
932.125	2722.22
932.434	2748.88
932.743	2725.83
933.051	2745.94
933.36	2731.71
933.669	2691.48
933.977	2699.62
934.286	2670.01
934.594	2660.75
934.902	2676.79
935.21	2651.94
935.519	2632.5
935.827	2631.6
936.135	2635.21
936.443	2579.85
936.751	2589.56
937.059	2610.81
937.367	2567.87
937.674	2540.75
937.982	2571.71
938.29	2560.19
938.597	2538.04
938.905	2498.27
939.213	2560.64
939.52	2510.92
939.827	2521.32
940.135	2464.14
940.442	2468.21
940.749	2477.93
941.056	2486.06
941.363	2448.78
941.67	2440.42
941.977	2409.46
942.284	2410.59
942.591	2436.12
942.898	2403.58
943.205	2394.32
943.511	2383.69
943.818	2375.56
944.125	2382.11
944.431	2328.1
944.738	2352.73
945.044	2338.5
945.35	2336.69
945.657	2313.41
945.963	2302.34
946.269	2291.49
946.575	2279.29
946.881	2270.03
947.187	2254.66
947.493	2234.09
947.799	2247.43
948.105	2238.16
948.41	2250.36
948.716	2230.7
949.022	2215.79
949.327	2195.9
949.633	2206.07
949.938	2201.55
950.244	2173.98
950.549	2136.02
950.854	2168.11
951.16	2126.53
951.465	2154.77
951.77	2129.92
952.075	2123.81
952.38	2131.95
952.685	2123.81
952.99	2109.35
953.294	2091.05
953.599	2091.5
953.904	2074.32
954.209	2101.22
954.513	2079.52
954.818	2057.15
955.122	2052.4
955.426	2028.45
955.731	2022.8
956.035	2009.69
956.339	2000.2
956.643	1995.68
956.948	1997.94
957.252	1975.57
957.556	1961.56
957.86	1978.73
958.163	1987.55
958.467	1947.77
958.771	1976.93
959.075	1936.47
959.378	1916.14
959.682	1936.25
959.985	1942.35
960.289	1905.74
960.592	1926.08
960.896	1925.63
961.199	1881.79
961.502	1877.49
961.805	1882.46
962.108	1881.11
962.411	1872.52
962.714	1842.47
963.017	1822.58
963.32	1840.43
963.623	1802.92
963.926	1849.7
964.228	1817.16
964.531	1821.68
964.833	1799.98
965.136	1777.38
965.438	1803.82
965.741	1783.48
966.043	1785.74
966.345	1768.12
966.648	1779.87
966.95	1753.2
967.252	1754.33
967.554	1735.58
967.856	1746.87
968.158	1745.75
968.46	1711.85
968.761	1690.15
969.063	1697.16
969.365	1692.87
969.666	1702.36
969.968	1684.5
970.269	1691.51
970.571	1648.8
970.872	1651.28
971.174	1633.66
971.475	1649.7
971.776	1653.32
972.077	1639.99
972.378	1629.59
972.679	1638.63
972.98	1610.38
973.281	1613.09
973.582	1585.98
973.883	1597.95
974.183	1607.67
974.484	1572.42
974.785	1580.55
975.085	1574.9
975.386	1589.82
975.686	1580.33
975.986	1559.76
976.287	1599.99
976.587	1557.05
976.887	1552.08
977.187	1552.3
977.487	1529.25
977.787	1462.14
978.087	1531.29
978.387	1527.45
978.687	1523.15
978.987	1508.92
979.286	1495.36
979.586	1484.96
979.885	1471.85
980.185	1465.53
980.484	1463.27
980.784	1482.48
981.083	1435.02
981.382	1429.37
981.682	1455.13
981.981	1434.34
982.28	1417.17
982.579	1407.22
982.878	1422.59
983.177	1401.8
983.475	1396.15
983.774	1403.61
984.073	1381.91
984.372	1402.48
984.67	1385.98
984.969	1381.23
985.267	1393.89
985.566	1366.09
985.864	1345.53
986.162	1364.29
986.461	1351.86
986.759	1354.12
987.057	1353.21
987.355	1350.28
987.653	1352.99
987.951	1313.44
988.249	1293.33
988.547	1306.43
988.844	1316.15
989.142	1305.3
989.44	1310.73
989.737	1282.25
990.035	1282.48
990.332	1286.77
990.63	1263.72
990.927	1274.12
991.224	1259.2
991.521	1265.31
991.819	1249.26
992.116	1241.13
992.413	1223.95
992.71	1215.14
993.006	1249.49
993.303	1258.75
993.6	1202.48
993.897	1238.64
994.193	1224.18
994.49	1202.71
994.787	1202.71
995.083	1214.91
995.379	1210.39
995.676	1182.14
995.972	1197.96
996.268	1190.51
996.565	1156.83
996.861	1165.2
997.157	1148.02
997.453	1168.59
997.749	1149.83
998.044	1148.7
998.34	1138.08
998.636	1134.91
998.932	1125.65
999.227	1135.59
999.523	1126.55
999.818	1130.39
1000.114	1132.2
1000.409	1106.89
1000.704	1112.54
1001	1107.57
1001.295	1091.75
1001.59	1094.91
1001.885	1091.98
1002.18	1086.78
1002.475	1061.92
1002.77	1093.78
1003.065	1047.23
1003.359	1061.02
1003.654	1055.82
1003.949	1062.6
1004.243	1029.61
1004.538	1023.96
1004.832	1031.64
1005.127	1025.54
1005.421	1015.14
1005.715	1026.22
1006.009	1023.5
1006.304	1010.85
1006.598	986.89
1006.892	998.65
1007.186	977.86
1007.48	995.93
1007.773	961.13
1008.067	978.53
1008.361	995.03
1008.655	977.63
1008.948	958.65
1009.242	960
1009.535	958.42
1009.829	948.7
1010.122	941.47
1010.415	959.1
1010.708	944.86
1011.001	947.12
1011.295	909.16
1011.588	913.45
1011.881	918.65
1012.173	894.02
1012.466	896.95
1012.759	919.55
1013.052	917.07
1013.344	908.48
1013.637	901.25
1013.93	884.52
1014.222	884.52
1014.514	888.37
1014.807	866.45
1015.099	874.36
1015.391	873.23
1015.683	849.95
1015.976	887.46
1016.268	879.55
1016.56	836.62
1016.851	852.21
1017.143	835.94
1017.435	862.6
1017.727	830.51
1018.018	834.58
1018.31	820.8
1018.602	811.53
1018.893	819.22
1019.185	818.99
1019.476	808.59
1019.767	801.59
1020.058	810.18
1020.35	809.05
1020.641	761.14
1020.932	794.36
1021.223	792.78
1021.514	788.48
1021.804	783.96
1022.095	766.34
1022.386	786.45
1022.677	761.59
1022.967	764.98
1023.258	754.81
1023.548	765.88
1023.839	736.51
1024.129	730.4
1024.419	710.07
1024.709	738.77
1025	728.6
1025.29	715.04
1025.58	729.95
1025.87	715.26
1026.16	720.91
1026.449	702.16
1026.739	715.49
1027.029	709.84
1027.319	701.93
1027.608	715.94
1027.898	696.73
1028.187	682.04
1028.477	676.85
1028.766	705.32
1029.055	694.47
1029.344	677.07
1029.634	674.81
1029.923	681.82
1030.212	651.76
1030.501	652.21
1030.79	672.78
1031.078	681.14
1031.367	696.96
1031.656	675.72
1031.945	633.01
1032.233	640.24
1032.522	646.34
1032.81	656.06
1033.099	647.92
1033.387	656.06
1033.675	639.79
1033.963	640.92
1034.251	640.92
1034.54	639.11
1034.828	639.79
1035.116	628.71
1035.403	623.51
1035.691	604.98
1035.979	627.58
1036.267	613.35
1036.554	639.11
1036.842	618.77
1037.129	611.99
1037.417	584.87
1037.704	593.91
1037.992	600.46
1038.279	595.04
1038.566	571.09
1038.853	571.09
1039.14	571.09
