Data from blue_surface_keyboard_FLMS001491_081.txt Node
Date: Tue Feb 07 11:13:45 GMT 2017
User: dcchb
Spectrometer: FLMS00149
Trigger mode: 0
Integration Time (sec): 2.000000E-2
Scans to average: 10
Electric dark correction enabled: true
Nonlinearity correction enabled: false
Boxcar width: 0
XAxis mode: Wavelengths
Number of Pixels in Spectrum: 2048
>>>>>Begin Spectral Data<<<<<
341.393	2.29
341.776	2.29
342.16	2.29
342.543	-45.39
342.927	-45.85
343.31	-79.29
343.693	-68.22
344.077	-57.15
344.46	-39.74
344.843	-58.95
345.226	-47.65
345.61	-34.1
345.993	-9.46
346.376	-14.66
346.759	11.1
347.142	36.41
347.525	50.42
347.908	61.27
348.291	63.98
348.674	76.18
349.057	109.86
349.44	125
349.823	159.35
350.206	167.03
350.588	179.23
350.971	182.17
351.354	200.7
351.737	213.58
352.119	228.72
352.502	241.6
352.884	232.79
353.267	256.74
353.65	281.38
354.032	268.04
354.414	284.77
354.797	284.99
355.179	292.68
355.562	294.71
355.944	290.42
356.326	310.3
356.709	304.43
357.091	299
357.473	330.87
357.855	315.73
358.238	325.67
358.62	310.08
359.002	316.63
359.384	302.85
359.766	334.93
360.148	312.56
360.53	314.82
360.912	308.72
361.294	316.4
361.676	298.55
362.057	313.01
362.439	314.82
362.821	298.1
363.203	324.31
363.584	303.75
363.966	269.17
364.348	276.41
364.729	308.95
365.111	298.33
365.493	301.72
365.874	301.94
366.256	286.35
366.637	286.8
367.019	272.79
367.4	288.61
367.781	286.57
368.163	306.23
368.544	260.13
368.925	294.26
369.306	293.58
369.688	292.9
370.069	284.09
370.45	259.46
370.831	290.64
371.212	316.63
371.593	279.12
371.974	292
372.355	292.22
372.736	261.49
373.117	277.99
373.498	281.6
373.879	293.58
374.26	278.44
374.641	295.16
375.021	278.66
375.402	309.17
375.783	303.98
376.163	278.89
376.544	303.07
376.925	304.43
377.305	305.33
377.686	275.95
378.066	280.7
378.447	301.94
378.827	302.39
379.208	294.48
379.588	301.72
379.968	298.33
380.349	307.14
380.729	293.13
381.109	296.74
381.489	296.29
381.87	311.88
382.25	303.07
382.63	294.03
383.01	314.82
383.39	298.1
383.77	315.27
384.15	304.65
384.53	306.91
384.91	289.29
385.29	305.33
385.67	303.3
386.049	315.73
386.429	317.31
386.809	302.39
387.189	319.12
387.568	321.83
387.948	311.88
388.328	309.4
388.707	303.98
389.087	301.26
389.466	317.31
389.846	328.38
390.225	301.49
390.605	317.99
390.984	319.34
391.363	319.12
391.743	327.48
392.122	324.31
392.501	336.74
392.881	323.64
393.26	295.61
393.639	337.19
394.018	298.1
394.397	351.66
394.776	324.99
395.155	326.57
395.534	327.25
395.913	332
396.292	332
396.671	338.55
397.05	318.21
397.429	321.38
397.808	326.8
398.186	321.15
398.565	331.77
398.944	338.1
399.323	341.94
399.701	335.61
400.08	355.95
400.458	344.2
400.837	332.9
401.215	352.11
401.594	331.77
401.972	352.79
402.351	343.52
402.729	355.95
403.107	347.82
403.486	360.02
403.864	348.27
404.242	341.71
404.62	349.17
404.999	372.22
405.377	359.34
405.755	343.07
406.133	353.69
406.511	360.24
406.889	367.25
407.267	362.73
407.645	354.14
408.023	384.2
408.401	372.45
408.779	330.19
409.156	367.25
409.534	361.15
409.912	357.53
410.29	385.78
410.667	374.03
411.045	376.06
411.422	382.62
411.8	383.75
412.178	375.84
412.555	375.61
412.933	393.01
413.31	351.88
413.687	379.91
414.065	381.94
414.442	388.49
414.819	390.75
415.197	366.57
415.574	406.57
415.951	378.32
416.328	384.2
416.705	383.75
417.082	385.33
417.46	386.01
417.837	397.53
418.214	380.13
418.591	382.62
418.967	395.05
419.344	411.09
419.721	403.41
420.098	405.44
420.475	404.54
420.852	395.95
421.228	414.48
421.605	396.63
421.982	413.12
422.358	415.84
422.735	419.68
423.111	415.16
423.488	417.87
423.864	399.34
424.241	406.8
424.617	388.94
424.994	409.06
425.37	395.05
425.746	434.14
426.123	431.2
426.499	438.89
426.875	430.3
427.251	423.97
427.627	447.47
428.003	454.93
428.379	446.8
428.756	431.66
429.132	442.05
429.507	442.73
429.883	447.02
430.259	437.3
430.635	442.73
431.011	450.41
431.387	455.61
431.763	468.26
432.138	464.42
432.514	456.51
432.89	490.64
433.265	463.74
433.641	473.01
434.016	488.83
434.392	472.56
434.767	465.33
435.143	477.76
435.518	501.03
435.894	498.32
436.269	465.1
436.644	490.86
437.02	474.37
437.395	500.81
437.77	493.8
438.145	495.61
438.52	500.81
438.895	494.25
439.271	501.71
439.646	511.2
440.021	534.7
440.395	524.99
440.77	515.04
441.145	507.59
441.52	508.04
441.895	513.91
442.27	534.48
442.645	517.98
443.019	512.78
443.394	541.93
443.769	514.14
444.143	536.29
444.518	555.72
444.892	541.93
445.267	555.27
445.641	540.8
446.016	541.03
446.39	543.97
446.764	545.32
447.139	571.99
447.513	558.66
447.887	539
448.262	534.25
448.636	539.22
449.01	548.26
449.384	568.83
449.758	565.89
450.132	566.34
450.506	546.45
450.88	567.02
451.254	577.64
451.628	575.38
452.002	572.22
452.376	585.1
452.75	582.61
453.123	574.48
453.497	590.97
453.871	586.91
454.244	581.48
454.618	590.97
454.992	590.07
455.365	610.63
455.739	613.8
456.112	606.79
456.486	596.17
456.859	655.15
457.232	635.94
457.606	621.48
457.979	630.29
458.352	644.76
458.725	635.94
459.099	627.81
459.472	661.03
459.845	662.38
460.218	661.25
460.591	662.16
460.964	651.08
461.337	666.9
461.71	666.45
462.083	656.28
462.456	680.69
462.829	662.84
463.201	671.87
463.574	689.73
463.947	692.44
464.32	697.19
464.692	720.24
465.065	679.78
465.438	713.68
465.81	726.11
466.183	733.34
466.555	749.39
466.928	741.93
467.3	748.48
467.672	740.12
468.045	742.16
468.417	752.32
468.789	774.7
469.161	760.46
469.534	754.81
469.906	777.86
470.278	767.92
470.65	764.3
471.022	790.29
471.394	800.46
471.766	799.33
472.138	806.33
472.51	807.46
472.882	809.5
473.253	811.08
473.625	836.62
473.997	846.33
474.369	854.7
474.74	856.73
475.112	858.08
475.484	871.42
475.855	880.01
476.227	876.39
476.598	927.46
476.97	902.6
477.341	915.26
477.713	920.68
478.084	919.1
478.455	946.44
478.827	970.17
479.198	960.45
479.569	962.04
479.94	997.97
480.311	994.35
480.682	1002.94
481.053	1010.62
481.424	1027.8
481.795	1008.36
482.166	1013.33
482.537	1037.74
482.908	1065.31
483.279	1040.23
483.65	1079.55
484.021	1072.99
484.391	1093.78
484.762	1090.85
485.133	1141.47
485.503	1118.42
485.874	1124.29
486.244	1146.21
486.615	1140.11
486.985	1162.94
487.356	1163.84
487.726	1155.7
488.097	1187.79
488.467	1207
488.837	1205.87
489.207	1200.22
489.578	1203.84
489.948	1237.28
490.318	1229.6
490.688	1218.75
491.058	1241.8
491.428	1248.81
491.798	1262.82
492.168	1267.11
492.538	1253.78
492.908	1297.85
493.278	1318.41
493.648	1303.5
494.017	1287
494.387	1302.59
494.757	1317.73
495.126	1340.56
495.496	1319.54
495.866	1340.11
496.235	1319.09
496.605	1343.72
496.974	1343.04
497.344	1333.78
497.713	1361.12
498.082	1368.13
498.452	1337.62
498.821	1368.81
499.19	1343.95
499.559	1397.05
499.928	1360.9
500.298	1355.25
500.667	1403.61
501.036	1374.46
501.405	1400.67
501.774	1389.14
502.143	1419.88
502.512	1398.64
502.88	1389.37
503.249	1396.15
503.618	1395.25
503.987	1440.89
504.356	1397.05
504.724	1411.52
505.093	1400.67
505.462	1426.88
505.83	1405.64
506.199	1442.25
506.567	1416.94
506.936	1427.11
507.304	1458.97
507.672	1442.7
508.041	1457.62
508.409	1465.98
508.777	1466.2
509.145	1471.85
509.514	1444.06
509.882	1490.84
510.25	1448.13
510.618	1470.27
510.986	1449.03
511.354	1452.65
511.722	1484.28
512.09	1498.07
512.458	1476.83
512.826	1524.28
513.193	1477.73
513.561	1475.47
513.929	1494.45
514.297	1539.2
514.664	1524.28
515.032	1526.32
515.4	1521.57
515.767	1546.43
516.135	1480.67
516.502	1502.81
516.869	1520.67
517.237	1522.25
517.604	1526.32
517.972	1552.53
518.339	1492.87
518.706	1545.52
519.073	1557.05
519.44	1536.03
519.808	1551.4
520.175	1513.66
520.542	1545.3
520.909	1541.23
521.276	1559.08
521.643	1574.9
522.009	1570.38
522.376	1585.3
522.743	1582.13
523.11	1572.42
523.477	1574.45
523.843	1549.59
524.21	1582.59
524.577	1582.36
524.943	1591.17
525.31	1621.91
525.676	1625.97
526.043	1603.6
526.409	1623.71
526.776	1618.06
527.142	1622.81
527.508	1625.75
527.874	1646.76
528.241	1630.49
528.607	1632.98
528.973	1661.91
529.339	1642.02
529.705	1667.33
530.071	1651.51
530.437	1623.71
530.803	1668.46
531.169	1680.44
531.535	1673.88
531.901	1658.97
532.267	1663.26
532.632	1667.78
532.998	1696.93
533.364	1692.41
533.73	1693.54
534.095	1687.22
534.461	1686.99
534.826	1660.1
535.192	1705.29
535.557	1697.16
535.923	1672.75
536.288	1703.26
536.653	1704.16
537.019	1649.7
537.384	1694.45
537.749	1697.38
538.114	1738.06
538.479	1708.46
538.845	1689.02
539.21	1702.36
539.575	1698.29
539.94	1732.19
540.305	1715.46
540.67	1703.94
541.034	1705.07
541.399	1684.5
541.764	1685.18
542.129	1694.9
542.494	1698.74
542.858	1696.03
543.223	1691.51
543.587	1722.92
543.952	1715.46
544.316	1727.44
544.681	1699.42
545.045	1729.93
545.41	1710.72
545.774	1711.85
546.138	1698.06
546.503	1721.34
546.867	1718.85
547.231	1736.71
547.595	1719.76
547.959	1762.24
548.324	1719.98
548.688	1699.87
549.052	1752.07
549.416	1694
549.779	1714.79
550.143	1750.04
550.507	1723.37
550.871	1749.36
551.235	1711.62
551.599	1736.93
551.962	1751.62
552.326	1740.1
552.689	1759.76
553.053	1750.72
553.417	1704.62
553.78	1768.12
554.143	1732.41
554.507	1722.47
554.87	1778.96
555.234	1762.69
555.597	1768.57
555.96	1723.6
556.323	1752.98
556.686	1756.59
557.05	1753.2
557.413	1769.47
557.776	1773.77
558.139	1773.54
558.502	1757.04
558.865	1785.29
559.228	1769.25
559.59	1779.64
559.953	1775.12
560.316	1790.49
560.679	1787.55
561.041	1790.04
561.404	1814.22
561.767	1794.78
562.129	1788
562.492	1799.75
562.854	1846.08
563.217	1811.28
563.579	1817.16
563.941	1837.72
564.304	1827.78
564.666	1813.31
565.028	1827.78
565.39	1794.33
565.753	1785.52
566.115	1853.31
566.477	1830.94
566.839	1829.58
567.201	1843.14
567.563	1828.45
567.925	1854.44
568.287	1851.96
568.648	1838.62
569.01	1894.44
569.372	1851.28
569.734	1898.06
570.095	1851.28
570.457	1892.63
570.819	1870.26
571.18	1872.52
571.542	1887.44
571.903	1864.84
572.265	1884.27
572.626	1885.63
572.987	1877.27
573.349	1874.1
573.71	1886.08
574.071	1886.08
574.432	1916.14
574.794	1913.65
575.155	1903.26
575.516	1888.79
575.877	1907.55
576.238	1893.76
576.599	1908.68
576.96	1901.45
577.32	1902.35
577.681	1896.02
578.042	1915.91
578.403	1927.66
578.763	1896.02
579.124	1926.53
579.485	1924.5
579.845	1949.58
580.206	1924.72
580.566	1946.42
580.927	1953.42
581.287	1953.42
581.648	1930.15
582.008	1945.29
582.368	1935.12
582.728	1945.51
583.089	1942.35
583.449	1928.11
583.809	1934.89
584.169	1947.32
584.529	1919.3
584.889	1950.26
585.249	1930.6
585.609	1919.3
585.969	1966.3
586.329	1944.16
586.688	1945.97
587.048	1927.66
587.408	1945.97
587.768	1933.08
588.127	1949.13
588.487	1939.41
588.846	1938.06
589.206	1948
589.565	1946.42
589.925	1978.51
590.284	1973.31
590.643	1958.17
591.003	1996.81
591.362	1940.77
591.721	1972.41
592.08	1966.3
592.44	1965.17
592.799	1954.1
593.158	1971.73
593.517	1978.96
593.876	1952.07
594.235	1961.33
594.593	1995.68
594.952	1988.68
595.311	1953.2
595.67	1924.5
596.029	1987.32
596.387	1980.09
596.746	1993.42
597.104	2002.69
597.463	1953.88
597.822	1983.7
598.18	1956.81
598.538	1945.51
598.897	1979.19
599.255	1969.92
599.613	2032.07
599.972	1995.91
600.33	1991.16
600.688	2010.82
601.046	2005.17
601.404	1998.17
601.762	1991.84
602.12	2008.34
602.478	2016.92
602.836	2027.32
603.194	1986.19
603.552	1999.07
603.91	2048.11
604.268	2021.67
604.625	2001.78
604.983	1995.68
605.341	2022.8
605.698	2037.94
606.056	2034.33
606.413	2036.58
606.771	2030.48
607.128	2031.84
607.485	2037.04
607.843	2039.52
608.2	2049.01
608.557	2051.73
608.914	2032.07
609.272	2051.05
609.629	2050.82
609.986	2079.3
610.343	2039.75
610.7	2068.22
611.057	2059.86
611.414	2056.47
611.771	2072.52
612.127	2067.32
612.484	2076.13
612.841	2077.04
613.198	2063.25
613.554	2053.08
613.911	2090.82
614.267	2065.51
614.624	2074.1
614.98	2072.74
615.337	2103.7
615.693	2096.47
616.05	2103.7
616.406	2122.01
616.762	2116.13
617.118	2115.68
617.475	2096.92
617.831	2099.41
618.187	2137.6
618.543	2156.36
618.899	2119.52
619.255	2151.16
619.611	2109.35
619.967	2150.93
620.323	2138.73
620.678	2135.34
621.034	2143.93
621.39	2099.63
621.746	2148.22
622.101	2167.88
622.457	2150.93
622.812	2146.19
623.168	2150.93
623.523	2160.88
623.879	2156.81
624.234	2165.85
624.589	2169.46
624.945	2187.99
625.3	2179.41
625.655	2168.33
626.01	2183.02
626.365	2202.91
626.72	2196.13
627.075	2195.9
627.43	2201.33
627.785	2198.39
628.14	2182.57
628.495	2202
628.85	2206.52
629.205	2180.31
629.559	2220.53
629.914	2177.37
630.269	2216.92
630.623	2193.87
630.978	2208.33
631.332	2218.5
631.687	2216.92
632.041	2218.05
632.396	2222.57
632.75	2218.5
633.104	2235.68
633.459	2231.83
633.813	2229.8
634.167	2223.92
634.521	2227.77
634.875	2244.04
635.229	2223.7
635.583	2238.84
635.937	2248.56
636.291	2280.65
636.645	2279.97
636.999	2263.7
637.352	2295.34
637.706	2276.13
638.06	2298.5
638.413	2286.3
638.767	2286.52
639.121	2290.14
639.474	2281.78
639.828	2299.18
640.181	2328.33
640.534	2299.18
640.888	2304.37
641.241	2326.29
641.594	2346.86
641.947	2334.66
642.301	2337.37
642.654	2328.55
643.007	2349.35
643.36	2328.1
643.713	2358.61
644.066	2364.03
644.419	2379.4
644.771	2339.4
645.124	2321.32
645.477	2351.6
645.83	2339.18
646.182	2350.02
646.535	2384.82
646.888	2347.54
647.24	2338.72
647.593	2387.99
647.945	2373.3
648.298	2398.61
648.65	2423.47
649.002	2414.43
649.355	2384.15
649.707	2416.91
650.059	2460.53
650.411	2463.69
650.763	2427.99
651.115	2489.91
651.467	2512.05
651.819	2505.27
652.171	2542.79
652.523	2569.9
652.875	2563.12
653.227	2566.29
653.578	2557.25
653.93	2575.33
654.282	2599.28
654.633	2554.54
654.985	2588.66
655.337	2594.99
655.688	2619.39
656.039	2612.84
656.391	2652.61
656.742	2650.58
657.094	2638.83
657.445	2623.69
657.796	2703.46
658.147	2691.26
658.498	2699.17
658.849	2729.67
659.2	2732.84
659.551	2700.3
659.902	2756.34
660.253	2764.93
660.604	2755.44
660.955	2754.98
661.306	2808.77
661.656	2802.89
662.007	2822.78
662.358	2832.27
662.708	2832.95
663.059	2834.76
663.409	2827.07
663.76	2887.64
664.11	2912.04
664.461	2912.27
664.811	2905.71
665.161	2938.48
665.511	2932.61
665.862	2961.53
666.212	2937.13
666.562	2986.39
666.912	2999.05
667.262	3003.79
667.612	2997.24
667.962	3018.03
668.312	3051.02
668.662	3044.69
669.011	3073.17
669.361	3047.86
669.711	3067.74
670.06	3078.59
670.41	3101.87
670.76	3094.64
671.109	3128.99
671.459	3145.93
671.808	3154.52
672.157	3144.35
672.507	3168.98
672.856	3176.44
673.205	3181.64
673.554	3232.49
673.904	3234.52
674.253	3221.41
674.602	3230.9
674.951	3217.57
675.3	3209.21
675.649	3287.4
675.998	3282.65
676.346	3321.75
676.695	3327.62
677.044	3331.24
677.393	3366.95
677.741	3361.97
678.09	3370.34
678.438	3386.15
678.787	3361.3
679.135	3412.37
679.484	3406.49
679.832	3431.58
680.181	3416.66
680.529	3455.3
680.877	3436.77
681.225	3450.78
681.573	3500.05
681.922	3477.22
682.27	3439.94
682.618	3493.72
682.966	3517.45
683.314	3492.14
683.661	3533.72
684.009	3522.42
684.357	3527.39
684.705	3561.97
685.053	3582.08
685.4	3563.1
685.748	3535.75
686.095	3584.11
686.443	3603.55
686.79	3575.3
687.138	3624.11
687.485	3580.05
687.832	3645.13
688.18	3615.98
688.527	3596.32
688.874	3584.11
689.221	3598.8
689.568	3668.18
689.915	3630.44
690.262	3629.99
690.609	3650.78
690.956	3609.88
691.303	3665.92
691.65	3645.36
691.997	3641.29
692.344	3635.64
692.69	3658.46
693.037	3634.51
693.383	3637.67
693.73	3624.34
694.077	3628.86
694.423	3630.22
694.769	3657.79
695.116	3652.14
695.462	3641.97
695.808	3657.56
696.155	3685.13
696.501	3633.61
696.847	3644.9
697.193	3610.1
697.539	3640.61
697.885	3608.75
698.231	3655.98
698.577	3632.93
698.923	3616.2
699.269	3633.61
699.614	3622.08
699.96	3597
700.306	3607.39
700.651	3624.57
700.997	3658.24
701.342	3611.68
701.688	3640.16
702.033	3635.19
702.379	3628.18
702.724	3650.55
703.069	3606.04
703.415	3587.73
703.76	3558.13
704.105	3594.51
704.45	3587.05
704.795	3623.21
705.14	3564.23
705.485	3537.79
705.83	3574.62
706.175	3569.88
706.52	3564.23
706.865	3532.59
707.209	3556.77
707.554	3530.33
707.899	3569.88
708.243	3552.48
708.588	3562.87
708.932	3508.64
709.277	3539.37
709.621	3575.75
709.966	3532.14
710.31	3547.73
710.654	3577.79
710.998	3514.96
711.342	3563.78
711.687	3556.09
712.031	3507.28
712.375	3517.45
712.719	3513.38
713.063	3520.16
713.407	3534.85
713.75	3522.65
714.094	3514.06
714.438	3502.99
714.782	3533.72
715.125	3478.13
715.469	3529.43
715.812	3528.52
716.156	3491.69
716.499	3505.02
716.843	3488.52
717.186	3481.52
717.53	3485.36
717.873	3477.45
718.216	3531.69
718.559	3488.07
718.902	3500.5
719.246	3503.89
719.589	3517
719.932	3448.98
720.275	3500.5
720.617	3472.48
720.96	3443.1
721.303	3495.08
721.646	3505.92
721.989	3481.07
722.331	3519.48
722.674	3441.29
723.016	3540.27
723.359	3477.45
723.701	3467.28
724.044	3483.55
724.386	3487.85
724.729	3468.86
725.071	3507.28
725.413	3491.46
725.755	3475.87
726.097	3466.38
726.439	3481.74
726.782	3471.12
727.124	3484
727.465	3465.02
727.807	3478.35
728.149	3536.21
728.491	3483.55
728.833	3469.99
729.175	3484
729.516	3506.6
729.858	3507.05
730.199	3513.38
730.541	3528.75
730.882	3507.05
731.224	3554.29
731.565	3483.78
731.906	3491.69
732.248	3550.67
732.589	3492.37
732.93	3519.26
733.271	3530.33
733.612	3523.1
733.953	3568.3
734.294	3545.25
734.635	3505.25
734.976	3525.59
735.317	3515.19
735.658	3551.12
735.999	3528.75
736.339	3527.17
736.68	3587.73
737.021	3594.28
737.361	3560.84
737.702	3551.35
738.042	3559.93
738.383	3581.63
738.723	3614.4
739.063	3572.36
739.404	3629.99
739.744	3597.9
740.084	3599.26
740.424	3614.17
740.764	3634.06
741.104	3664.34
741.444	3644.68
741.784	3652.14
742.124	3640.61
742.464	3677.22
742.804	3681.74
743.143	3719.25
743.483	3712.7
743.823	3677.67
744.162	3714.51
744.502	3672.47
744.841	3725.58
745.181	3783.88
745.52	3748.4
745.86	3753.83
746.199	3764.9
746.538	3804.67
746.877	3813.49
747.216	3819.59
747.556	3829.08
747.895	3796.31
748.234	3842.87
748.573	3879.47
748.911	3856.65
749.25	3921.96
749.589	3953.37
749.928	3974.84
750.267	3950.21
750.605	3986.14
750.944	3995.4
751.283	4024.56
751.621	3996.76
751.96	4081.95
752.298	4025.46
752.636	4081.28
752.975	4102.75
753.313	4064.1
753.651	4130.77
753.989	4135.06
754.327	4200.82
754.666	4152.91
755.004	4226.58
755.342	4234.27
755.679	4218.22
756.017	4193.36
756.355	4254.83
756.693	4246.02
757.031	4351.55
757.368	4335.73
757.706	4306.36
758.044	4318.11
758.381	4354.72
758.719	4347.48
759.056	4386.35
759.394	4410.31
759.731	4391.1
760.068	4449.85
760.405	4455.73
760.743	4464.09
761.08	4432.45
761.417	4494.83
761.754	4465.9
762.091	4500.02
762.428	4521.49
762.765	4522.17
763.102	4527.82
763.438	4520.59
763.775	4546.35
764.112	4548.16
764.449	4563.3
764.785	4576.86
765.122	4575.28
765.458	4564.65
765.795	4579.57
766.131	4539.34
766.467	4611.66
766.804	4566.46
767.14	4615.05
767.476	4596.52
767.812	4597.87
768.148	4622.73
768.485	4596.97
768.821	4559.91
769.157	4555.61
769.492	4601.94
769.828	4613.47
770.164	4606.46
770.5	4606.91
770.836	4580.02
771.171	4542.73
771.507	4527.59
771.842	4565.33
772.178	4535.5
772.513	4537.99
772.849	4476.52
773.184	4493.7
773.519	4505.67
773.855	4479.68
774.19	4550.64
774.525	4481.72
774.86	4512.45
775.195	4491.66
775.53	4470.65
775.865	4433.58
776.2	4421.83
776.535	4409.86
776.87	4380.7
777.205	4417.54
777.539	4423.87
777.874	4381.16
778.209	4383.42
778.543	4402.4
778.878	4365.56
779.212	4346.13
779.547	4359.91
779.881	4323.3
780.215	4305.9
780.55	4346.58
780.884	4361.5
781.218	4265
781.552	4296.19
781.886	4267.26
782.22	4274.72
782.554	4248.96
782.888	4194.27
783.222	4198.34
783.556	4185.68
783.889	4193.36
784.223	4185
784.557	4189.3
784.89	4161.95
785.224	4168.73
785.557	4120.6
785.891	4155.4
786.224	4159.01
786.558	4102.07
786.891	4127.6
787.224	4092.12
787.557	4049.87
787.891	4059.13
788.224	4038.34
788.557	4049.64
788.89	4037.44
789.223	3988.17
789.556	4042.41
789.888	4015.74
790.221	3961.05
790.554	3966.7
790.887	3970.32
791.219	3983.88
791.552	3957.44
791.884	3926.93
792.217	3964.22
792.549	3911.11
792.882	3907.04
793.214	3888.29
793.546	3878.34
793.879	3850.1
794.211	3825.01
794.543	3870.43
794.875	3825.01
795.207	3848.51
795.539	3838.35
795.871	3848.06
796.203	3760.16
796.535	3814.39
796.867	3802.19
797.198	3748.4
797.53	3749.76
797.862	3773.49
798.193	3759.93
798.525	3732.81
798.856	3714.28
799.188	3700.95
799.519	3674.06
799.85	3677.22
800.182	3667.95
800.513	3652.59
800.844	3634.28
801.175	3640.84
801.506	3684.23
801.837	3654.17
802.168	3628.86
802.499	3636.77
802.83	3608.75
803.161	3592.48
803.491	3584.11
803.822	3569.88
804.153	3589.54
804.483	3542.76
804.814	3550.44
805.145	3515.42
805.475	3500.95
805.805	3535.75
806.136	3528.3
806.466	3535.75
806.796	3528.3
807.126	3474.06
807.457	3461.86
807.787	3488.3
808.117	3432.03
808.447	3489.43
808.777	3424.8
809.107	3394.52
809.436	3444.01
809.766	3410.79
810.096	3410.56
810.426	3415.08
810.755	3406.04
811.085	3430.67
811.414	3389.77
811.744	3399.71
812.073	3332.6
812.403	3332.14
812.732	3341.41
813.061	3340.51
813.39	3339.15
813.719	3313.61
814.049	3354.06
814.378	3333.5
814.707	3320.62
815.036	3331.01
815.365	3294.18
815.693	3309.55
816.022	3288.08
816.351	3237.23
816.68	3270
817.008	3280.62
817.337	3263.22
817.665	3249.89
817.994	3246.95
818.322	3203.56
818.651	3220.96
818.979	3194.75
819.307	3252.15
819.636	3230.68
819.964	3194.75
820.292	3180.96
820.62	3219.38
820.948	3176.89
821.276	3226.84
821.604	3218.93
821.932	3196.33
822.259	3180.28
822.587	3180.28
822.915	3155.65
823.243	3181.19
823.57	3183.9
823.898	3182.32
824.225	3195.88
824.553	3175.99
824.88	3171.92
825.207	3211.24
825.535	3164.92
825.862	3173.96
826.189	3184.58
826.516	3207.63
826.843	3174.18
827.17	3201.07
827.497	3192.26
827.824	3175.76
828.151	3213.05
828.478	3176.44
828.805	3183.45
829.131	3185.26
829.458	3188.87
829.785	3152.04
830.111	3146.39
830.438	3179.38
830.764	3168.98
831.09	3168.08
831.417	3165.59
831.743	3177.35
832.069	3175.31
832.395	3127.86
832.722	3170.11
833.048	3185.93
833.374	3137.35
833.7	3151.13
834.026	3161.08
834.351	3162.43
834.677	3143.22
835.003	3161.53
835.329	3165.14
835.654	3144.58
835.98	3142.77
836.306	3135.31
836.631	3124.01
836.956	3111.36
837.282	3135.99
837.607	3089.89
837.932	3115.88
838.258	3112.04
838.583	3112.26
838.908	3086.5
839.233	3075.43
839.558	3105.48
839.883	3106.16
840.208	3058.03
840.533	3087.18
840.858	3077.24
841.182	3074.98
841.507	3067.07
841.832	3034.98
842.156	3052.38
842.481	3061.87
842.805	3027.07
843.13	3052.15
843.454	3019.84
843.778	3024.13
844.103	3045.82
844.427	2974.41
844.751	3040.85
845.075	2976.45
845.399	2988.2
845.723	2957.24
846.047	2971.48
846.371	2941.19
846.695	2944.81
847.019	2934.19
847.343	2917.01
847.666	2930.57
847.99	2890.12
848.313	2904.36
848.637	2910.23
848.96	2895.32
849.284	2905.04
849.607	2874.53
849.931	2825.72
850.254	2860.52
850.577	2834.08
850.9	2804.47
851.223	2803.8
851.546	2816.23
851.869	2778.94
852.192	2811.71
852.515	2785.04
852.838	2744.59
853.161	2751.37
853.483	2732.84
853.806	2708.66
854.129	2732.16
854.451	2760.63
854.774	2699.62
855.096	2713.63
855.419	2708.88
855.741	2698.49
856.063	2693.29
856.385	2669.79
856.708	2660.07
857.03	2669.56
857.352	2658.04
857.674	2646.74
857.996	2651.48
858.318	2609.68
858.64	2636.34
858.961	2628.66
859.283	2630.02
859.605	2566.06
859.926	2608.55
860.248	2585.72
860.57	2607.42
860.891	2604.25
861.212	2582.56
861.534	2583.01
861.855	2564.25
862.176	2539.85
862.498	2562.22
862.819	2570.81
863.14	2571.94
863.461	2573.07
863.782	2547.08
864.103	2532.39
864.424	2524.48
864.745	2558.15
865.065	2535.33
865.386	2524.93
865.707	2548.44
866.027	2517.02
866.348	2528.55
866.668	2526.97
866.989	2489.91
867.309	2489.23
867.63	2481.32
867.95	2497.59
868.27	2492.84
868.59	2470.7
868.91	2493.52
869.23	2470.47
869.55	2453.98
869.87	2486.74
870.19	2480.19
870.51	2486.52
870.83	2463.24
871.15	2476.8
871.469	2435.67
871.789	2474.09
872.109	2465.05
872.428	2430.47
872.748	2434.77
873.067	2435.22
873.386	2445.84
873.706	2454.65
874.025	2430.02
874.344	2441.77
874.663	2461.66
874.982	2421.43
875.301	2418.72
875.62	2442
875.939	2366.75
876.258	2441.55
876.577	2403.35
876.896	2416.46
877.214	2358.38
877.533	2412.85
877.852	2383.92
878.17	2406.74
878.489	2375.56
878.807	2419.17
879.125	2385.28
879.444	2386.41
879.762	2399.29
880.08	2378.95
880.398	2374.43
880.716	2383.02
881.034	2359.74
881.352	2334.2
881.67	2335.79
881.988	2340.53
882.306	2387.54
882.624	2352.51
882.941	2333.3
883.259	2300.53
883.577	2328.1
883.894	2326.07
884.212	2307.54
884.529	2315.67
884.846	2320.19
885.164	2327.42
885.481	2295.11
885.798	2322.91
886.115	2290.14
886.432	2300.31
886.75	2316.13
887.067	2279.06
887.383	2270.7
887.7	2251.04
888.017	2266.18
888.334	2282.23
888.651	2261.21
888.967	2245.39
889.284	2229.35
889.6	2253.3
889.917	2212.17
890.233	2232.74
890.55	2195
890.866	2221.66
891.182	2197.94
891.498	2219.63
891.815	2215.79
892.131	2199.52
892.447	2176.24
892.763	2217.15
893.079	2196.58
893.395	2178.95
893.71	2144.38
894.026	2150.93
894.342	2169.46
894.657	2152.06
894.973	2124.27
895.289	2151.38
895.604	2126.98
895.92	2138.5
896.235	2112.74
896.55	2082.23
896.865	2092.18
897.181	2143.7
897.496	2116.36
897.811	2094.66
898.126	2131.27
898.441	2110.26
898.756	2069.8
899.071	2058.73
899.386	2084.72
899.7	2064.83
900.015	2047.88
900.33	2050.82
900.644	2054.44
900.959	2023.25
901.273	2045.85
901.588	2039.97
901.902	2027.32
902.216	2028.68
902.531	2023.48
902.845	1999.52
903.159	1987.77
903.473	1974.89
903.787	1968.34
904.101	1980.09
904.415	1970.6
904.729	1939.86
905.042	1953.88
905.356	1954.78
905.67	1955.46
905.984	1950.71
906.297	1935.34
906.611	1890.37
906.924	1936.02
907.237	1931.5
907.551	1930.6
907.864	1927.21
908.177	1917.94
908.491	1906.19
908.804	1878.17
909.117	1893.99
909.43	1891.05
909.743	1833.2
910.056	1867.55
910.368	1859.87
910.681	1847.44
910.994	1859.19
911.307	1826.42
911.619	1839.75
911.932	1815.35
912.244	1817.61
912.557	1813.77
912.869	1811.28
913.181	1793.2
913.494	1806.31
913.806	1795.24
914.118	1778.06
914.43	1771.96
914.742	1755.01
915.054	1758.85
915.366	1760.21
915.678	1760.43
915.99	1729.47
916.302	1741
916.613	1739.64
916.925	1731.06
917.236	1717.72
917.548	1697.61
917.859	1708.01
918.171	1696.03
918.482	1691.51
918.794	1711.85
919.105	1699.42
919.416	1684.96
919.727	1681.11
920.038	1671.62
920.349	1668.68
920.66	1673.66
920.971	1689.93
921.282	1636.82
921.593	1660.32
921.903	1644.28
922.214	1612.87
922.525	1631.4
922.835	1592.08
923.146	1587.78
923.456	1601.12
923.767	1623.49
924.077	1578.74
924.387	1615.58
924.697	1607.9
925.008	1599.76
925.318	1594.11
925.628	1585.07
925.938	1542.59
926.248	1569.25
926.558	1530.61
926.867	1558.41
927.177	1554.11
927.487	1539.42
927.796	1534
928.106	1537.61
928.416	1510.95
928.725	1529.71
929.034	1518.86
929.344	1508.01
929.653	1511.4
929.962	1501.91
930.271	1519.31
930.581	1480.67
930.89	1470.05
931.199	1470.05
931.508	1479.76
931.817	1502.36
932.125	1478.41
932.434	1495.13
932.743	1463.04
933.051	1440.67
933.36	1432.76
933.669	1428.47
933.977	1458.97
934.286	1418.3
934.594	1445.19
934.902	1434.57
935.21	1441.12
935.519	1413.32
935.827	1403.83
936.135	1431.86
936.443	1375.36
936.751	1373.55
937.059	1395.92
937.367	1383.72
937.674	1379.88
937.982	1364.29
938.29	1346.21
938.597	1355.47
938.905	1339.2
939.213	1324.97
939.52	1354.79
939.827	1358.18
940.135	1359.77
940.442	1315.7
940.749	1324.29
941.056	1358.41
941.363	1299.66
941.67	1312.76
941.977	1303.95
942.284	1308.02
942.591	1299.2
942.898	1309.82
943.205	1295.59
943.511	1315.47
943.818	1322.48
944.125	1242.93
944.431	1277.06
944.738	1264.85
945.044	1304.17
945.35	1259.88
945.657	1279.09
945.963	1263.05
946.269	1279.09
946.575	1268.02
946.881	1234.57
947.187	1239.77
947.493	1246.32
947.799	1250.39
948.105	1237.96
948.41	1207.23
948.716	1213.56
949.022	1218.53
949.327	1213.78
949.633	1218.75
949.938	1192.31
950.244	1180.79
950.549	1207.45
950.854	1190.05
951.16	1189.38
951.465	1187.34
951.77	1159.77
952.075	1165.42
952.38	1177.4
952.685	1179.88
952.99	1164.29
953.294	1142.6
953.599	1156.83
953.904	1160.9
954.209	1163.61
954.513	1173.56
954.818	1138.76
955.122	1138.53
955.426	1113.67
955.731	1144.63
956.035	1145.31
956.339	1139.43
956.643	1119.77
956.948	1106.21
957.252	1095.37
957.556	1133.78
957.86	1118.42
958.163	1127.68
958.467	1094.01
958.771	1078.64
959.075	1125.2
959.378	1103.28
959.682	1072.54
959.985	1081.36
960.289	1090.85
960.592	1073.45
960.896	1086.1
961.199	1088.59
961.502	1076.84
961.805	1074.35
962.108	1069.38
962.411	1050.17
962.714	1040.23
963.017	1038.87
963.32	1051.98
963.623	1049.49
963.926	1042.71
964.228	1045.2
964.531	1039.32
964.833	1029.61
965.136	1019.89
965.438	1015.37
965.741	1026.89
966.043	1029.15
966.345	1016.5
966.648	997.29
966.95	1015.59
967.252	983.73
967.554	983.96
967.856	995.93
968.158	1000.23
968.46	976.95
968.761	962.71
969.063	972.43
969.365	995.71
969.666	987.12
969.968	990.51
970.269	963.17
970.571	950.96
970.872	958.42
971.174	945.09
971.475	949.83
971.776	961.58
972.077	966.1
972.378	972.88
972.679	977.18
972.98	931.08
973.281	931.98
973.582	937.63
973.883	937.4
974.183	922.94
974.484	915.26
974.785	930.63
975.085	932.89
975.386	917.97
975.686	936.05
975.986	924.75
976.287	921.81
976.587	899.21
976.887	915.48
977.187	894.24
977.487	909.16
977.787	903.73
978.087	889.5
978.387	894.69
978.687	898.08
978.987	861.25
979.286	901.7
979.586	909.38
979.885	905.77
980.185	861.02
980.484	873.9
980.784	866.22
981.083	884.52
981.382	863.06
981.682	858.08
981.981	854.92
982.28	841.81
982.579	866.22
982.878	855.6
983.177	841.59
983.475	848.82
983.774	843.17
984.073	854.92
984.372	850.85
984.67	851.53
984.969	839.1
985.267	838.42
985.566	837.97
985.864	854.7
986.162	810.18
986.461	811.31
986.759	840.46
987.057	822.61
987.355	818.09
987.653	793.45
987.951	811.53
988.249	811.53
988.547	804.07
988.844	810.18
989.142	792.55
989.44	809.5
989.737	778.76
990.035	800.91
990.332	798.65
990.63	788.71
990.927	804.07
991.224	800.46
991.521	790.29
991.819	744.87
992.116	777.63
992.413	778.76
992.71	774.25
993.006	754.13
993.303	757.97
993.6	773.34
993.897	757.3
994.193	778.99
994.49	750.74
994.787	737.18
995.083	734.02
995.379	746.9
995.676	756.39
995.972	750.07
996.268	746.22
996.565	751.65
996.861	735.6
997.157	729.27
997.453	730.18
997.749	722.5
998.044	729.95
998.34	751.42
998.636	712.78
998.932	721.37
999.227	726.11
999.523	725.66
999.818	715.26
1000.114	699.44
1000.409	720.24
1000.704	710.52
1001	711.2
1001.295	699.67
1001.59	705.09
1001.885	713.68
1002.18	683.4
1002.475	677.52
1002.77	710.52
1003.065	678.88
1003.359	709.84
1003.654	683.85
1003.949	694.7
1004.243	695.83
1004.538	670.75
1004.832	673.23
1005.127	671.65
1005.421	670.97
1005.715	680.46
1006.009	670.75
1006.304	647.69
1006.598	654.25
1006.892	687.69
1007.186	661.25
1007.48	660.12
1007.773	626.45
1008.067	676.85
1008.361	668.03
1008.655	653.34
1008.948	631.65
1009.242	642.5
1009.535	652.44
1009.829	653.57
1010.122	625.32
1010.415	635.27
1010.708	624.87
1011.001	607.24
1011.295	631.88
1011.588	622.38
1011.881	612.44
1012.173	622.16
1012.466	616.74
1012.759	609.28
1013.052	614.93
1013.344	596.62
1013.637	614.48
1013.93	614.02
1014.222	597.07
1014.514	606.11
1014.807	594.36
1015.099	604.31
1015.391	590.07
1015.683	591.65
1015.976	566.12
1016.268	587.13
1016.56	590.97
1016.851	604.98
1017.143	569.96
1017.435	576.96
1017.727	575.38
1018.018	573.57
1018.31	576.74
1018.602	561.37
1018.893	569.96
1019.185	562.95
1019.476	557.98
1019.767	568.15
1020.058	574.02
1020.35	559.79
1020.641	550.75
1020.932	555.49
1021.223	550.07
1021.514	548.94
1021.804	569.5
1022.095	567.92
1022.386	544.19
1022.677	570.86
1022.967	562.73
1023.258	545.32
1023.548	540.8
1023.839	553.46
1024.129	542.39
1024.419	542.61
1024.709	522.05
1025	525.44
1025.29	521.82
1025.58	539.22
1025.87	527.92
1026.16	501.94
1026.449	520.24
1026.739	515.04
1027.029	524.31
1027.319	529.05
1027.608	514.37
1027.898	519.11
1028.187	495.16
1028.477	514.82
1028.766	496.29
1029.055	513.69
1029.344	515.27
1029.634	501.26
1029.923	501.26
1030.212	508.04
1030.501	526.57
1030.79	488.38
1031.078	483.18
1031.367	468.26
1031.656	496.96
1031.945	491.09
1032.233	507.13
1032.522	491.09
1032.81	496.51
1033.099	489.05
1033.387	478.21
1033.675	478.66
1033.963	461.49
1034.251	465.1
1034.54	481.15
1034.828	478.89
1035.116	469.62
1035.403	489.28
1035.691	464.87
1035.979	498.77
1036.267	477.3
1036.554	449.06
1036.842	460.81
1037.129	467.36
1037.417	473.91
1037.704	484.76
1037.992	475.72
1038.279	451.54
1038.566	445.44
1038.853	445.44
1039.14	445.44
