Data from blue_shiny_book_FLMS001491_00030.txt Node
Date: Wed Feb 08 15:26:45 GMT 2017
User: dcchb
Spectrometer: FLMS00149
Trigger mode: 0
Integration Time (sec): 2.000000E-2
Scans to average: 10
Electric dark correction enabled: true
Nonlinearity correction enabled: false
Boxcar width: 0
XAxis mode: Wavelengths
Number of Pixels in Spectrum: 2048
>>>>>Begin Spectral Data<<<<<
341.393	-4.46
341.776	-4.46
342.16	-4.46
342.543	-63.9
342.927	-80.85
343.31	-61.18
343.693	-49.66
344.077	-71.13
344.46	-50.56
344.843	-66.38
345.226	-51.92
345.61	-50.56
345.993	1.41
346.376	10.23
346.759	-0.62
347.142	22.88
347.525	45.03
347.908	49.09
348.291	79.6
348.674	83.22
349.057	110.56
349.44	134.29
349.823	152.14
350.206	180.16
350.588	221.52
350.971	222.42
351.354	217.68
351.737	260.61
352.119	257.68
352.502	258.13
352.884	284.34
353.267	287.73
353.65	312.36
354.032	325.25
354.414	329.77
354.797	332.7
355.179	345.36
355.562	358.92
355.944	365.92
356.326	342.87
356.709	346.71
357.091	358.92
357.473	380.39
357.855	354.17
358.238	381.06
358.62	356.43
359.002	351.01
359.384	347.62
359.766	368.18
360.148	358.47
360.53	362.31
360.912	367.05
361.294	366.15
361.676	361.63
362.057	359.14
362.439	357.56
362.821	356.43
363.203	347.84
363.584	351.69
363.966	328.64
364.348	329.09
364.729	326.83
365.111	325.25
365.493	350.78
365.874	330.22
366.256	358.01
366.637	341.52
367.019	326.15
367.4	326.6
367.781	349.65
368.163	357.34
368.544	358.01
368.925	351.69
369.306	354.4
369.688	319.82
370.069	329.99
370.45	354.4
370.831	333.38
371.212	332.25
371.593	355.98
371.974	347.84
372.355	357.56
372.736	348.07
373.117	338.35
373.498	363.89
373.879	352.82
374.26	363.89
374.641	367.96
375.021	372.48
375.402	347.39
375.783	364.34
376.163	387.16
376.544	388.52
376.925	410.44
377.305	382.42
377.686	387.39
378.066	377.45
378.447	393.94
378.827	403.89
379.208	406.15
379.588	370.89
379.968	391.46
380.349	392.59
380.729	398.46
381.109	393.72
381.489	423.32
381.87	399.82
382.25	415.86
382.63	413.15
383.01	416.09
383.39	438.46
383.77	428.97
384.15	416.09
384.53	434.85
384.91	428.29
385.29	443.66
385.67	425.36
386.049	444.34
386.429	461.74
386.809	453.38
387.189	450.67
387.568	462.42
387.948	465.35
388.328	467.39
388.707	453.6
389.087	482.08
389.466	474.39
389.846	476.2
390.225	475.75
390.605	494.28
390.984	484.11
391.363	497.44
391.743	518.23
392.122	506.48
392.501	509.2
392.881	536.77
393.26	540.61
393.639	552.13
394.018	539.48
394.397	546.48
394.776	532.25
395.155	546.71
395.534	557.1
395.913	563.21
396.292	585.35
396.671	580.61
397.05	607.05
397.429	602.75
397.808	597.1
398.186	579.7
398.565	586.03
398.944	621.28
399.323	624.22
399.701	626.71
400.08	618.12
400.458	650.89
400.837	662.86
401.215	657.44
401.594	633.71
401.972	661.06
402.351	656.08
402.729	647.05
403.107	680.04
403.486	691.79
403.864	686.59
404.242	712.35
404.62	738.57
404.999	701.73
405.377	722.98
405.755	726.37
406.133	758
406.511	735.86
406.889	779.02
407.267	781.05
407.645	791.9
408.023	790.32
408.401	804.78
408.779	800.26
409.156	821.5
409.534	835.51
409.912	867.15
410.29	866.25
410.667	897.89
411.045	900.82
411.422	925.46
411.8	926.81
412.178	909.41
412.555	955.96
412.933	953.7
413.31	991.22
413.687	1001.16
414.065	982.86
414.442	979.92
414.819	1043.19
415.197	1029.63
415.574	1066.92
415.951	1070.08
416.328	1095.85
416.705	1093.81
417.082	1118.67
417.46	1126.13
417.837	1117.99
418.214	1129.29
418.591	1156.86
418.967	1142.85
419.344	1158.9
419.721	1147.82
420.098	1174.49
420.475	1203.41
420.852	1242.06
421.228	1246.13
421.605	1274.37
421.982	1257.65
422.358	1285.9
422.735	1286.12
423.111	1301.49
423.488	1329.74
423.864	1313.92
424.241	1366.8
424.617	1384.88
424.994	1393.01
425.37	1392.11
425.746	1411.32
426.123	1487.02
426.499	1448.15
426.875	1485.44
427.251	1526.12
427.627	1545.33
428.003	1568.15
428.379	1539.68
428.756	1581.03
429.132	1596.85
429.507	1648.37
429.883	1667.58
430.259	1698.99
430.635	1721.82
431.011	1726.79
431.387	1794.13
431.763	1800.01
432.138	1838.65
432.514	1835.49
432.89	1851.99
433.265	1884.53
433.641	1905.32
434.016	1896.96
434.392	1965.88
434.767	1984.86
435.143	1990.29
435.518	2050.62
435.894	2078.42
436.269	2140.79
436.644	2122.71
437.02	2142.15
437.395	2168.14
437.77	2216.04
438.145	2212.43
438.52	2233.44
438.895	2276.15
439.271	2247.46
439.646	2352.99
440.021	2383.95
440.395	2408.58
440.77	2380.11
441.145	2434.12
441.52	2447
441.895	2479.99
442.27	2538.29
442.645	2484.28
443.019	2526.32
443.394	2529.71
443.769	2554.57
444.143	2554.34
444.518	2605.86
444.892	2610.61
445.267	2666.43
445.641	2709.14
446.016	2729.48
446.39	2732.64
446.764	2770.61
447.139	2772.19
447.513	2817.61
447.887	2780.55
448.262	2801.79
448.636	2849.7
449.01	2895.57
449.384	2906.42
449.758	2918.62
450.132	2972.86
450.506	3055.8
450.88	3034.55
451.254	3065.29
451.628	3093.99
452.002	3157.04
452.376	3182.12
452.75	3188.22
453.123	3204.72
453.497	3304.15
453.871	3277.26
454.244	3340.31
454.618	3359.06
454.992	3430.7
455.365	3444.03
455.739	3577.14
456.112	3592.5
456.486	3637.93
456.859	3694.65
457.232	3736
457.606	3749.56
457.979	3775.32
458.352	3871.37
458.725	3898.71
459.099	3935.77
459.472	4009.89
459.845	4052.83
460.218	4130.8
460.591	4134.19
460.964	4157.69
461.337	4293.28
461.71	4359.49
462.083	4454.4
462.456	4453.05
462.829	4495.31
463.201	4587.96
463.574	4617.79
463.947	4682.42
464.32	4763.55
464.692	4778.01
465.065	4815.98
465.438	4900.72
465.81	5015.74
466.183	5005.12
466.555	5143.42
466.928	5188.85
467.3	5183.87
467.672	5332.35
468.045	5479.46
468.417	5523.53
468.789	5514.71
469.161	5532.34
469.534	5700.7
469.906	5790.64
470.278	5830.86
470.65	5886.91
471.022	6003.97
471.394	6141.36
471.766	6182.04
472.138	6294.81
472.51	6385.43
472.882	6526.89
473.253	6603.27
473.625	6676.94
473.997	6881.01
474.369	6909.71
474.74	6993.54
475.112	7177.04
475.484	7244.16
475.855	7360.54
476.227	7428.79
476.598	7565.96
476.97	7705.62
477.341	7880.3
477.713	8027.19
478.084	8064.03
478.455	8319.84
478.827	8287.97
479.198	8627.85
479.569	8674.86
479.94	8895.87
480.311	9047.05
480.682	9241.62
481.053	9406.59
481.424	9587.15
481.795	9636.64
482.166	9775.62
482.537	9995.5
482.908	10200.01
483.279	10286.11
483.65	10460.12
484.021	10627.35
484.391	10767.91
484.762	10880.9
485.133	11048.35
485.503	11217.61
485.874	11392.3
486.244	11573.31
486.615	11763.36
486.985	11869.35
487.356	12166.97
487.726	12286.29
488.097	12600.63
488.467	12605.83
488.837	12856.44
489.207	13067.51
489.578	13268.18
489.948	13316.99
490.318	13631.79
490.688	13618.23
491.058	13864.55
491.428	14086.92
491.798	14262.51
492.168	14563.29
492.538	14604.19
492.908	14754.7
493.278	14848.48
493.648	14941.81
494.017	15143.16
494.387	15326.21
494.757	15580.66
495.126	15658.4
495.496	15725.74
495.866	15888.68
496.235	16104.27
496.605	16262.45
496.974	16383.35
497.344	16646.17
497.713	16565.5
498.082	16791.71
498.452	16985.82
498.821	17043.68
499.19	17040.51
499.559	17279.83
499.928	17464.46
500.298	17593.49
500.667	17718.01
501.036	17759.82
501.405	17909.87
501.774	18092.46
502.143	18202.97
502.512	18413.81
502.88	18527.48
503.249	18540.81
503.618	18722.05
503.987	18814.93
504.356	18910.29
504.724	19074.36
505.093	19139.44
505.462	19240
505.83	19350.96
506.199	19468.92
506.567	19728.35
506.936	19743.94
507.304	20086.76
507.672	20149.58
508.041	20279.98
508.409	20528.78
508.777	20653.98
509.145	20851.94
509.514	20844.03
509.882	21043.57
510.25	21221.19
510.618	21413.96
510.986	21401.53
511.354	21669.09
511.722	21817.11
512.09	21928.29
512.458	21818.69
512.826	22122.86
513.193	22139.36
513.561	22270.21
513.929	22498.22
514.297	22724.66
514.664	23027.25
515.032	22992.9
515.4	23326.22
515.767	23453.68
516.135	23601.92
516.502	23544.07
516.869	23996.49
517.237	24157.16
517.604	24169.82
517.972	24448.45
518.339	24452.52
518.706	24542.01
519.073	24754.89
519.44	24814.55
519.808	24983.58
520.175	25000.98
520.542	25494.3
520.909	25556.9
521.276	25595.99
521.643	25921.86
522.009	26111.91
522.376	26297.44
522.743	26599.81
523.11	26799.35
523.477	27136.74
523.843	27399.11
524.21	27657.18
524.577	27799.33
524.943	27858.53
525.31	28130.84
525.676	28199.09
526.043	28376.03
526.409	28529.48
526.776	28864.38
527.142	28850.15
527.508	29099.63
527.874	29330.58
528.241	29440.19
528.607	29537.13
528.973	29785.49
529.339	29918.37
529.705	30257.57
530.071	30636.77
530.437	30835.63
530.803	31067.49
531.169	31282.17
531.535	31193.59
531.901	31388.16
532.267	31556.97
532.632	31908.14
532.998	31900.23
533.364	32068.59
533.73	32140.68
534.095	32297.29
534.461	32296.38
534.826	32449.6
535.192	32696.82
535.557	32867.89
535.923	32935.24
536.288	33010.26
536.653	33261.78
537.019	33231.73
537.384	33469.68
537.749	33758.49
538.114	33934.98
538.479	33985.15
538.845	34225.82
539.21	34177.91
539.575	34423.78
539.94	34421.3
540.305	34642.99
540.67	34612.25
541.034	34695.42
541.399	34773.15
541.764	34856.54
542.129	34897.22
542.494	34951.23
542.858	35112.35
543.223	35056.54
543.587	35263.76
543.952	35358.67
544.316	35530.42
544.681	35583.3
545.045	35923.41
545.41	36110.75
545.774	36202.72
546.138	36323.85
546.503	36466.44
546.867	36386.67
547.231	36904.4
547.595	36859.2
547.959	36943.27
548.324	36960.21
548.688	37005.86
549.052	37089.25
549.416	37247.21
549.779	37113.66
550.143	37125.86
550.507	37295.12
550.871	37317.72
551.235	37230.26
551.599	37606.3
551.962	37658.5
552.326	37802
552.689	38043.58
553.053	37947.99
553.417	38166.51
553.78	38794.52
554.143	38595.43
554.507	38801.97
554.87	39028.41
555.234	39419.58
555.597	39223.66
555.96	39383.88
556.323	39483.76
556.686	39570.09
557.05	39795.39
557.413	39766.02
557.776	39616.64
558.139	40053.92
558.502	39841.49
558.865	39969.18
559.228	40164.65
559.59	40175.27
559.953	40411.42
560.316	40706.56
560.679	40689.61
561.041	40995.59
561.404	41274
561.767	41560.09
562.129	41626.53
562.492	41926.86
562.854	42066.75
563.217	41944.26
563.579	42363.46
563.941	42722.1
564.304	42721.87
564.666	42927.29
565.028	42920.51
565.39	42987.85
565.753	43049.09
566.115	43239.37
566.477	43250.22
566.839	43321.18
567.201	43314.85
567.563	43353.04
567.925	43625.58
568.287	43472.59
568.648	43709.42
569.01	43930.65
569.372	44283.64
569.734	44116.64
570.095	44674.36
570.457	44749.16
570.819	44786.9
571.18	45058.08
571.542	45208.59
571.903	45428.24
572.265	45492.65
572.626	45703.71
572.987	45811.51
573.349	46053.08
573.71	46203.14
574.071	46133.53
574.432	46189.12
574.794	46392.28
575.155	46139.63
575.516	46013.31
575.877	46157.49
576.238	46106.64
576.599	46222.57
576.96	46227.77
577.32	46192.29
577.681	46428.89
578.042	46625.72
578.403	46648.55
578.763	46813.51
579.124	46752.05
579.485	47055.54
579.845	47108.65
580.206	47270.68
580.566	47266.61
580.927	47492.82
581.287	47647.39
581.648	47492.37
582.008	47800.83
582.368	47914.5
582.728	47799.03
583.089	47727.62
583.449	47675.87
583.809	47724.9
584.169	47600.84
584.529	47611.69
584.889	47675.19
585.249	47447.85
585.609	47284.24
585.969	47477.23
586.329	47384.57
586.688	47426.38
587.048	47423.44
587.408	47449.66
587.768	47497.34
588.127	47423.89
588.487	47472.93
588.846	47876.54
589.206	47633.15
589.565	47818.01
589.925	47939.13
590.284	47966.93
590.643	48170.54
591.003	48119.24
591.362	48424.77
591.721	48263.87
592.08	48080.15
592.44	48287.37
592.799	48218.22
593.158	48232.46
593.517	48149.75
593.876	48086.25
594.235	47925.8
594.593	47989.76
594.952	47948.85
595.311	47773.49
595.67	47867.5
596.029	47995.86
596.387	47982.98
596.746	48006.25
597.104	47740.5
597.463	48073.82
597.822	48176.87
598.18	48201.73
598.538	48193.37
598.897	48408.73
599.255	48227.71
599.613	48643.3
599.972	48627.48
600.33	48685.1
600.688	48679.68
601.046	48813.01
601.404	48982.72
601.762	48776.85
602.12	49086.68
602.478	48949.05
602.836	48928.26
603.194	48647.59
603.552	48656.4
603.91	48555.84
604.268	48655.05
604.625	48458.67
604.983	48523.3
605.341	48295.96
605.698	48523.53
606.056	48449.86
606.413	48530.76
606.771	48732.11
607.128	48685.33
607.485	48494.6
607.843	48755.61
608.2	49058.88
608.557	49161.7
608.914	48959.22
609.272	49255.71
609.629	49328.7
609.986	49461.81
610.343	49455.93
610.7	49645.98
611.057	49624.97
611.414	49618.64
611.771	49825.41
612.127	49917.84
612.484	49798.07
612.841	49962.81
613.198	49745.19
613.554	49826.99
613.911	49878.07
614.267	49686.89
614.624	49639.88
614.98	49748.13
615.337	49899.08
615.693	49756.26
616.05	49633.55
616.406	49741.8
616.762	49703.61
617.118	49716.72
617.475	49507.91
617.831	49767.56
618.187	49889.14
618.543	49966.43
618.899	50118.29
619.255	50186.99
619.611	50223.59
619.967	50329.35
620.323	50464.49
620.678	50390.37
621.034	50438.73
621.39	50525.06
621.746	50363.03
622.101	50724.82
622.457	50404.83
622.812	50631.49
623.168	50658.61
623.523	50650.93
623.879	50703.36
624.234	50462.23
624.589	50417.71
624.945	50486.64
625.3	50371.16
625.655	50175.01
626.01	50214.33
626.365	50189.92
626.72	50222.69
627.075	50179.3
627.43	50089.81
627.785	49971.4
628.14	50159.42
628.495	50189.25
628.85	50091.17
629.205	50054.11
629.559	50311.05
629.914	50119.19
630.269	50252.97
630.623	50183.82
630.978	50231.96
631.332	50347.21
631.687	50585.17
632.041	50447.09
632.396	50610.03
632.75	50446.19
633.104	50401.9
633.459	50181.56
633.813	50246.87
634.167	50202.8
634.521	50133.88
634.875	50066.08
635.229	50034.9
635.583	49862.93
635.937	49783.83
636.291	49645.08
636.645	49663.61
636.999	49650.05
637.352	49576.61
637.706	49299.78
638.06	49374.35
638.413	49251.19
638.767	49073.57
639.121	49088.48
639.474	48867.25
639.828	48887.13
640.181	48943.4
640.534	48996.73
640.888	49084.19
641.241	48933.69
641.594	49097.75
641.947	49259.33
642.301	49314.92
642.654	49309.72
643.007	49255.26
643.36	49221.81
643.713	49172.55
644.066	49403.5
644.419	49239.67
644.771	49224.75
645.124	49007.58
645.477	49071.99
645.83	48627.25
646.182	48251.67
646.535	47992.47
646.888	47781.85
647.24	47382.31
647.593	47506.15
647.945	47238.81
648.298	46964.7
648.65	46959.95
649.002	46948.43
649.355	47066.39
649.707	47147.74
650.059	47277.46
650.411	47741.85
650.763	47841.28
651.115	48195.63
651.467	48094.61
651.819	47914.95
652.171	47949.08
652.523	47806.71
652.875	47898.23
653.227	47849.87
653.578	48184.78
653.93	48246.47
654.282	48117.21
654.633	47968.06
654.985	48104.1
655.337	48038.79
655.688	48211.22
656.039	48234.49
656.391	47988.4
656.742	47973.03
657.094	48052.8
657.445	48176.42
657.796	48145.01
658.147	47825.24
658.498	47932.81
658.849	47993.82
659.2	47833.38
659.551	47628.41
659.902	47749.76
660.253	47711.12
660.604	47676.32
660.955	47339.83
661.306	47673.83
661.656	47259.38
662.007	47375.53
662.358	47301.41
662.708	47290.34
663.059	47303.67
663.409	46960.4
663.76	47402.2
664.11	47278.81
664.461	47193.17
664.811	47329.21
665.161	47274.07
665.511	47364.69
665.862	47385.03
666.212	47582.76
666.562	47600.16
666.912	47610.78
667.262	47550.44
667.612	47719.71
667.962	47859.59
668.312	47721.51
668.662	47927.16
669.011	47917.89
669.361	47744.34
669.711	47786.6
670.06	47553.38
670.41	47479.94
670.76	47574.17
671.109	47585.25
671.459	47351.13
671.808	47099.61
672.157	47364.01
672.507	46943.45
672.856	46975.09
673.205	47012.61
673.554	47007.63
673.904	46723.12
674.253	46944.13
674.602	46764.02
674.951	46117.26
675.3	45768.8
675.649	46530.81
675.998	46446.74
676.346	46309.57
676.695	46513.41
677.044	46242.91
677.393	46446.52
677.741	46434.09
678.09	46281.55
678.438	46331.27
678.787	46420.08
679.135	46626.85
679.484	46163.59
679.832	46645.61
680.181	46373.75
680.529	46643.8
680.877	46637.47
681.225	46451.49
681.573	46609.9
681.922	46391.61
682.27	46273.42
682.618	46376.69
682.966	46316.58
683.314	46195.68
683.661	46013.99
684.009	45824.39
684.357	45768.8
684.705	45541.23
685.053	45627.11
685.4	45451.52
685.748	45173.11
686.095	45023.28
686.443	44745.32
686.79	44801.82
687.138	44628.26
687.485	44636.4
687.832	44477.31
688.18	44389.4
688.527	44244.09
688.874	44104.89
689.221	43971.56
689.568	43906.47
689.915	43953.03
690.262	43968.39
690.609	43805.68
690.956	43803.88
691.303	43795.52
691.65	43607.27
691.997	43697.89
692.344	43455.41
692.69	43575.41
693.037	43544
693.383	43461.51
693.73	43642.07
694.077	43342.65
694.423	43259.48
694.769	43155.76
695.116	42988.53
695.462	42871.47
695.808	42977.01
696.155	43005.71
696.501	42527.98
696.847	42467.64
697.193	42153.3
697.539	42180.42
697.885	41975.68
698.231	41728
698.577	41783.59
698.923	41530.72
699.269	41334.79
699.614	41005.98
699.96	40889.38
700.306	40914.69
700.651	40653.45
700.997	40353.8
701.342	40131.88
701.688	40164.42
702.033	40093.69
702.379	40061.15
702.724	39904.09
703.069	40093.92
703.415	39567.83
703.76	39715.85
704.105	39722.63
704.45	39686.47
704.795	39476.31
705.14	39389.53
705.485	39310.21
705.83	39287.84
706.175	39422.07
706.52	39354.5
706.865	39280.15
707.209	39332.81
707.554	39216.43
707.899	39350.43
708.243	39070.89
708.588	39124.68
708.932	38784.8
709.277	39013.95
709.621	38974.4
709.966	38582.54
710.31	38685.37
710.654	38275.66
710.998	38248.09
711.342	38266.17
711.687	38117.47
712.031	37892.39
712.375	37682.46
712.719	37782.34
713.063	37623.47
713.407	37580.76
713.75	37274.33
714.094	37069.59
714.438	37020.78
714.782	36999.31
715.125	36927.9
715.469	36816.72
715.812	36607
716.156	36421.02
716.499	36425.31
716.843	36440
717.186	36145.55
717.53	36290.18
717.873	36378.53
718.216	36114.14
718.559	36181.48
718.902	36017.64
719.246	36191.87
719.589	36312.55
719.932	36290.63
720.275	36131.54
720.617	36174.25
720.96	36006.12
721.303	36157.98
721.646	36125.21
721.989	36027.36
722.331	36226
722.674	36167.24
723.016	36193
723.359	36134.93
723.701	36126.11
724.044	35855.61
724.386	35647.93
724.729	35849.51
725.071	35808.61
725.413	35599.35
725.755	35657.42
726.097	35553.92
726.439	35265.12
726.782	35182.63
727.124	35220.15
727.465	35022.19
727.807	34895.41
728.149	34759.59
728.491	34662.2
728.833	34747.62
729.175	34589.88
729.516	34459.04
729.858	34468.75
730.199	34663.33
730.541	34453.84
730.882	34353.5
731.224	34558.02
731.565	34251.36
731.906	34247.74
732.248	34270.12
732.589	34172.04
732.93	34112.15
733.271	34313.5
733.612	34280.29
733.953	34372.94
734.294	34255.88
734.635	34408.64
734.976	34408.19
735.317	34277.57
735.658	34374.52
735.999	34606.6
736.339	34396.67
736.68	34721.86
737.021	34585.81
737.361	34548.07
737.702	34584.46
738.042	34414.52
738.383	34508.75
738.723	34540.39
739.063	34433.73
739.404	34544.46
739.744	34366.84
740.084	34231.47
740.424	34352.83
740.764	34219.04
741.104	34266.27
741.444	34099.72
741.784	33961.2
742.124	34104.7
742.464	33832.61
742.804	33740.86
743.143	33749.23
743.483	33739.51
743.823	33497.48
744.162	33652.05
744.502	33607.08
744.841	33381.1
745.181	33539.29
745.52	33510.36
745.86	33367.54
746.199	33429.23
746.538	33531.38
746.877	33606.18
747.216	33578.61
747.556	33404.38
747.895	33460.65
748.234	33480.08
748.573	33578.61
748.911	33475.11
749.25	33630.36
749.589	33680.98
749.928	33687.53
750.267	33782.67
750.605	33642.11
750.944	33783.8
751.283	33714.42
751.621	33800.98
751.96	33765.27
752.298	33813.4
752.636	33998.71
752.975	33804.59
753.313	33923.01
753.651	34060.63
753.989	33954.42
754.327	33933.4
754.666	33758.72
755.004	34025.6
755.342	34021.99
755.679	33975.43
756.017	33857.7
756.355	33874.19
756.693	33703.13
757.031	33654.76
757.368	33706.06
757.706	33613.41
758.044	33399.63
758.381	33509.46
758.719	33415.45
759.056	33413.87
759.394	33256.36
759.731	33033.09
760.068	33054.1
760.405	32889.36
760.743	32850.27
761.08	32961.68
761.417	32901.34
761.754	32766.43
762.091	32685.07
762.428	32834.9
762.765	32561.23
763.102	32739.99
763.438	32686.65
763.775	32555.36
764.112	32502.25
764.449	32601.01
764.785	32597.84
765.122	32321.92
765.458	32316.04
765.795	32311.3
766.131	32512.87
766.467	32579.99
766.804	32399.88
767.14	32299.55
767.476	32457.73
767.812	32382.26
768.148	32504.06
768.485	32271.75
768.821	32104.98
769.157	32109.04
769.492	31960.57
769.828	31962.38
770.164	31718.77
770.5	31636.29
770.836	31601.71
771.171	31624.76
771.507	31598.55
771.842	31386.35
772.178	31457.08
772.513	31350.42
772.849	31291.44
773.184	31105
773.519	30969.64
773.855	30827.49
774.19	30569.87
774.525	30620.95
774.86	30670.89
775.195	30615.07
775.53	30400.61
775.865	30236.1
776.2	30087.85
776.535	29864.81
776.87	29746.17
777.205	29754.3
777.539	29570.8
777.874	29413.52
778.209	29189.57
778.543	29003.36
778.878	28900.99
779.212	29031.16
779.547	28762.01
779.881	28945.51
780.215	28789.13
780.55	28705.97
780.884	28487.44
781.218	28553.43
781.552	28577.61
781.886	28433.66
782.22	28216.72
782.554	28230.05
782.888	28068.02
783.222	27998.64
783.556	27819.89
783.889	27987.12
784.223	27778.54
784.557	27771.76
784.89	27875.03
785.224	27653.79
785.557	27528.82
785.891	27517.98
786.224	27407.47
786.558	27439.34
786.891	27126.35
787.224	27085.45
787.557	27047.48
787.891	27072.56
788.224	26871.21
788.557	26939.91
788.89	26817.2
789.223	26825.34
789.556	26618.34
789.888	26483.65
790.221	26476.87
790.554	26281.85
790.887	26174.28
791.219	26190.33
791.552	26017.23
791.884	25793.28
792.217	25737.01
792.549	25547.63
792.882	25433.96
793.214	25354.64
793.546	25348.77
793.879	25212.73
794.211	25122.56
794.543	25057.02
794.875	24909.01
795.207	24960.53
795.539	24670.82
795.871	24803.25
796.203	24448.91
796.535	24395.35
796.867	24266.99
797.198	24323.71
797.53	24277.61
797.862	24099.76
798.193	24186.09
798.525	24004.17
798.856	24119.2
799.188	23911.52
799.519	23848.24
799.85	23768.7
800.182	23675.14
800.513	23712.65
800.844	23489.38
801.175	23547.46
801.506	23649.15
801.837	23457.97
802.168	23464.07
802.499	23444.41
802.83	23391.53
803.161	23232.21
803.491	23319.9
803.822	23267.69
804.153	23182.72
804.483	22975.95
804.814	22983.41
805.145	22954.71
805.475	22971.2
805.805	22893.24
806.136	22847.59
806.466	22961.71
806.796	22777.99
807.126	22599.24
807.457	22583.64
807.787	22644.66
808.117	22552.01
808.447	22433.82
808.777	22353.82
809.107	22288.74
809.436	22040.15
809.766	22119.93
810.096	21986.15
810.426	21915.64
810.755	21922.64
811.085	21825.25
811.414	21660.96
811.744	21560.39
812.073	21517.91
812.403	21479.27
812.732	21288.08
813.061	21176.45
813.39	21187.97
813.719	20977.36
814.049	21211.48
814.378	21021.42
814.707	20912.5
815.036	20924.03
815.365	20928.32
815.693	20755.67
816.022	20756.12
816.351	20666.18
816.68	20488.78
817.008	20674.32
817.337	20411.72
817.665	20446.07
817.994	20470.48
818.322	20465.73
818.651	20312.29
818.979	20324.95
819.307	20475.22
819.636	20317.94
819.964	20272.97
820.292	20265.29
820.62	20344.83
820.948	20351.16
821.276	20414.89
821.604	20328.11
821.932	20361.1
822.259	20415.11
822.587	20303.48
822.915	20332.4
823.243	20276.13
823.57	20375.34
823.898	20358.84
824.225	20282.24
824.553	20172.41
824.88	20383.25
825.207	20513.64
825.535	20395.45
825.862	20430.03
826.189	20216.25
826.516	20377.15
826.843	20469.57
827.17	20449.46
827.497	20448.78
827.824	20330.82
828.151	20441.78
828.478	20340.99
828.805	20386.64
829.131	20311.16
829.458	20149.13
829.785	20118.4
830.111	20085.86
830.438	20197.49
830.764	20081.56
831.09	20043.82
831.417	19872.98
831.743	19955.92
832.069	20022.81
832.395	19851.51
832.722	19884.73
833.048	19889.7
833.374	19854.22
833.7	19680.44
834.026	19670.95
834.351	19788.24
834.677	19773.55
835.003	19700.56
835.329	19703.72
835.654	19619.88
835.98	19604.96
836.306	19738.97
836.631	19553.44
836.956	19679.09
837.282	19610.84
837.607	19537.4
837.932	19397.06
838.258	19562.71
838.583	19597.51
838.908	19418.98
839.233	19391.19
839.558	19406.55
839.883	19337.4
840.208	19314.35
840.533	19331.75
840.858	19322.26
841.182	19468.7
841.507	19343.05
841.832	19293.33
842.156	19287.23
842.481	19258.08
842.805	19195.71
843.13	19227.12
843.454	19166.78
843.778	19125.2
844.103	19089.95
844.427	19076.17
844.751	18960.01
845.075	18895.15
845.399	18833.01
845.723	18832.33
846.047	18889.96
846.371	18755.27
846.695	18669.85
847.019	18575.39
847.343	18441.83
847.666	18375.62
847.99	18308.73
848.313	18312.34
848.637	18170.65
848.96	18073.48
849.284	18002.75
849.607	17802.75
849.931	17823.99
850.254	17631.01
850.577	17553.27
850.9	17480.05
851.223	17324.8
851.546	17366.38
851.869	17106.05
852.192	17273.5
852.515	17009.1
852.838	16913.96
853.161	16984.47
853.483	16760.07
853.806	16610.69
854.129	16736.57
854.451	16573.18
854.774	16542.67
855.096	16516.91
855.419	16418.16
855.741	16402.79
856.063	16362.11
856.385	16277.37
856.708	16299.97
857.03	16154.43
857.352	16125.28
857.674	16091.16
857.996	16029.69
858.318	16020.88
858.64	15999.64
858.961	15902.01
859.283	15972.07
859.605	15942.24
859.926	15894.55
860.248	15918.28
860.57	15787.44
860.891	15933.87
861.212	15823.37
861.534	15790.38
861.855	15823.82
862.176	15749.47
862.498	15774.78
862.819	15796.7
863.14	15657.5
863.461	15656.14
863.782	15615.92
864.103	15722.58
864.424	15560.33
864.745	15699.3
865.065	15648.68
865.386	15554.68
865.707	15543.6
866.027	15514.22
866.348	15476.49
866.668	15579.99
866.989	15363.27
867.309	15254.57
867.63	15325.3
867.95	15194.01
868.27	15205.31
868.59	15211.86
868.91	15211.86
869.23	15163.5
869.55	15116.95
869.87	15069.26
870.19	15083.95
870.51	15049.15
870.83	15034.92
871.15	14841.47
871.469	14836.05
871.789	14900.91
872.109	14831.76
872.428	14617.53
872.748	14740.46
873.067	14618.43
873.386	14576.17
873.706	14539.34
874.025	14501.6
874.344	14412.56
874.663	14488.72
874.982	14346.8
875.301	14376.85
875.62	14258.44
875.939	14234.26
876.258	14275.84
876.577	14270.19
876.896	14255.5
877.214	14214.6
877.533	14244.43
877.852	14309.51
878.17	14285.33
878.489	14168.72
878.807	14201.72
879.125	14094.6
879.444	14184.09
879.762	14160.81
880.08	14136.41
880.398	14114.49
880.716	14082.62
881.034	14047.14
881.352	14028.39
881.67	13952.01
881.988	13950.88
882.306	13973.25
882.624	13909.3
882.941	13909.52
883.259	13955.4
883.577	14022.06
883.894	13939.35
884.212	13881.73
884.529	13880.14
884.846	13849.64
885.164	13901.61
885.481	13774.61
885.798	13860.93
886.115	13774.38
886.432	13805.12
886.75	13675.18
887.067	13696.42
887.383	13709.3
887.7	13726.48
888.017	13693.26
888.334	13612.35
888.651	13451.23
888.967	13585.46
889.284	13510.44
889.6	13370.55
889.917	13266.15
890.233	13324.9
890.55	13211.01
890.866	13279.48
891.182	13219.82
891.498	13113.61
891.815	13103.89
892.131	13050.33
892.447	12957.91
892.763	12892.6
893.079	12892.82
893.395	12801.08
893.71	12668.88
894.026	12735.09
894.342	12653.51
894.657	12539.84
894.973	12549.56
895.289	12507.3
895.604	12404.48
895.92	12295.33
896.235	12347.75
896.55	12330.58
896.865	12223.46
897.181	12204.48
897.496	12175.33
897.811	12136.69
898.126	12040.87
898.441	11826.19
898.756	11919.74
899.071	11769.01
899.386	11938.27
899.7	11813.08
900.015	11792.29
900.33	11704.38
900.644	11679.98
900.959	11798.39
901.273	11690.14
901.588	11612.86
901.902	11583.93
902.216	11585.29
902.531	11598.4
902.845	11571.28
903.159	11507.78
903.473	11486.31
903.787	11394.33
904.101	11369.02
904.415	11378.29
904.729	11275.47
905.042	11237.05
905.356	11251.29
905.67	11199.99
905.984	11218.29
906.297	11187.78
906.611	11183.72
906.924	11142.36
907.237	11051.97
907.551	11033.89
907.864	10996.83
908.177	10897.4
908.491	10955.25
908.804	10827.79
909.117	10860.56
909.43	10764.75
909.743	10798.64
910.056	10729.72
910.368	10696.05
910.681	10628.48
910.994	10699.21
911.307	10552.77
911.619	10520.68
911.932	10525.66
912.244	10331.31
912.557	10400.91
912.869	10301.25
913.181	10268.71
913.494	10177.64
913.806	10125.67
914.118	10141.26
914.43	10036.85
914.742	9983.75
915.054	9946.24
915.366	9930.42
915.678	9890.19
915.99	9847.48
916.302	9746.24
916.613	9651.33
916.925	9729.97
917.236	9676.86
917.548	9501.73
917.859	9502.18
918.171	9401.17
918.482	9400.04
918.794	9303.54
919.105	9349.19
919.416	9279.59
919.727	9205.24
920.038	9220.61
920.349	9118.69
920.66	9058.35
920.971	9012.47
921.282	9043.43
921.593	9015.19
921.903	8948.52
922.214	8891.12
922.525	8892.7
922.835	8868.52
923.146	8778.58
923.456	8790.79
923.767	8748.98
924.077	8723.89
924.387	8698.36
924.697	8664.46
925.008	8646.38
925.318	8564.58
925.628	8596.89
925.938	8547.4
926.248	8443.22
926.558	8452.26
926.867	8417.01
927.177	8408.65
927.487	8448.87
927.796	8295.43
928.106	8370.91
928.416	8277.35
928.725	8233.96
929.034	8207.52
929.344	8204.81
929.653	8207.07
929.962	8195.32
930.271	8101.09
930.581	8074.87
930.89	8047.08
931.199	7939.28
931.508	8036.23
931.817	7954.2
932.125	7986.06
932.434	7937.93
932.743	7892.05
933.051	7833.07
933.36	7781.32
933.669	7778.38
933.977	7741.32
934.286	7734.09
934.594	7737.93
934.902	7646.86
935.21	7575.45
935.519	7638.95
935.827	7568.22
936.135	7505.4
936.443	7426.3
936.751	7460.88
937.059	7424.49
937.367	7433.53
937.674	7379.98
937.982	7305.85
938.29	7222.47
938.597	7223.37
938.905	7246.87
939.213	7161.45
939.52	7103.6
939.827	7128.46
940.135	7001.91
940.442	7012.75
940.749	6975.01
941.056	6939.54
941.363	6820.22
941.67	6867.45
941.977	6815.47
942.284	6758.07
942.591	6727.79
942.898	6679.88
943.205	6651.18
943.511	6675.59
943.818	6578.19
944.125	6570.51
944.431	6572.77
944.738	6593.33
945.044	6477.4
945.35	6433.33
945.657	6364.63
945.963	6365.31
946.269	6304.3
946.575	6310.63
946.881	6237.41
947.187	6292.09
947.493	6259.78
947.799	6238.76
948.105	6249.61
948.41	6197.63
948.716	6154.92
949.022	6140.01
949.327	6136.62
949.633	6028.15
949.938	6034.25
950.244	6004.87
950.549	6034.93
950.854	5972.78
951.16	6012.55
951.465	5931.2
951.77	5910.64
952.075	5893.69
952.38	5899.79
952.685	5861.37
952.99	5829.06
953.294	5816.4
953.599	5781.83
953.904	5775.5
954.209	5767.14
954.513	5815.72
954.818	5726.23
955.122	5712.9
955.426	5722.39
955.731	5735.05
956.035	5629.96
956.339	5606.69
956.643	5602.85
956.948	5594.94
957.252	5586.58
957.556	5551.77
957.86	5546.8
958.163	5525.79
958.467	5499.12
958.771	5490.31
959.075	5478.33
959.378	5411.21
959.682	5427.03
959.985	5363.53
960.289	5347.94
960.592	5294.83
960.896	5355.62
961.199	5296.41
961.502	5274.27
961.805	5229.07
962.108	5194.95
962.411	5206.7
962.714	5164.67
963.017	5111.11
963.32	5111.79
963.623	5025.01
963.926	5069.3
964.228	5021.17
964.531	4941.85
964.833	4974.39
965.136	4924.22
965.438	4872.92
965.741	4880.15
966.043	4830.66
966.345	4769.42
966.648	4787.95
966.95	4768.97
967.252	4741.17
967.554	4718.12
967.856	4679.03
968.158	4625.47
968.46	4641.97
968.761	4634.51
969.063	4625.92
969.365	4592.03
969.666	4559.03
969.968	4530.78
970.269	4532.14
970.571	4532.82
970.872	4491.24
971.174	4470.67
971.475	4450.33
971.776	4465.93
972.077	4440.17
972.378	4396.78
972.679	4384.35
972.98	4314.75
973.281	4317.46
973.582	4338.93
973.883	4261.64
974.183	4251.7
974.484	4289.44
974.785	4232.04
975.085	4267.51
975.386	4223.22
975.686	4197.69
975.986	4230
976.287	4136.67
976.587	4124.24
976.887	4117.46
977.187	4100.51
977.487	4106.16
977.787	4085.15
978.087	4081.31
978.387	4068.88
978.687	4049.22
978.987	4041.98
979.286	4041.08
979.586	4028.43
979.885	3981.42
980.185	3965.15
980.484	3922.67
980.784	3950.69
981.083	3959.73
981.382	3933.96
981.682	3878.15
981.981	3945.72
982.28	3879.5
982.579	3813.52
982.878	3841.76
983.177	3838.6
983.475	3823.46
983.774	3762.9
984.073	3794.98
984.372	3806.96
984.67	3708.89
984.969	3754.53
985.267	3743.69
985.566	3700.07
985.864	3705.27
986.162	3653.07
986.461	3681.54
986.759	3633.63
987.057	3615.55
987.355	3638.15
987.653	3600.64
987.951	3573.97
988.249	3546.18
988.547	3567.19
988.844	3498.72
989.142	3446.97
989.44	3461.43
989.737	3457.14
990.035	3415.79
990.332	3430.02
990.63	3367.2
990.927	3365.39
991.224	3371.27
991.521	3355
991.819	3320.87
992.116	3305.73
992.413	3344.38
992.71	3253.76
993.006	3244.49
993.303	3221.21
993.6	3183.02
993.897	3170.82
994.193	3166.75
994.49	3122.01
994.787	3122.69
995.083	3070.94
995.379	3086.53
995.676	3075.23
995.972	3024.38
996.268	3040.2
996.565	3053.31
996.861	2986.64
997.157	3004.95
997.453	2989.81
997.749	2978.28
998.044	2940.77
998.34	2916.14
998.636	2892.41
998.932	2868.68
999.227	2871.85
999.523	2877.27
999.818	2851.51
1000.114	2837.95
1000.409	2827.78
1000.704	2808.57
1001	2820.55
1001.295	2796.82
1001.59	2766.76
1001.885	2771.06
1002.18	2708.01
1002.475	2734.22
1002.77	2724.05
1003.065	2693.77
1003.359	2655.35
1003.654	2662.36
1003.949	2666.2
1004.243	2670.27
1004.538	2637.5
1004.832	2629.37
1005.127	2619.42
1005.421	2620.55
1005.715	2595.02
1006.009	2596.6
1006.304	2563.83
1006.598	2583.27
1006.892	2526.54
1007.186	2515.47
1007.48	2520.22
1007.773	2461.01
1008.067	2491.74
1008.361	2462.82
1008.655	2447
1008.948	2466.66
1009.242	2426.89
1009.535	2430.73
1009.829	2413.1
1010.122	2403.61
1010.415	2373.55
1010.708	2334.68
1011.001	2336.49
1011.295	2375.14
1011.588	2328.58
1011.881	2316.83
1012.173	2291.3
1012.466	2297.85
1012.759	2307.34
1013.052	2273.22
1013.344	2285.87
1013.637	2229.83
1013.93	2243.61
1014.222	2189.6
1014.514	2207
1014.807	2186.89
1015.099	2166.1
1015.391	2159.55
1015.683	2145.08
1015.976	2126.33
1016.268	2108.02
1016.56	2096.72
1016.851	2083.62
1017.143	2075.93
1017.435	2075.03
1017.727	2063.73
1018.018	2045.65
1018.31	2028.48
1018.602	2023.05
1018.893	2012.43
1019.185	1969.5
1019.476	1976.28
1019.767	1934.02
1020.058	1961.59
1020.35	1925.88
1020.641	1893.57
1020.932	1878.43
1021.223	1887.92
1021.514	1850.63
1021.804	1828.03
1022.095	1855.37
1022.386	1834.81
1022.677	1809.95
1022.967	1815.38
1023.258	1776.28
1023.548	1761.14
1023.839	1767.02
1024.129	1790.52
1024.419	1781.93
1024.709	1721.82
1025	1708.71
1025.29	1736.96
1025.58	1730.63
1025.87	1693.57
1026.16	1671.42
1026.449	1637.98
1026.739	1657.41
1027.029	1655.61
1027.319	1648.6
1027.608	1624.19
1027.898	1602.5
1028.187	1589.62
1028.477	1596.62
1028.766	1598.88
1029.055	1550.98
1029.344	1564.76
1029.634	1544.87
1029.923	1541.03
1030.212	1499
1030.501	1516.4
1030.79	1506.23
1031.078	1455.16
1031.367	1462.84
1031.656	1441.37
1031.945	1467.59
1032.233	1444.54
1032.522	1440.7
1032.81	1435.27
1033.099	1437.98
1033.387	1399.57
1033.675	1386.69
1033.963	1390.3
1034.251	1446.35
1034.54	1385.78
1034.828	1404.09
1035.116	1348.95
1035.403	1366.8
1035.691	1332.45
1035.979	1322.96
1036.267	1332.22
1036.554	1327.48
1036.842	1326.35
1037.129	1327.25
1037.417	1283.86
1037.704	1302.17
1037.992	1266.01
1038.279	1285.45
1038.566	1247.48
1038.853	1247.48
1039.14	1247.48
