Data from blue_clamp_base_FLMS001491_00007.txt Node
Date: Wed Feb 08 15:15:28 GMT 2017
User: dcchb
Spectrometer: FLMS00149
Trigger mode: 0
Integration Time (sec): 2.000000E-2
Scans to average: 10
Electric dark correction enabled: true
Nonlinearity correction enabled: false
Boxcar width: 0
XAxis mode: Wavelengths
Number of Pixels in Spectrum: 2048
>>>>>Begin Spectral Data<<<<<
341.393	3.14
341.776	3.14
342.16	3.14
342.543	-42.96
342.927	-56.52
343.31	-73.25
343.693	-47.03
344.077	-65.11
344.46	-63.76
344.843	-60.14
345.226	-59.91
345.61	-24.21
345.993	-37.77
346.376	18.28
346.759	17.82
347.142	23.25
347.525	37.48
347.908	47.65
348.291	73.42
348.674	95.79
349.057	117.48
349.44	132.4
349.823	143.7
350.206	191.61
350.588	201.77
350.971	234.54
351.354	213.3
351.737	235.67
352.119	249.46
352.502	281.09
352.884	290.59
353.267	279.74
353.65	290.81
354.032	299.4
354.414	300.3
354.797	296.01
355.179	333.07
355.562	319.51
355.944	301.21
356.326	331.71
356.709	335.78
357.091	321.77
357.473	352.28
357.855	334.65
358.238	355.67
358.62	355.67
359.002	332.39
359.384	319.96
359.766	338.95
360.148	343.47
360.53	348.44
360.912	328.1
361.294	338.27
361.676	345.27
362.057	324.71
362.439	345.5
362.821	318.38
363.203	326.97
363.584	327.87
363.966	307.08
364.348	295.78
364.729	317.25
365.111	336.69
365.493	312.96
365.874	333.3
366.256	312.96
366.637	328.55
367.019	305.73
367.4	310.47
367.781	330.81
368.163	310.02
368.544	295.33
368.925	294.65
369.306	306.4
369.688	309.34
370.069	300.08
370.45	319.29
370.831	306.4
371.212	325.61
371.593	339.4
371.974	292.85
372.355	325.84
372.736	319.51
373.117	324.71
373.498	310.25
373.879	305.05
374.26	322.45
374.641	312.51
375.021	311.6
375.402	310.92
375.783	298.95
376.163	331.71
376.544	338.72
376.925	321.09
377.305	332.62
377.686	319.96
378.066	336.23
378.447	315.9
378.827	324.26
379.208	327.87
379.588	321.55
379.968	345.95
380.349	341.21
380.729	328.32
381.109	324.48
381.489	349.57
381.87	334.2
382.25	359.74
382.63	351.15
383.01	338.95
383.39	325.61
383.77	360.87
384.15	358.38
384.53	338.27
384.91	336.01
385.29	363.35
385.67	364.71
386.049	353.63
386.429	353.63
386.809	366.97
387.189	354.99
387.568	384.82
387.948	358.15
388.328	377.36
388.707	371.26
389.087	360.64
389.466	364.93
389.846	366.29
390.225	374.65
390.605	389.57
390.984	381.2
391.363	389.79
391.743	396.57
392.122	393.41
392.501	397.7
392.881	390.02
393.26	414.88
393.639	399.06
394.018	415.1
394.397	427.53
394.776	411.03
395.155	435.67
395.534	421.2
395.913	428.89
396.292	425.5
396.671	438.6
397.05	436.57
397.429	448.1
397.808	432.28
398.186	447.87
398.565	437.02
398.944	434.54
399.323	449.23
399.701	470.24
400.08	497.81
400.458	459.17
400.837	465.72
401.215	474.31
401.594	495.1
401.972	499.39
402.351	485.16
402.729	455.55
403.107	490.13
403.486	474.31
403.864	476.34
404.242	524.48
404.62	519.05
404.999	513.63
405.377	508.43
405.755	543.69
406.133	539.17
406.511	543.23
406.889	531.26
407.267	554.08
407.645	547.75
408.023	541.65
408.401	549.56
408.779	575.78
409.156	562.22
409.534	583.46
409.912	589.11
410.29	596.34
410.667	611.03
411.045	606.74
411.422	606.28
411.8	609.67
412.178	628.66
412.555	640.41
412.933	627.75
413.31	636.11
413.687	683.57
414.065	672.27
414.442	678.6
414.819	704.13
415.197	680.86
415.574	679.28
415.951	712.27
416.328	691.03
416.705	710.01
417.082	703.23
417.46	707.07
417.837	699.61
418.214	737.81
418.591	727.86
418.967	736.68
419.344	774.19
419.721	771.02
420.098	764.7
420.475	792.49
420.852	784.36
421.228	788.2
421.605	778.93
421.982	807.86
422.358	827.29
422.735	833.4
423.111	798.82
423.488	844.7
423.864	830.01
424.241	844.24
424.617	858.03
424.994	869.1
425.37	842.89
425.746	872.94
426.123	862.77
426.499	873.4
426.875	915.2
427.251	916.11
427.627	930.79
428.003	966.05
428.379	935.54
428.756	989.55
429.132	976.9
429.507	977.12
429.883	978.03
430.259	1025.48
430.635	1000.4
431.011	1039.27
431.387	1059.83
431.763	1059.6
432.138	1070.45
432.514	1053.73
432.89	1096.67
433.265	1104.35
433.641	1150.68
434.016	1129.43
434.392	1136.67
434.767	1151.35
435.143	1157.23
435.518	1181.41
435.894	1209.88
436.269	1218.7
436.644	1227.06
437.02	1259.15
437.395	1230.22
437.77	1292.14
438.145	1269.32
438.52	1297.79
438.895	1328.52
439.271	1297.34
439.646	1335.53
440.021	1375.3
440.395	1361.74
440.77	1353.38
441.145	1372.14
441.52	1379.37
441.895	1382.76
442.27	1397.22
442.645	1420.73
443.019	1456.88
443.394	1469.09
443.769	1461.18
444.143	1440.61
444.518	1473.83
444.892	1500.5
445.267	1507.28
445.641	1527.39
446.016	1524.9
446.39	1540.5
446.764	1552.25
447.139	1544.11
447.513	1562.87
447.887	1575.3
448.262	1596.09
448.636	1580.72
449.01	1598.35
449.384	1623.43
449.758	1626.6
450.132	1674.05
450.506	1670.21
450.88	1672.92
451.254	1684.45
451.628	1706.14
452.002	1731.68
452.376	1729.64
452.75	1743.88
453.123	1795.18
453.497	1747.95
453.871	1800.83
454.244	1838.57
454.618	1846.02
454.992	1857.1
455.365	1883.99
455.739	1898.9
456.112	1916.76
456.486	1922.63
456.859	1969.41
457.232	2012.12
457.606	2006.02
457.979	2044.89
458.352	2050.31
458.725	2087.83
459.099	2083.76
459.472	2119.69
459.845	2162.4
460.218	2160.37
460.591	2172.57
460.964	2182.74
461.337	2219.8
461.71	2261.38
462.083	2322.17
462.456	2303.64
462.829	2298.67
463.201	2367.14
463.574	2344.09
463.947	2369.63
464.32	2426.12
464.692	2463.86
465.065	2465.44
465.438	2466.35
465.81	2515.39
466.183	2543.63
466.555	2583.63
466.928	2602.84
467.3	2574.37
467.672	2639.68
468.045	2663.4
468.417	2679.45
468.789	2728.94
469.161	2727.13
469.534	2752.67
469.906	2850.29
470.278	2818.2
470.65	2855.72
471.022	2961.93
471.394	2982.27
471.766	2992.21
472.138	3009.16
472.51	3094.35
472.882	3088.25
473.253	3115.37
473.625	3166.89
473.997	3245.08
474.369	3200.34
474.74	3297.74
475.112	3313.1
475.484	3339.54
475.855	3426.77
476.227	3411.86
476.598	3513.33
476.97	3483.5
477.341	3571.86
477.713	3621.57
478.084	3628.12
478.455	3754.68
478.827	3737.27
479.198	3821.79
479.569	3833.09
479.94	3907.21
480.311	3964.39
480.682	4012.97
481.053	4119.41
481.424	4143.14
481.795	4173.2
482.166	4203.7
482.537	4196.02
482.908	4359.41
483.279	4377.48
483.65	4392.62
484.021	4485.05
484.391	4539.74
484.762	4522.56
485.133	4525.73
485.503	4578.83
485.874	4696.12
486.244	4698.61
486.615	4747.64
486.985	4815.21
487.356	4853.86
487.726	4893.63
488.097	4980.63
488.467	4946.06
488.837	5071.02
489.207	5102.44
489.578	5105.6
489.948	5120.52
490.318	5196.45
490.688	5211.13
491.058	5248.2
491.428	5348.31
491.798	5324.13
492.168	5420.85
492.538	5456.1
492.908	5469.88
493.278	5517.57
493.648	5478.47
494.017	5602.08
494.387	5604.57
494.757	5593.27
495.126	5631.24
495.496	5655.64
495.866	5648.18
496.235	5736.77
496.605	5743.55
496.974	5753.72
497.344	5825.13
497.713	5806.82
498.082	5811.57
498.452	5879.14
498.821	5882.98
499.19	5821.97
499.559	5944.22
499.928	5926.14
500.298	5966.37
500.667	5924.11
501.036	5929.53
501.405	6021.51
501.774	5997.33
502.143	5959.82
502.512	6030.77
502.88	6077.1
503.249	6054.73
503.618	6075.29
503.987	6089.08
504.356	6212.92
504.724	6085.46
505.093	6124.33
505.462	6129.75
505.83	6193.71
506.199	6252.91
506.567	6301.05
506.936	6274.84
507.304	6281.84
507.672	6319.81
508.041	6353.48
508.409	6346.25
508.777	6355.28
509.145	6372.01
509.514	6368.62
509.882	6452.23
510.25	6423.76
510.618	6521.16
510.986	6456.07
511.354	6474.38
511.722	6566.8
512.09	6596.63
512.458	6512.34
512.826	6602.96
513.193	6626.24
513.561	6600.48
513.929	6611.55
514.297	6606.13
514.664	6612.23
515.032	6665.33
515.4	6697.2
515.767	6654.94
516.135	6687.25
516.502	6669.4
516.869	6804.09
517.237	6746.01
517.604	6736.29
517.972	6785.1
518.339	6849.28
518.706	6803.63
519.073	6812.67
519.44	6824.65
519.808	6960.69
520.175	6890.19
520.542	6998.66
520.909	6917.3
521.276	6992.1
521.643	6978.77
522.009	7041.14
522.376	7059.9
522.743	7055.15
523.11	7098.54
523.477	7157.52
523.843	7218.09
524.21	7214.02
524.577	7253.79
524.943	7283.85
525.31	7300.12
525.676	7339.89
526.043	7379.66
526.409	7394.35
526.776	7416.73
527.142	7476.39
527.508	7444.97
527.874	7516.84
528.241	7543.05
528.607	7517.06
528.973	7606.1
529.339	7559.77
529.705	7628.7
530.071	7720.45
530.437	7684.74
530.803	7740.79
531.169	7815.36
531.535	7761.12
531.901	7780.78
532.267	7753.67
532.632	7769.26
532.998	7803.38
533.364	7935.81
533.73	7853.55
534.095	7936.49
534.461	7910.95
534.826	7969.48
535.192	7975.81
535.557	8065.3
535.923	7980.1
536.288	8007.67
536.653	8095.8
537.019	8070.95
537.384	8055.35
537.749	8179.19
538.114	8164.28
538.479	8131.06
538.845	8154.79
539.21	8181.45
539.575	8140.32
539.94	8257.61
540.305	8250.38
540.67	8192.75
541.034	8259.19
541.399	8338.74
541.764	8290.15
542.129	8385.51
542.494	8349.58
542.858	8354.33
543.223	8347.77
543.587	8395.91
543.952	8361.56
544.316	8427.55
544.681	8398.62
545.045	8454.44
545.41	8485.4
545.774	8518.39
546.138	8495.79
546.503	8527.43
546.867	8538.96
547.231	8569.69
547.595	8590.25
547.959	8587.54
548.324	8612.4
548.688	8589.12
549.052	8669.8
549.416	8631.84
549.779	8685.17
550.143	8633.64
550.507	8666.41
550.871	8704.38
551.235	8717.71
551.599	8769.68
551.962	8737.37
552.326	8809.46
552.689	8812.4
553.053	8785.96
553.417	8827.31
553.78	8873.86
554.143	8807.2
554.507	8866.63
554.87	8862.34
555.234	8928.78
555.597	8881.55
555.96	8956.8
556.323	8970.81
556.686	8950.47
557.05	9016.23
557.413	8987.31
557.776	8930.13
558.139	9086.29
558.502	9024.14
558.865	9084.7
559.228	9143.69
559.59	9118.6
559.953	9113.4
560.316	9221.88
560.679	9237.92
561.041	9248.77
561.404	9255.55
561.767	9325.83
562.129	9244.47
562.492	9304.59
562.854	9364.47
563.217	9292.38
563.579	9340.74
563.941	9414.41
564.304	9403.11
564.666	9511.36
565.028	9467.52
565.39	9526.73
565.753	9503.45
566.115	9483.56
566.477	9640.62
566.839	9591.58
567.201	9630
567.563	9679.27
567.925	9684.91
568.287	9686.04
568.648	9737.12
569.01	9745.03
569.372	9795.65
569.734	9730.11
570.095	9815.53
570.457	9913.61
570.819	9927.62
571.18	9909.77
571.542	9965.36
571.903	9947.51
572.265	10027.73
572.626	10005.36
572.987	10050.55
573.349	10088.52
573.71	10100.72
574.071	10197.9
574.432	10172.81
574.794	10243.32
575.155	10288.51
575.516	10190.21
575.877	10219.14
576.238	10260.04
576.599	10287.16
576.96	10339.13
577.32	10332.13
577.681	10319.47
578.042	10407.38
578.403	10428.17
578.763	10345.01
579.124	10356.99
579.485	10472.24
579.845	10466.14
580.206	10544.33
580.566	10435.63
580.927	10555.63
581.287	10527.38
581.648	10515.85
582.008	10604.44
582.368	10531.9
582.728	10554.95
583.089	10590.65
583.449	10615.51
583.809	10648.96
584.169	10613.48
584.529	10563.08
584.889	10715.4
585.249	10637.21
585.609	10629.97
585.969	10628.39
586.329	10604.66
586.688	10733.02
587.048	10651.67
587.408	10691.44
587.768	10692.57
588.127	10662.97
588.487	10695.74
588.846	10749.97
589.206	10595.63
589.565	10664.78
589.925	10806.02
590.284	10712.46
590.643	10740.25
591.003	10670.65
591.362	10826.81
591.721	10789.29
592.08	10785.45
592.44	10842.17
592.799	10790.2
593.158	10805.34
593.517	10782.51
593.876	10838.78
594.235	10856.18
594.593	10825.45
594.952	10893.92
595.311	10807.82
595.67	10798.11
596.029	10919.46
596.387	10849.18
596.746	10831.78
597.104	10845.79
597.463	10821.61
597.822	10861.16
598.18	10865.45
598.538	10886.01
598.897	10965.79
599.255	10828.61
599.613	11042.62
599.972	10857.99
600.33	10969.63
600.688	10864.32
601.046	10924.43
601.404	10983.64
601.762	10951.32
602.12	10960.81
602.478	11029.29
602.836	11067.25
603.194	10945.67
603.552	10912
603.91	10953.58
604.268	10964.43
604.625	10932.79
604.983	11075.39
605.341	11032.45
605.698	11031.09
606.056	11017.31
606.413	11066.12
606.771	11038.55
607.128	11093.69
607.485	10945.9
607.843	11064.77
608.2	11169.4
608.557	11201.71
608.914	11109.28
609.272	11115.61
609.629	11213.91
609.986	11208.49
610.343	11134.59
610.7	11189.96
611.057	11216.63
611.414	11242.84
611.771	11184.08
612.127	11224.76
612.484	11248.04
612.841	11264.99
613.198	11260.47
613.554	11205.78
613.911	11309.28
614.267	11299.79
614.624	11376.62
614.98	11266.57
615.337	11354.7
615.693	11350.18
616.05	11325.55
616.406	11345.66
616.762	11351.76
617.118	11347.47
617.475	11375.49
617.831	11393.34
618.187	11496.62
618.543	11437.41
618.899	11520.57
619.255	11526.22
619.611	11477.64
619.967	11476.28
620.323	11526.67
620.678	11502.49
621.034	11496.17
621.39	11499.56
621.746	11527.8
622.101	11649.83
622.457	11529.16
622.812	11547.92
623.168	11586.79
623.523	11585.88
623.879	11638.31
624.234	11560.8
624.589	11520.35
624.945	11628.37
625.3	11649.83
625.655	11605.09
626.01	11660.23
626.365	11667.01
626.72	11649.61
627.075	11601.7
627.43	11676.95
627.785	11703.17
628.14	11680.57
628.495	11713.56
628.85	11761.92
629.205	11764.63
629.559	11751.53
629.914	11758.31
630.269	11798.76
630.623	11735.03
630.978	11700.68
631.332	11822.26
631.687	11815.25
632.041	11814.58
632.396	11761.02
632.75	11845.08
633.104	11857.29
633.459	11799.66
633.813	11794.69
634.167	11872.2
634.521	11857.97
634.875	11862.03
635.229	11867.23
635.583	11859.77
635.937	11941.58
636.291	11937.28
636.645	11882.15
636.999	11849.15
637.352	11934.57
637.706	11803.05
638.06	11911.75
638.413	12006.21
638.767	11891.41
639.121	11873.11
639.474	11889.15
639.828	11944.97
640.181	11932.54
640.534	12004.63
640.888	11951.07
641.241	11867
641.594	11909.94
641.947	11965.31
642.301	11927.34
642.654	12075.59
643.007	12040.33
643.36	12020.9
643.713	11890.28
644.066	12093.21
644.419	11990.84
644.771	12010.73
645.124	11921.01
645.477	11851.41
645.83	11876.95
646.182	11822.26
646.535	11772.54
646.888	11726.44
647.24	11746.56
647.593	11796.95
647.945	11842.6
648.298	11797.4
648.65	11866.55
649.002	11831.07
649.355	11892.77
649.707	11923.05
650.059	12065.87
650.411	12182.02
650.763	12170.5
651.115	12259.54
651.467	12277.16
651.819	12265.86
652.171	12272.87
652.523	12351.96
652.875	12248.24
653.227	12258.41
653.578	12419.53
653.93	12361.91
654.282	12302.25
654.633	12318.29
654.985	12325.3
655.337	12403.26
655.688	12378.86
656.039	12433.32
656.391	12384.28
656.742	12364.17
657.094	12421.79
657.445	12416.82
657.796	12451.85
658.147	12444.84
658.498	12426.54
658.849	12421.57
659.2	12417.05
659.551	12501.79
659.902	12466.76
660.253	12466.76
660.604	12481.45
660.955	12530.72
661.306	12365.52
661.656	12512.86
662.007	12471.96
662.358	12579.08
662.708	12593.09
663.059	12560.77
663.409	12512.19
663.76	12451.17
664.11	12563.71
664.461	12534.56
664.811	12513.32
665.161	12531.62
665.511	12464.73
665.862	12519.87
666.212	12604.16
666.562	12527.1
666.912	12534.56
667.262	12506.08
667.612	12539.3
667.962	12513.99
668.312	12544.27
668.662	12544.05
669.011	12442.13
669.361	12541.34
669.711	12436.71
670.06	12439.19
670.41	12381.34
670.76	12322.59
671.109	12391.51
671.459	12354.9
671.808	12337.5
672.157	12314.9
672.507	12309.03
672.856	12260.89
673.205	12287.78
673.554	12378.63
673.904	12261.57
674.253	12279.87
674.602	12231.74
674.951	11996.94
675.3	11926.44
675.649	12175.24
675.998	12088.92
676.346	12071.29
676.695	12098.18
677.044	12006.66
677.393	12147.22
677.741	12160.33
678.09	12031.29
678.438	12010.73
678.787	12064.51
679.135	12044.17
679.484	11930.51
679.832	11965.53
680.181	11900
680.529	11908.13
680.877	11841.92
681.225	11863.16
681.573	11852.54
681.922	11788.81
682.27	11734.35
682.618	11763.05
682.966	11680.57
683.314	11735.71
683.661	11674.47
684.009	11567.35
684.357	11606.22
684.705	11570.29
685.053	11578.88
685.4	11613.9
685.748	11493.68
686.095	11536.84
686.443	11451.87
686.79	11422.72
687.138	11462.04
687.485	11467.69
687.832	11402.61
688.18	11402.84
688.527	11376.62
688.874	11368.94
689.221	11328.49
689.568	11278.55
689.915	11337.07
690.262	11224.08
690.609	11266.79
690.956	11236.74
691.303	11257.98
691.65	11194.03
691.997	11187.7
692.344	11202.16
692.69	11177.76
693.037	11129.17
693.383	11106.35
693.73	11142.73
694.077	11085.56
694.423	11027.93
694.769	10993.36
695.116	11029.74
695.462	11007.82
695.808	10892.34
696.155	11107.7
696.501	10951.77
696.847	10981.15
697.193	10906.8
697.539	10967.59
697.885	10841.72
698.231	10815.05
698.577	10788.84
698.923	10866.13
699.269	10780.71
699.614	10766.92
699.96	10719.92
700.306	10768.5
700.651	10697.32
700.997	10716.53
701.342	10705.45
701.688	10683.31
702.033	10647.6
702.379	10630.43
702.724	10656.64
703.069	10676.98
703.415	10572.58
703.76	10586.59
704.105	10598.56
704.45	10643.53
704.795	10582.07
705.14	10484.67
705.485	10530.54
705.83	10495.97
706.175	10528.28
706.52	10600.82
706.865	10561.95
707.209	10471.33
707.554	10502.52
707.899	10544.78
708.243	10452.13
708.588	10422.07
708.932	10396.76
709.277	10408.29
709.621	10370.55
709.966	10317.44
710.31	10378.91
710.654	10332.81
710.998	10316.08
711.342	10321.96
711.687	10327.16
712.031	10347.27
712.375	10333.26
712.719	10350.89
713.063	10293.49
713.407	10362.41
713.75	10330.77
714.094	10269.31
714.438	10300.27
714.782	10273.15
715.125	10283.32
715.469	10328.74
715.812	10260.72
716.156	10179.14
716.499	10272.47
716.843	10254.17
717.186	10184.11
717.53	10238.57
717.873	10270.44
718.216	10254.84
718.559	10194.05
718.902	10149.31
719.246	10196.54
719.589	10242.41
719.932	10185.01
720.275	10136.43
720.617	10193.6
720.96	10147.28
721.303	10102.53
721.646	10179.82
721.989	10148.18
722.331	10196.99
722.674	10177.78
723.016	10229.76
723.359	10165.35
723.701	10165.81
724.044	10101.63
724.386	10111.12
724.729	10070.22
725.071	10165.13
725.413	10152.02
725.755	10145.02
726.097	10107.95
726.439	10054.4
726.782	10137.11
727.124	10235.63
727.465	10118.58
727.807	10123.55
728.149	10116.77
728.491	10039.71
728.833	10145.69
729.175	10151.34
729.516	10166.94
729.858	10091.91
730.199	10204.22
730.541	10122.87
730.882	10144.79
731.224	10193.38
731.565	10075.41
731.906	10136.2
732.248	10196.09
732.589	10138.24
732.93	10152.7
733.271	10204.68
733.612	10182.08
733.953	10242.41
734.294	10266.59
734.635	10202.42
734.976	10192.7
735.317	10209.42
735.658	10240.15
735.999	10211.91
736.339	10266.82
736.68	10337.55
737.021	10233.15
737.361	10256.43
737.702	10374.39
738.042	10283.77
738.383	10358.57
738.723	10337.33
739.063	10317.44
739.404	10415.52
739.744	10415.52
740.084	10366.25
740.424	10375.97
740.764	10360.83
741.104	10458.45
741.444	10394.5
741.784	10490.54
742.124	10568.73
742.464	10614.83
742.804	10578.9
743.143	10585.68
743.483	10637.21
743.823	10553.82
744.162	10583.42
744.502	10636.98
744.841	10685.34
745.181	10680.14
745.52	10625.68
745.86	10768.95
746.199	10756.3
746.538	10728.05
746.877	10848.5
747.216	10847.14
747.556	10877.43
747.895	10842.4
748.234	10899.57
748.573	10906.8
748.911	10952.45
749.25	11022.51
749.589	11029.29
749.928	11039.91
750.267	11195.84
750.605	11113.58
750.944	11199.9
751.283	11178.66
751.621	11197.42
751.96	11151.09
752.298	11168.04
752.636	11179.79
752.975	11237.64
753.313	11197.87
753.651	11327.81
753.989	11347.24
754.327	11304.53
754.666	11374.59
755.004	11427.24
755.342	11401.48
755.679	11450.07
756.017	11363.74
756.355	11471.99
756.693	11540.46
757.031	11543.17
757.368	11456.62
757.706	11515.83
758.044	11604.41
758.381	11606.9
758.719	11669.27
759.056	11617.07
759.394	11643.06
759.731	11665.43
760.068	11640.34
760.405	11654.58
760.743	11614.58
761.08	11659.1
761.417	11663.17
761.754	11747.46
762.091	11704.75
762.428	11850.06
762.765	11775.71
763.102	11810.73
763.438	11790.62
763.775	11802.15
764.112	11783.62
764.449	11876.72
764.785	11812.54
765.122	11802.83
765.458	11851.19
765.795	11838.98
766.131	11857.51
766.467	11821.58
766.804	11843.28
767.14	11886.44
767.476	11902.71
767.812	11910.39
768.148	11934.8
768.485	11967.34
768.821	11925.53
769.157	11888.02
769.492	11876.72
769.828	11902.71
770.164	11883.73
770.5	11873.33
770.836	11920.34
771.171	11894.12
771.507	11953.56
771.842	11925.31
772.178	11982.93
772.513	11871.98
772.849	11923.5
773.184	11890.51
773.519	11926.44
773.855	11937.51
774.19	11903.16
774.525	11907.46
774.86	11893.22
775.195	11923.95
775.53	11871.75
775.865	11850.51
776.2	11823.16
776.535	11731.87
776.87	11838.08
777.205	11796.5
777.539	11725.54
777.874	11843.05
778.209	11808.47
778.543	11816.61
778.878	11775.26
779.212	11697.74
779.547	11776.61
779.881	11801.92
780.215	11740.23
780.55	11735.93
780.884	11744.97
781.218	11759.21
781.552	11785.42
781.886	11744.3
782.22	11740.23
782.554	11661.59
782.888	11658.42
783.222	11638.76
783.556	11663.39
783.889	11659.1
784.223	11563.74
784.557	11616.39
784.89	11664.75
785.224	11557.18
785.557	11561.48
785.891	11596.28
786.224	11581.59
786.558	11541.82
786.891	11435.38
787.224	11519.22
787.557	11483.51
787.891	11454.59
788.224	11483.06
788.557	11503.4
788.89	11472.44
789.223	11472.44
789.556	11427.02
789.888	11453.23
790.221	11459.11
790.554	11385.66
790.887	11363.29
791.219	11362.16
791.552	11337.98
791.884	11387.69
792.217	11299.34
792.549	11360.35
792.882	11266.34
793.214	11265.89
793.546	11275.61
793.879	11216.63
794.211	11206.91
794.543	11190.64
794.875	11248.94
795.207	11261.37
795.539	11134.59
795.871	11174.82
796.203	11167.81
796.535	11140.7
796.867	11107.93
797.198	11103.18
797.53	11160.58
797.862	11055.73
798.193	11223.63
798.525	11150.19
798.856	11037.65
799.188	10999.46
799.519	10999
799.85	10926.01
800.182	10966.24
800.513	10991.32
800.844	10860.48
801.175	10982.73
801.506	10973.92
801.837	10862.96
802.168	10935.5
802.499	10874.04
802.83	10856.64
803.161	10859.8
803.491	10787.03
803.822	10852.34
804.153	10729.63
804.483	10710.2
804.814	10650.99
805.145	10762.4
805.475	10719.01
805.805	10666.36
806.136	10709.75
806.466	10635.17
806.796	10741.61
807.126	10605.34
807.457	10586.59
807.787	10645.57
808.117	10651.44
808.447	10550.88
808.777	10647.6
809.107	10601.95
809.436	10628.17
809.766	10573.71
810.096	10476.98
810.426	10463.65
810.755	10483.99
811.085	10507.04
811.414	10481.05
811.744	10410.55
812.073	10479.92
812.403	10427.49
812.732	10376.42
813.061	10423.2
813.39	10319.47
813.719	10347.5
814.049	10398.57
814.378	10373.94
814.707	10344.33
815.036	10333.49
815.365	10324.22
815.693	10223.88
816.022	10219.14
816.351	10203.32
816.68	10218.01
817.008	10107.95
817.337	10129.2
817.665	10145.24
817.994	10159.03
818.322	10128.74
818.651	10079.03
818.979	10082.19
819.307	10107.28
819.636	10066.83
819.964	9991.8
820.292	10064.11
820.62	10027.28
820.948	10022.76
821.276	10059.59
821.604	10057.79
821.932	10034.51
822.259	10072.02
822.587	10122.19
822.915	10009.43
823.243	10099.14
823.57	10049.65
823.898	10079.71
824.225	10031.35
824.553	10051.68
824.88	10020.5
825.207	10097.33
825.535	10017.34
825.862	10098.46
826.189	10114.96
826.516	10143.66
826.843	10202.19
827.17	10124
827.497	10116.09
827.824	10203.77
828.151	10176.65
828.478	10126.71
828.805	10188.4
829.131	10187.73
829.458	10107.05
829.785	10148.63
830.111	10120.16
830.438	10156.54
830.764	10170.78
831.09	10148.18
831.417	10106.37
831.743	10179.37
832.069	10220.72
832.395	10154.28
832.722	10134.85
833.048	10139.59
833.374	10155.64
833.7	9998.13
834.026	10131
834.351	10085.58
834.677	10148.41
835.003	10205.58
835.329	10191.57
835.654	10105.69
835.98	10117.67
836.306	10115.64
836.631	10076.77
836.956	10164.68
837.282	10139.14
837.607	10063.21
837.932	10032.7
838.258	10040.39
838.583	10073.83
838.908	10045.36
839.233	10004.91
839.558	9982.53
839.883	9991.35
840.208	9970.56
840.533	9962.65
840.858	9913.16
841.182	9949.54
841.507	9940.05
841.832	9839.04
842.156	9843.33
842.481	9895.08
842.805	9850.33
843.13	9830.45
843.454	9804.46
843.778	9751.58
844.103	9790.45
844.427	9708.64
844.751	9740.28
845.075	9666.61
845.399	9651.92
845.723	9649.66
846.047	9672.94
846.371	9598.59
846.695	9604.24
847.019	9528.53
847.343	9549.1
847.666	9403.57
847.99	9479.04
848.313	9406.96
848.637	9337.13
848.96	9357.92
849.284	9374.64
849.607	9311.59
849.931	9277.47
850.254	9219.39
850.577	9147.53
850.9	9156.12
851.223	9132.61
851.546	9041.09
851.869	9047.42
852.192	9012.16
852.515	8931.49
852.838	8984.37
853.161	8902.79
853.483	8897.36
853.806	8847.87
854.129	8864.15
854.451	8780.53
854.774	8806.07
855.096	8766.07
855.419	8792.73
855.741	8689.91
856.063	8655.11
856.385	8667.54
856.708	8620.99
857.03	8634.32
857.352	8638.16
857.674	8613.98
857.996	8525.17
858.318	8515.91
858.64	8477.71
858.961	8478.62
859.283	8470.94
859.605	8400.43
859.926	8552.74
860.248	8388
860.57	8432.97
860.891	8414.21
861.212	8312.3
861.534	8257.61
861.855	8314.56
862.176	8313.43
862.498	8275.46
862.819	8358.62
863.14	8295.12
863.461	8231.62
863.782	8235.46
864.103	8170.6
864.424	8213.99
864.745	8273.43
865.065	8211.96
865.386	8137.38
865.707	8161.79
866.027	8185.97
866.348	8153.2
866.668	8138.97
866.989	8068.91
867.309	8103.49
867.63	8065.75
867.95	8048.35
868.27	8038.4
868.59	8042.7
868.91	8065.97
869.23	8032.98
869.55	7930.38
869.87	8032.08
870.19	8005.41
870.51	8016.03
870.83	8055.58
871.15	7934
871.469	7941.46
871.789	8003.83
872.109	7939.88
872.428	7845.42
872.748	7971.29
873.067	7896.49
873.386	7855.13
873.706	7882.48
874.025	7872.31
874.344	7851.52
874.663	7832.53
874.982	7784.85
875.301	7778.3
875.62	7820.33
875.939	7726.32
876.258	7738.53
876.577	7764.51
876.896	7736.72
877.214	7672.99
877.533	7747.79
877.852	7699.66
878.17	7721.35
878.489	7681.13
878.807	7701.24
879.125	7629.6
879.444	7659.21
879.762	7638.64
880.08	7640.45
880.398	7620.34
880.716	7655.59
881.034	7623.5
881.352	7591.18
881.67	7588.25
881.988	7562.03
882.306	7503.96
882.624	7553.22
882.941	7468.02
883.259	7453.79
883.577	7460.79
883.894	7444.75
884.212	7462.83
884.529	7362.04
884.846	7385.99
885.164	7390.51
885.481	7341.02
885.798	7380.79
886.115	7361.13
886.432	7345.09
886.75	7331.53
887.067	7334.47
887.383	7300.12
887.7	7277.29
888.017	7249.72
888.334	7293.57
888.651	7264.41
888.967	7226.9
889.284	7205.66
889.6	7203.17
889.917	7165.89
890.233	7105.77
890.55	7137.19
890.866	7101.48
891.182	7050.18
891.498	7059
891.815	7002.73
892.131	7014.02
892.447	6997.98
892.763	7007.02
893.079	6959.79
893.395	6943.97
893.71	6877.98
894.026	6873.92
894.342	6856.97
894.657	6824.65
894.973	6781.04
895.289	6792.34
895.604	6855.61
895.92	6724.54
896.235	6705.11
896.55	6770.64
896.865	6680.93
897.181	6716.18
897.496	6679.12
897.811	6628.72
898.126	6605.9
898.441	6624.88
898.756	6569.06
899.071	6548.95
899.386	6527.26
899.7	6482.29
900.015	6451.33
900.33	6413.14
900.644	6408.16
900.959	6393.48
901.273	6414.49
901.588	6394.38
901.902	6301.05
902.216	6270.54
902.531	6328.62
902.845	6349.18
903.159	6259.24
903.473	6227.15
903.787	6212.92
904.101	6187.61
904.415	6226.93
904.729	6161.39
905.042	6139.92
905.356	6127.72
905.67	6067.61
905.984	6052.24
906.297	6073.94
906.611	6029.64
906.924	5982.19
907.237	6022.64
907.551	5984.9
907.864	5958.23
908.177	5921.17
908.491	5941.28
908.804	5927.27
909.117	5844.11
909.43	5841.85
909.743	5775.41
910.056	5754.4
910.368	5746.04
910.681	5708.52
910.994	5720.27
911.307	5703.1
911.619	5673.49
911.932	5693.16
912.244	5648.86
912.557	5582.42
912.869	5581.29
913.181	5554.63
913.494	5584.01
913.806	5542.88
914.118	5520.96
914.43	5458.81
914.742	5457.46
915.054	5433.73
915.366	5398.02
915.678	5358.25
915.99	5353.73
916.302	5322.77
916.613	5313.28
916.925	5308.53
917.236	5289.32
917.548	5280.74
917.859	5302.66
918.171	5233.28
918.482	5195.54
918.794	5160.06
919.105	5184.47
919.416	5148.08
919.727	5098.37
920.038	5126.39
920.349	5074.41
920.66	5094.53
920.971	5087.07
921.282	5079.16
921.593	4990.12
921.903	4990.12
922.214	4955.55
922.525	4965.04
922.835	4925.04
923.146	4895.44
923.456	4866.06
923.767	4876.68
924.077	4916
924.387	4810.24
924.697	4779.06
925.008	4761.88
925.318	4743.58
925.628	4743.58
925.938	4737.02
926.248	4692.73
926.558	4697.93
926.867	4666.29
927.177	4626.74
927.487	4607.08
927.796	4586.07
928.106	4568.67
928.416	4534.09
928.725	4515.79
929.034	4546.52
929.344	4557.37
929.653	4466.75
929.962	4464.04
930.271	4470.81
930.581	4422
930.89	4434.43
931.199	4386.52
931.508	4389.46
931.817	4361.44
932.125	4332.29
932.434	4303.81
932.743	4322.57
933.051	4314.66
933.36	4265.17
933.669	4267.66
933.977	4222.69
934.286	4229.01
934.594	4223.36
934.902	4231.5
935.21	4218.84
935.519	4184.95
935.827	4156.7
936.135	4101.33
936.443	4068.34
936.751	4076.02
937.059	4082.35
937.367	4074.44
937.674	4067.89
937.982	4054.33
938.29	3988.57
938.597	4021.33
938.905	3975.46
939.213	3938.17
939.52	3907.21
939.827	3963.71
940.135	3945.86
940.442	3893.88
940.749	3868.12
941.056	3882.36
941.363	3860.66
941.67	3775.92
941.977	3767.33
942.284	3785.63
942.591	3808.46
942.898	3749.03
943.205	3776.6
943.511	3719.87
943.818	3710.61
944.125	3684.62
944.431	3716.03
944.738	3695.24
945.044	3709.25
945.35	3661.8
945.657	3630.84
945.963	3632.19
946.269	3607.79
946.575	3619.31
946.881	3541.12
947.187	3530.05
947.493	3541.8
947.799	3542.7
948.105	3473.1
948.41	3457.51
948.716	3517.39
949.022	3470.16
949.327	3466.55
949.633	3431.52
949.938	3429.49
950.244	3448.92
950.549	3425.42
950.854	3432.88
951.16	3391.3
951.465	3379.32
951.77	3351.52
952.075	3336.38
952.38	3298.19
952.685	3296.38
952.99	3306.78
953.294	3267.46
953.599	3268.81
953.904	3245.08
954.209	3235.37
954.513	3214.12
954.818	3197.18
955.122	3214.58
955.426	3190.85
955.731	3207.35
956.035	3137.97
956.339	3118.08
956.643	3126.22
956.948	3102.72
957.252	3125.54
957.556	3064.52
957.86	3084.86
958.163	3090.06
958.467	3026.78
958.771	3075.37
959.075	3003.51
959.378	2998.76
959.682	3015.71
959.985	2987.46
960.289	2969.84
960.592	2968.71
960.896	2984.75
961.199	2987.46
961.502	2935.04
961.805	2935.49
962.108	2879.67
962.411	2880.12
962.714	2867.02
963.017	2869.5
963.32	2879.22
963.623	2872.21
963.926	2846.68
964.228	2857.98
964.531	2836.73
964.833	2768.03
965.136	2783.85
965.438	2730.75
965.741	2737.3
966.043	2759.22
966.345	2698.21
966.648	2745.44
966.95	2728.94
967.252	2699.56
967.554	2690.52
967.856	2662.95
968.158	2662.73
968.46	2672.44
968.761	2650.98
969.063	2682.61
969.365	2646
969.666	2612.11
969.968	2589.73
970.269	2588.6
970.571	2603.07
970.872	2600.58
971.174	2539.79
971.475	2562.62
971.776	2541.83
972.077	2521.71
972.378	2529.17
972.679	2507.25
972.98	2515.16
973.281	2521.94
973.582	2463.18
973.883	2476.29
974.183	2436.29
974.484	2477.19
974.785	2441.26
975.085	2410.3
975.386	2426.35
975.686	2397.2
975.986	2417.31
976.287	2395.84
976.587	2371.66
976.887	2346.12
977.187	2377.31
977.487	2364.66
977.787	2326.69
978.087	2323.75
978.387	2301.83
978.687	2322.17
978.987	2299.57
979.286	2270.42
979.586	2293.02
979.885	2282.4
980.185	2262.74
980.484	2255.73
980.784	2211.21
981.083	2188.39
981.382	2233.36
981.682	2226.58
981.981	2213.92
982.28	2205.34
982.579	2159.24
982.878	2193.59
983.177	2151.55
983.475	2201.27
983.774	2161.27
984.073	2133.93
984.372	2120.14
984.67	2130.76
984.969	2135.06
985.267	2101.16
985.566	2086.92
985.864	2097.77
986.162	2095.51
986.461	2088.05
986.759	2060.03
987.057	2071.56
987.355	2056.64
987.653	2048.96
987.951	2032.69
988.249	2053.25
988.547	2025.91
988.844	2008.96
989.142	2000.37
989.44	1992.69
989.737	1975.96
990.035	1980.94
990.332	1984.78
990.63	1951.56
990.927	1943.2
991.224	1953.59
991.521	1922.41
991.819	1920.83
992.116	1920.37
992.413	1901.62
992.71	1854.16
993.006	1874.95
993.303	1890.77
993.6	1895.97
993.897	1875.85
994.193	1870.43
994.49	1848.06
994.787	1853.26
995.083	1824.1
995.379	1797.66
995.676	1808.74
995.972	1818.91
996.268	1795.63
996.565	1785.24
996.861	1798.57
997.157	1777.1
997.453	1751.11
997.749	1767.61
998.044	1756.54
998.34	1745.69
998.636	1721.28
998.932	1697.55
999.227	1701.4
999.523	1708.63
999.818	1666.82
1000.114	1682.87
1000.409	1691.23
1000.704	1682.64
1001	1631.12
1001.295	1630.21
1001.59	1652.58
1001.885	1639.93
1002.18	1649.42
1002.475	1619.14
1002.77	1591.57
1003.065	1593.15
1003.359	1601.29
1003.654	1587.27
1003.949	1575.3
1004.243	1577.11
1004.538	1554.06
1004.832	1541.63
1005.127	1543.21
1005.421	1504.79
1005.715	1538.91
1006.009	1524.9
1006.304	1518.12
1006.598	1506.37
1006.892	1493.94
1007.186	1476.54
1007.48	1504.79
1007.773	1454.4
1008.067	1472.7
1008.361	1471.35
1008.655	1474.51
1008.948	1407.84
1009.242	1428.63
1009.535	1413.49
1009.829	1407.62
1010.122	1413.95
1010.415	1392.7
1010.708	1407.62
1011.001	1385.47
1011.295	1367.39
1011.588	1389.31
1011.881	1389.31
1012.173	1344.12
1012.466	1361.07
1012.759	1354.74
1013.052	1355.87
1013.344	1328.52
1013.637	1335.53
1013.93	1304.57
1014.222	1333.04
1014.514	1309.09
1014.807	1276.32
1015.099	1310.45
1015.391	1288.75
1015.683	1289.2
1015.976	1272.25
1016.268	1262.99
1016.56	1265.7
1016.851	1232.93
1017.143	1245.14
1017.435	1223.44
1017.727	1246.49
1018.018	1230.9
1018.31	1236.78
1018.602	1186.16
1018.893	1164.91
1019.185	1184.35
1019.476	1194.97
1019.767	1173.73
1020.058	1147.29
1020.35	1168.98
1020.641	1164.23
1020.932	1145.03
1021.223	1136.89
1021.514	1124.01
1021.804	1143.9
1022.095	1126.95
1022.386	1101.19
1022.677	1121.3
1022.967	1098.25
1023.258	1108.64
1023.548	1065.48
1023.839	1074.07
1024.129	1058.47
1024.419	1065.48
1024.709	1098.93
1025	1065.03
1025.29	1053.05
1025.58	1059.38
1025.87	1055.09
1026.16	1021.19
1026.449	1033.16
1026.739	1024.35
1027.029	1020.51
1027.319	1028.19
1027.608	1010.11
1027.898	1006.95
1028.187	990.45
1028.477	967.63
1028.766	986.39
1029.055	995.65
1029.344	994.07
1029.634	957.91
1029.923	933.96
1030.212	957.46
1030.501	930.12
1030.79	947.74
1031.078	922.43
1031.367	947.52
1031.656	923.11
1031.945	934.41
1032.233	891.25
1032.522	905.94
1032.81	896.67
1033.099	898.93
1033.387	871.59
1033.675	868.65
1033.963	900.97
1034.251	860.51
1034.54	868.42
1034.828	875.88
1035.116	846.73
1035.403	869.33
1035.691	844.02
1035.979	862.77
1036.267	850.8
1036.554	801.76
1036.842	821.87
1037.129	810.12
1037.417	824.13
1037.704	821.42
1037.992	809.22
1038.279	819.16
1038.566	785.26
1038.853	785.26
1039.14	785.26
