Data from blue_surface_keyboard_FLMS001491_036.txt Node
Date: Tue Feb 07 11:13:00 GMT 2017
User: dcchb
Spectrometer: FLMS00149
Trigger mode: 0
Integration Time (sec): 2.000000E-2
Scans to average: 10
Electric dark correction enabled: true
Nonlinearity correction enabled: false
Boxcar width: 0
XAxis mode: Wavelengths
Number of Pixels in Spectrum: 2048
>>>>>Begin Spectral Data<<<<<
341.393	-21.67
341.776	-21.67
342.16	-21.67
342.543	-55.11
342.927	-62.34
343.31	-62.79
343.693	-86.98
344.077	-54.43
344.46	-51.72
344.843	-41.33
345.226	-37.94
345.61	-32.97
345.993	-14.43
346.376	-18.28
346.759	-7.66
347.142	20.59
347.525	47.03
347.908	60.59
348.291	84.55
348.674	94.49
349.057	101.27
349.44	124.32
349.823	149.4
350.206	159.12
350.588	193.92
350.971	178.1
351.354	209.97
351.737	208.38
352.119	232.11
352.502	246.12
352.884	259.68
353.267	248.16
353.65	291.32
354.032	289.06
354.414	294.48
354.797	270.08
355.179	307.36
355.562	275.95
355.944	307.59
356.326	310.53
356.709	335.16
357.091	289.29
357.473	311.43
357.855	319.12
358.238	303.52
358.62	327.25
359.002	318.66
359.384	325.22
359.766	321.6
360.148	303.3
360.53	325.22
360.912	331.77
361.294	322.51
361.676	308.49
362.057	284.77
362.439	303.75
362.821	307.59
363.203	289.29
363.584	317.53
363.966	322.28
364.348	315.95
364.729	291.09
365.111	273.02
365.493	289.51
365.874	292.9
366.256	280.47
366.637	304.88
367.019	296.07
367.4	293.81
367.781	303.3
368.163	271.89
368.544	295.61
368.925	314.6
369.306	292.22
369.688	280.02
370.069	311.43
370.45	287.03
370.831	284.99
371.212	279.79
371.593	273.92
371.974	272.79
372.355	284.54
372.736	283.41
373.117	285.44
373.498	287.48
373.879	282.73
374.26	284.77
374.641	280.02
375.021	298.78
375.402	275.28
375.783	284.99
376.163	307.14
376.544	284.54
376.925	311.43
377.305	281.15
377.686	302.85
378.066	289.96
378.447	287.48
378.827	287.25
379.208	307.82
379.588	301.04
379.968	301.49
380.349	296.07
380.729	283.18
381.109	297.87
381.489	279.34
381.87	312.56
382.25	298.1
382.63	300.81
383.01	300.81
383.39	303.07
383.77	295.61
384.15	310.98
384.53	305.33
384.91	298.1
385.29	316.18
385.67	309.4
386.049	308.04
386.429	313.47
386.809	306.01
387.189	297.65
387.568	300.36
387.948	298.33
388.328	287.25
388.707	339.91
389.087	311.21
389.466	295.16
389.846	321.83
390.225	307.82
390.605	323.86
390.984	313.01
391.363	318.21
391.743	318.66
392.122	328.83
392.501	320.7
392.881	329.51
393.26	317.08
393.639	345.1
394.018	323.64
394.397	321.83
394.776	328.16
395.155	323.86
395.534	341.71
395.913	330.87
396.292	325.9
396.671	320.02
397.05	327.93
397.429	327.03
397.808	332.9
398.186	316.4
398.565	328.83
398.944	341.04
399.323	335.16
399.701	330.87
400.08	322.51
400.458	359.79
400.837	338.32
401.215	336.74
401.594	320.92
401.972	352.11
402.351	340.81
402.729	348.72
403.107	339.68
403.486	339.68
403.864	363.41
404.242	373.35
404.62	353.69
404.999	334.93
405.377	338.32
405.755	351.43
406.133	351.43
406.511	364.99
406.889	365.67
407.267	364.76
407.645	358.21
408.023	346.01
408.401	362.05
408.779	359.11
409.156	350.08
409.534	355.95
409.912	384.65
410.29	364.99
410.667	363.86
411.045	383.97
411.422	378.1
411.8	375.39
412.178	364.54
412.555	381.71
412.933	376.06
413.31	360.24
413.687	373.58
414.065	373.35
414.442	368.15
414.819	370.64
415.197	413.35
415.574	395.72
415.951	389.17
416.328	407.48
416.705	372.45
417.082	396.4
417.46	395.5
417.837	419.23
418.214	397.98
418.591	381.04
418.967	411.54
419.344	399.79
419.721	389.62
420.098	408.38
420.475	399.57
420.852	383.3
421.228	399.34
421.605	397.98
421.982	424.42
422.358	405.89
422.735	411.99
423.111	421.49
423.488	409.28
423.864	420.36
424.241	405.89
424.617	386.01
424.994	419.68
425.37	434.37
425.746	399.79
426.123	393.01
426.499	426.46
426.875	427.59
427.251	417.64
427.627	414.03
428.003	435.27
428.379	435.72
428.756	426.91
429.132	432.56
429.507	447.02
429.883	440.92
430.259	435.72
430.635	442.28
431.011	432.56
431.387	459.45
431.763	462.16
432.138	463.07
432.514	448.6
432.89	473.91
433.265	468.49
433.641	483.63
434.016	481.15
434.392	483.63
434.767	477.08
435.143	472.11
435.518	456.29
435.894	471.65
436.269	485.44
436.644	470.52
437.02	480.69
437.395	482.28
437.77	472.78
438.145	482.73
438.52	498.55
438.895	506.46
439.271	522.73
439.646	494.7
440.021	510.3
440.395	511.43
440.77	493.12
441.145	511.65
441.52	505.33
441.895	501.03
442.27	514.37
442.645	520.92
443.019	522.73
443.394	502.61
443.769	535.83
444.143	531.99
444.518	512.78
444.892	513.69
445.267	533.35
445.641	521.14
446.016	533.35
446.39	524.53
446.764	538.77
447.139	525.89
447.513	559.34
447.887	550.75
448.262	555.72
448.636	533.8
449.01	564.76
449.384	543.74
449.758	552.1
450.132	551.2
450.506	573.12
450.88	556.62
451.254	553.69
451.628	570.86
452.002	588.49
452.376	582.84
452.75	577.87
453.123	559.11
453.497	594.36
453.871	596.4
454.244	619.9
454.618	580.58
454.992	600.69
455.365	606.79
455.739	589.84
456.112	587.36
456.486	621.48
456.859	607.7
457.232	603.4
457.606	612.22
457.979	609.05
458.352	606.57
458.725	624.19
459.099	636.85
459.472	642.05
459.845	628.26
460.218	676.39
460.591	662.38
460.964	641.14
461.337	661.71
461.71	656.96
462.083	662.16
462.456	638.43
462.829	647.92
463.201	672.33
463.574	689.73
463.947	678.65
464.32	700.8
464.692	701.25
465.065	680.91
465.438	716.17
465.81	708.94
466.183	700.57
466.555	738.09
466.928	700.8
467.3	736.05
467.672	732.89
468.045	743.51
468.417	713.46
468.789	734.92
469.161	722.5
469.534	772.66
469.906	753
470.278	767.24
470.65	757.75
471.022	781.93
471.394	781.25
471.766	769.05
472.138	778.76
472.51	791.42
472.882	818.76
473.253	803.17
473.625	808.59
473.997	831.19
474.369	829.16
474.74	834.58
475.112	860.12
475.484	858.54
475.855	866.67
476.227	881.59
476.598	877.29
476.97	858.08
477.341	873.45
477.713	895.37
478.084	900.34
478.455	921.13
478.827	914.35
479.198	951.87
479.569	937.4
479.94	934.69
480.311	982.15
480.682	978.31
481.053	973.11
481.424	983.05
481.795	988.93
482.166	1015.82
482.537	1011.75
482.908	1042.03
483.279	1050.4
483.65	1058.08
484.021	1060.34
484.391	1068.25
484.762	1051.53
485.133	1069.38
485.503	1096.95
485.874	1082.49
486.244	1072.32
486.615	1118.87
486.985	1119.09
487.356	1144.86
487.726	1155.25
488.097	1141.24
488.467	1168.81
488.837	1148.7
489.207	1166.55
489.578	1171.52
489.948	1166.33
490.318	1194.35
490.688	1208.36
491.058	1207.91
491.428	1205.19
491.798	1193.9
492.168	1203.84
492.538	1239.54
492.908	1246.78
493.278	1247
493.648	1262.59
494.017	1255.36
494.387	1264.85
494.757	1301.46
495.126	1265.53
495.496	1256.27
495.866	1288.36
496.235	1284.97
496.605	1275.93
496.974	1294.68
497.344	1295.81
497.713	1318.41
498.082	1305.76
498.452	1319.54
498.821	1309.15
499.19	1321.58
499.559	1352.31
499.928	1299.88
500.298	1340.11
500.667	1364.51
501.036	1334.68
501.405	1347.56
501.774	1354.12
502.143	1325.64
502.512	1403.16
502.88	1354.12
503.249	1360.22
503.618	1371.29
503.987	1355.47
504.356	1357.73
504.724	1376.04
505.093	1367.22
505.462	1388.92
505.83	1378.07
506.199	1372.42
506.567	1403.61
506.936	1392.31
507.304	1380.33
507.672	1403.16
508.041	1404.96
508.409	1405.19
508.777	1421.46
509.145	1405.19
509.514	1416.26
509.882	1423.27
510.25	1410.16
510.618	1430.95
510.986	1431.4
511.354	1418.52
511.722	1426.66
512.09	1484.73
512.458	1426.66
512.826	1454.23
513.193	1447.67
513.561	1439.99
513.929	1471.4
514.297	1465.07
514.664	1462.36
515.032	1455.58
515.4	1479.54
515.767	1458.07
516.135	1495.58
516.502	1448.13
516.869	1477.73
517.237	1495.36
517.604	1463.72
517.972	1499.2
518.339	1518.63
518.706	1493.55
519.073	1504.17
519.44	1500.33
519.808	1518.41
520.175	1494.23
520.542	1508.24
520.909	1522.7
521.276	1486.09
521.643	1507.56
522.009	1523.15
522.376	1510.72
522.743	1526.09
523.11	1532.64
523.477	1523.6
523.843	1526.09
524.21	1536.94
524.577	1556.82
524.943	1542.81
525.31	1580.78
525.676	1550.5
526.043	1555.02
526.409	1569.03
526.776	1564.28
527.142	1560.21
527.508	1583.49
527.874	1570.61
528.241	1596.37
528.607	1575.81
528.973	1621.91
529.339	1575.13
529.705	1596.6
530.071	1611.74
530.437	1589.36
530.803	1618.06
531.169	1616.26
531.535	1614.68
531.901	1613.09
532.267	1598.4
532.632	1602.92
532.998	1623.94
533.364	1596.82
533.73	1621.68
534.095	1651.96
534.461	1614.45
534.826	1641.34
535.192	1632.75
535.557	1622.58
535.923	1641.57
536.288	1642.92
536.653	1640.21
537.019	1622.36
537.384	1634.34
537.749	1651.96
538.114	1625.07
538.479	1642.24
538.845	1633.66
539.21	1633.43
539.575	1630.27
539.94	1652.41
540.305	1654.9
540.67	1668.23
541.034	1647.89
541.399	1669.81
541.764	1646.31
542.129	1652.87
542.494	1679.08
542.858	1644.5
543.223	1668.01
543.587	1685.41
543.952	1696.48
544.316	1642.24
544.681	1664.17
545.045	1660.78
545.41	1682.7
545.774	1654.67
546.138	1673.2
546.503	1644.5
546.867	1679.31
547.231	1670.72
547.595	1711.85
547.959	1676.59
548.324	1677.5
548.688	1699.87
549.052	1689.93
549.416	1684.5
549.779	1691.96
550.143	1665.52
550.507	1691.96
550.871	1701.68
551.235	1671.17
551.599	1686.76
551.962	1725.63
552.326	1664.62
552.689	1693.54
553.053	1695.35
553.417	1694.22
553.78	1717.5
554.143	1701
554.507	1682.47
554.87	1704.62
555.234	1700.55
555.597	1726.54
555.96	1697.61
556.323	1679.08
556.686	1695.12
557.05	1695.12
557.413	1701
557.776	1710.94
558.139	1707.1
558.502	1710.49
558.865	1708.23
559.228	1754.78
559.59	1700.55
559.953	1708.01
560.316	1713.66
560.679	1757.27
561.041	1760.89
561.404	1728.57
561.767	1752.75
562.129	1742.13
562.492	1765.86
562.854	1766.08
563.217	1736.48
563.579	1754.78
563.941	1765.63
564.304	1786.42
564.666	1760.21
565.028	1762.02
565.39	1769.25
565.753	1754.11
566.115	1766.08
566.477	1759.53
566.839	1809.25
567.201	1809.02
567.563	1807.89
567.925	1806.31
568.287	1813.31
568.648	1781
569.01	1808.79
569.372	1807.89
569.734	1797.95
570.095	1832.07
570.457	1809.47
570.819	1806.31
571.18	1837.49
571.542	1856.02
571.903	1827.78
572.265	1843.82
572.626	1844.95
572.987	1824.61
573.349	1869.36
573.71	1856.48
574.071	1826.87
574.432	1854.67
574.794	1840.88
575.155	1847.21
575.516	1860.32
575.877	1851.96
576.238	1844.73
576.599	1879.98
576.96	1883.14
577.32	1863.93
577.681	1857.38
578.042	1842.47
578.403	1861.9
578.763	1872.75
579.124	1858.51
579.485	1872.52
579.845	1863.71
580.206	1896.48
580.566	1889.47
580.927	1869.81
581.287	1901.22
581.648	1898.06
582.008	1891.05
582.368	1908
582.728	1892.63
583.089	1905.51
583.449	1888.57
583.809	1893.99
584.169	1895.35
584.529	1856.93
584.889	1911.39
585.249	1917.49
585.609	1908.23
585.969	1897.38
586.329	1926.98
586.688	1902.8
587.048	1884.95
587.408	1910.71
587.768	1901
588.127	1915.01
588.487	1889.02
588.846	1915.68
589.206	1904.38
589.565	1899.64
589.925	1924.05
590.284	1886.98
590.643	1903.26
591.003	1898.28
591.362	1916.36
591.721	1931.28
592.08	1908.9
592.44	1943.93
592.799	1922.92
593.158	1919.53
593.517	1916.14
593.876	1904.16
594.235	1908.23
594.593	1917.72
594.952	1940.09
595.311	1923.59
595.67	1950.26
596.029	1935.57
596.387	1935.34
596.746	1916.59
597.104	1920.2
597.463	1923.37
597.822	1954.55
598.18	1959.98
598.538	1919.53
598.897	1933.99
599.255	1931.28
599.613	1947.55
599.972	1945.51
600.33	1934.44
600.688	1959.07
601.046	1973.54
601.404	1984.83
601.762	1963.14
602.12	1934.89
602.478	1959.98
602.836	1959.98
603.194	1977.38
603.552	1989.58
603.91	1968.79
604.268	1955.68
604.625	1953.2
604.983	1964.27
605.341	1974.44
605.698	2004.95
606.056	1980.09
606.413	1984.83
606.771	1976.25
607.128	1990.26
607.485	1999.52
607.843	1994.78
608.2	2023.48
608.557	1988
608.914	2008.11
609.272	1992.52
609.629	2026.19
609.986	2021.9
610.343	1996.36
610.7	1998.62
611.057	2025.74
611.414	2030.48
611.771	2013.76
612.127	2009.47
612.484	2025.06
612.841	2022.57
613.198	2015.57
613.554	2060.31
613.911	2070.03
614.267	2002.24
614.624	2030.03
614.98	2049.47
615.337	2055.34
615.693	2054.21
616.05	2061.67
616.406	2043.14
616.762	2044.95
617.118	2077.49
617.475	2075.68
617.831	2060.31
618.187	2063.93
618.543	2065.06
618.899	2078.39
619.255	2076.13
619.611	2059.86
619.967	2092.18
620.323	2096.24
620.678	2072.97
621.034	2080.2
621.39	2066.41
621.746	2073.19
622.101	2096.02
622.457	2066.41
622.812	2088.33
623.168	2093.76
623.523	2079.75
623.879	2102.12
624.234	2091.27
624.589	2101.89
624.945	2102.57
625.3	2128.33
625.655	2099.41
626.01	2118.39
626.365	2139.41
626.72	2117.94
627.075	2124.27
627.43	2147.09
627.785	2118.62
628.14	2100.09
628.495	2119.29
628.85	2128.56
629.205	2144.6
629.559	2141.21
629.914	2167.2
630.269	2159.52
630.623	2129.01
630.978	2163.59
631.332	2185.51
631.687	2166.98
632.041	2180.54
632.396	2164.94
632.75	2153.19
633.104	2173.98
633.459	2171.95
633.813	2140.08
634.167	2169.24
634.521	2176.69
634.875	2185.28
635.229	2192.96
635.583	2169.24
635.937	2200.42
636.291	2199.97
636.645	2205.17
636.999	2218.95
637.352	2211.27
637.706	2225.28
638.06	2171.72
638.413	2219.63
638.767	2215.56
639.121	2238.39
639.474	2214.21
639.828	2193.64
640.181	2241.1
640.534	2237.48
640.888	2229.35
641.241	2211.27
641.594	2210.59
641.947	2245.62
642.301	2236.13
642.654	2237.71
643.007	2286.75
643.36	2241.55
643.713	2281.32
644.066	2317.48
644.419	2274.09
644.771	2277.03
645.124	2247.2
645.477	2275
645.83	2250.14
646.182	2300.31
646.535	2244.71
646.888	2240.2
647.24	2269.35
647.593	2280.87
647.945	2286.52
648.298	2302.11
648.65	2309.12
649.002	2301.44
649.355	2344.6
649.707	2385.5
650.059	2317.26
650.411	2351.15
650.763	2411.72
651.115	2418.5
651.467	2413.3
651.819	2401.32
652.171	2442
652.523	2439.96
652.875	2418.27
653.227	2443.81
653.578	2485.61
653.93	2459.85
654.282	2446.97
654.633	2462.79
654.985	2464.37
655.337	2486.74
655.688	2519.51
656.039	2507.31
656.391	2522.22
656.742	2566.74
657.094	2518.83
657.445	2548.66
657.796	2574.88
658.147	2566.97
658.498	2569.9
658.849	2563.12
659.2	2631.6
659.551	2578.94
659.902	2579.85
660.253	2650.35
660.604	2650.13
660.955	2633.63
661.306	2666.17
661.656	2650.81
662.007	2657.59
662.358	2698.94
662.708	2700.97
663.059	2728.09
663.409	2714.31
663.76	2721.31
664.11	2763.12
664.461	2758.6
664.811	2776.68
665.161	2765.38
665.511	2780.52
665.862	2798.82
666.212	2832.95
666.562	2834.76
666.912	2821.2
667.262	2879.5
667.612	2841.99
667.962	2836.34
668.312	2860.74
668.662	2910.23
669.011	2893.51
669.361	2885.6
669.711	2933.74
670.06	2958.82
670.41	2916.11
670.76	2933.28
671.109	2984.36
671.459	2992.94
671.808	2987.29
672.157	3009.21
672.507	3010.34
672.856	3011.93
673.205	3009.44
673.554	3011.02
673.904	3063.22
674.253	3071.59
674.602	3039.72
674.951	3031.36
675.3	3057.57
675.649	3095.77
675.998	3113.84
676.346	3156.56
676.695	3122.43
677.044	3136.22
677.393	3140.28
677.741	3147.74
678.09	3138.25
678.438	3137.12
678.787	3167.63
679.135	3199.49
679.484	3173.05
679.832	3209.89
680.181	3192.03
680.529	3207.85
680.877	3228.19
681.225	3198.36
681.573	3283.78
681.922	3232.71
682.27	3259.83
682.618	3278.36
682.966	3265.03
683.314	3279.49
683.661	3292.37
684.009	3248.3
684.357	3310.22
684.705	3281.07
685.053	3324.23
685.4	3284.01
685.748	3316.33
686.095	3288.53
686.443	3302.54
686.79	3340.28
687.138	3305.48
687.485	3300.51
687.832	3369.21
688.18	3330.11
688.527	3318.59
688.874	3342.77
689.221	3361.3
689.568	3335.08
689.915	3385.7
690.262	3351.8
690.609	3331.24
690.956	3381.41
691.303	3415.53
691.65	3334.63
691.997	3397
692.344	3394.29
692.69	3400.62
693.037	3382.09
693.383	3385.25
693.73	3344.12
694.077	3391.13
694.423	3373.05
694.769	3340.73
695.116	3403.1
695.462	3376.66
695.808	3324.46
696.155	3370.34
696.501	3385.48
696.847	3372.14
697.193	3393.61
697.539	3335.99
697.885	3354.52
698.231	3379.15
698.577	3340.28
698.923	3318.36
699.269	3339.38
699.614	3328.98
699.96	3340.05
700.306	3326.04
700.651	3352.71
700.997	3289.89
701.342	3322.43
701.688	3331.92
702.033	3308.87
702.379	3277
702.724	3319.49
703.069	3308.42
703.415	3285.82
703.76	3277.46
704.105	3292.37
704.45	3286.95
704.795	3230.9
705.14	3300.05
705.485	3252.37
705.83	3233.84
706.175	3267.51
706.52	3265.03
706.865	3270.45
707.209	3258.7
707.554	3247.4
707.899	3270.22
708.243	3247.63
708.588	3267.74
708.932	3195.88
709.277	3228.87
709.621	3178.7
709.966	3230.9
710.31	3222.32
710.654	3198.59
710.998	3228.64
711.342	3229.32
711.687	3216.89
712.031	3204.69
712.375	3179.15
712.719	3233.84
713.063	3213.73
713.407	3203.33
713.75	3219.83
714.094	3218.93
714.438	3200.85
714.782	3213.28
715.125	3166.95
715.469	3175.76
715.812	3171.24
716.156	3173.28
716.499	3156.33
716.843	3195.65
717.186	3194.07
717.53	3225.93
717.873	3193.39
718.216	3145.71
718.559	3173.28
718.902	3154.07
719.246	3168.53
719.589	3194.52
719.932	3125.37
720.275	3197.01
720.617	3168.31
720.96	3193.39
721.303	3203.11
721.646	3167.18
721.989	3163.11
722.331	3160.4
722.674	3166.05
723.016	3160.85
723.359	3175.99
723.701	3169.21
724.044	3172.83
724.386	3180.96
724.729	3161.08
725.071	3185.48
725.413	3195.88
725.755	3187.74
726.097	3225.93
726.439	3157.01
726.782	3198.81
727.124	3179.61
727.465	3197.91
727.807	3196.33
728.149	3200.85
728.491	3196.1
728.833	3187.52
729.175	3215.08
729.516	3191.36
729.858	3170.34
730.199	3199.72
730.541	3229.32
730.882	3181.64
731.224	3214.86
731.565	3187.52
731.906	3232.03
732.248	3181.87
732.589	3206.72
732.93	3231.13
733.271	3194.07
733.612	3252.15
733.953	3245.14
734.294	3202.88
734.635	3210.11
734.976	3241.3
735.317	3232.26
735.658	3234.29
735.999	3207.18
736.339	3232.26
736.68	3255.76
737.021	3241.75
737.361	3240.17
737.702	3288.98
738.042	3249.21
738.383	3265.48
738.723	3305.48
739.063	3278.81
739.404	3297.34
739.744	3291.24
740.084	3317.23
740.424	3320.17
740.764	3317.91
741.104	3329.88
741.444	3297.57
741.784	3299.15
742.124	3335.99
742.464	3357
742.804	3375.31
743.143	3357
743.483	3398.58
743.823	3369.43
744.162	3366.95
744.502	3396.78
744.841	3454.63
745.181	3429.77
745.52	3408.53
745.86	3448.53
746.199	3403.55
746.538	3463.21
746.877	3474.97
747.216	3507.05
747.556	3496.43
747.895	3521.07
748.234	3524.46
748.573	3531.69
748.911	3569.2
749.25	3625.02
749.589	3554.96
749.928	3596.09
750.267	3614.17
750.605	3621.4
750.944	3677.22
751.283	3651.91
751.621	3650.1
751.96	3679.48
752.298	3721.29
752.636	3756.31
752.975	3716.99
753.313	3769.19
753.651	3839.02
753.989	3795.63
754.327	3826.14
754.666	3867.05
755.004	3884.9
755.342	3917.67
755.679	3914.73
756.017	3928.96
756.355	3924.22
756.693	3978.91
757.031	3973.03
757.368	3978
757.706	4007.61
758.044	4020.26
758.381	4044.89
758.719	4048.51
759.056	4066.59
759.394	4113.37
759.731	4043.09
760.068	4079.02
760.405	4139.58
760.743	4145.46
761.08	4159.01
761.417	4160.82
761.754	4157.66
762.091	4177.09
762.428	4194.04
762.765	4159.24
763.102	4227.04
763.438	4209.86
763.775	4212.57
764.112	4244.89
764.449	4252.35
764.785	4293.7
765.122	4258.67
765.458	4253.7
765.795	4253.93
766.131	4288.05
766.467	4273.14
766.804	4256.87
767.14	4249.41
767.476	4276.75
767.812	4280.59
768.148	4237.43
768.485	4263.42
768.821	4295.96
769.157	4239.46
769.492	4296.41
769.828	4283.98
770.164	4252.8
770.5	4255.06
770.836	4258.9
771.171	4272.01
771.507	4245.11
771.842	4230.43
772.178	4269.07
772.513	4221.61
772.849	4206.02
773.184	4230.43
773.519	4225
773.855	4210.54
774.19	4192.69
774.525	4160.6
774.86	4186.58
775.195	4161.05
775.53	4187.71
775.865	4196.75
776.2	4155.85
776.535	4151.56
776.87	4130.09
777.205	4116.3
777.539	4108.62
777.874	4114.5
778.209	4045.8
778.543	4145.68
778.878	4079.92
779.212	4071.33
779.547	4058.9
779.881	4061.84
780.215	4023.88
780.55	4020.49
780.884	4072.01
781.218	4018.91
781.552	4004.22
781.886	3994.27
782.22	3999.47
782.554	3950.66
782.888	3960.15
783.222	3933.71
783.556	3929.19
783.889	3922.64
784.223	3937.33
784.557	3941.39
784.89	3906.82
785.224	3869.53
785.557	3890.55
785.891	3835.41
786.224	3845.12
786.558	3861.4
786.891	3827.27
787.224	3873.82
787.557	3809.19
787.891	3797.89
788.224	3794.96
788.557	3833.6
788.89	3830.44
789.223	3784.79
789.556	3764.45
789.888	3783.66
790.221	3766.93
790.554	3756.54
790.887	3728.07
791.219	3724.68
791.552	3716.09
791.884	3714.28
792.217	3638.8
792.549	3622.53
792.882	3633.61
793.214	3628.86
793.546	3641.06
793.879	3628.18
794.211	3608.52
794.543	3614.62
794.875	3582.53
795.207	3580.95
795.539	3645.81
795.871	3604.91
796.203	3578.69
796.535	3545.92
796.867	3538.47
797.198	3496.66
797.53	3526.94
797.862	3547.28
798.193	3496.89
798.525	3469.99
798.856	3515.64
799.188	3466.38
799.519	3458.47
799.85	3438.58
800.182	3424.34
800.513	3488.3
800.844	3457.56
801.175	3423.22
801.506	3450.78
801.837	3421.18
802.168	3361.3
802.499	3421.86
802.83	3359.04
803.161	3348.87
803.491	3375.76
803.822	3389.32
804.153	3377.11
804.483	3336.66
804.814	3344.57
805.145	3294.63
805.475	3311.81
805.805	3298.92
806.136	3312.48
806.466	3282.88
806.796	3281.52
807.126	3270.68
807.457	3288.08
807.787	3270
808.117	3245.14
808.447	3244.46
808.777	3232.94
809.107	3234.52
809.436	3246.04
809.766	3206.27
810.096	3212.37
810.426	3167.63
810.755	3163.79
811.085	3194.97
811.414	3196.1
811.744	3157.69
812.073	3187.29
812.403	3118.36
812.732	3120.4
813.061	3174.18
813.39	3103.45
813.719	3107.74
814.049	3132.38
814.378	3122.43
814.707	3084.47
815.036	3145.48
815.365	3102.55
815.693	3098.93
816.022	3102.77
816.351	3087.63
816.68	3048.76
817.008	3051.7
817.337	3041.3
817.665	3070.91
817.994	3062.09
818.322	3073.17
818.651	3030.46
818.979	3004.02
819.307	3080.17
819.636	3015.99
819.964	2991.36
820.292	3038.14
820.62	3013.73
820.948	2984.36
821.276	2942.55
821.604	2965.83
821.932	3027.52
822.259	3007.86
822.587	3015.09
822.915	3016.45
823.243	3013.51
823.57	2992.49
823.898	3003.79
824.225	2973.96
824.553	3002.66
824.88	2993.4
825.207	2972.15
825.535	2992.27
825.862	2998.14
826.189	3018.93
826.516	2980.06
826.843	3001.53
827.17	2979.38
827.497	3025.49
827.824	3011.02
828.151	3009.44
828.478	3013.06
828.805	2999.27
829.131	3006.28
829.458	2955.66
829.785	3001.08
830.111	3010.34
830.438	2947.97
830.764	2986.62
831.09	2967.18
831.417	2967.41
831.743	2974.19
832.069	2957.69
832.395	2942.32
832.722	2987.07
833.048	2987.29
833.374	2950.23
833.7	2984.81
834.026	2983.23
834.351	2962.89
834.677	2960.18
835.003	3002.89
835.329	2970.57
835.654	2964.7
835.98	2982.55
836.306	2924.7
836.631	2968.99
836.956	2947.3
837.282	2916.11
837.607	2900.74
837.932	2948.2
838.258	2913.17
838.583	2939.16
838.908	2905.49
839.233	2959.5
839.558	2934.87
839.883	2901.87
840.208	2966.96
840.533	2906.39
840.858	2884.47
841.182	2892.16
841.507	2918.82
841.832	2873.85
842.156	2872.5
842.481	2901.65
842.805	2850.57
843.13	2888.99
843.454	2861.65
843.778	2848.09
844.103	2843.34
844.427	2836.56
844.751	2852.38
845.075	2869.56
845.399	2816.45
845.723	2784.14
846.047	2810.12
846.371	2776.23
846.695	2814.64
847.019	2758.37
847.343	2775.77
847.666	2755.21
847.99	2759.96
848.313	2757.24
848.637	2712.05
848.96	2677.7
849.284	2704.82
849.607	2695.1
849.931	2677.25
850.254	2676.34
850.577	2648.32
850.9	2656
851.223	2663.01
851.546	2604.48
851.869	2664.59
852.192	2666.17
852.515	2639.73
852.838	2625.5
853.161	2581.43
853.483	2588.43
853.806	2560.64
854.129	2579.62
854.451	2554.99
854.774	2564.71
855.096	2532.17
855.419	2560.41
855.741	2546.63
856.063	2518.83
856.385	2511.15
856.708	2502.34
857.03	2514.76
857.352	2490.81
857.674	2497.82
857.996	2485.39
858.318	2474.31
858.64	2496.23
858.961	2497.59
859.283	2479.06
859.605	2466.86
859.926	2498.72
860.248	2441.77
860.57	2440.42
860.891	2477.93
861.212	2491.71
861.534	2422.56
861.855	2419.85
862.176	2409.91
862.498	2411.72
862.819	2455.56
863.14	2400.19
863.461	2442.9
863.782	2410.81
864.103	2402.68
864.424	2377.37
864.745	2401.77
865.065	2413.07
865.386	2421.43
865.707	2378.04
866.027	2416.69
866.348	2384.37
866.668	2376.46
866.989	2379.4
867.309	2336.92
867.63	2359.51
867.95	2353.41
868.27	2382.56
868.59	2317.48
868.91	2323.81
869.23	2346.18
869.55	2329.91
869.87	2358.84
870.19	2309.8
870.51	2323.13
870.83	2326.75
871.15	2336.92
871.469	2314.09
871.789	2345.28
872.109	2350.7
872.428	2320.19
872.748	2315.67
873.067	2322.68
873.386	2315.9
873.706	2289.46
874.025	2303.92
874.344	2291.49
874.663	2294.43
874.982	2321.1
875.301	2275.67
875.62	2285.17
875.939	2273.64
876.258	2270.03
876.577	2294.88
876.896	2275
877.214	2280.42
877.533	2257.6
877.852	2254.88
878.17	2247.2
878.489	2258.5
878.807	2267.09
879.125	2255.11
879.444	2242.46
879.762	2223.92
880.08	2254.43
880.398	2198.16
880.716	2230.93
881.034	2209.01
881.352	2192.06
881.67	2220.53
881.988	2230.03
882.306	2235.45
882.624	2188.22
882.941	2199.29
883.259	2183.7
883.577	2232.51
883.894	2178.5
884.212	2168.11
884.529	2209.46
884.846	2185.06
885.164	2145.73
885.481	2158.62
885.798	2175.34
886.115	2197.71
886.432	2166.07
886.75	2165.62
887.067	2168.33
887.383	2126.98
887.7	2143.02
888.017	2132.63
888.334	2168.78
888.651	2126.53
888.967	2120.42
889.284	2135.57
889.6	2131.27
889.917	2117.94
890.233	2117.71
890.55	2094.89
890.866	2083.14
891.182	2093.31
891.498	2092.63
891.815	2083.82
892.131	2086.98
892.447	2081.1
892.763	2061.22
893.079	2100.76
893.395	2073.42
893.71	2056.7
894.026	2056.47
894.342	2045.85
894.657	2048.79
894.973	2038.39
895.289	2024.16
895.604	2046.3
895.92	1998.17
896.235	2006.53
896.55	2023.7
896.865	1991.61
897.181	1992.52
897.496	2024.16
897.811	1970.6
898.126	1972.41
898.441	1971.95
898.756	1936.02
899.071	1976.93
899.386	1965.85
899.7	1940.77
900.015	1937.38
900.33	1940.32
900.644	1895.12
900.959	1908.68
901.273	1934.89
901.588	1898.51
901.902	1928.57
902.216	1871.62
902.531	1907.55
902.845	1903.26
903.159	1882.46
903.473	1873.43
903.787	1903.93
904.101	1853.09
904.415	1874.78
904.729	1860.54
905.042	1866.42
905.356	1871.84
905.67	1838.85
905.984	1875.69
906.297	1869.58
906.611	1820.32
906.924	1855.12
907.237	1830.26
907.551	1809.7
907.864	1823.48
908.177	1774.9
908.491	1780.55
908.804	1778.06
909.117	1785.29
909.43	1769.02
909.743	1758.17
910.056	1756.37
910.368	1774.22
910.681	1751.17
910.994	1724.28
911.307	1743.26
911.619	1743.26
911.932	1729.02
912.244	1743.49
912.557	1697.61
912.869	1738.06
913.181	1696.25
913.494	1707.1
913.806	1675.69
914.118	1732.41
914.43	1688.35
914.742	1689.48
915.054	1649.02
915.366	1659.42
915.678	1649.02
915.99	1651.96
916.302	1647.22
916.613	1637.95
916.925	1637.5
917.236	1635.01
917.548	1620.1
917.859	1638.86
918.171	1594.34
918.482	1594.79
918.794	1609.7
919.105	1622.36
919.416	1603.6
919.727	1570.61
920.038	1604.73
920.349	1585.07
920.66	1570.61
920.971	1581
921.282	1612.42
921.593	1576.26
921.903	1544.62
922.214	1544.85
922.525	1528.8
922.835	1546.43
923.146	1551.63
923.456	1537.39
923.767	1530.38
924.077	1541.23
924.387	1530.16
924.697	1525.41
925.008	1493.77
925.318	1503.72
925.628	1503.04
925.938	1498.75
926.248	1459.65
926.558	1494.9
926.867	1477.05
927.177	1499.65
927.487	1466.66
927.796	1469.14
928.106	1478.63
928.416	1432.98
928.725	1456.49
929.034	1438.41
929.344	1451.74
929.653	1432.31
929.962	1435.47
930.271	1421.01
930.581	1404.06
930.89	1421.01
931.199	1416.49
931.508	1395.7
931.817	1388.01
932.125	1400.9
932.434	1398.18
932.743	1362.25
933.051	1346.21
933.36	1384.4
933.669	1385.75
933.977	1341.24
934.286	1328.13
934.594	1355.25
934.902	1336.26
935.21	1348.47
935.519	1361.35
935.827	1345.08
936.135	1333.55
936.443	1329.94
936.751	1324.51
937.059	1308.92
937.367	1337.17
937.674	1302.59
937.982	1302.14
938.29	1298.3
938.597	1312.54
938.905	1284.74
939.213	1293.33
939.52	1294.46
939.827	1297.17
940.135	1258.53
940.442	1263.72
940.749	1302.14
941.056	1261.24
941.363	1251.75
941.67	1235.7
941.977	1258.75
942.284	1235.93
942.591	1240.45
942.898	1246.55
943.205	1223.27
943.511	1250.39
943.818	1214.69
944.125	1218.53
944.431	1235.02
944.738	1213.56
945.044	1214.91
945.35	1209.49
945.657	1198.41
945.963	1213.1
946.269	1221.24
946.575	1175.36
946.881	1189.6
947.187	1210.39
947.493	1190.96
947.799	1180.56
948.105	1148.7
948.41	1135.82
948.716	1161.35
949.022	1144.4
949.327	1134.24
949.633	1147.12
949.938	1134.91
950.244	1146.66
950.549	1135.14
950.854	1153.67
951.16	1125.42
951.465	1130.62
951.77	1143.5
952.075	1121.13
952.38	1111.64
952.685	1137.63
952.99	1103.73
953.294	1126.78
953.599	1118.19
953.904	1115.93
954.209	1082.71
954.513	1119.55
954.818	1063.73
955.122	1091.07
955.426	1083.62
955.731	1086.33
956.035	1075.48
956.339	1081.81
956.643	1066.67
956.948	1050.62
957.252	1067.8
957.556	1064.18
957.86	1064.86
958.163	1046.78
958.467	1035.71
958.771	1061.47
959.075	1061.24
959.378	1029.15
959.682	1027.57
959.985	1050.17
960.289	1041.36
960.592	1019.66
960.896	1028.02
961.199	1048.14
961.502	1026.22
961.805	1031.64
962.108	1027.57
962.411	1016.05
962.714	997.74
963.017	1011.08
963.32	982.83
963.623	984.86
963.926	1021.47
964.228	976.5
964.531	985.54
964.833	1000
965.136	996.61
965.438	961.13
965.741	963.17
966.043	979.66
966.345	978.08
966.648	949.83
966.95	970.85
967.252	959.33
967.554	962.26
967.856	970.85
968.158	963.39
968.46	952.32
968.761	943.96
969.063	953
969.365	957.74
969.666	942.6
969.968	953.9
970.269	926.33
970.571	920.23
970.872	920.68
971.174	911.87
971.475	910.06
971.776	931.3
972.077	913.45
972.378	915.03
972.679	918.2
972.98	892.43
973.281	898.31
973.582	906.45
973.883	903.28
974.183	896.05
974.484	890.4
974.785	899.89
975.085	896.73
975.386	901.02
975.686	874.58
975.986	862.38
976.287	878.65
976.587	860.12
976.887	852.66
977.187	872.1
977.487	860.34
977.787	873.68
978.087	859.89
978.387	893.34
978.687	876.16
978.987	865.99
979.286	852.89
979.586	826.45
979.885	836.16
980.185	847.46
980.484	855.6
980.784	848.37
981.083	822.38
981.382	850.85
981.682	834.58
981.981	829.16
982.28	826.67
982.579	825.77
982.878	845.88
983.177	828.93
983.475	835.94
983.774	820.57
984.073	822.83
984.372	795.71
984.67	801.82
984.969	809.95
985.267	798.88
985.566	801.59
985.864	805.66
986.162	805.43
986.461	818.09
986.759	786.9
987.057	805.2
987.355	791.87
987.653	771.76
987.951	774.92
988.249	777.18
988.547	774.25
988.844	783.51
989.142	755.94
989.44	745.77
989.737	755.26
990.035	770.4
990.332	761.59
990.63	785.32
990.927	763.4
991.224	769.95
991.521	753.23
991.819	757.97
992.116	757.3
992.413	756.39
992.71	747.81
993.006	729.27
993.303	748.71
993.6	747.35
993.897	723.17
994.193	748.26
994.49	727.69
994.787	721.59
995.083	746.45
995.379	739.9
995.676	725.43
995.972	735.83
996.268	721.59
996.565	722.72
996.861	708.26
997.157	720.69
997.453	705.77
997.749	725.66
998.044	697.41
998.34	691.08
998.636	713.68
998.932	693.8
999.227	702.16
999.523	695.6
999.818	687.92
1000.114	669.84
1000.409	691.76
1000.704	692.44
1001	672.78
1001.295	683.17
1001.59	701.48
1001.885	688.37
1002.18	682.72
1002.475	692.21
1002.77	647.47
1003.065	660.8
1003.359	667.13
1003.654	666.23
1003.949	671.87
1004.243	645.66
1004.538	649.73
1004.832	646.11
1005.127	652.44
1005.421	640.01
1005.715	656.51
1006.009	639.56
1006.304	655.38
1006.598	645.66
1006.892	623.51
1007.186	663.06
1007.48	615.83
1007.773	627.36
1008.067	628.71
1008.361	644.31
1008.655	620.12
1008.948	594.14
1009.242	613.57
1009.535	610.41
1009.829	625.32
1010.122	630.29
1010.415	637.98
1010.708	625.32
1011.001	600.46
1011.295	622.84
1011.588	597.98
1011.881	602.72
1012.173	589.39
1012.466	613.12
1012.759	627.81
1013.052	586.23
1013.344	581.48
1013.637	586.68
1013.93	609.28
1014.222	583.74
1014.514	607.47
1014.807	596.62
1015.099	578.54
1015.391	559.79
1015.683	596.17
1015.976	585.55
1016.268	602.5
1016.56	564.08
1016.851	561.37
1017.143	582.61
1017.435	552.78
1017.727	558.43
1018.018	574.25
1018.31	567.7
1018.602	565.89
1018.893	556.62
1019.185	549.39
1019.476	555.04
1019.767	560.47
1020.058	547.81
1020.35	532.44
1020.641	530.64
1020.932	563.18
1021.223	537.42
1021.514	534.48
1021.804	542.61
1022.095	533.8
1022.386	529.96
1022.677	541.26
1022.967	532.9
1023.258	539.45
1023.548	531.09
1023.839	522.05
1024.129	523.18
1024.419	520.01
1024.709	531.99
1025	511.43
1025.29	516.17
1025.58	519.11
1025.87	498.09
1026.16	513.24
1026.449	506.91
1026.739	510.3
1027.029	526.57
1027.319	526.57
1027.608	516.17
1027.898	488.83
1028.187	506.91
1028.477	504.87
1028.766	493.57
1029.055	484.08
1029.344	493.12
1029.634	503.52
1029.923	491.09
1030.212	488.15
1030.501	503.07
1030.79	504.2
1031.078	472.78
1031.367	511.65
1031.656	467.59
1031.945	487.02
1032.233	487.47
1032.522	480.69
1032.81	477.3
1033.099	468.26
1033.387	478.43
1033.675	480.24
1033.963	460.13
1034.251	472.56
1034.54	496.96
1034.828	473.24
1035.116	442.28
1035.403	468.49
1035.691	443.86
1035.979	466.91
1036.267	449.51
1036.554	462.39
1036.842	472.33
1037.129	457.87
1037.417	460.13
1037.704	441.15
1037.992	459.23
1038.279	453.12
1038.566	467.13
1038.853	467.13
1039.14	467.13
