Data from blue_clamp_base_FLMS001491_00052.txt Node
Date: Wed Feb 08 15:16:12 GMT 2017
User: dcchb
Spectrometer: FLMS00149
Trigger mode: 0
Integration Time (sec): 2.000000E-2
Scans to average: 10
Electric dark correction enabled: true
Nonlinearity correction enabled: false
Boxcar width: 0
XAxis mode: Wavelengths
Number of Pixels in Spectrum: 2048
>>>>>Begin Spectral Data<<<<<
341.393	-15.01
341.776	-15.01
342.16	-15.01
342.543	-54.11
342.927	-59.76
343.31	-78.06
343.693	-64.73
344.077	-68.12
344.46	-64.05
344.843	-45.97
345.226	-39.65
345.61	-38.52
345.993	-18.4
346.376	3.29
346.759	32.89
347.142	1.48
347.525	50.97
347.908	55.72
348.291	66.11
348.674	84.42
349.057	122.61
349.44	128.49
349.823	153.34
350.206	150.63
350.588	192.44
350.971	209.16
351.354	225.88
351.737	246.22
352.119	234.92
352.502	246.22
352.884	284.41
353.267	279.22
353.65	282.15
354.032	284.64
354.414	295.71
354.797	308.37
355.179	322.38
355.562	304.75
355.944	319.44
356.326	328.48
356.709	319.67
357.091	335.03
357.473	350.4
357.855	343.17
358.238	311.31
358.62	326.45
359.002	312.66
359.384	331.19
359.766	326.22
360.148	352.21
360.53	349.5
360.912	312.44
361.294	342.49
361.676	319.67
362.057	313.11
362.439	343.39
362.821	325.77
363.203	312.89
363.584	318.54
363.966	317.86
364.348	323.96
364.729	323.51
365.111	336.39
365.493	332.1
365.874	329.84
366.256	306.56
366.637	313.57
367.019	302.94
367.4	325.77
367.781	321.02
368.163	304.53
368.544	314.47
368.925	292.77
369.306	288.26
369.688	299.1
370.069	292.1
370.45	311.76
370.831	302.94
371.212	315.37
371.593	301.81
371.974	317.86
372.355	298.2
372.736	324.86
373.117	314.24
373.498	309.72
373.879	302.49
374.26	316.05
374.641	306.56
375.021	315.6
375.402	310.85
375.783	306.33
376.163	311.76
376.544	312.21
376.925	343.62
377.305	322.15
377.686	321.47
378.066	323.73
378.447	326.22
378.827	326.45
379.208	320.8
379.588	314.02
379.968	344.07
380.349	325.09
380.729	335.03
381.109	333.23
381.489	340.01
381.87	346.11
382.25	333
382.63	349.5
383.01	333.23
383.39	336.84
383.77	346.56
384.15	341.14
384.53	343.85
384.91	356.28
385.29	360.12
385.67	358.99
386.049	353.79
386.429	357.18
386.809	362.15
387.189	348.59
387.568	377.74
387.948	349.5
388.328	357.63
388.707	390.85
389.087	363.28
389.466	381.13
389.846	378.87
390.225	375.03
390.605	388.59
390.984	378.42
391.363	369.61
391.743	392.66
392.122	399.89
392.501	385.88
392.881	387.69
393.26	387.24
393.639	410.96
394.018	376.84
394.397	412.55
394.776	395.37
395.155	408.7
395.534	423.84
395.913	415.71
396.292	418.2
396.671	413.22
397.05	420.46
397.429	451.87
397.808	435.37
398.186	441.92
398.565	436.27
398.944	445.99
399.323	455.26
399.701	452.54
400.08	474.24
400.458	474.92
400.837	460.23
401.215	477.85
401.594	493.67
401.972	499.32
402.351	504.52
402.729	507.23
403.107	499.32
403.486	516.95
403.864	520.34
404.242	523.5
404.62	513.56
404.999	519.66
405.377	514.69
405.755	523.28
406.133	549.27
406.511	556.27
406.889	547.23
407.267	583.39
407.645	562.15
408.023	602.6
408.401	567.57
408.779	589.72
409.156	574.12
409.534	603.05
409.912	612.31
410.29	610.96
410.667	639.66
411.045	627
411.422	647.34
411.8	650.73
412.178	646.44
412.555	657.51
412.933	682.82
413.31	657.51
413.687	685.08
414.065	697.28
414.442	710.39
414.819	677.62
415.197	732.76
415.574	703.16
415.951	739.09
416.328	746.55
416.705	759.88
417.082	755.81
417.46	781.12
417.837	770.5
418.214	761.24
418.591	770.05
418.967	789.26
419.344	812.99
419.721	798.07
420.098	804.85
420.475	819.54
420.852	841.01
421.228	834.91
421.605	841.01
421.982	846.21
422.358	869.26
422.735	863.38
423.111	862.7
423.488	857.28
423.864	882.82
424.241	914.45
424.617	890.73
424.994	896.6
425.37	931.63
425.746	923.27
426.123	943.15
426.499	946.09
426.875	948.12
427.251	983.38
427.627	993.77
428.003	996.71
428.379	1037.16
428.756	1018.63
429.132	1044.62
429.507	1033.55
429.883	1082.81
430.259	1081.91
430.635	1086.2
431.011	1113.09
431.387	1141.11
431.763	1136.14
432.138	1168.46
432.514	1175.46
432.89	1138.63
433.265	1209.36
433.641	1221.79
434.016	1199.19
434.392	1233.09
434.767	1250.26
435.143	1284.16
435.518	1275.57
435.894	1284.39
436.269	1322.8
436.644	1337.04
437.02	1330.71
437.395	1354.67
437.77	1398.06
438.145	1383.14
438.52	1410.49
438.895	1437.15
439.271	1434.21
439.646	1457.72
440.021	1492.29
440.395	1484.61
440.77	1478.05
441.145	1510.37
441.52	1558.73
441.895	1537.04
442.27	1544.04
442.645	1563.7
443.019	1571.61
443.394	1611.38
443.769	1598.73
444.143	1577.71
444.518	1611.16
444.892	1616.81
445.267	1648.22
445.641	1685.28
446.016	1689.12
446.39	1698.16
446.764	1708.33
447.139	1719.18
447.513	1742.45
447.887	1736.8
448.262	1742
448.636	1729.12
449.01	1768.67
449.384	1777.71
449.758	1819.74
450.132	1827.65
450.506	1855.67
450.88	1848.21
451.254	1875.56
451.628	1885.28
452.002	1885.05
452.376	1927.99
452.75	1952.39
453.123	1962.11
453.497	1996.01
453.871	2004.59
454.244	2024.93
454.618	2065.38
454.992	2060.19
455.365	2087.08
455.739	2128.88
456.112	2139.73
456.486	2157.58
456.859	2188.32
457.232	2225.83
457.606	2245.04
457.979	2251.59
458.352	2286.39
458.725	2304.47
459.099	2320.97
459.472	2376.11
459.845	2412.49
460.218	2399.84
460.591	2430.35
460.964	2434.64
461.337	2506.5
461.71	2532.72
462.083	2550.34
462.456	2570.91
462.829	2545.37
463.201	2633.73
463.574	2643
463.947	2671.02
464.32	2708.3
464.692	2740.39
465.065	2751.47
465.438	2764.12
465.81	2803.44
466.183	2834.4
466.555	2849.32
466.928	2916.43
467.3	2898.81
467.672	2959.37
468.045	3008.41
468.417	3043.89
468.789	3062.19
469.161	3049.09
469.534	3152.13
469.906	3241.4
470.278	3191
470.65	3246.37
471.022	3282.75
471.394	3339.93
471.766	3341.28
472.138	3394.84
472.51	3446.36
472.882	3503.99
473.253	3521.39
473.625	3551.45
473.997	3621.95
474.369	3671.22
474.74	3693.82
475.112	3711.67
475.484	3778.33
475.855	3881.83
476.227	3845.22
476.598	3926.8
476.97	3947.82
477.341	4050.19
477.713	4080.7
478.084	4089.74
478.455	4205.67
478.827	4237.98
479.198	4342.39
479.569	4294.03
479.94	4461.93
480.311	4450.63
480.682	4517.3
481.053	4577.63
481.424	4676.16
481.795	4703.51
482.166	4721.36
482.537	4748.7
482.908	4832.54
483.279	4926.78
483.65	4980.34
484.021	5039.09
484.391	5054.68
484.762	5100.78
485.133	5124.06
485.503	5183.95
485.874	5317.28
486.244	5325.64
486.615	5362.25
486.985	5463.03
487.356	5490.15
487.726	5520.66
488.097	5564.05
488.467	5592.97
488.837	5713.42
489.207	5771.27
489.578	5778.96
489.948	5851.72
490.318	5834.1
490.688	5911.16
491.058	5935.11
491.428	6000.65
491.798	6071.61
492.168	6139.17
492.538	6131.94
492.908	6182.34
493.278	6227.76
493.648	6252.62
494.017	6253.52
494.387	6328.1
494.757	6335.1
495.126	6396.12
495.496	6366.06
495.866	6392.05
496.235	6429.11
496.605	6448.09
496.974	6481.54
497.344	6559.73
497.713	6514.08
498.082	6574.87
498.452	6611.48
498.821	6585.49
499.19	6619.84
499.559	6663.68
499.928	6719.05
500.298	6688.54
500.667	6685.38
501.036	6682.89
501.405	6773.73
501.774	6723.11
502.143	6818.7
502.512	6847.4
502.88	6847.18
503.249	6850.34
503.618	6853.73
503.987	6900.74
504.356	6827.52
504.724	6920.85
505.093	6860.96
505.462	6945.93
505.83	7011.92
506.199	7044.69
506.567	7021.19
506.936	7058.02
507.304	7117.45
507.672	7168.07
508.041	7110.67
508.409	7098.25
508.777	7162.88
509.145	7167.4
509.514	7145.02
509.882	7214.17
510.25	7223.67
510.618	7300.73
510.986	7226.83
511.354	7316.09
511.722	7323.78
512.09	7376.88
512.458	7248.52
512.826	7398.58
513.193	7365.36
513.561	7441.29
513.929	7424.79
514.297	7481.74
514.664	7480.38
515.032	7491
515.4	7537.1
515.767	7505.47
516.135	7528.74
516.502	7474.51
516.869	7589.31
517.237	7597.44
517.604	7569.87
517.972	7654.39
518.339	7675.18
518.706	7645.8
519.073	7672.24
519.44	7568.52
519.808	7790.2
520.175	7659.13
520.542	7826.59
520.909	7801.73
521.276	7847.38
521.643	7798.57
522.009	7843.08
522.376	7911.56
522.743	7909.75
523.11	7956.3
523.477	8039.92
523.843	8002.4
524.21	8148.84
524.577	8088.73
524.943	8096.41
525.31	8109.29
525.676	8245.79
526.043	8239.46
526.409	8196.97
526.776	8248.5
527.142	8302.51
527.508	8314.94
527.874	8369.4
528.241	8413.47
528.607	8378.21
528.973	8413.24
529.339	8403.75
529.705	8541.82
530.071	8545.21
530.437	8607.36
530.803	8587.47
531.169	8647.36
531.535	8597.87
531.901	8666.11
532.267	8686
532.632	8744.3
532.998	8742.5
533.364	8715.6
533.73	8745.43
534.095	8818.65
534.461	8757.86
534.826	8861.36
535.192	8884.19
535.557	8932.77
535.923	8891.87
536.288	8968.25
536.653	8953.11
537.019	9010.06
537.384	8961.47
537.749	9060.23
538.114	9044.41
538.479	9023.84
538.845	9148.81
539.21	9094.58
539.575	9097.29
539.94	9120.79
540.305	9155.37
540.67	9154.24
541.034	9168.25
541.399	9285.98
541.764	9204.18
542.129	9277.4
542.494	9276.04
542.858	9262.03
543.223	9318.3
543.587	9382.93
543.952	9302.71
544.316	9420.9
544.681	9297.51
545.045	9374.57
545.41	9419.99
545.774	9361.69
546.138	9370.73
546.503	9370.73
546.867	9411.86
547.231	9479.65
547.595	9417.05
547.959	9522.59
548.324	9497.5
548.688	9435.36
549.052	9516.71
549.416	9469.26
549.779	9497.96
550.143	9495.7
550.507	9588.58
550.871	9592.64
551.235	9600.1
551.599	9661.12
551.962	9683.04
552.326	9657.27
552.689	9621.12
553.053	9666.77
553.417	9668.57
553.78	9785.63
554.143	9729.81
554.507	9767.1
554.87	9798.74
555.234	9719.19
555.597	9751.96
555.96	9772.07
556.323	9829.7
556.686	9817.95
557.05	9846.2
557.413	9830.15
557.776	9835.12
558.139	9864.05
558.502	9949.24
558.865	9910.15
559.228	9954.67
559.59	9944.5
559.953	9936.59
560.316	10019.07
560.679	10066.98
561.041	10066.76
561.404	10076.25
561.767	10092.52
562.129	10096.36
562.492	10168.9
562.854	10216.81
563.217	10097.26
563.579	10150.59
563.941	10151.72
564.304	10311.49
564.666	10278.27
565.028	10316.24
565.39	10341.55
565.753	10391.72
566.115	10386.97
566.477	10418.61
566.839	10438.72
567.201	10553.75
567.563	10532.51
567.925	10536.12
568.287	10565.95
568.648	10666.06
569.01	10606.85
569.372	10664.03
569.734	10649.56
570.095	10678.04
570.457	10787.64
570.819	10740.18
571.18	10808.43
571.542	10820.41
571.903	10809.79
572.265	10905.15
572.626	10892.27
572.987	10931.82
573.349	10992.15
573.71	10940.4
574.071	10992.61
574.432	11046.39
574.794	11078.71
575.155	10992.83
575.516	11010.01
575.877	11072.6
576.238	11164.13
576.599	11210.91
576.96	11220.85
577.32	11184.92
577.681	11223.56
578.042	11294.52
578.403	11287.29
578.763	11291.36
579.124	11346.5
579.485	11343.33
579.845	11362.09
580.206	11391.92
580.566	11321.41
580.927	11400.51
581.287	11495.64
581.648	11354.63
582.008	11470.33
582.368	11443.44
582.728	11454.74
583.089	11551.69
583.449	11486.6
583.809	11454.97
584.169	11525.7
584.529	11522.31
584.889	11559.6
585.249	11451.13
585.609	11487.28
585.969	11614.74
586.329	11542.2
586.688	11518.47
587.048	11600.73
587.408	11560.95
587.768	11569.31
588.127	11561.63
588.487	11536.77
588.846	11678.01
589.206	11603.66
589.565	11561.18
589.925	11667.39
590.284	11657.45
590.643	11665.58
591.003	11678.46
591.362	11691.8
591.721	11735.64
592.08	11656.09
592.44	11728.63
592.799	11697.22
593.158	11729.54
593.517	11749.65
593.876	11762.98
594.235	11679.59
594.593	11770.67
594.952	11694.28
595.311	11749.65
595.67	11783.55
596.029	11807.05
596.387	11807.95
596.746	11844.11
597.104	11762.08
597.463	11772.02
597.822	11831.91
598.18	11832.58
598.538	11749.42
598.897	11881.62
599.255	11751.68
599.613	11937.44
599.972	11823.77
600.33	11872.58
600.688	11800.04
601.046	11920.04
601.404	11906.03
601.762	11954.84
602.12	11899.25
602.478	11982.41
602.836	11967.72
603.194	11845.69
603.552	11903.32
603.91	11875.3
604.268	11945.12
604.625	11891.34
604.983	11981.96
605.341	11910.1
605.698	11918.01
606.056	11965.01
606.413	11999.36
606.771	11948.74
607.128	12034.61
607.485	11973.15
607.843	11959.59
608.2	11995.52
608.557	12053.6
608.914	11986.7
609.272	12113.25
609.629	12047.04
609.986	12163.42
610.343	12033.26
610.7	12126.14
611.057	12159.58
611.414	12056.76
611.771	12163.65
612.127	12175.17
612.484	12095.4
612.841	12264.21
613.198	12184.89
613.554	12217.66
613.911	12302.4
614.267	12280.71
614.624	12279.58
614.98	12285.91
615.337	12343.31
615.693	12310.76
616.05	12349.86
616.406	12373.59
616.762	12382.17
617.118	12354.38
617.475	12335.4
617.831	12445.9
618.187	12445.45
618.543	12344.21
618.899	12534.26
619.255	12497.88
619.611	12487.03
619.967	12489.97
620.323	12503.98
620.678	12473.7
621.034	12474.15
621.39	12486.8
621.746	12535.62
622.101	12666.91
622.457	12517.31
622.812	12540.14
623.168	12641.38
623.523	12618.55
623.879	12683.41
624.234	12567.93
624.589	12636.18
624.945	12653.81
625.3	12706.46
625.655	12576.52
626.01	12749.4
626.365	12661.72
626.72	12636.41
627.075	12684.09
627.43	12637.08
627.785	12676.4
628.14	12681.6
628.495	12797.3
628.85	12744.65
629.205	12733.35
629.559	12824.65
629.914	12668.95
630.269	12810.86
630.623	12809.73
630.978	12828.49
631.332	12941.71
631.687	12876.62
632.041	12855.61
632.396	12827.81
632.75	12841.6
633.104	12921.6
633.459	12893.8
633.813	12879.56
634.167	12871.2
634.521	12822.16
634.875	12892.22
635.229	12872.33
635.583	12866.46
635.937	12881.82
636.291	12879.11
636.645	12895.61
636.999	12894.48
637.352	13008.82
637.706	12939.22
638.06	13000.69
638.413	12974.25
638.767	13040.69
639.121	13049.05
639.474	12915.04
639.828	13035.72
640.181	12965.21
640.534	13074.81
640.888	12986.45
641.241	12937.19
641.594	12996.4
641.947	13087.92
642.301	13028.71
642.654	13074.13
643.007	13096.96
643.36	13055.6
643.713	13056.96
644.066	13103.06
644.419	13101.93
644.771	13077.75
645.124	13078.2
645.477	13110.97
645.83	13003.63
646.182	12899.9
646.535	12853.35
646.888	12924.53
647.24	12900.13
647.593	12910.97
647.945	12821.26
648.298	12865.55
648.65	12842.28
649.002	12777.64
649.355	12946.45
649.707	12976.28
650.059	13120.01
650.411	13222.38
650.763	13287.91
651.115	13461.69
651.467	13385.99
651.819	13411.07
652.171	13466.67
652.523	13390.51
652.875	13386.44
653.227	13316.84
653.578	13598.41
653.93	13534.01
654.282	13467.8
654.633	13430.73
654.985	13456.72
655.337	13499.21
655.688	13501.92
656.039	13572.88
656.391	13450.17
656.742	13561.58
657.094	13534.69
657.445	13511.41
657.796	13597.74
658.147	13615.36
658.498	13645.19
658.849	13538.75
659.2	13668.02
659.551	13628.47
659.902	13655.36
660.253	13623.27
660.604	13784.4
660.955	13695.81
661.306	13688.81
661.656	13667.34
662.007	13713.66
662.358	13712.76
662.708	13662.14
663.059	13747.34
663.409	13639.32
663.76	13754.79
664.11	13765.41
664.461	13787.79
664.811	13700.78
665.161	13754.12
665.511	13659.88
665.862	13688.58
666.212	13737.17
666.562	13770.39
666.912	13707.11
667.262	13704.17
667.612	13646.77
667.962	13772.42
668.312	13730.84
668.662	13838.63
669.011	13676.15
669.361	13635.93
669.711	13642.48
670.06	13687.45
670.41	13646.1
670.76	13628.92
671.109	13600.45
671.459	13608.36
671.808	13574.01
672.157	13580.56
672.507	13483.39
672.856	13444.29
673.205	13432.99
673.554	13470.51
673.904	13325.65
674.253	13408.36
674.602	13432.99
674.951	13201.14
675.3	13096.05
675.649	13262.83
675.998	13211.53
676.346	13275.03
676.695	13331.3
677.044	13201.14
677.393	13169.95
677.741	13182.61
678.09	13107.81
678.438	13147.35
678.787	13193.23
679.135	13129.95
679.484	13071.65
679.832	13055.15
680.181	12969.05
680.529	13054.25
680.877	12914.36
681.225	12881.37
681.573	13017.41
681.922	12897.64
682.27	12865.78
682.618	12868.72
682.966	12817.87
683.314	12788.27
683.661	12746.91
684.009	12682.73
684.357	12660.36
684.705	12666.91
685.053	12655.39
685.4	12688.61
685.748	12541.04
686.095	12600.02
686.443	12513.47
686.79	12533.58
687.138	12545.11
687.485	12481.83
687.832	12422.85
688.18	12510.76
688.527	12390.08
688.874	12363.64
689.221	12366.13
689.568	12284.55
689.915	12305.57
690.262	12401.16
690.609	12299.24
690.956	12268.05
691.303	12250.43
691.65	12203.2
691.997	12254.72
692.344	12175.17
692.69	12197.09
693.037	12125.68
693.383	12055.63
693.73	12159.58
694.077	12042.97
694.423	12089.53
694.769	11971.11
695.116	11991.22
695.462	12035.06
695.808	11968.17
696.155	12023.77
696.501	11974.05
696.847	11905.35
697.193	11823.77
697.539	11943.54
697.885	11885.24
698.231	11791.68
698.577	11826.71
698.923	11840.04
699.269	11827.84
699.614	11756.43
699.96	11775.86
700.306	11751.46
700.651	11661.97
700.997	11667.84
701.342	11721.85
701.688	11746.71
702.033	11718.24
702.379	11749.87
702.724	11559.82
703.069	11707.62
703.415	11569.31
703.76	11588.97
704.105	11709.65
704.45	11604.34
704.795	11511.46
705.14	11520.05
705.485	11542.2
705.83	11538.81
706.175	11481.63
706.52	11464.68
706.865	11461.52
707.209	11529.99
707.554	11401.86
707.899	11472.82
708.243	11465.59
708.588	11393.73
708.932	11391.69
709.277	11390.34
709.621	11366.38
709.966	11437.57
710.31	11448.19
710.654	11294.97
710.998	11398.47
711.342	11337
711.687	11302.2
712.031	11367.74
712.375	11315.76
712.719	11355.53
713.063	11347.85
713.407	11323.9
713.75	11362.54
714.094	11380.39
714.438	11277.57
714.782	11308.3
715.125	11257.68
715.469	11282.54
715.812	11211.81
716.156	11258.59
716.499	11251.58
716.843	11286.38
717.186	11276.44
717.53	11274.63
717.873	11286.61
718.216	11300.17
718.559	11217.23
718.902	11162.32
719.246	11235.99
719.589	11221.08
719.932	11181.3
720.275	11177.69
720.617	11173.62
720.96	11144.24
721.303	11152.15
721.646	11173.62
721.989	11149.89
722.331	11191.7
722.674	11176.1
723.016	11217.01
723.359	11195.54
723.701	11155.54
724.044	11165.71
724.386	11147.86
724.729	11195.99
725.071	11146.5
725.413	11112.83
725.755	11108.31
726.097	11045.26
726.439	11091.81
726.782	11114.41
727.124	11205.93
727.465	11102.66
727.807	11093.17
728.149	11098.59
728.491	11062.89
728.833	11093.85
729.175	11073.28
729.516	11163.45
729.858	11131.36
730.199	11151.7
730.541	11219.49
730.882	11181.53
731.224	11180.62
731.565	11138.59
731.906	11228.98
732.248	11199.15
732.589	11190.57
732.93	11145.82
733.271	11226.95
733.612	11177.69
733.953	11226.72
734.294	11217.69
734.635	11221.3
734.976	11295.65
735.317	11324.58
735.658	11203.22
735.999	11317.8
736.339	11337.46
736.68	11399.15
737.021	11346.5
737.361	11273.95
737.702	11413.39
738.042	11414.97
738.383	11423.1
738.723	11468.3
739.063	11412.26
739.404	11571.8
739.744	11492.25
740.084	11469.2
740.424	11471.46
740.764	11556.21
741.104	11592.36
741.444	11492.25
741.784	11538.13
742.124	11636.21
742.464	11618.58
742.804	11728.41
743.143	11670.78
743.483	11741.29
743.823	11699.03
744.162	11677.33
744.502	11714.4
744.841	11751
745.181	11858.57
745.52	11881.17
745.86	11920.27
746.199	11892.92
746.538	11951
746.877	12054.95
747.216	12056.76
747.556	11969.08
747.895	12134.95
748.234	12079.58
748.573	12188.96
748.911	12141.73
749.25	12332.01
749.589	12242.07
749.928	12271.67
750.267	12357.32
750.605	12357.99
750.944	12365.23
751.283	12377.65
751.621	12396.86
751.96	12454.26
752.298	12514.6
752.636	12551.21
752.975	12473.92
753.313	12604.77
753.651	12770.86
753.989	12685.67
754.327	12749.17
754.666	12655.84
755.004	12829.17
755.342	12783.97
755.679	12817.64
756.017	12802.28
756.355	12931.31
756.693	12811.77
757.031	12884.99
757.368	12904.87
757.706	12914.59
758.044	12983.06
758.381	12961.14
758.719	13033.91
759.056	13024.87
759.394	13075.94
759.731	13000.01
760.068	13034.13
760.405	13071.2
760.743	13087.47
761.08	13157.75
761.417	13148.93
761.754	13122.72
762.091	13223.51
762.428	13279.55
762.765	13189.38
763.102	13373.79
763.438	13267.8
763.775	13306.9
764.112	13329.95
764.449	13398.19
764.785	13364.07
765.122	13269.61
765.458	13418.98
765.795	13440.9
766.131	13389.61
766.467	13410.17
766.804	13412.2
767.14	13338.53
767.476	13497.85
767.812	13438.19
768.148	13464.86
768.485	13397.51
768.821	13387.8
769.157	13470.06
769.492	13456.72
769.828	13386.44
770.164	13401.13
770.5	13419.21
770.836	13452.88
771.171	13437.51
771.507	13472.32
771.842	13360.45
772.178	13455.82
772.513	13462.15
772.849	13508.92
773.184	13446.55
773.519	13458.98
773.855	13427.34
774.19	13461.24
774.525	13394.13
774.86	13505.31
775.195	13482.48
775.53	13487
775.865	13452.43
776.2	13324.75
776.535	13342.38
776.87	13443.84
777.205	13376.05
777.539	13403.39
777.874	13414.92
778.209	13328.14
778.543	13441.81
778.878	13243.39
779.212	13380.34
779.547	13317.97
779.881	13315.26
780.215	13311.64
780.55	13469.38
780.884	13303.28
781.218	13402.03
781.552	13341.02
781.886	13324.3
782.22	13290.85
782.554	13302.38
782.888	13143.51
783.222	13188.48
783.556	13213.79
783.889	13186.22
784.223	13121.14
784.557	13120.01
784.89	13221.02
785.224	13159.1
785.557	13122.49
785.891	13095.38
786.224	13123.62
786.558	13085.21
786.891	13029.39
787.224	13036.17
787.557	13019.45
787.891	13013.57
788.224	13089.73
788.557	13031.65
788.89	13021.25
789.223	13018.32
789.556	12976.51
789.888	12949.17
790.221	12977.41
790.554	12856.96
790.887	12903.29
791.219	12861.94
791.552	12867.13
791.884	12908.94
792.217	12819.68
792.549	12817.87
792.882	12814.48
793.214	12849.51
793.546	12854.25
793.879	12762.96
794.211	12722.96
794.543	12834.37
794.875	12807.7
795.207	12864.87
795.539	12799.56
795.871	12801.6
796.203	12722.5
796.535	12632.11
796.867	12655.16
797.198	12660.81
797.53	12555.05
797.862	12567.71
798.193	12527.03
798.525	12482.28
798.856	12627.37
799.188	12466.01
799.519	12472.79
799.85	12483.87
800.182	12451.78
800.513	12491.55
800.844	12347.6
801.175	12461.72
801.506	12462.62
801.837	12412.91
802.168	12424.66
802.499	12433.7
802.83	12369.52
803.161	12442.51
803.491	12271.89
803.822	12389.18
804.153	12277.32
804.483	12255.85
804.814	12236.42
805.145	12168.17
805.475	12200.48
805.805	12227.15
806.136	12134.95
806.466	12153.93
806.796	12139.02
807.126	12133.82
807.457	12071.45
807.787	12150.99
808.117	12132.46
808.447	12069.87
808.777	12084.33
809.107	12022.64
809.436	11936.54
809.766	11968.17
810.096	12037.32
810.426	11910.1
810.755	11877.78
811.085	11986.48
811.414	11862.19
811.744	11832.81
812.073	11818.57
812.403	11853.6
812.732	11829.65
813.061	11810.66
813.39	11733.83
813.719	11765.69
814.049	11767.05
814.378	11691.8
814.707	11703.55
815.036	11730.67
815.365	11612.48
815.693	11565.7
816.022	11594.62
816.351	11546.94
816.68	11569.99
817.008	11568.64
817.337	11482.09
817.665	11438.24
817.994	11479.15
818.322	11498.36
818.651	11432.59
818.979	11391.24
819.307	11417.45
819.636	11342.2
819.964	11355.31
820.292	11423.33
820.62	11399.15
820.948	11351.47
821.276	11438.24
821.604	11381.52
821.932	11424.69
822.259	11393.95
822.587	11387.62
822.915	11381.07
823.243	11471.92
823.57	11400.05
823.898	11454.52
824.225	11478.02
824.553	11523.67
824.88	11417.91
825.207	11502.65
825.535	11489.54
825.862	11535.87
826.189	11471.69
826.516	11527.51
826.843	11561.86
827.17	11555.3
827.497	11485.93
827.824	11542.42
828.151	11638.01
828.478	11572.7
828.805	11536.55
829.131	11555.08
829.458	11513.04
829.785	11445.02
830.111	11527.28
830.438	11591.91
830.764	11474.4
831.09	11538.58
831.417	11524.57
831.743	11595.08
832.069	11548.3
832.395	11454.52
832.722	11519.15
833.048	11464.68
833.374	11447.74
833.7	11483.67
834.026	11497
834.351	11482.31
834.677	11497.68
835.003	11457.9
835.329	11533.38
835.654	11455.19
835.98	11476.89
836.306	11546.72
836.631	11456.1
836.956	11376.33
837.282	11505.59
837.607	11375.42
837.932	11412.71
838.258	11467.85
838.583	11465.59
838.908	11396.44
839.233	11319.83
839.558	11344.91
839.883	11220.17
840.208	11308.3
840.533	11290.23
840.858	11279.15
841.182	11336.55
841.507	11262.43
841.832	11221.53
842.156	11197.8
842.481	11162.32
842.805	11185.37
843.13	11146.95
843.454	11168.42
843.778	11116.67
844.103	11051.81
844.427	11083.23
844.751	11070.34
845.075	10994.41
845.399	11004.36
845.723	10929.78
846.047	10954.87
846.371	10904.47
846.695	10899.73
847.019	10843.23
847.343	10846.62
847.666	10711.71
847.99	10705.61
848.313	10686.63
848.637	10574.54
848.96	10636.91
849.284	10565.27
849.607	10475.56
849.931	10494.77
850.254	10430.81
850.577	10383.36
850.9	10302.23
851.223	10271.27
851.546	10238.73
851.869	10075.57
852.192	10260.2
852.515	10105.85
852.838	10142.69
853.161	10137.94
853.483	10011.62
853.806	10016.81
854.129	10005.29
854.451	10006.19
854.774	9943.37
855.096	9894.78
855.419	9893.2
855.741	9865.4
856.063	9785.18
856.385	9835.12
856.708	9728.68
857.03	9725.3
857.352	9759.19
857.674	9624.28
857.996	9621.12
858.318	9622.92
858.64	9568.24
858.961	9580.21
859.283	9562.59
859.605	9530.72
859.926	9544.96
860.248	9453.66
860.57	9531.85
860.891	9503.83
861.212	9426.55
861.534	9388.35
861.855	9344.74
862.176	9386.32
862.498	9362.14
862.819	9385.87
863.14	9342.93
863.461	9397.17
863.782	9343.38
864.103	9310.39
864.424	9269.04
864.745	9281.24
865.065	9224.97
865.386	9176.16
865.707	9168.7
866.027	9196.95
866.348	9187.91
866.668	9160.56
866.989	9192.65
867.309	9074.69
867.63	9137.29
867.95	9055.71
868.27	9111.3
868.59	9022.94
868.91	9089.15
869.23	9092.32
869.55	9038.53
869.87	9090.51
870.19	9052.09
870.51	9045.99
870.83	9035.82
871.15	8959.44
871.469	9013.45
871.789	9010.29
872.109	9037.18
872.428	8939.78
872.748	8885.77
873.067	8962.6
873.386	8977.07
873.706	8948.59
874.025	8856.17
874.344	8862.49
874.663	8862.94
874.982	8839.22
875.301	8794.47
875.62	8796.28
875.939	8832.44
876.258	8812.55
876.577	8761.25
876.896	8742.5
877.214	8696.4
877.533	8728.26
877.852	8713.57
878.17	8707.69
878.489	8738.88
878.807	8688.49
879.125	8653.46
879.444	8668.83
879.762	8622.95
880.08	8612.33
880.398	8612.1
880.716	8629.5
881.034	8581.82
881.352	8540.69
881.67	8582.73
881.988	8523.52
882.306	8468.38
882.624	8516.29
882.941	8459.11
883.259	8430.64
883.577	8466.12
883.894	8402.17
884.212	8421.15
884.529	8360.13
884.846	8373.69
885.164	8366.91
885.481	8324.2
885.798	8338.66
886.115	8317.65
886.432	8282.85
886.75	8267.93
887.067	8280.14
887.383	8221.61
887.7	8236.07
888.017	8221.15
888.334	8180.7
888.651	8169.63
888.967	8130.08
889.284	8044.66
889.6	8082.17
889.917	8013.25
890.233	7999.69
890.55	8028.84
890.866	8049.18
891.182	7983.65
891.498	7946.36
891.815	7930.77
892.131	7909.98
892.447	7869.07
892.763	7810.32
893.079	7817.32
893.395	7772.8
893.71	7779.13
894.026	7773.93
894.342	7788.62
894.657	7711.34
894.973	7696.87
895.289	7672.02
895.604	7655.97
895.92	7667.5
896.235	7638.8
896.55	7554.96
896.865	7596.54
897.181	7469.08
897.496	7492.36
897.811	7412.59
898.126	7471.34
898.441	7458.69
898.756	7383.89
899.071	7325.13
899.386	7391.12
899.7	7340.27
900.015	7306.6
900.33	7270.44
900.644	7226.6
900.959	7297.56
901.273	7215.3
901.588	7167.85
901.902	7108.41
902.216	7118.13
902.531	7119.71
902.845	7080.17
903.159	7011.24
903.473	6985.93
903.787	6912.04
904.101	6880.17
904.415	6965.59
904.729	6898.48
905.042	6888.53
905.356	6917.23
905.67	6799.27
905.984	6885.6
906.297	6863.45
906.611	6721.98
906.924	6791.81
907.237	6704.13
907.551	6704.81
907.864	6675.66
908.177	6660.74
908.491	6632.72
908.804	6628.43
909.117	6557.69
909.43	6581.87
909.743	6487.41
910.056	6505.04
910.368	6480.86
910.681	6430.24
910.994	6409.9
911.307	6414.87
911.619	6332.62
911.932	6314.31
912.244	6293.29
912.557	6251.04
912.869	6204.03
913.181	6239.51
913.494	6189.79
913.806	6194.54
914.118	6165.61
914.43	6125.62
914.742	6093.07
915.054	6093.53
915.366	6061.21
915.678	6025.05
915.99	5983.7
916.302	6011.95
916.613	5972.4
916.925	5919.29
917.236	5869.58
917.548	5836.13
917.859	5897.6
918.171	5842.69
918.482	5868
918.794	5757.94
919.105	5756.81
919.416	5817.6
919.727	5749.13
920.038	5713.88
920.349	5632.3
920.66	5665.06
920.971	5660.32
921.282	5646.53
921.593	5589.81
921.903	5514.33
922.214	5545.07
922.525	5492.19
922.835	5469.81
923.146	5465.29
923.456	5475.92
923.767	5435.69
924.077	5411.96
924.387	5372.42
924.697	5362.7
925.008	5377.39
925.318	5324.51
925.628	5298.07
925.938	5303.49
926.248	5247.67
926.558	5213.32
926.867	5210.39
927.177	5199.99
927.487	5206.77
927.796	5109.37
928.106	5107.11
928.416	5098.07
928.725	5083.84
929.034	5010.84
929.344	5070.28
929.653	5007.23
929.962	5019.88
930.271	4955.93
930.581	4955.7
930.89	4922.94
931.199	4911.64
931.508	4910.05
931.817	4912.77
932.125	4879.09
932.434	4881.35
932.743	4840.9
933.051	4762.49
933.36	4801.13
933.669	4755.71
933.977	4713.45
934.286	4731.98
934.594	4738.76
934.902	4673.68
935.21	4635.26
935.519	4685.88
935.827	4661.25
936.135	4618.99
936.443	4570.63
936.751	4515.26
937.059	4512.1
937.367	4510.29
937.674	4570.63
937.982	4507.58
938.29	4486.34
938.597	4477.52
938.905	4414.47
939.213	4451.76
939.52	4362.95
939.827	4412.67
940.135	4369.5
940.442	4373.57
940.749	4347.81
941.056	4343.97
941.363	4263.74
941.67	4306
941.977	4221.94
942.284	4220.58
942.591	4269.62
942.898	4205.21
943.205	4214.25
943.511	4173.58
943.818	4130.87
944.125	4117.76
944.431	4126.35
944.738	4107.14
945.044	4091.77
945.35	4099
945.657	4036.63
945.963	4041.38
946.269	3985.33
946.575	4024.43
946.881	3970.64
947.187	3936.07
947.493	3914.37
947.799	3924.32
948.105	3911.89
948.41	3852
948.716	3865.34
949.022	3869.63
949.327	3829.86
949.633	3777.65
949.938	3823.76
950.244	3806.35
950.549	3731.78
950.854	3754.38
951.16	3721.84
951.465	3700.59
951.77	3704.21
952.075	3700.59
952.38	3673.7
952.685	3671.67
952.99	3671.22
953.294	3624.44
953.599	3668.51
953.904	3645.23
954.209	3610.2
954.513	3569.98
954.818	3557.32
955.122	3573.82
955.426	3517.55
955.731	3507.61
956.035	3511.45
956.339	3509.64
956.643	3474.61
956.948	3426.93
957.252	3456.08
957.556	3455.18
957.86	3412.47
958.163	3433.26
958.467	3400.26
958.771	3334.73
959.075	3359.81
959.378	3350.55
959.682	3355.97
959.985	3322.98
960.289	3294.05
960.592	3298.8
960.896	3247.73
961.199	3274.62
961.502	3249.08
961.805	3261.74
962.108	3217.22
962.411	3205.47
962.714	3173.38
963.017	3191.68
963.32	3183.77
963.623	3167.05
963.926	3165.47
964.228	3152.59
964.531	3105.58
964.833	3123.43
965.136	3099.48
965.438	3078.46
965.741	3085.92
966.043	3043.66
966.345	3020.61
966.648	3003.21
966.95	3038.69
967.252	2971.12
967.554	2963.89
967.856	2991.69
968.158	2941.97
968.46	2923.44
968.761	2899.03
969.063	2874.85
969.365	2897.9
969.666	2902.42
969.968	2900.84
970.269	2871.46
970.571	2861.97
970.872	2877.79
971.174	2836.21
971.475	2816.32
971.776	2824.69
972.077	2792.37
972.378	2774.74
972.679	2815.19
972.98	2759.83
973.281	2734.52
973.582	2725.93
973.883	2739.26
974.183	2696.55
974.484	2677.57
974.785	2727.96
975.085	2699.94
975.386	2673.5
975.686	2650.68
975.986	2664.24
976.287	2623.56
976.587	2610
976.887	2611.81
977.187	2632.15
977.487	2580.4
977.787	2611.58
978.087	2594.86
978.387	2573.84
978.687	2574.97
978.987	2520.29
979.286	2525.71
979.586	2552.83
979.885	2483.68
980.185	2492.94
980.484	2485.26
980.784	2477.8
981.083	2486.39
981.382	2422.66
981.682	2463.57
981.981	2432.61
982.28	2407.3
982.579	2393.28
982.878	2407.97
983.177	2395.54
983.475	2358.48
983.774	2388.76
984.073	2378.14
984.372	2360.07
984.67	2323.46
984.969	2323.46
985.267	2292.04
985.566	2316.9
985.864	2286.85
986.162	2250.92
986.461	2296.11
986.759	2272.38
987.057	2294.98
987.355	2184.48
987.653	2250.24
987.951	2232.61
988.249	2220.86
988.547	2208.88
988.844	2191.26
989.142	2214.08
989.44	2192.84
989.737	2172.27
990.035	2148.32
990.332	2134.08
990.63	2115.55
990.927	2112.39
991.224	2119.17
991.521	2122.11
991.819	2105.61
992.116	2107.42
992.413	2094.08
992.71	2070.13
993.006	2052.05
993.303	2071.94
993.6	2025.61
993.897	2030.36
994.193	2020.86
994.49	2021.77
994.787	2004.37
995.083	1982.22
995.379	1995.78
995.676	2005.5
995.972	1983.58
996.268	1955.78
996.565	1946.52
996.861	1968.44
997.157	1946.52
997.453	1921.66
997.749	1941.32
998.044	1890.47
998.34	1903.81
998.636	1876.24
998.932	1884.37
999.227	1862
999.523	1850.7
999.818	1841.89
1000.114	1832.62
1000.409	1865.39
1000.704	1836.91
1001	1824.03
1001.295	1787.88
1001.59	1809.12
1001.885	1800.53
1002.18	1795.56
1002.475	1780.42
1002.77	1764.37
1003.065	1764.83
1003.359	1755.34
1003.654	1761.66
1003.949	1690.93
1004.243	1732.96
1004.538	1695.45
1004.832	1691.61
1005.127	1696.81
1005.421	1676.69
1005.715	1652.29
1006.009	1657.26
1006.304	1653.42
1006.598	1652.97
1006.892	1647.32
1007.186	1620.88
1007.48	1630.82
1007.773	1581.78
1008.067	1598.5
1008.361	1572.52
1008.655	1583.81
1008.948	1555.57
1009.242	1570.26
1009.535	1569.35
1009.829	1543.36
1010.122	1549.01
1010.415	1553.76
1010.708	1517.15
1011.001	1518.51
1011.295	1531.16
1011.588	1506.98
1011.881	1484.61
1012.173	1493.42
1012.466	1483.25
1012.759	1451.16
1013.052	1467.89
1013.344	1448.22
1013.637	1435.12
1013.93	1419.75
1014.222	1408.9
1014.514	1420.88
1014.807	1439.19
1015.099	1426.3
1015.391	1389.47
1015.683	1383.59
1015.976	1374.1
1016.268	1349.7
1016.56	1345.63
1016.851	1354.44
1017.143	1342.46
1017.435	1341.33
1017.727	1337.49
1018.018	1326.42
1018.31	1331.62
1018.602	1320.09
1018.893	1276.7
1019.185	1285.97
1019.476	1290.71
1019.767	1292.07
1020.058	1302.92
1020.35	1260.88
1020.641	1247.1
1020.932	1250.94
1021.223	1246.65
1021.514	1232.86
1021.804	1218.4
1022.095	1211.39
1022.386	1203.03
1022.677	1209.13
1022.967	1188.8
1023.258	1221.56
1023.548	1177.5
1023.839	1169.14
1024.129	1165.97
1024.419	1156.03
1024.709	1161.45
1025	1145.18
1025.29	1135.46
1025.58	1137.72
1025.87	1121.91
1026.16	1109.25
1026.449	1108.57
1026.739	1090.72
1027.029	1100.44
1027.319	1073.09
1027.608	1071.96
1027.898	1069.7
1028.187	1069.48
1028.477	1062.25
1028.766	1041.91
1029.055	1031.29
1029.344	1024.28
1029.634	1040.1
1029.923	1034.22
1030.212	1024.96
1030.501	996.71
1030.79	1019.08
1031.078	1005.75
1031.367	1001.68
1031.656	1001.91
1031.945	984.28
1032.233	961.68
1032.522	968.69
1032.81	967.56
1033.099	944.74
1033.387	953.1
1033.675	932.76
1033.963	931.85
1034.251	956.03
1034.54	932.08
1034.828	944.51
1035.116	916.49
1035.403	916.49
1035.691	918.52
1035.979	918.07
1036.267	895.7
1036.554	893.89
1036.842	875.13
1037.129	874
1037.417	890.73
1037.704	857.05
1037.992	852.08
1038.279	849.14
1038.566	857.73
1038.853	857.73
1039.14	857.73
