Data from blue_shiny_book_FLMS001491_00014.txt Node
Date: Wed Feb 08 15:26:36 GMT 2017
User: dcchb
Spectrometer: FLMS00149
Trigger mode: 0
Integration Time (sec): 2.000000E-2
Scans to average: 10
Electric dark correction enabled: true
Nonlinearity correction enabled: false
Boxcar width: 0
XAxis mode: Wavelengths
Number of Pixels in Spectrum: 2048
>>>>>Begin Spectral Data<<<<<
341.393	-12.39
341.776	-12.39
342.16	-12.39
342.543	-60.97
342.927	-53.06
343.31	-66.17
343.693	-82.22
344.077	-88.77
344.46	-56.45
344.843	-55.55
345.226	-29.34
345.61	-29.79
345.993	-11.48
346.376	8.18
346.759	14.96
347.142	45.01
347.525	41.85
347.908	34.39
348.291	65.8
348.674	105.35
349.057	104.22
349.44	125.01
349.823	148.06
350.206	183.99
350.588	213.6
350.971	228.06
351.354	232.8
351.737	253.14
352.119	269.41
352.502	285.68
352.884	308.96
353.267	298.34
353.65	294.5
354.032	320.49
354.414	317.55
354.797	348.96
355.179	329.07
355.562	343.99
355.944	339.24
356.326	319.58
356.709	337.66
357.091	342.41
357.473	362.29
357.855	373.82
358.238	366.36
358.62	359.13
359.002	368.85
359.384	360.71
359.766	383.76
360.148	362.74
360.53	364.1
360.912	350.32
361.294	351.45
361.676	358.9
362.057	354.61
362.439	377.66
362.821	351.9
363.203	337.89
363.584	335.85
363.966	358.23
364.348	344.21
364.729	356.19
365.111	349.86
365.493	343.54
365.874	342.86
366.256	362.97
366.637	343.08
367.019	355.29
367.4	367.94
367.781	342.41
368.163	327.49
368.544	358.68
368.925	334.72
369.306	360.26
369.688	340.37
370.069	339.69
370.45	353.71
370.831	358
371.212	352.8
371.593	373.37
371.974	364.1
372.355	366.59
372.736	360.71
373.117	347.15
373.498	360.94
373.879	374.95
374.26	370.88
374.641	373.37
375.021	371.11
375.402	362.74
375.783	378.79
376.163	399.81
376.544	416.98
376.925	386.25
377.305	395.06
377.686	400.71
378.066	398
378.447	414.49
378.827	403.87
379.208	407.26
379.588	426.25
379.968	426.02
380.349	419.24
380.729	420.14
381.109	417.21
381.489	416.53
381.87	435.06
382.25	441.84
382.63	438.67
383.01	440.93
383.39	433.25
383.77	457.88
384.15	447.94
384.53	468.05
384.91	424.89
385.29	458.11
385.67	472.57
386.049	503.53
386.429	452.01
386.809	472.8
387.189	472.35
387.568	466.7
387.948	493.14
388.328	484.55
388.707	494.72
389.087	515.06
389.466	528.62
389.846	529.75
390.225	505.79
390.605	501.95
390.984	541.5
391.363	522.06
391.743	551.89
392.122	539.01
392.501	529.97
392.881	549.63
393.26	560.93
393.639	551.21
394.018	579.91
394.397	566.36
394.776	570.2
395.155	571.1
395.534	581.27
395.913	601.83
396.292	573.59
396.671	592.12
397.05	628.27
397.429	625.34
397.808	631.66
398.186	647.93
398.565	646.58
398.944	636.86
399.323	645.45
399.701	656.3
400.08	660.59
400.458	654.71
400.837	703.07
401.215	679.35
401.594	706.69
401.972	726.8
402.351	724.54
402.729	724.09
403.107	723.64
403.486	732
403.864	720.48
404.242	777.88
404.62	779
404.999	778.33
405.377	765.9
405.755	802.96
406.133	820.13
406.511	806.57
406.889	836.18
407.267	840.47
407.645	862.17
408.023	863.52
408.401	883.41
408.779	900.13
409.156	904.2
409.534	916.4
409.912	954.14
410.29	941.26
410.667	948.72
411.045	964.31
411.422	969.06
411.8	989.17
412.178	1011.54
412.555	1035.04
412.933	1038.66
413.31	1056.74
413.687	1071.43
414.065	1108.71
414.442	1100.8
414.819	1097.41
415.197	1158.2
415.574	1125.89
415.951	1154.36
416.328	1149.16
416.705	1182.38
417.082	1192.78
417.46	1190.07
417.837	1232.1
418.214	1206.11
418.591	1260.12
418.967	1281.14
419.344	1294.7
419.721	1312.78
420.098	1298.31
420.475	1329.5
420.852	1337.41
421.228	1355.71
421.605	1384.86
421.982	1378.76
422.358	1399.78
422.735	1414.92
423.111	1447.46
423.488	1442.94
423.864	1490.4
424.241	1499.21
424.617	1522.26
424.994	1529.49
425.37	1557.52
425.746	1536.95
426.123	1596.84
426.499	1577.18
426.875	1611.3
427.251	1627.8
427.627	1710.73
428.003	1708.7
428.379	1753.67
428.756	1763.61
429.132	1771.07
429.507	1801.12
429.883	1792.31
430.259	1844.29
430.635	1844.74
431.011	1868.69
431.387	1923.16
431.763	1973.55
432.138	1993.66
432.514	1983.95
432.89	2049.03
433.265	2088.35
433.641	2135.13
434.016	2122.25
434.392	2146.88
434.767	2207.22
435.143	2214.45
435.518	2259.19
435.894	2278.63
436.269	2308.91
436.644	2311.62
437.02	2377.38
437.395	2382.35
437.77	2454.22
438.145	2475.68
438.52	2493.99
438.895	2543.48
439.271	2553.2
439.646	2615.34
440.021	2596.58
440.395	2639.75
440.77	2602.23
441.145	2664.38
441.52	2699.86
441.895	2706.19
442.27	2762.46
442.645	2753.19
443.019	2820.08
443.394	2839.29
443.769	2886.52
444.143	2860.98
444.518	2880.42
444.892	2886.29
445.267	2941.66
445.641	2932.62
446.016	2970.13
446.39	2976.46
446.764	3042.67
447.139	3003.13
447.513	3059.62
447.887	3112.5
448.262	3087.64
448.636	3150.47
449.01	3199.05
449.384	3223.46
449.758	3256.91
450.132	3310.24
450.506	3324.7
450.88	3359.5
451.254	3329.22
451.628	3389.33
452.002	3448.99
452.376	3443.79
452.75	3533.96
453.123	3627.29
453.497	3601.53
453.871	3641.75
454.244	3757.91
454.618	3793.39
454.992	3762.43
455.365	3789.77
455.739	3885.14
456.112	3939.6
456.486	4009.88
456.859	4010.78
457.232	4119.03
457.606	4109.54
457.979	4160.16
458.352	4304.56
458.725	4377.33
459.099	4342.53
459.472	4501.62
459.845	4510.21
460.218	4526.03
460.591	4568.74
460.964	4633.59
461.337	4756.3
461.71	4803.98
462.083	4877.88
462.456	4884.43
462.829	4968.27
463.201	5078.33
463.574	5079.91
463.947	5128.5
464.32	5273.12
464.692	5272.22
465.065	5333.24
465.438	5398.77
465.81	5527.35
466.183	5558.54
466.555	5736.16
466.928	5708.14
467.3	5760.57
467.672	5852.09
468.045	6035.59
468.417	6067.23
468.789	6075.59
469.161	6158.98
469.534	6245.53
469.906	6432.19
470.278	6454.79
470.65	6536.59
471.022	6701.56
471.394	6801.9
471.766	6792.86
472.138	6948.33
472.51	7092.74
472.882	7165.28
473.253	7281.21
473.625	7426.74
473.997	7604.14
474.369	7673.29
474.74	7744.7
475.112	7904.47
475.484	8076.21
475.855	8195.31
476.227	8271.69
476.598	8546.03
476.97	8567.27
477.341	8751
477.713	8851.56
478.084	8917.77
478.455	9182.85
478.827	9313.24
479.198	9576.29
479.569	9600.24
479.94	9906.22
480.311	9960.46
480.682	10224.63
481.053	10410.62
481.424	10563.61
481.795	10663.26
482.166	10844.05
482.537	11008.34
482.908	11248.33
483.279	11326.52
483.65	11514.54
484.021	11751.6
484.391	11941.65
484.762	12105.71
485.133	12205.37
485.503	12479.94
485.874	12807.39
486.244	12838.8
486.615	13133.93
486.985	13242.86
487.356	13525.11
487.726	13641.94
488.097	13951.31
488.467	13914.25
488.837	14347.01
489.207	14392.43
489.578	14559.89
489.948	14794.91
490.318	15041.45
490.688	15015.24
491.058	15406.42
491.428	15598.5
491.798	15775.45
492.168	16109.22
492.538	16220.18
492.908	16463.79
493.278	16575.43
493.648	16718.25
494.017	16879.82
494.387	17116.65
494.757	17172.02
495.126	17311
495.496	17433.03
495.866	17636.19
496.235	17688.84
496.605	17954.82
496.974	18133.35
497.344	18308.26
497.713	18419.22
498.082	18675.26
498.452	18964.97
498.821	19004.06
499.19	19061.24
499.559	19258.52
499.928	19352.75
500.298	19476.14
500.667	19668
501.036	19597.27
501.405	19877.71
501.774	20000.87
502.143	20153.86
502.512	20317.02
502.88	20463.23
503.249	20510.24
503.618	20696.9
503.987	20788.65
504.356	21086.49
504.724	21243.1
505.093	21368.52
505.462	21454.62
505.83	21627.72
506.199	21824.1
506.567	22103.42
506.936	21990.88
507.304	22213.7
507.672	22288.5
508.041	22397.87
508.409	22591.99
508.777	22773.23
509.145	22877.63
509.514	22975.03
509.882	23219.09
510.25	23283.27
510.618	23481.91
510.986	23703.37
511.354	23928.23
511.722	24216.58
512.09	24380.42
512.458	24483.01
512.826	24710.13
513.193	24784.48
513.561	24879.61
513.929	25055.65
514.297	25169.55
514.664	25313.95
515.032	25439.15
515.4	25663.55
515.767	25762.3
516.135	25882.07
516.502	25810.89
516.869	26327.26
517.237	26452
517.604	26602.51
517.972	27055.83
518.339	27130.4
518.706	27143.06
519.073	27572.88
519.44	27782.36
519.808	28077.72
520.175	28091.51
520.542	28345.74
520.909	28521.33
521.276	28502.34
521.643	28711.38
522.009	28788.21
522.376	29096.68
522.743	29293.74
523.11	29497.35
523.477	29821.63
523.843	29979.37
524.21	30321.05
524.577	30579.58
524.943	30763.08
525.31	31025.67
525.676	31340.01
526.043	31698.64
526.409	31911.52
526.776	32289.36
527.142	32417.72
527.508	32552.18
527.874	32664.49
528.241	32796.69
528.607	32871.27
528.973	33115.33
529.339	33069
529.705	33380.86
530.071	33538.37
530.437	33709.44
530.803	34035.53
531.169	34268.52
531.535	34233.72
531.901	34421.28
532.267	34729.75
532.632	35111.89
532.998	35416.51
533.364	35659.22
533.73	35710.97
534.095	36132.88
534.461	36022.15
534.826	36422.36
535.192	36514.34
535.557	36627.1
535.923	36437.05
536.288	36653.32
536.653	36624.16
537.019	36550.27
537.384	36794.78
537.749	36879.3
538.114	37110.93
538.479	37121.78
538.845	37401.77
539.21	37484.93
539.575	37552.95
539.94	37917.92
540.305	38336.44
540.67	38324.46
541.034	38632.7
541.399	38784.79
541.764	39016.64
542.129	39090.99
542.494	39217.99
542.858	39180.03
543.223	39228.84
543.587	39397.2
543.952	39218.67
544.316	39316.75
544.681	39292.34
545.045	39294.15
545.41	39548.83
545.774	39590.64
546.138	39517.87
546.503	39655.27
546.867	39734.59
547.231	40258.19
547.595	40380
547.959	40542.25
548.324	40628.58
548.688	40834.67
549.052	41187.89
549.416	41250.48
549.779	41324.38
550.143	41411.38
550.507	41677.82
550.871	41627.65
551.235	41509.46
551.599	41793.97
551.962	41787.64
552.326	41662.9
552.689	41830.81
553.053	41622
553.417	41746.97
553.78	42211.81
554.143	42060.86
554.507	42244.13
554.87	42450.68
555.234	42861.74
555.597	42795.53
555.96	43129.3
556.323	43426.02
556.686	43510.76
557.05	43863.97
557.413	43997.98
557.776	44131.54
558.139	44533.33
558.502	44409.5
558.865	44530.4
559.228	44564.29
559.59	44697.17
559.953	44771.75
560.316	45056.71
560.679	44911.18
561.041	45035.92
561.404	45079.08
561.767	45377.38
562.129	45202.92
562.492	45433.42
562.854	45602.23
563.217	45646.75
563.579	46032.28
563.941	46319.05
564.304	46466.84
564.666	46819.83
565.028	46982.54
565.39	47269.08
565.753	47440.38
566.115	47643.08
566.477	47962.85
566.839	47980.93
567.201	48145.44
567.563	48066.35
567.925	48281.26
568.287	48180.24
568.648	48081.72
569.01	48248.94
569.372	48318.09
569.734	48096.63
570.095	48411.2
570.457	48545.21
570.819	48529.61
571.18	48534.36
571.542	48769.38
571.903	48845.31
572.265	48996.04
572.626	49329.14
572.987	49438.29
573.349	49659.3
573.71	49932.29
574.071	50149.01
574.432	50180.42
574.794	50418.6
575.155	50345.16
575.516	50310.58
575.877	50463.57
576.238	50615.66
576.599	50546.51
576.96	50577.92
577.32	50638.71
577.681	50626.51
578.042	50628.77
578.403	50655.21
578.763	50589.45
579.124	50628.54
579.485	50626.06
579.845	50723.45
580.206	50749.22
580.566	50670.12
580.927	50825.82
581.287	51038.02
581.648	51094.07
582.008	51302.42
582.368	51277.79
582.728	51406.15
583.089	51421.97
583.449	51487.05
583.809	51571.34
584.169	51624.22
584.529	51613.15
584.889	51809.3
585.249	51589.19
585.609	51536.77
585.969	51662.19
586.329	51546.94
586.688	51429.65
587.048	51446.6
587.408	51227.85
587.768	51292.93
588.127	51261.07
588.487	51281.63
588.846	51474.62
589.206	51153.5
589.565	51206.38
589.925	51337.68
590.284	51259.49
590.643	51363.44
591.003	51494.51
591.362	51629.42
591.721	51584.9
592.08	51753.48
592.44	51873.48
592.799	51882.75
593.158	51886.36
593.517	51939.92
593.876	52015.62
594.235	51886.36
594.593	51984.66
594.952	52112.12
595.311	51816.53
595.67	51978.56
596.029	52018.34
596.387	52014.04
596.746	51924.1
597.104	51773.14
597.463	51747.16
597.822	51931.33
598.18	51674.84
598.538	51646.37
598.897	51878.9
599.255	51584.9
599.613	52044.32
599.972	51884.78
600.33	51995.51
600.688	52034.38
601.046	52113.02
601.404	52324.99
601.762	52230.53
602.12	52493.58
602.478	52503.97
602.836	52606.34
603.194	52470.75
603.552	52597.3
603.91	52427.36
604.268	52650.86
604.625	52537.19
604.983	52557.08
605.341	52336.97
605.698	52485.44
606.056	52620.81
606.413	52538.32
606.771	52475.05
607.128	52553.69
607.485	52360.93
607.843	52299.68
608.2	52529.51
608.557	52734.02
608.914	52478.21
609.272	52624.2
609.629	52616.96
609.986	52799.11
610.343	52531.54
610.7	52906
611.057	52864.87
611.414	52926.33
611.771	52973.11
612.127	53206.55
612.484	53145.31
612.841	53280.9
613.198	53221.92
613.554	53294.23
613.911	53465.3
614.267	53434.8
614.624	53517.73
614.98	53457.85
615.337	53584.4
615.693	53510.5
616.05	53471.4
616.406	53609.25
616.762	53453.1
617.118	53430.73
617.475	53364.06
617.831	53497.84
618.187	53479.77
618.543	53433.44
618.899	53571.74
619.255	53487.68
619.611	53401.35
619.967	53473.89
620.323	53639.99
620.678	53381.24
621.034	53451.74
621.39	53539.2
621.746	53526.32
622.101	53697.61
622.457	53713.21
622.812	53701.46
623.168	53777.16
623.523	53754.11
623.879	53993.65
624.234	53822.81
624.589	53958.4
624.945	53990.04
625.3	54065.74
625.655	54001.79
626.01	54065.74
626.365	53963.6
626.72	53952.75
627.075	53856.93
627.43	53772.64
627.785	53773.32
628.14	53718.4
628.495	53695.13
628.85	53648.8
629.205	53595.47
629.559	53626.65
629.914	53482.03
630.269	53493.33
630.623	53407.23
630.978	53333.78
631.332	53536.49
631.687	53543.27
632.041	53456.26
632.396	53609.93
632.75	53361.8
633.104	53490.39
633.459	53444.96
633.813	53457.85
634.167	53493.78
634.521	53469.14
634.875	53437.28
635.229	53404.51
635.583	53387.11
635.937	53408.13
636.291	53436.6
636.645	53387.34
636.999	53450.84
637.352	53407.23
637.706	53170.17
638.06	53308.92
638.413	53225.54
638.767	52983.06
639.121	53042.94
639.474	52863.29
639.828	52761.14
640.181	52690.86
640.534	52725.21
640.888	52461.26
641.241	52376.07
641.594	52476.18
641.947	52524.09
642.301	52392.56
642.654	52369.96
643.007	52400.7
643.36	52385.33
643.713	52344.65
644.066	52433.01
644.419	52202.74
644.771	52381.26
645.124	52227.82
645.477	52211.78
645.83	52098.11
646.182	51787.61
646.535	51578.8
646.888	51530.66
647.24	51291.12
647.593	51416.09
647.945	51211.8
648.298	51193.5
648.65	51164.57
649.002	51192.14
649.355	51301.74
649.707	51263.78
650.059	51512.59
650.411	51878
650.763	51878.9
651.115	51997.77
651.467	51842.75
651.819	51780.15
652.171	51659.25
652.523	51539.03
652.875	51545.35
653.227	51440.05
653.578	51651.34
653.93	51421.06
654.282	51365.25
654.633	51134.29
654.985	51310.11
655.337	51325.25
655.688	51305.59
656.039	51469.88
656.391	51207.06
656.742	51338.13
657.094	51479.59
657.445	51546.94
657.796	51620.83
658.147	51562.08
658.498	51626.26
658.849	51582.64
659.2	51677.33
659.551	51569.08
659.902	51783.09
660.253	51669.19
660.604	51659.93
660.955	51593.71
661.306	51649.08
661.656	51449.09
662.007	51531.12
662.358	51331.12
662.708	51386.04
663.059	51326.38
663.409	51122.77
663.76	51282.54
664.11	51136.1
664.461	51117.34
664.811	50958.48
665.161	50922.55
665.511	50871.7
665.862	50779.95
666.212	50963.9
666.562	50868.54
666.912	50877.8
667.262	50952.15
667.612	50940.85
667.962	51041.86
668.312	50972.71
668.662	51158.02
669.011	51142.88
669.361	51081.41
669.711	51053.39
670.06	51111.69
670.41	51022.2
670.76	50982.2
671.109	51167.51
671.459	51129.55
671.808	51134.52
672.157	51259.26
672.507	51022.88
672.856	51048.42
673.205	51066.95
673.554	51123.67
673.904	50957.12
674.253	51133.61
674.602	50913.28
674.951	50301.09
675.3	50123.47
675.649	50619.28
675.998	50469
676.346	50305.84
676.695	50315.33
677.044	49933.87
677.393	50201.43
677.741	50131.61
678.09	49920.09
678.438	49772.52
678.787	49854.78
679.135	49956.02
679.484	49636.25
679.832	49864.49
680.181	49642.13
680.529	49803.25
680.877	49700.2
681.225	49775.91
681.573	49938.62
681.922	49848
682.27	49775.68
682.618	49941.1
682.966	49836.02
683.314	49880.54
683.661	49772.52
684.009	49653.65
684.357	49553.77
684.705	49648.91
685.053	49633.99
685.4	49775.23
685.748	49576.82
686.095	49459.08
686.443	49334.56
686.79	49304.28
687.138	49183.61
687.485	49130.28
687.832	48835.59
688.18	48854.13
688.527	48429.28
688.874	48439.9
689.221	48291.43
689.568	48099.12
689.915	47868.84
690.262	47904.09
690.609	47694.83
690.956	47568.06
691.303	47418
691.65	47280.83
691.997	47300.04
692.344	47011.01
692.69	46850.56
693.037	46820.51
693.383	46544.58
693.73	46853.5
694.077	46648.76
694.423	46695.31
694.769	46607.86
695.116	46648.76
695.462	46611.7
695.808	46665.48
696.155	46748.19
696.501	46513.4
696.847	46461.65
697.193	46161.31
697.539	46338.94
697.885	46207.19
698.231	46125.61
698.577	46097.14
698.923	46015.33
699.269	45744.83
699.614	45498.96
699.96	45460.77
700.306	45277.95
700.651	45057.84
700.997	44858.07
701.342	44723.16
701.688	44444.98
702.033	44282.95
702.379	44249.95
702.724	44097.41
703.069	44224.87
703.415	43651.1
703.76	43462.85
704.105	43421.95
704.45	43236.87
704.795	42960.04
705.14	42807.96
705.485	42784.91
705.83	42619.49
706.175	42682.76
706.52	42557.34
706.865	42476.44
707.209	42389.66
707.554	42403.9
707.899	42548.98
708.243	42302.66
708.588	42387.4
708.932	42217.46
709.277	42322.09
709.621	42234.19
709.966	42125.94
710.31	42360.06
710.654	42000.07
710.998	42230.34
711.342	42228.54
711.687	42136.56
712.031	41935.89
712.375	41855.44
712.719	41888.43
713.063	41567.31
713.407	41725.27
713.75	41468.78
714.094	41405.73
714.438	41224.5
714.782	41274.66
715.125	40970.94
715.469	41048.23
715.812	40734.56
716.156	40575.02
716.499	40456.61
716.843	40385.42
717.186	40184.75
717.53	40157.4
717.873	39892.78
718.216	39829.05
718.559	39632.45
718.902	39511.32
719.246	39630.64
719.589	39399.91
719.932	39446.46
720.275	39386.13
720.617	39273.81
720.96	39399.23
721.303	39329.4
721.646	39360.59
721.989	39089.64
722.331	39277.88
722.674	39241.04
723.016	39515.39
723.359	39373.92
723.701	39421.38
724.044	39283.98
724.386	39109.75
724.729	39445.56
725.071	39418.21
725.413	39371.66
725.755	39345
726.097	39160.37
726.439	39247.82
726.782	39147.04
727.124	39276.52
727.465	38889.19
727.807	38906.14
728.149	38671.12
728.491	38738.23
728.833	38724.67
729.175	38418.92
729.516	38459.6
729.858	38399.94
730.199	38468.86
730.541	38210.56
730.882	38171.02
731.224	38300.05
731.565	37910.01
731.906	38005.14
732.248	37920.18
732.589	37669.11
732.93	37600.18
733.271	37545.95
733.612	37617.81
733.953	37536.23
734.294	37451.71
734.635	37453.52
734.976	37546.85
735.317	37362.22
735.658	37400.41
735.999	37627.98
736.339	37432.5
736.68	37623.91
737.021	37584.36
737.361	37400.41
737.702	37684.25
738.042	37500.07
738.383	37489.9
738.723	37771.93
739.063	37609
739.404	37720.18
739.744	37660.75
740.084	37643.35
740.424	37671.82
740.764	37792.49
741.104	37875.43
741.444	37606.96
741.784	37603.8
742.124	37678.83
742.464	37676.11
742.804	37707.07
743.143	37579.85
743.483	37579.39
743.823	37249.46
744.162	37351.6
744.502	37370.13
744.841	37240.65
745.181	37243.13
745.52	37055.11
745.86	37025.51
746.199	36970.37
746.538	36978.51
746.877	37069.12
747.216	37151.61
747.556	37090.14
747.895	36939.64
748.234	36770.83
748.573	36761.79
748.911	36662.81
749.25	36795.23
749.589	36664.39
749.928	36785.06
750.267	36690.83
750.605	36770.6
750.944	36668.91
751.283	36802.01
751.621	36782.8
751.96	36739.42
752.298	36856.7
752.636	36826.19
752.975	36879.07
753.313	36796.81
753.651	37155.45
753.989	36889.24
754.327	36932.63
754.666	36899.41
755.004	36968.11
755.342	37002.69
755.679	37022.57
756.017	36967.43
756.355	37101.67
756.693	37014.66
757.031	37101.67
757.368	36908.22
757.706	37049.01
758.044	37007.43
758.381	36975.34
758.719	36992.97
759.056	37004.72
759.394	36876.36
759.731	36679.3
760.068	36644.95
760.405	36636.82
760.743	36538.52
761.08	36643.82
761.417	36359.09
761.754	36324.29
762.091	36203.61
762.428	36217.62
762.765	35969.72
763.102	36026.89
763.438	35855.14
763.775	35504.65
764.112	35741.25
764.449	35652.89
764.785	35468.94
765.122	35372.22
765.458	35362.05
765.795	35238.66
766.131	35342.84
766.467	35268.72
766.804	35098.78
767.14	34971.78
767.476	35124.54
767.812	35047.26
768.148	35034.38
768.485	34770.43
768.821	34682.75
769.157	34720.49
769.492	34682.07
769.828	34661.73
770.164	34417.44
770.5	34326.82
770.836	34509.87
771.171	34394.62
771.507	34277.11
771.842	34066.27
772.178	34099.94
772.513	34121.41
772.849	34031.01
773.184	33881.41
773.519	33904.24
773.855	33698.82
774.19	33612.49
774.525	33481.65
774.86	33517.81
775.195	33516.9
775.53	33385.15
775.865	33162.33
776.2	33048.89
776.535	32793.53
776.87	32826.07
777.205	32605.96
777.539	32501.11
777.874	32453.88
778.209	32045.75
778.543	32053.21
778.878	31708.14
779.212	31864.29
779.547	31594.69
779.881	31719.66
780.215	31444.19
780.55	31527.12
780.884	31256.85
781.218	31144.08
781.552	31102.95
781.886	30777.99
782.22	30784.54
782.554	30593.36
782.888	30363.76
783.222	30403.99
783.556	30315.86
783.889	30097.33
784.223	30057.11
784.557	29921.52
784.89	29984.34
785.224	29801.52
785.557	29664.12
785.891	29667.96
786.224	29622.31
786.558	29600.85
786.891	29324.24
787.224	29316.56
787.557	29109.11
787.891	29169.22
788.224	29218.26
788.557	29176.68
788.89	29047.64
789.223	29169.67
789.556	28770.13
789.888	28951.37
790.221	28856.46
790.554	28626.18
790.887	28631.15
791.219	28503.02
791.552	28405.4
791.884	28339.41
792.217	28229.81
792.549	28097.16
792.882	27862.13
793.214	27930.16
793.546	27895.58
793.879	27717.73
794.211	27637.96
794.543	27690.84
794.875	27529.26
795.207	27577.17
795.539	27370.85
795.871	27339.21
796.203	27060.12
796.535	26808.15
796.867	26828.49
797.198	26691.77
797.53	26634.82
797.862	26484.09
798.193	26516.63
798.525	26191.44
798.856	26323.64
799.188	26062.86
799.519	25951.68
799.85	25787.39
800.182	25678.46
800.513	25701.51
800.844	25457.9
801.175	25612.25
801.506	25643.44
801.837	25476.89
802.168	25443.89
802.499	25294.52
802.83	25213.39
803.161	25212.71
803.491	25092.26
803.822	25158.7
804.153	24968.88
804.483	24813.4
804.814	24764.36
805.145	24817.47
805.475	24884.59
805.805	24656.12
806.136	24737.47
806.466	24758.71
806.796	24735.44
807.126	24474.2
807.457	24544.26
807.787	24358.5
808.117	24369.57
808.447	24303.81
808.777	24414.99
809.107	24377.25
809.436	24192.63
809.766	24213.64
810.096	24149.01
810.426	24043.93
810.755	23996.47
811.085	24065.4
811.414	23906.98
811.744	23644.17
812.073	23822.01
812.403	23559.2
812.732	23536.37
813.061	23505.19
813.39	23321.01
813.719	23350.61
814.049	23373.21
814.378	23241.24
814.707	23162.15
815.036	23115.82
815.365	22897.29
815.693	22699.56
816.022	22756.51
816.351	22639.9
816.68	22403.07
817.008	22562.84
817.337	22327.14
817.665	22264.32
817.994	22292.11
818.322	22266.58
818.651	22030.2
818.979	22052.12
819.307	22068.39
819.636	21982.52
819.964	21759.7
820.292	22015.28
820.62	21923.08
820.948	21836.3
821.276	21965.11
821.604	21816.19
821.932	21922.18
822.259	21845.57
822.587	21759.92
822.915	21908.84
823.243	21980.93
823.57	22003.76
823.898	21952.01
824.225	21795.85
824.553	21930.31
824.88	21938
825.207	22053.25
825.535	22016.64
825.862	22116.97
826.189	21959.69
826.516	22071.55
826.843	22291.66
827.17	22145.9
827.497	22267.71
827.824	22180.02
828.151	22185
828.478	22087.6
828.805	22306.12
829.131	22169.4
829.458	22096.41
829.785	22029.52
830.111	22079.24
830.438	22263.19
830.764	22125.34
831.09	22193.58
831.417	21935.06
831.743	22063.42
832.069	22075.39
832.395	22030.42
832.722	22080.37
833.048	21954.72
833.374	21904.55
833.7	21843.31
834.026	21811.22
834.351	21971.44
834.677	21881.95
835.003	21745.91
835.329	21743.43
835.654	21653.94
835.98	21507.73
836.306	21575.29
836.631	21394.06
836.956	21391.12
837.282	21414.85
837.607	21218.02
837.932	21187.73
838.258	21165.59
838.583	21070.22
838.908	20965.82
839.233	21066.83
839.558	21040.39
839.883	20850.79
840.208	20764.69
840.533	20768.08
840.858	20797.01
841.182	20881.08
841.507	20852.83
841.832	20745.03
842.156	20681.76
842.481	20679.95
842.805	20685.83
843.13	20592.5
843.454	20503.91
843.778	20567.19
844.103	20497.13
844.427	20425.72
844.751	20434.08
845.075	20423.01
845.399	20411.48
845.723	20336.23
846.047	20243.58
846.371	20060.31
846.695	20198.38
847.019	20098.27
847.343	19938.28
847.666	19963.59
847.99	19850.37
848.313	19914.32
848.637	19837.03
848.96	19710.71
849.284	19720.65
849.607	19629.13
849.931	19529.92
850.254	19471.39
850.577	19352.98
850.9	19022.14
851.223	19138.52
851.546	18954.57
851.869	18925.42
852.192	18912.54
852.515	18904.63
852.838	18756.39
853.161	18707.8
853.483	18564.53
853.806	18410.41
854.129	18519.1
854.451	18320.92
854.774	18251.54
855.096	18118.66
855.419	18161.82
855.741	18096.74
856.063	17849.06
856.385	17864.21
856.708	17767.26
857.03	17704.44
857.352	17806.81
857.674	17573.82
857.996	17621.95
858.318	17373.82
858.64	17479.58
858.961	17255.63
859.283	17305.8
859.605	17159.14
859.926	17216.31
860.248	17056.77
860.57	16979.71
860.891	17038.01
861.212	16999.14
861.534	16922.54
861.855	16887.06
862.176	17005.7
862.498	16882.76
862.819	16918.69
863.14	16878.47
863.461	16818.36
863.782	16843.44
864.103	16767.06
864.424	16731.81
864.745	16751.69
865.065	16643.9
865.386	16673.5
865.707	16633.05
866.027	16688.64
866.348	16748.75
866.668	16620.17
866.989	16656.78
867.309	16532.49
867.63	16635.99
867.95	16582.43
868.27	16539.04
868.59	16570.68
868.91	16642.77
869.23	16483
869.55	16467.41
869.87	16562.32
870.19	16501.53
870.51	16489.78
870.83	16468.54
871.15	16244.36
871.469	16357.35
871.789	16399.16
872.109	16369.1
872.428	16239.16
872.748	16309.44
873.067	16224.25
873.386	16262.44
873.706	16145.38
874.025	16153.97
874.344	16010.69
874.663	16039.39
874.982	15992.62
875.301	15995.78
875.62	15794.2
875.939	15814.99
876.258	15787.65
876.577	15793.3
876.896	15588.79
877.214	15605.51
877.533	15618.84
877.852	15593.98
878.17	15538.16
878.489	15516.02
878.807	15472.4
879.125	15448.22
879.444	15406.87
879.762	15320.54
880.08	15369.36
880.398	15151.06
880.716	15276.02
881.034	15176.82
881.352	15169.81
881.67	15073.77
881.988	15135.01
882.306	15135.46
882.624	14996.48
882.941	14903.15
883.259	14893.89
883.577	14989.03
883.894	14871.74
884.212	14871.97
884.529	14881.91
884.846	14820.22
885.164	14818.64
885.481	14801.24
885.798	14875.13
886.115	14734.57
886.432	14687.79
886.75	14730.95
887.067	14809.82
887.383	14720.56
887.7	14719.88
888.017	14675.36
888.334	14729.82
888.651	14662.48
888.967	14656.61
889.284	14614.8
889.6	14552.88
889.917	14536.61
890.233	14527.34
890.55	14537.29
890.866	14578.87
891.182	14421.13
891.498	14383.39
891.815	14374.35
892.131	14347.69
892.447	14287.35
892.763	14194.25
893.079	14167.35
893.395	14085.1
893.71	14156.96
894.026	14054.14
894.342	14010.75
894.657	13900.47
894.973	13853.46
895.289	13854.37
895.604	13851.88
895.92	13660.47
896.235	13688.5
896.55	13589.97
896.865	13543.87
897.181	13425.9
897.496	13458.9
897.811	13434.04
898.126	13387.71
898.441	13257.77
898.756	13223.88
899.071	13164.22
899.386	13124.44
899.7	12899.82
900.015	12905.47
900.33	12807.62
900.644	12805.36
900.959	12767.39
901.273	12720.84
901.588	12603.33
901.902	12580.05
902.216	12587.73
902.531	12534.18
902.845	12447.17
903.159	12356.78
903.473	12359.72
903.787	12283.56
904.101	12192.72
904.415	12190
904.729	12152.04
905.042	12042.89
905.356	12026.84
905.67	12023.23
905.984	12020.74
906.297	12037.24
906.611	11905.72
906.924	11938.49
907.237	11826.17
907.551	11825.72
907.864	11739.62
908.177	11829.79
908.491	11737.13
908.804	11668.66
909.117	11675.89
909.43	11616.91
909.743	11549.12
910.056	11625.95
910.368	11541.43
910.681	11479.06
910.994	11470.48
911.307	11463.92
911.619	11396.35
911.932	11379.86
912.244	11309.12
912.557	11308.67
912.869	11258.05
913.181	11216.02
913.494	11228.22
913.806	11159.97
914.118	11076.36
914.43	11066.42
914.742	11045.63
915.054	11008.57
915.366	10982.8
915.678	10940.77
915.99	10827.1
916.302	10797.5
916.613	10745.75
916.925	10693.77
917.236	10671.85
917.548	10584.62
917.859	10674.56
918.171	10498.98
918.482	10446.77
918.794	10387.79
919.105	10395.48
919.416	10274.12
919.727	10301.47
920.038	10152.54
920.349	10107.8
920.66	10005.2
920.971	9993.45
921.282	9936.05
921.593	9878.2
921.903	9739.45
922.214	9811.76
922.525	9643.63
922.835	9564.76
923.146	9587.13
923.456	9555.72
923.767	9528.83
924.077	9489.51
924.387	9407.93
924.697	9367.25
925.008	9325.22
925.318	9290.65
925.628	9268.27
925.938	9241.83
926.248	9137.43
926.558	9085
926.867	9019.24
927.177	9023.53
927.487	9017.43
927.796	8874.84
928.106	8903.31
928.416	8867.15
928.725	8831.45
929.034	8853.14
929.344	8776.31
929.653	8727.72
929.962	8705.8
930.271	8645.92
930.581	8621.06
930.89	8573.38
931.199	8562.98
931.508	8565.47
931.817	8541.51
932.125	8502.19
932.434	8538.12
932.743	8402.76
933.051	8426.94
933.36	8442.53
933.669	8298.81
933.977	8369.09
934.286	8346.26
934.594	8365.7
934.902	8259.26
935.21	8254.51
935.519	8217.68
935.827	8225.81
936.135	8164.35
936.443	8148.3
936.751	8144.46
937.059	8087.74
937.367	8131.35
937.674	8129.55
937.982	8057.01
938.29	7942.88
938.597	7991.92
938.905	7846.84
939.213	7807.07
939.52	7830.8
939.827	7867.63
940.135	7805.26
940.442	7805.94
940.749	7742.21
941.056	7654.53
941.363	7613.4
941.67	7611.59
941.977	7576.34
942.284	7475.33
942.591	7431.71
942.898	7403.92
943.205	7366.85
943.511	7389.23
943.818	7336.12
944.125	7209.12
944.431	7220.19
944.738	7210.25
945.044	7146.07
945.35	7091.61
945.657	7087.77
945.963	7048.22
946.269	7018.39
946.575	6971.61
946.881	6979.29
947.187	6904.72
947.493	6843.93
947.799	6842.57
948.105	6806.19
948.41	6760.99
948.716	6775.01
949.022	6673.09
949.327	6669.7
949.633	6568.23
949.938	6551.28
950.244	6572.07
950.549	6492.53
950.854	6477.16
951.16	6451.85
951.465	6397.39
951.77	6369.82
952.075	6376.15
952.38	6367.78
952.685	6326.43
952.99	6302.25
953.294	6267.9
953.599	6234.68
953.904	6263.61
954.209	6199.88
954.513	6222.48
954.818	6181.12
955.122	6211.18
955.426	6141.12
955.731	6114.46
956.035	6027.45
956.339	6033.1
956.643	6063.39
956.948	6076.72
957.252	5968.92
957.556	5979.55
957.86	5980.45
958.163	5995.59
958.467	5959.89
958.771	5900.68
959.075	5922.82
959.378	5897.74
959.682	5855.93
959.985	5838.98
960.289	5801.02
960.592	5773.68
960.896	5780.91
961.199	5725.54
961.502	5690.97
961.805	5739.1
962.108	5630.63
962.411	5639.44
962.714	5593.79
963.017	5613.91
963.32	5589.95
963.623	5570.52
963.926	5598.99
964.228	5516.06
964.531	5529.84
964.833	5485.55
965.136	5432.44
965.438	5401.71
965.741	5403.74
966.043	5383.63
966.345	5349.51
966.648	5340.69
966.95	5241.49
967.252	5229.74
967.554	5226.8
967.856	5237.42
968.158	5128.04
968.46	5142.28
968.761	5071.55
969.063	5048.5
969.365	5027.03
969.666	5029.06
969.968	4991.32
970.269	4940.7
970.571	4936.41
970.872	4889.18
971.174	4902.96
971.475	4922.4
971.776	4852.8
972.077	4803.76
972.378	4816.64
972.679	4759.69
972.98	4758.56
973.281	4715.17
973.582	4679.02
973.883	4654.84
974.183	4644.89
974.484	4671.11
974.785	4590.66
975.085	4572.58
975.386	4524.22
975.686	4521.96
975.986	4491.68
976.287	4496.65
976.587	4439.93
976.887	4420.27
977.187	4422.98
977.487	4369.19
977.787	4332.36
978.087	4349.31
978.387	4330.55
978.687	4313.83
978.987	4316.77
979.286	4292.81
979.586	4232.7
979.885	4207.16
980.185	4234.73
980.484	4225.69
980.784	4220.72
981.083	4157
981.382	4146.83
981.682	4164.45
981.981	4131.91
982.28	4131.46
982.579	4148.63
982.878	4139.59
983.177	4073.38
983.475	4073.61
983.774	4047.39
984.073	4028.64
984.372	4064.79
984.67	4037
984.969	4017.79
985.267	3975.53
985.566	4002.65
985.864	3951.35
986.162	3971.69
986.461	3920.62
986.759	3935.98
987.057	3910.67
987.355	3891.92
987.653	3886.49
987.951	3871.35
988.249	3817.57
988.547	3866.83
988.844	3820.96
989.142	3797.91
989.44	3766.72
989.737	3783.22
990.035	3722.43
990.332	3747.74
990.63	3706.61
990.927	3689.66
991.224	3674.52
991.521	3685.37
991.819	3640.4
992.116	3597.69
992.413	3612.15
992.71	3567.18
993.006	3543.23
993.303	3523.11
993.6	3527.63
993.897	3468.65
994.193	3470.46
994.49	3419.16
994.787	3414.87
995.083	3427.97
995.379	3404.02
995.676	3394.53
995.972	3371.93
996.268	3301.88
996.565	3300.29
996.861	3304.81
997.157	3274.76
997.453	3256.68
997.749	3238.83
998.044	3237.92
998.34	3180.98
998.636	3147.53
998.932	3145.72
999.227	3119.06
999.523	3120.64
999.818	3096.91
1000.114	3047.42
1000.409	3080.64
1000.704	3016.23
1001	2997.48
1001.295	2978.95
1001.59	2986.63
1001.885	2990.02
1002.18	2965.84
1002.475	2910.25
1002.77	2935.56
1003.065	2894.66
1003.359	2885.16
1003.654	2903.47
1003.949	2869.35
1004.243	2857.82
1004.538	2789.8
1004.832	2787.54
1005.127	2794.55
1005.421	2781.44
1005.715	2732.17
1006.009	2729.24
1006.304	2725.85
1006.598	2731.95
1006.892	2727.88
1007.186	2676.81
1007.48	2711.61
1007.773	2661.67
1008.067	2674.1
1008.361	2632.06
1008.655	2616.92
1008.948	2586.19
1009.242	2582.8
1009.535	2580.54
1009.829	2555.23
1010.122	2564.04
1010.415	2523.37
1010.708	2515.46
1011.001	2566.08
1011.295	2513.87
1011.588	2507.55
1011.881	2446.76
1012.173	2465.29
1012.466	2477.04
1012.759	2460.54
1013.052	2438.62
1013.344	2397.72
1013.637	2406.08
1013.93	2391.84
1014.222	2373.54
1014.514	2379.19
1014.807	2347.1
1015.099	2331.73
1015.391	2350.04
1015.683	2279.3
1015.976	2304.84
1016.268	2289.47
1016.56	2284.95
1016.851	2252.41
1017.143	2228.68
1017.435	2247.89
1017.727	2248.57
1018.018	2198.18
1018.31	2187.1
1018.602	2176.93
1018.893	2172.41
1019.185	2140.78
1019.476	2147.78
1019.767	2146.65
1020.058	2133.55
1020.35	2085.19
1020.641	2064.39
1020.932	2075.69
1021.223	2018.52
1021.514	2029.14
1021.804	2036.82
1022.095	2012.19
1022.386	2013.32
1022.677	2004.51
1022.967	1961.35
1023.258	1940.78
1023.548	1953.66
1023.839	1913.66
1024.129	1907.11
1024.419	1919.77
1024.709	1839.77
1025	1834.8
1025.29	1860.33
1025.58	1851.52
1025.87	1805.42
1026.16	1832.76
1026.449	1783.95
1026.739	1788.7
1027.029	1749.6
1027.319	1739.21
1027.608	1738.53
1027.898	1707.12
1028.187	1723.84
1028.477	1694.01
1028.766	1684.07
1029.055	1696.04
1029.344	1650.85
1029.634	1653.11
1029.923	1651.75
1030.212	1631.41
1030.501	1606.1
1030.79	1594.12
1031.078	1586.67
1031.367	1556.61
1031.656	1618.76
1031.945	1574.69
1032.233	1544.86
1032.522	1540.79
1032.81	1516.61
1033.099	1516.84
1033.387	1487.91
1033.675	1513.67
1033.963	1476.61
1034.251	1478.42
1034.54	1494.24
1034.828	1435.26
1035.116	1458.99
1035.403	1468.7
1035.691	1427.58
1035.979	1415.37
1036.267	1433.68
1036.554	1393.45
1036.842	1389.84
1037.129	1347.13
1037.417	1363.62
1037.704	1336.28
1037.992	1376.96
1038.279	1337.18
1038.566	1327.01
1038.853	1327.01
1039.14	1327.01
