Data from blue_clamp_base_FLMS001491_00003.txt Node
Date: Wed Feb 08 15:15:28 GMT 2017
User: dcchb
Spectrometer: FLMS00149
Trigger mode: 0
Integration Time (sec): 2.000000E-2
Scans to average: 10
Electric dark correction enabled: true
Nonlinearity correction enabled: false
Boxcar width: 0
XAxis mode: Wavelengths
Number of Pixels in Spectrum: 2048
>>>>>Begin Spectral Data<<<<<
341.393	-43.25
341.776	-43.25
342.16	-43.25
342.543	-47.09
342.927	-66.98
343.31	-55.22
343.693	-70.82
344.077	-67.65
344.46	-71.95
344.843	-71.5
345.226	-45.51
345.61	-31.27
345.993	-40.08
346.376	11.67
346.759	10.31
347.142	17.99
347.525	53.02
347.908	63.64
348.291	105.68
348.674	102.51
349.057	89.18
349.44	112.68
349.823	127.37
350.206	128.05
350.588	186.35
350.971	194.71
351.354	212.11
351.737	217.31
352.119	215.5
352.502	253.92
352.884	253.24
353.267	242.17
353.65	272.68
354.032	276.29
354.414	313.58
354.797	314.03
355.179	317.42
355.562	299.57
355.944	289.63
356.326	331.88
356.709	315.16
357.091	307.25
357.473	315.39
357.855	328.49
358.238	322.84
358.62	337.76
359.002	327.82
359.384	315.16
359.766	328.72
360.148	328.95
360.53	314.71
360.912	331.21
361.294	335.73
361.676	296.63
362.057	328.49
362.439	316.07
362.821	310.19
363.203	316.74
363.584	311.09
363.966	326.91
364.348	321.49
364.729	326.91
365.111	314.03
365.493	317.42
365.874	298.21
366.256	279.68
366.637	295.05
367.019	282.39
367.4	317.65
367.781	302.96
368.163	303.41
368.544	297.76
368.925	319.68
369.306	299.57
369.688	297.08
370.069	310.64
370.45	306.57
370.831	323.52
371.212	316.52
371.593	274.94
371.974	281.26
372.355	291.21
372.736	306.8
373.117	294.37
373.498	332.56
373.879	307.48
374.26	321.26
374.641	291.21
375.021	305.44
375.402	317.87
375.783	309.74
376.163	313.58
376.544	309.51
376.925	306.57
377.305	307.03
377.686	318.1
378.066	301.38
378.447	327.36
378.827	328.95
379.208	323.97
379.588	307.93
379.968	330.98
380.349	335.73
380.729	335.95
381.109	312.68
381.489	319.23
381.87	332.11
382.25	327.59
382.63	327.59
383.01	343.86
383.39	323.07
383.77	333.01
384.15	324.65
384.53	336.86
384.91	338.89
385.29	340.92
385.67	338.44
386.049	353.13
386.429	339.79
386.809	365.78
387.189	357.65
387.568	351.32
387.948	354.93
388.328	342.05
388.707	349.96
389.087	345.44
389.466	361.94
389.846	366.01
390.225	380.02
390.605	373.92
390.984	368.27
391.363	387.93
391.743	377.08
392.122	387.48
392.501	375.5
392.881	376.85
393.26	378.89
393.639	387.48
394.018	386.8
394.397	397.64
394.776	408.04
395.155	384.54
395.534	405.1
395.913	398.1
396.292	408.27
396.671	416.63
397.05	410.53
397.429	443.52
397.808	409.17
398.186	438.77
398.565	425.67
398.944	418.89
399.323	448.49
399.701	449.62
400.08	455.72
400.458	455.04
400.837	464.08
401.215	459.11
401.594	469.73
401.972	466.8
402.351	455.72
402.729	474.03
403.107	488.94
403.486	478.32
403.864	484.87
404.242	504.08
404.62	480.81
404.999	505.21
405.377	504.31
405.755	503.63
406.133	519.22
406.511	546.79
406.889	530.07
407.267	552.67
407.645	553.12
408.023	543.4
408.401	526.46
408.779	550.41
409.156	577.3
409.534	557.19
409.912	556.28
410.29	595.38
410.667	591.54
411.045	592.89
411.422	624.31
411.8	612.55
412.178	607.58
412.555	653.01
412.933	631.31
413.31	622.95
413.687	632.67
414.065	653.91
414.442	646.9
414.819	650.07
415.197	650.29
415.574	676.73
415.951	671.31
416.328	688.71
416.705	685.77
417.082	693.46
417.46	691.65
417.837	712.89
418.214	726.9
418.591	736.85
418.967	732.78
419.344	757.64
419.721	741.36
420.098	755.15
420.475	742.49
420.852	783.62
421.228	738.43
421.605	770.29
421.982	796.96
422.358	790.18
422.735	803.28
423.111	801.7
423.488	801.02
423.864	817.29
424.241	832.21
424.617	801.02
424.994	860.68
425.37	848.93
425.746	862.72
426.123	856.16
426.499	867.01
426.875	885.54
427.251	917.63
427.627	917.18
428.003	908.59
428.379	925.09
428.756	937.29
429.132	953.56
429.507	987.23
429.883	963.05
430.259	976.61
430.635	1008.7
431.011	1009.83
431.387	1040.34
431.763	1049.15
432.138	1055.93
432.514	1060.68
432.89	1090.73
433.265	1070.85
433.641	1121.02
434.016	1107.23
434.392	1127.8
434.767	1152.2
435.143	1162.37
435.518	1171.18
435.894	1164.86
436.269	1199.21
436.644	1173.67
437.02	1223.84
437.395	1249.6
437.77	1257.28
438.145	1254.8
438.52	1283.72
438.895	1291.18
439.271	1324.17
439.646	1304.06
440.021	1354
440.395	1365.08
440.77	1342.48
441.145	1356.94
441.52	1414.79
441.895	1370.73
442.27	1391.52
442.645	1413.89
443.019	1455.02
443.394	1416.15
443.769	1478.07
444.143	1454.11
444.518	1499.08
444.892	1472.42
445.267	1461.57
445.641	1481.91
446.016	1516.03
446.39	1523.94
446.764	1539.76
447.139	1569.82
447.513	1525.75
447.887	1572.08
448.262	1565.75
448.636	1574.56
449.01	1595.58
449.384	1624.73
449.758	1618.18
450.132	1639.65
450.506	1668.57
450.88	1660.66
451.254	1706.99
451.628	1692.53
452.002	1725.29
452.376	1707.67
452.75	1739.53
453.123	1757.16
453.497	1785.63
453.871	1786.76
454.244	1814.1
454.618	1833.77
454.992	1880.32
455.365	1873.54
455.739	1890.71
456.112	1928.9
456.486	1937.72
456.859	1963.03
457.232	1987.89
457.606	1988.11
457.979	2015.68
458.352	2052.29
458.725	2083.25
459.099	2079.63
459.472	2114.89
459.845	2123.93
460.218	2136.58
460.591	2180.65
460.964	2192.17
461.337	2227.65
461.71	2257.48
462.083	2253.87
462.456	2279.4
462.829	2302.68
463.201	2338.16
463.574	2329.35
463.947	2380.64
464.32	2412.51
464.692	2417.25
465.065	2444.82
465.438	2469
465.81	2533.18
466.183	2544.93
466.555	2583.35
466.928	2577.02
467.3	2606.4
467.672	2633.52
468.045	2628.77
468.417	2714.19
468.789	2702.22
469.161	2704.7
469.534	2749.22
469.906	2801.42
470.278	2822.89
470.65	2864.92
471.022	2941.53
471.394	2942.21
471.766	2983.79
472.138	2993.73
472.51	3017.69
472.882	3061.53
473.253	3092.04
473.625	3154.86
473.997	3199.38
474.369	3240.51
474.74	3238.93
475.112	3298.59
475.484	3347.85
475.855	3396.21
476.227	3416.77
476.598	3503.55
476.97	3563.89
477.341	3599.59
477.713	3643.21
478.084	3659.03
478.455	3725.92
478.827	3741.06
479.198	3845.01
479.569	3823.77
479.94	3921.85
480.311	3934.73
480.682	4002.3
481.053	4081.39
481.424	4122.74
481.795	4138.56
482.166	4183.99
482.537	4235.28
482.908	4343.08
483.279	4342.4
483.65	4389.86
484.021	4496.75
484.391	4542.17
484.762	4539
485.133	4519.8
485.503	4581.49
485.874	4641.83
486.244	4699.9
486.615	4747.81
486.985	4815.61
487.356	4849.96
487.726	4918.66
488.097	4927.02
488.467	4972.89
488.837	5047.24
489.207	5073.91
489.578	5147.58
489.948	5158.65
490.318	5198.65
490.688	5192.32
491.058	5291.98
491.428	5344.41
491.798	5362.26
492.168	5419.66
492.538	5410.17
492.908	5468.02
493.278	5505.99
493.648	5479.32
494.017	5566.77
494.387	5598.86
494.757	5606.77
495.126	5631.86
495.496	5618.52
495.866	5657.39
496.235	5697.84
496.605	5766.32
496.974	5769.71
497.344	5792.08
497.713	5787.79
498.082	5792.76
498.452	5905.97
498.821	5830.5
499.19	5856.26
499.559	5911.62
499.928	5914.11
500.298	5917.05
500.667	5919.76
501.036	5955.24
501.405	5975.13
501.774	5983.26
502.143	6025.52
502.512	6044.95
502.88	6033.88
503.249	6104.84
503.618	6016.03
503.987	6099.42
504.356	6156.36
504.724	6155.91
505.093	6115.46
505.462	6151.62
505.83	6176.48
506.199	6150.94
506.567	6267.55
506.936	6248.79
507.304	6295.34
507.672	6296.7
508.041	6303.7
508.409	6334.66
508.777	6324.04
509.145	6381.44
509.514	6393.42
509.882	6425.51
510.25	6376.7
510.618	6442.68
510.986	6451.5
511.354	6461.21
511.722	6517.48
512.09	6517.03
512.458	6559.52
512.826	6554.77
513.193	6600.42
513.561	6589.57
513.929	6579.18
514.297	6651.49
514.664	6646.97
515.032	6661.21
515.4	6711.6
515.767	6670.02
516.135	6734.2
516.502	6667.99
516.869	6727.42
517.237	6733.98
517.604	6734.88
517.972	6797.02
518.339	6820.98
518.706	6829.79
519.073	6863.92
519.44	6863.69
519.808	6922.67
520.175	6867.76
520.542	6965.61
520.909	6916.8
521.276	6924.03
521.643	6999.05
522.009	7053.97
522.376	7079.28
522.743	7083.8
523.11	7131.48
523.477	7165.15
523.843	7171.93
524.21	7239.95
524.577	7248.99
524.943	7227.52
525.31	7291.93
525.676	7323.79
526.043	7336.9
526.409	7330.8
526.776	7401.98
527.142	7460.74
527.508	7513.39
527.874	7485.37
528.241	7573.5
528.607	7540.51
528.973	7543.9
529.339	7574.41
529.705	7627.51
530.071	7681.07
530.437	7660.28
530.803	7727.17
531.169	7750.67
531.535	7667.28
531.901	7780.73
532.267	7747.28
532.632	7800.39
532.998	7866.15
533.364	7884.68
533.73	7888.07
534.095	7924.45
534.461	7913.15
534.826	7918.13
535.192	7990.44
535.557	7997.67
535.923	7995.64
536.288	8014.17
536.653	8053.26
537.019	8036.77
537.384	8061.4
537.749	8147.5
538.114	8176.42
538.479	8139.59
538.845	8163.32
539.21	8122.41
539.575	8159.7
539.94	8236.53
540.305	8208.06
540.67	8187.27
541.034	8276.53
541.399	8293.26
541.764	8239.92
542.129	8336.19
542.494	8289.64
542.858	8367.15
543.223	8317.66
543.587	8408.51
543.952	8378.45
544.316	8412.35
544.681	8428.85
545.045	8399.92
545.41	8498.22
545.774	8526.7
546.138	8458.22
546.503	8477.66
546.867	8560.82
547.231	8540.26
547.595	8617.99
547.959	8602.4
548.324	8584.1
548.688	8653.92
549.052	8640.59
549.416	8630.65
549.779	8613.02
550.143	8620.48
550.507	8768.72
550.871	8679.01
551.235	8691.89
551.599	8776.86
551.962	8772.79
552.326	8797.42
552.689	8796.29
553.053	8727.82
553.417	8767.82
553.78	8873.81
554.143	8814.37
554.507	8850.76
554.87	8818.67
555.234	8877.87
555.597	8852.56
555.96	8893.47
556.323	8926.01
556.686	8890.08
557.05	9031.99
557.413	8991.09
557.776	8941.6
558.139	9066.34
558.502	9003.07
558.865	9083.74
559.228	9090.52
559.59	9100.01
559.953	9132.78
560.316	9159
560.679	9241.03
561.041	9187.02
561.404	9250.29
561.767	9281.93
562.129	9285.55
562.492	9327.58
562.854	9291.65
563.217	9264.76
563.579	9322.83
563.941	9357.86
564.304	9366
564.666	9423.17
565.028	9463.62
565.39	9471.98
565.753	9518.54
566.115	9581.36
566.477	9564.86
566.839	9540
567.201	9629.94
567.563	9616.84
567.925	9719.43
568.287	9747.46
568.648	9711.98
569.01	9809.6
569.372	9780.68
569.734	9817.06
570.095	9849.37
570.457	9877.85
570.819	9938.19
571.18	9896.38
571.542	9988.35
571.903	10009.6
572.265	9980.9
572.626	10040.1
572.987	10034.68
573.349	10158.29
573.71	10146.32
574.071	10040.33
574.432	10135.24
574.794	10175.92
575.155	10238.29
575.516	10097.95
575.877	10286.88
576.238	10259.31
576.599	10284.39
576.96	10270.38
577.32	10306.54
577.681	10335.46
578.042	10328.91
578.403	10377.72
578.763	10380.89
579.124	10464.05
579.485	10434.9
579.845	10530.03
580.206	10453.2
580.566	10437.15
580.927	10493.65
581.287	10547.89
581.648	10474.44
582.008	10632.86
582.368	10608.68
582.728	10663.59
583.089	10577.94
583.449	10582.24
583.809	10631.95
584.169	10570.03
584.529	10543.37
584.889	10716.02
585.249	10593.54
585.609	10610.94
585.969	10679.41
586.329	10616.13
586.688	10636.47
587.048	10625.4
587.408	10730.48
587.768	10624.04
588.127	10711.72
588.487	10656.58
588.846	10730.93
589.206	10664.04
589.565	10683.02
589.925	10709.01
590.284	10686.19
590.643	10766.19
591.003	10720.09
591.362	10766.19
591.721	10786.75
592.08	10768.45
592.44	10800.76
592.799	10796.69
593.158	10807.54
593.517	10847.54
593.876	10874.88
594.235	10748.79
594.593	10757.6
594.952	10861.1
595.311	10765.96
595.67	10795.56
596.029	10896.58
596.387	10845.28
596.746	10914.43
597.104	10848.9
597.463	10833.08
597.822	10885.05
598.18	10752.4
598.538	10857.71
598.897	10978.16
599.255	10879.86
599.613	10899.06
599.972	10840.99
600.33	10885.5
600.688	10890.25
601.046	10942.45
601.404	10997.14
601.762	10949.46
602.12	11035.78
602.478	10989.68
602.836	11039.62
603.194	10949.01
603.552	10961.21
603.91	10924.83
604.268	10984.49
604.625	10896.13
604.983	11018.38
605.341	11000.98
605.698	11027.2
606.056	10984.49
606.413	10998.95
606.771	11025.84
607.128	11042.56
607.485	11066.74
607.843	11048.66
608.2	11091.15
608.557	11107.42
608.914	11055.44
609.272	11125.72
609.629	11163.69
609.986	11171.15
610.343	11122.79
610.7	11159.4
611.057	11156.91
611.414	11188.55
611.771	11167.31
612.127	11247.98
612.484	11229.22
612.841	11283.01
613.198	11226.74
613.554	11220.64
613.911	11327.75
614.267	11298.15
614.624	11280.75
614.98	11323.91
615.337	11429.45
615.693	11404.81
616.05	11290.01
616.406	11361.2
616.762	11404.14
617.118	11398.03
617.475	11420.18
617.831	11414.08
618.187	11466.73
618.543	11443.68
618.899	11486.62
619.255	11466.73
619.611	11444.59
619.967	11468.09
620.323	11512.15
620.678	11438.48
621.034	11471.93
621.39	11452.5
621.746	11466.96
622.101	11604.81
622.457	11480.52
622.812	11554.87
623.168	11609.55
623.523	11542.66
623.879	11654.07
624.234	11563.23
624.589	11600.51
624.945	11674.86
625.3	11622.21
625.655	11547.41
626.01	11624.69
626.365	11654.52
626.72	11658.82
627.075	11670.34
627.43	11710.57
627.785	11594.86
628.14	11715.77
628.495	11654.75
628.85	11756.89
629.205	11702.88
629.559	11763.45
629.914	11708.76
630.269	11815.88
630.623	11763.67
630.978	11817.91
631.332	11830.56
631.687	11878.47
632.041	11772.71
632.396	11853.84
632.75	11842.09
633.104	11872.15
633.459	11761.87
633.813	11830.79
634.167	11778.14
634.521	11812.94
634.875	11948.75
635.229	11915.31
635.583	11760.51
635.937	11892.48
636.291	11843.22
636.645	11885.7
636.999	11885.25
637.352	11886.16
637.706	11905.59
638.06	11937.45
638.413	11907.4
638.767	11895.2
639.121	11870.34
639.474	11825.37
639.828	11908.98
640.181	11928.19
640.534	11939.49
640.888	11927.51
641.241	11942.2
641.594	11919.38
641.947	11957.34
642.301	11921.64
642.654	11911.24
643.007	12008.19
643.36	12034.63
643.713	11972.48
644.066	12063.33
644.419	11973.61
644.771	11933.84
645.124	11953.27
645.477	11898.59
645.83	11838.7
646.182	11813.62
646.535	11753.05
646.888	11798.48
647.24	11771.81
647.593	11844.58
647.945	11812.26
648.298	11785.37
648.65	11748.08
649.002	11657.69
649.355	11911.92
649.707	11862.43
650.059	11925.03
650.411	12128.18
650.763	12232.81
651.115	12295.41
651.467	12247.28
651.819	12356.88
652.171	12346.03
652.523	12276.2
652.875	12305.58
653.227	12202.31
653.578	12263.1
653.93	12324.79
654.282	12298.57
654.633	12310.33
654.985	12359.36
655.337	12296.54
655.688	12367.5
656.039	12409.76
656.391	12369.76
656.742	12379.48
657.094	12445.01
657.445	12490.66
657.796	12428.52
658.147	12413.15
658.498	12457.44
658.849	12464.67
659.2	12489.98
659.551	12395.07
659.902	12492.47
660.253	12473.03
660.604	12569.08
660.955	12461.28
661.306	12549.87
661.656	12460.6
662.007	12496.99
662.358	12531.56
662.708	12550.09
663.059	12522.52
663.409	12469.64
663.76	12562.75
664.11	12538.12
664.461	12541.96
664.811	12533.6
665.161	12557.33
665.511	12527.04
665.862	12512.13
666.212	12559.13
666.562	12544.44
666.912	12534.5
667.262	12535.4
667.612	12485.46
667.962	12542.86
668.312	12491.56
668.662	12551.22
669.011	12523.2
669.361	12334.28
669.711	12456.31
670.06	12394.17
670.41	12398.46
670.76	12297.9
671.109	12392.58
671.459	12439.14
671.808	12285.24
672.157	12403.88
672.507	12210.22
672.856	12369.76
673.205	12205.47
673.554	12259.48
673.904	12211.35
674.253	12270.78
674.602	12140.16
674.951	12028.98
675.3	12027.17
675.649	12193.94
675.998	12101.52
676.346	12064.23
676.695	12183.1
677.044	11988.98
677.393	12114.17
677.741	12033.5
678.09	12029.66
678.438	11983.78
678.787	12028.98
679.135	11943.33
679.484	11853.84
679.832	11932.93
680.181	11812.03
680.529	11835.31
680.877	11845.25
681.225	11874.18
681.573	11845.03
681.922	11755.09
682.27	11753.05
682.618	11719.83
682.966	11687.97
683.314	11708.76
683.661	11646.16
684.009	11640.97
684.357	11584.02
684.705	11565.94
685.053	11547.63
685.4	11566.84
685.748	11504.92
686.095	11512.38
686.443	11502.21
686.79	11467.41
687.138	11497.92
687.485	11476.68
687.832	11404.81
688.18	11402.33
688.527	11364.81
688.874	11278.26
689.221	11318.04
689.568	11257.47
689.915	11312.84
690.262	11391.48
690.609	11243.46
690.956	11213.86
691.303	11266.29
691.65	11134.31
691.997	11139.74
692.344	11138.15
692.69	11135.89
693.037	11174.99
693.383	11036.69
693.73	11069.68
694.077	11034.88
694.423	11039.4
694.769	11022.22
695.116	10998.5
695.462	10989
695.808	10951.04
696.155	10974.09
696.501	10879.4
696.847	10878.27
697.193	10801.44
697.539	10923.47
697.885	10859.74
698.231	10824.72
698.577	10840.53
698.923	10842.34
699.269	10730.48
699.614	10794.43
699.96	10687.54
700.306	10689.8
700.651	10755.11
700.997	10677.6
701.342	10704.72
701.688	10769.58
702.033	10634.44
702.379	10664.72
702.724	10574.55
703.069	10612.52
703.415	10520.32
703.76	10660.2
704.105	10640.54
704.45	10598.28
704.795	10581.56
705.14	10484.16
705.485	10513.76
705.83	10504.05
706.175	10532.07
706.52	10442.58
706.865	10507.66
707.209	10465.4
707.554	10420.88
707.899	10459.08
708.243	10444.61
708.588	10438.28
708.932	10412.97
709.277	10393.54
709.621	10414.56
709.966	10368.91
710.31	10350.83
710.654	10267.22
710.998	10276.26
711.342	10321.9
711.687	10339.3
712.031	10344.05
712.375	10295.01
712.719	10258.4
713.063	10299.53
713.407	10311.06
713.75	10247.56
714.094	10243.71
714.438	10257.95
714.782	10248.69
715.125	10219.08
715.469	10338.63
715.812	10258.4
716.156	10262.24
716.499	10212.3
716.843	10296.37
717.186	10245.07
717.53	10290.27
717.873	10222.02
718.216	10282.36
718.559	10185.18
718.902	10174.79
719.246	10226.09
719.589	10199.2
719.932	10096.37
720.275	10210.95
720.617	10110.84
720.96	10168.24
721.303	10217.73
721.646	10150.61
721.989	10119.88
722.331	10189.48
722.674	10123.04
723.016	10112.19
723.359	10129.37
723.701	10158.74
724.044	10139.31
724.386	10070.84
724.729	10139.54
725.071	10074.23
725.413	10109.48
725.755	10114.9
726.097	10027.22
726.439	10061.57
726.782	10137.95
727.124	10241.23
727.465	10104.51
727.807	10156.48
728.149	10114
728.491	10035.13
728.833	10162.59
729.175	10095.24
729.516	10164.85
729.858	10099.99
730.199	10150.38
730.541	10140.89
730.882	10118.29
731.224	10173.43
731.565	10111.06
731.906	10143.38
732.248	10128.46
732.589	10196.94
732.93	10144.73
733.271	10157.39
733.612	10197.84
733.953	10180.66
734.294	10176.6
734.635	10137.05
734.976	10241.68
735.317	10215.47
735.658	10225.18
735.999	10220.21
736.339	10208.01
736.68	10229.7
737.021	10247.1
737.361	10196.26
737.702	10313.54
738.042	10383.15
738.383	10267.67
738.723	10361.45
739.063	10356.03
739.404	10309.7
739.744	10424.05
740.084	10446.42
740.424	10343.37
740.764	10379.53
741.104	10459.53
741.444	10502.69
741.784	10495.46
742.124	10556.47
742.464	10551.73
742.804	10499.3
743.143	10533.2
743.483	10538.85
743.823	10565.06
744.162	10570.71
744.502	10654.1
744.841	10626.3
745.181	10655
745.52	10642.57
745.86	10680.54
746.199	10731.61
746.538	10784.49
746.877	10818.39
747.216	10898.16
747.556	10835.11
747.895	10835.34
748.234	10829.01
748.573	10923.7
748.911	10927.99
749.25	11005.28
749.589	10914.88
749.928	11034.2
750.267	11053.18
750.605	11071.26
750.944	11135.44
751.283	11165.72
751.621	11137.93
751.96	11066.52
752.298	11111.94
752.636	11213.18
752.975	11189.68
753.313	11215.21
753.651	11404.81
753.989	11313.29
754.327	11350.8
754.666	11326.17
755.004	11394.19
755.342	11492.49
755.679	11377.92
756.017	11414.98
756.355	11507.18
756.693	11531.59
757.031	11589.22
757.368	11490.46
757.706	11509.44
758.044	11552.38
758.381	11528.88
758.719	11569.1
759.056	11679.16
759.394	11685.03
759.731	11571.81
760.068	11625.37
760.405	11680.51
760.743	11646.16
761.08	11758.48
761.417	11659.27
761.754	11652.72
762.091	11720.51
762.428	11720.96
762.765	11728.42
763.102	11812.94
763.438	11791.47
763.775	11775.88
764.112	11791.02
764.449	11822.88
764.785	11874.18
765.122	11800.06
765.458	11824.69
765.795	11868.3
766.131	11913.5
766.467	11888.42
766.804	11850.45
767.14	11816.33
767.476	11857.91
767.812	11904.46
768.148	11896.55
768.485	11877.12
768.821	11826.27
769.157	11896.55
769.492	11886.83
769.828	11888.87
770.164	11840.06
770.5	11880.73
770.836	11937
771.171	11845.25
771.507	11911.47
771.842	11885.7
772.178	11907.85
772.513	11908.08
772.849	11935.65
773.184	11894.07
773.519	11914.4
773.855	11955.99
774.19	11905.14
774.525	11950.56
774.86	11898.36
775.195	11851.81
775.53	11871.24
775.865	11875.31
776.2	11763.45
776.535	11762.54
776.87	11723.45
777.205	11683.68
777.539	11714.18
777.874	11781.75
778.209	11804.35
778.543	11779.94
778.878	11759.38
779.212	11734.75
779.547	11738.36
779.881	11768.19
780.215	11729.78
780.55	11853.16
780.884	11816.33
781.218	11777.91
781.552	11751.47
781.886	11738.14
782.22	11707.63
782.554	11653.62
782.888	11636.67
783.222	11605.26
783.556	11599.16
783.889	11627.63
784.223	11562.78
784.557	11610.91
784.89	11592.15
785.224	11607.52
785.557	11573.62
785.891	11570.68
786.224	11586.5
786.558	11569.55
786.891	11497.24
787.224	11521.87
787.557	11428.09
787.891	11450.24
788.224	11498.37
788.557	11417.47
788.89	11455.66
789.223	11541.98
789.556	11458.15
789.888	11406.17
790.221	11399.84
790.554	11347.41
790.887	11411.59
791.219	11329.11
791.552	11359.84
791.884	11362.1
792.217	11334.31
792.549	11295.66
792.882	11218.6
793.214	11264.25
793.546	11333.4
793.879	11230.13
794.211	11187.87
794.543	11274.42
794.875	11187.19
795.207	11290.69
795.539	11228.32
795.871	11160.3
796.203	11173.18
796.535	11107.87
796.867	11096.35
797.198	11068.1
797.53	11149.45
797.862	11014.09
798.193	11088.21
798.525	11036.46
798.856	11054.99
799.188	11055.44
799.519	10929.35
799.85	10924.15
800.182	10941.55
800.513	11000.98
800.844	10947.88
801.175	10938.84
801.506	10924.15
801.837	10920.31
802.168	10926.41
802.499	10923.92
802.83	10821.55
803.161	10810.93
803.491	10914.66
803.822	10846.18
804.153	10809.12
804.483	10706.53
804.814	10720.76
805.145	10652.06
805.475	10727.32
805.805	10788.56
806.136	10659.07
806.466	10697.49
806.796	10666.08
807.126	10604.83
807.457	10614.1
807.787	10646.41
808.117	10599.86
808.447	10561.22
808.777	10610.48
809.107	10644.38
809.436	10590.37
809.766	10538.85
810.096	10554.21
810.426	10514.89
810.755	10494.55
811.085	10457.95
811.414	10499.75
811.744	10379.3
812.073	10422.69
812.403	10447.1
812.732	10375.01
813.061	10449.58
813.39	10367.55
813.719	10365.97
814.049	10397.16
814.378	10322.13
814.707	10331.4
815.036	10276.71
815.365	10256.14
815.693	10184.28
816.022	10220.66
816.351	10248.69
816.68	10139.31
817.008	10204.84
817.337	10158.74
817.665	10092.53
817.994	10150.83
818.322	10155.81
818.651	10110.84
818.979	10106.09
819.307	10169.82
819.636	10091.85
819.964	9984.29
820.292	10154.22
820.62	10050.05
820.948	10051.85
821.276	10068.58
821.604	10010.95
821.932	10097.28
822.259	10066.54
822.587	10074.9
822.915	9997.39
823.243	10089.82
823.57	10110.84
823.898	10084.62
824.225	10058.63
824.553	10018.41
824.88	10045.3
825.207	10099.54
825.535	10136.15
825.862	10097.73
826.189	10056.83
826.516	10133.21
826.843	10143.15
827.17	10172.3
827.497	10128.46
827.824	10188.57
828.151	10147.9
828.478	10197.61
828.805	10173.21
829.131	10161.46
829.458	10176.82
829.785	10118.52
830.111	10069.93
830.438	10262.24
830.764	10140.67
831.09	10174.79
831.417	10119.2
831.743	10155.58
832.069	10216.82
832.395	10160.1
832.722	10231.06
833.048	10187.44
833.374	10111.29
833.7	10124.39
834.026	10107.22
834.351	10194
834.677	10081.46
835.003	10190.83
835.329	10116.49
835.654	10146.32
835.98	10092.98
836.306	10083.94
836.631	10149.03
836.956	10114.68
837.282	10105.86
837.607	10093.44
837.932	10062.7
838.258	10023.83
838.583	10071.06
838.908	10001.69
839.233	10035.58
839.558	9975.7
839.883	9984.96
840.208	9906.32
840.533	9944.29
840.858	9953.33
841.182	9911.07
841.507	9909.49
841.832	9886.43
842.156	9907.23
842.481	9888.92
842.805	9869.03
843.13	9838.75
843.454	9833.55
843.778	9820.45
844.103	9757.17
844.427	9692.32
844.751	9784.74
845.075	9767.57
845.399	9732.99
845.723	9649.83
846.047	9655.03
846.371	9608.93
846.695	9589.95
847.019	9476.05
847.343	9498.2
847.666	9422.04
847.99	9411.42
848.313	9422.49
848.637	9380.69
848.96	9315.15
849.284	9357.41
849.607	9230.41
849.931	9201.03
850.254	9198.32
850.577	9236.28
850.9	9104.31
851.223	9063.63
851.546	9097.98
851.869	9048.04
852.192	9008.27
852.515	8931.88
852.838	8903.18
853.161	8905.67
853.483	8889.63
853.806	8817.76
854.129	8790.42
854.451	8828.38
854.774	8752.23
855.096	8787.71
855.419	8660.03
855.741	8766.69
856.063	8653.47
856.385	8675.17
856.708	8611.21
857.03	8561.95
857.352	8620.93
857.674	8553.59
857.996	8535.06
858.318	8542.74
858.64	8517.88
858.961	8482.86
859.283	8380.26
859.605	8454.83
859.926	8418.68
860.248	8414.38
860.57	8446.25
860.891	8371.9
861.212	8315.4
861.534	8321.5
861.855	8270.21
862.176	8276.53
862.498	8339.58
862.819	8300.04
863.14	8211.9
863.461	8251.9
863.782	8242.18
864.103	8233.37
864.424	8265.69
864.745	8195.86
865.065	8190.43
865.386	8180.72
865.707	8158.12
866.027	8112.24
866.348	8082.41
866.668	8140.27
866.989	8070.44
867.309	8073.38
867.63	8076.77
867.95	8078.8
868.27	7958.8
868.59	8030.66
868.91	8042.87
869.23	7978.24
869.55	7961.06
869.87	8016.2
870.19	7943.44
870.51	7954.28
870.83	7982.76
871.15	7912.02
871.469	7918.8
871.789	7959.93
872.109	7951.57
872.428	7910.89
872.748	7945.02
873.067	7911.35
873.386	7925.13
873.706	7873.15
874.025	7835.64
874.344	7853.49
874.663	7824.34
874.982	7792.25
875.301	7824.79
875.62	7798.35
875.939	7799.48
876.258	7778.02
876.577	7720.16
876.896	7721.97
877.214	7686.72
877.533	7662.31
877.852	7682.65
878.17	7664.35
878.489	7646.72
878.807	7683.78
879.125	7658.02
879.444	7673.39
879.762	7627.06
880.08	7590
880.398	7598.81
880.716	7708.87
881.034	7609.66
881.352	7628.64
881.67	7533.95
881.988	7571.92
882.306	7519.72
882.624	7514.29
882.941	7508.64
883.259	7498.02
883.577	7486.05
883.894	7459.61
884.212	7441.75
884.529	7440.4
884.846	7406.5
885.164	7386.39
885.481	7374.18
885.798	7380.06
886.115	7320.63
886.432	7317.01
886.75	7282.89
887.067	7340.29
887.383	7288.09
887.7	7255.09
888.017	7198.82
888.334	7206.28
888.651	7171.93
888.967	7232.27
889.284	7154.76
889.6	7119.73
889.917	7105.94
890.233	7119.5
890.55	7126.51
890.866	7126.06
891.182	7038.83
891.498	7025.04
891.815	7031.59
892.131	6999.96
892.447	6998.15
892.763	6943.46
893.079	6975.1
893.395	6850.81
893.71	6907.08
894.026	6833.63
894.342	6880.86
894.657	6854.42
894.973	6850.58
895.289	6802.22
895.604	6753.86
895.92	6680.64
896.235	6731.26
896.55	6682.23
896.865	6685.84
897.181	6712.28
897.496	6642.68
897.811	6606.3
898.126	6573.75
898.441	6565.62
898.756	6604.26
899.071	6478.61
899.386	6533.98
899.7	6461.89
900.015	6496.24
900.33	6443.81
900.644	6361.33
900.959	6380.09
901.273	6406.53
901.588	6355.45
901.902	6388.45
902.216	6279.75
902.531	6294.44
902.845	6307.32
903.159	6224.61
903.473	6218.96
903.787	6219.86
904.101	6197.94
904.415	6189.13
904.729	6150.94
905.042	6118.62
905.356	6123.6
905.67	6044.5
905.984	6113.2
906.297	6041.56
906.611	6017.61
906.924	5970.61
907.237	5975.8
907.551	6011.51
907.864	5960.66
908.177	5908.01
908.491	5937.16
908.804	5919.76
909.117	5822.14
909.43	5806.54
909.743	5787.33
910.056	5809.71
910.368	5742.82
910.681	5696.04
910.994	5694
911.307	5647.45
911.619	5673.89
911.932	5648.13
912.244	5638.86
912.557	5641.8
912.869	5620.78
913.181	5579.88
913.494	5530.62
913.806	5514.8
914.118	5545.98
914.43	5483.61
914.742	5498.3
915.054	5386.67
915.366	5376.05
915.678	5398.19
915.99	5358.19
916.302	5345.09
916.613	5314.8
916.925	5303.73
917.236	5279.1
917.548	5288.59
917.859	5234.35
918.171	5198.2
918.482	5216.28
918.794	5164.53
919.105	5182.38
919.416	5135.83
919.727	5108.03
920.038	5105.77
920.349	5069.39
920.66	5009.5
920.971	5007.92
921.282	5049.5
921.593	4976.06
921.903	4972.44
922.214	4958.65
922.525	4953.91
922.835	4887.7
923.146	4938.09
923.456	4827.81
923.767	4837.75
924.077	4846.57
924.387	4812.67
924.697	4771.77
925.008	4734.03
925.318	4720.92
925.628	4740.13
925.938	4722.73
926.248	4682.05
926.558	4644.99
926.867	4653.8
927.177	4641.83
927.487	4625.56
927.796	4591.88
928.106	4567.25
928.416	4532.9
928.725	4551.66
929.034	4487.25
929.344	4511.21
929.653	4502.85
929.962	4432.79
930.271	4435.73
930.581	4432.79
930.89	4429.63
931.199	4398.44
931.508	4360.7
931.817	4344.43
932.125	4326.81
932.434	4302.85
932.743	4248.17
933.051	4301.5
933.36	4287.26
933.669	4225.34
933.977	4231.44
934.286	4180.82
934.594	4227.37
934.902	4135.63
935.21	4110.32
935.519	4160.94
935.827	4134.72
936.135	4113.03
936.443	4047.49
936.751	4040.94
937.059	4062.41
937.367	4016.76
937.674	4042.52
937.982	4038.23
938.29	4002.97
938.597	4021.5
938.905	3985.35
939.213	3938.57
939.52	3904.22
939.827	3925.91
940.135	3918
940.442	3875.07
940.749	3891.11
941.056	3868.74
941.363	3853.83
941.67	3865.8
941.977	3839.14
942.284	3789.42
942.591	3794.84
942.898	3787.16
943.205	3779.48
943.511	3758.01
943.818	3726.14
944.125	3708.07
944.431	3689.76
944.738	3669.42
945.044	3660.38
945.35	3647.73
945.657	3637.56
945.963	3607.96
946.269	3593.49
946.575	3609.76
946.881	3552.82
947.187	3525.25
947.493	3525.47
947.799	3523.66
948.105	3533.16
948.41	3504.68
948.716	3499.03
949.022	3460.62
949.327	3425.14
949.633	3424.68
949.938	3431.01
950.244	3437.11
950.549	3377.23
950.854	3377.68
951.16	3371.8
951.465	3372.48
951.77	3359.37
952.075	3296.78
952.38	3296.1
952.685	3319.83
952.99	3247.97
953.294	3268.98
953.599	3234.41
953.904	3258.81
954.209	3213.84
954.513	3210.23
954.818	3215.65
955.122	3220.4
955.426	3168.19
955.731	3170.45
956.035	3146.73
956.339	3116.22
956.643	3148.31
956.948	3156.44
957.252	3076.67
957.556	3077.12
957.86	3100.85
958.163	3102.66
958.467	3013.62
958.771	3045.48
959.075	3055.88
959.378	3001.87
959.682	3002.1
959.985	3006.62
960.289	2948.31
960.592	2941.08
960.896	2925.71
961.199	2923.23
961.502	2930.46
961.805	2911.03
962.108	2899.5
962.411	2878.71
962.714	2824.47
963.017	2836.22
963.32	2883.23
963.623	2836.9
963.926	2846.39
964.228	2810.69
964.531	2782.44
964.833	2772.72
965.136	2766.85
965.438	2751.48
965.741	2749.22
966.043	2775.66
966.345	2746.74
966.648	2733.18
966.95	2764.59
967.252	2663.57
967.554	2667.64
967.856	2681.88
968.158	2671.94
968.46	2656.12
968.761	2637.59
969.063	2618.6
969.365	2611.37
969.666	2610.69
969.968	2602.11
970.269	2568.44
970.571	2585.61
970.872	2558.49
971.174	2508.78
971.475	2551.94
971.776	2528.44
972.077	2539.51
972.378	2498.15
972.679	2529.57
972.98	2495.22
973.281	2485.73
973.582	2466.29
973.883	2471.49
974.183	2459.29
974.484	2449.79
974.785	2436.91
975.085	2431.94
975.386	2439.4
975.686	2395.56
975.986	2400.08
976.287	2401.21
976.587	2371.38
976.887	2364.37
977.187	2360.53
977.487	2345.62
977.787	2348.55
978.087	2318.95
978.387	2313.53
978.687	2280.76
978.987	2263.58
979.286	2271.49
979.586	2277.6
979.885	2251.16
980.185	2222.46
980.484	2215.9
980.784	2260.19
981.083	2250.25
981.382	2255.22
981.682	2201.44
981.981	2196.69
982.28	2196.47
982.579	2154.43
982.878	2169.35
983.177	2195.11
983.475	2155.11
983.774	2158.73
984.073	2120.31
984.372	2141.55
984.67	2119.41
984.969	2115.34
985.267	2142.91
985.566	2111.5
985.864	2085.51
986.162	2063.36
986.461	2026.98
986.759	2054.55
987.057	2009.35
987.355	2075.57
987.653	2050.93
987.951	2009.58
988.249	1984.27
988.547	1999.86
988.844	1984.72
989.142	2025.4
989.44	1961.45
989.737	2001.44
990.035	1966.42
990.332	1950.6
990.63	1932.52
990.927	1957.15
991.224	1905.18
991.521	1916.48
991.819	1899.3
992.116	1893.65
992.413	1875.8
992.71	1886.65
993.006	1862.69
993.303	1870.6
993.6	1848.45
993.897	1875.57
994.193	1826.53
994.49	1830.83
994.787	1836.48
995.083	1784.05
995.379	1806.2
995.676	1770.04
995.972	1821.11
996.268	1774.56
996.565	1754.9
996.861	1762.81
997.157	1740.43
997.453	1716.48
997.749	1728.68
998.044	1749.93
998.34	1729.81
998.636	1708.34
998.932	1734.78
999.227	1674.67
999.523	1693.43
999.818	1683.03
1000.114	1675.8
1000.409	1661.79
1000.704	1677.16
1001	1665.18
1001.295	1631.96
1001.59	1631.74
1001.885	1598.07
1002.18	1592.42
1002.475	1614.11
1002.77	1589.7
1003.065	1577.27
1003.359	1576.14
1003.654	1569.14
1003.949	1570.27
1004.243	1584.96
1004.538	1523.27
1004.832	1549.71
1005.127	1570.72
1005.421	1517.16
1005.715	1481.68
1006.009	1512.87
1006.304	1515.36
1006.598	1481.46
1006.892	1478.52
1007.186	1468.58
1007.48	1479.65
1007.773	1459.54
1008.067	1432.65
1008.361	1465.19
1008.655	1434
1008.948	1438.75
1009.242	1419.54
1009.535	1426.77
1009.829	1400.78
1010.122	1398.3
1010.415	1371.63
1010.708	1370.73
1011.001	1390.61
1011.295	1368.01
1011.588	1343.61
1011.881	1352.2
1012.173	1333.21
1012.466	1353.78
1012.759	1352.87
1013.052	1327.79
1013.344	1321.24
1013.637	1319.2
1013.93	1298.64
1014.222	1309.03
1014.514	1289.82
1014.807	1285.98
1015.099	1324.63
1015.391	1295.7
1015.683	1282.37
1015.976	1271.07
1016.268	1238.98
1016.56	1248.92
1016.851	1216.83
1017.143	1220.67
1017.435	1205.53
1017.727	1230.39
1018.018	1206.89
1018.31	1200.11
1018.602	1169.83
1018.893	1179.09
1019.185	1168.7
1019.476	1156.72
1019.767	1158.08
1020.058	1161.47
1020.35	1156.95
1020.641	1143.16
1020.932	1152.65
1021.223	1120.56
1021.514	1143.39
1021.804	1121.92
1022.095	1109.26
1022.386	1103.62
1022.677	1079.66
1022.967	1082.15
1023.258	1100.68
1023.548	1095.48
1023.839	1046.89
1024.129	1073.11
1024.419	1067.01
1024.709	1034.69
1025	1055.03
1025.29	1051.19
1025.58	1058.42
1025.87	1007.57
1026.16	1008.7
1026.449	1018.87
1026.739	1007.35
1027.029	998.53
1027.319	997.86
1027.608	998.31
1027.898	1019.1
1028.187	983.62
1028.477	970.06
1028.766	976.39
1029.055	963.05
1029.344	937.52
1029.634	951.3
1029.923	937.07
1030.212	949.72
1030.501	931.19
1030.79	912.66
1031.078	940.68
1031.367	908.59
1031.656	915.82
1031.945	902.94
1032.233	904.98
1032.522	894.58
1032.81	865.88
1033.099	902.49
1033.387	879.89
1033.675	871.76
1033.963	858.42
1034.251	880.8
1034.54	886.22
1034.828	835.15
1035.116	862.72
1035.403	855.94
1035.691	815.94
1035.979	839.22
1036.267	835.15
1036.554	824.53
1036.842	825.66
1037.129	809.16
1037.417	807.8
1037.704	807.8
1037.992	816.39
1038.279	798.99
1038.566	787.47
1038.853	787.47
1039.14	787.47
