Data from blue_chair_FLMS001491_00072.txt Node
Date: Wed Feb 08 10:31:44 GMT 2017
User: dcchb
Spectrometer: FLMS00149
Trigger mode: 0
Integration Time (sec): 2.000000E-2
Scans to average: 10
Electric dark correction enabled: true
Nonlinearity correction enabled: false
Boxcar width: 0
XAxis mode: Wavelengths
Number of Pixels in Spectrum: 2048
>>>>>Begin Spectral Data<<<<<
341.393	-5.75
341.776	-5.75
342.16	-5.75
342.543	-55.46
342.927	-46.88
343.31	-76.26
343.693	-52.3
344.077	-72.87
344.46	-50.49
344.843	-71.28
345.226	-41.45
345.61	-33.32
345.993	-6.2
346.376	-5.75
346.759	19.34
347.142	30.18
347.525	55.72
347.908	46.23
348.291	61.82
348.674	91.42
349.057	105.21
349.44	114.93
349.823	140.46
350.206	142.27
350.588	175.94
350.971	195.38
351.354	219.33
351.737	209.84
352.119	214.81
352.502	230.86
352.884	236.51
353.267	249.16
353.65	283.74
354.032	264.53
354.414	281.25
354.797	278.99
355.179	287.8
355.562	295.94
355.944	297.52
356.326	318.08
356.709	283.96
357.091	319.21
357.473	317.63
357.855	305.43
358.238	283.28
358.62	298.88
359.002	302.04
359.384	306.33
359.766	323.51
360.148	310.63
360.53	321.93
360.912	308.59
361.294	318.76
361.676	309.27
362.057	285.32
362.439	283.51
362.821	297.97
363.203	309.5
363.584	292.32
363.966	300.46
364.348	289.84
364.729	301.59
365.111	296.39
365.493	279.44
365.874	293
366.256	284.64
366.637	270.18
367.019	274.24
367.4	285.54
367.781	296.16
368.163	279.67
368.544	294.81
368.925	263.85
369.306	270.4
369.688	283.96
370.069	297.52
370.45	304.07
370.831	274.92
371.212	307.92
371.593	276.05
371.974	274.7
372.355	275.6
372.736	291.42
373.117	281.93
373.498	283.06
373.879	278.99
374.26	282.15
374.641	271.76
375.021	275.15
375.402	270.63
375.783	288.48
376.163	282.38
376.544	291.19
376.925	286
377.305	300.01
377.686	283.28
378.066	290.74
378.447	283.74
378.827	300.01
379.208	317.41
379.588	268.59
379.968	305.66
380.349	288.26
380.729	285.54
381.109	283.96
381.489	291.64
381.87	287.35
382.25	296.39
382.63	301.81
383.01	301.59
383.39	299.1
383.77	273.34
384.15	257.3
384.53	285.77
384.91	299.1
385.29	291.42
385.67	310.18
386.049	299.55
386.429	314.92
386.809	313.34
387.189	292.1
387.568	298.88
387.948	303.17
388.328	318.99
388.707	315.37
389.087	310.4
389.466	291.19
389.846	306.33
390.225	276.73
390.605	305.88
390.984	325.32
391.363	323.96
391.743	309.27
392.122	308.37
392.501	314.24
392.881	319.89
393.26	306.11
393.639	309.95
394.018	316.5
394.397	325.54
394.776	316.05
395.155	321.02
395.534	314.47
395.913	315.37
396.292	309.5
396.671	315.37
397.05	335.26
397.429	314.24
397.808	323.06
398.186	317.41
398.565	322.15
398.944	331.64
399.323	329.61
399.701	313.57
400.08	302.27
400.458	323.51
400.837	323.51
401.215	313.11
401.594	302.04
401.972	327.12
402.351	321.25
402.729	329.16
403.107	334.36
403.486	332.77
403.864	341.14
404.242	345.2
404.62	343.85
404.999	345.88
405.377	345.88
405.755	350.63
406.133	340.01
406.511	340.23
406.889	342.04
407.267	339.55
407.645	351.3
408.023	369.38
408.401	366.67
408.779	349.72
409.156	334.58
409.534	358.54
409.912	361.02
410.29	353.11
410.667	369.83
411.045	370.29
411.422	370.29
411.8	371.87
412.178	369.16
412.555	352.66
412.933	389.95
413.31	380.46
413.687	378.65
414.065	394.69
414.442	376.61
414.819	381.36
415.197	367.58
415.574	376.16
415.951	389.5
416.328	398.08
416.705	384.3
417.082	394.02
417.46	375.26
417.837	383.85
418.214	379.33
418.591	409.16
418.967	380.68
419.344	393.56
419.721	402.83
420.098	392.66
420.475	393.56
420.852	393.79
421.228	386.11
421.605	410.06
421.982	413.45
422.358	394.92
422.735	399.89
423.111	402.38
423.488	411.42
423.864	437.63
424.241	423.17
424.617	425.65
424.994	431.75
425.37	456.61
425.746	430.62
426.123	443.05
426.499	433.79
426.875	454.35
427.251	430.4
427.627	454.13
428.003	457.06
428.379	457.74
428.756	465.2
429.132	419.55
429.507	452.77
429.883	479.44
430.259	444.18
430.635	461.81
431.011	445.54
431.387	463.17
431.763	469.95
432.138	471.75
432.514	471.98
432.89	486.22
433.265	493.67
433.641	495.03
434.016	499.55
434.392	477.4
434.767	505.2
435.143	486.22
435.518	524.41
435.894	517.18
436.269	526.21
436.644	532.77
437.02	515.14
437.395	533.45
437.77	532.99
438.145	525.54
438.52	549.94
438.895	547.01
439.271	550.17
439.646	575.48
440.021	589.04
440.395	562.82
440.77	584.29
441.145	569.15
441.52	586.1
441.895	586.33
442.27	572.09
442.645	581.81
443.019	601.47
443.394	618.19
443.769	599.43
444.143	623.16
444.518	622.26
444.892	603.28
445.267	608.7
445.641	622.48
446.016	610.51
446.39	616.61
446.764	636.72
447.139	616.61
447.513	633.56
447.887	629.04
448.262	644.18
448.636	650.96
449.01	641.24
449.384	658.19
449.758	651.64
450.132	664.29
450.506	665.65
450.88	653.9
451.254	648.92
451.628	662.26
452.002	701.58
452.376	662.71
452.75	675.36
453.123	704.52
453.497	687.11
453.871	690.5
454.244	678.53
454.618	677.4
454.992	695.48
455.365	686.89
455.739	722.59
456.112	718.75
456.486	723.72
456.859	733.89
457.232	733.22
457.606	723.27
457.979	739.32
458.352	754.46
458.725	731.63
459.099	779.77
459.472	749.03
459.845	771.86
460.218	768.24
460.591	779.09
460.964	776.6
461.337	783.61
461.71	776.15
462.083	800.33
462.456	783.16
462.829	815.25
463.201	819.09
463.574	801.69
463.947	805.98
464.32	811.18
464.692	820.67
465.065	845.75
465.438	811.41
465.81	838.98
466.183	841.69
466.555	846.21
466.928	877.62
467.3	869.03
467.672	872.42
468.045	861.57
468.417	872.19
468.789	893.44
469.161	878.52
469.534	887.34
469.906	911.97
470.278	904.28
470.65	891.86
471.022	916.04
471.394	942.7
471.766	925.75
472.138	947.22
472.51	972.53
472.882	949.71
473.253	974.11
473.625	983.83
473.997	1005.07
474.369	961.46
474.74	979.99
475.112	1007.33
475.484	1030.38
475.855	1042.36
476.227	1000.1
476.598	1045.98
476.97	1052.08
477.341	1051.17
477.713	1081
478.084	1067.22
478.455	1081.68
478.827	1101.57
479.198	1109.25
479.569	1097.5
479.94	1131.4
480.311	1144.05
480.682	1135.46
481.053	1148.57
481.424	1144.28
481.795	1172.53
482.166	1170.49
482.537	1189.7
482.908	1182.69
483.279	1188.8
483.65	1203.94
484.021	1201
484.391	1214.56
484.762	1226.99
485.133	1229.25
485.503	1233.09
485.874	1238.74
486.244	1248.68
486.615	1275.35
486.985	1243.26
487.356	1285.97
487.726	1275.57
488.097	1291.39
488.467	1309.02
488.837	1325.74
489.207	1304.95
489.578	1322.8
489.948	1299.53
490.318	1309.25
490.688	1325.97
491.058	1339.98
491.428	1322.35
491.798	1341.33
492.168	1346.31
492.538	1364.16
492.908	1372.75
493.278	1335.91
493.648	1339.3
494.017	1375.46
494.387	1387.66
494.757	1377.94
495.126	1357.38
495.496	1373.88
495.866	1371.16
496.235	1371.16
496.605	1389.02
496.974	1389.92
497.344	1361.45
497.713	1375.68
498.082	1381.33
498.452	1368.9
498.821	1363.26
499.19	1368
499.559	1414.33
499.928	1382.24
500.298	1372.75
500.667	1382.46
501.036	1398.28
501.405	1365.51
501.774	1365.97
502.143	1353.31
502.512	1360.32
502.88	1365.29
503.249	1338.85
503.618	1347.66
503.987	1367.32
504.356	1368.45
504.724	1373.42
505.093	1368
505.462	1361.22
505.83	1359.87
506.199	1345.18
506.567	1356.25
506.936	1373.42
507.304	1379.3
507.672	1379.3
508.041	1331.17
508.409	1339.07
508.777	1339.53
509.145	1341.79
509.514	1343.82
509.882	1360.32
510.25	1344.05
510.618	1349.47
510.986	1330.04
511.354	1350.6
511.722	1344.72
512.09	1354.44
512.458	1326.87
512.826	1345.18
513.193	1341.33
513.561	1324.39
513.929	1323.93
514.297	1343.14
514.664	1311.28
515.032	1336.59
515.4	1329.58
515.767	1315.8
516.135	1326.87
516.502	1301.79
516.869	1301.79
517.237	1316.93
517.604	1294.33
517.972	1304.05
518.339	1323.03
518.706	1294.78
519.073	1298.62
519.44	1278.51
519.808	1272.64
520.175	1292.75
520.542	1283.48
520.909	1272.86
521.276	1241.22
521.643	1266.31
522.009	1268.79
522.376	1262.92
522.743	1282.81
523.11	1268.34
523.477	1277.83
523.843	1267.89
524.21	1264.5
524.577	1273.99
524.943	1271.51
525.31	1254.78
525.676	1281.22
526.043	1250.26
526.409	1279.42
526.776	1286.87
527.142	1244.84
527.508	1258.17
527.874	1247.1
528.241	1257.95
528.607	1236.25
528.973	1252.3
529.339	1268.79
529.705	1252.07
530.071	1245.29
530.437	1249.81
530.803	1265.86
531.169	1280.55
531.535	1238.06
531.901	1235.35
532.267	1255.91
532.632	1263.14
532.998	1259.76
533.364	1258.63
533.73	1234.44
534.095	1236.7
534.461	1256.82
534.826	1245.97
535.192	1254.33
535.557	1287.32
535.923	1232.64
536.288	1261.11
536.653	1265.86
537.019	1268.12
537.384	1246.65
537.749	1224.5
538.114	1222.92
538.479	1251.62
538.845	1260.88
539.21	1237.16
539.575	1238.96
539.94	1236.48
540.305	1225.18
540.67	1251.39
541.034	1262.01
541.399	1216.37
541.764	1206.2
542.129	1224.5
542.494	1228.12
542.858	1260.43
543.223	1230.83
543.587	1244.16
543.952	1226.54
544.316	1222.69
544.681	1200.77
545.045	1208
545.41	1199.19
545.774	1209.36
546.138	1223.15
546.503	1196.03
546.867	1206.65
547.231	1209.36
547.595	1196.03
547.959	1206.42
548.324	1202.13
548.688	1203.49
549.052	1183.6
549.416	1198.97
549.779	1207.78
550.143	1189.7
550.507	1183.82
550.871	1171.62
551.235	1172.98
551.599	1189.47
551.962	1187.44
552.326	1180.66
552.689	1180.21
553.053	1178.4
553.417	1206.42
553.78	1193.77
554.143	1181.34
554.507	1198.74
554.87	1177.05
555.234	1176.82
555.597	1184.28
555.96	1145.63
556.323	1184.28
556.686	1174.56
557.05	1181.34
557.413	1191.06
557.776	1166.42
558.139	1172.3
558.502	1162.81
558.865	1152.19
559.228	1168.01
559.59	1160.55
559.953	1156.25
560.316	1190.6
560.679	1146.54
561.041	1151.74
561.404	1175.24
561.767	1187.44
562.129	1168.23
562.492	1171.62
562.854	1186.99
563.217	1189.7
563.579	1173.43
563.941	1184.05
564.304	1175.46
564.666	1177.27
565.028	1191.51
565.39	1168.01
565.753	1154.45
566.115	1177.95
566.477	1193.09
566.839	1242.81
567.201	1197.61
567.563	1203.71
567.925	1215.91
568.287	1196.03
568.648	1200.55
569.01	1203.26
569.372	1207.78
569.734	1198.97
570.095	1190.38
570.457	1235.35
570.819	1212.3
571.18	1231.96
571.542	1220.89
571.903	1205.29
572.265	1216.59
572.626	1236.03
572.987	1235.57
573.349	1228.34
573.71	1236.93
574.071	1229.02
574.432	1253.2
574.794	1252.75
575.155	1247.33
575.516	1267.66
575.877	1261.34
576.238	1250.49
576.599	1260.66
576.96	1267.44
577.32	1266.99
577.681	1260.43
578.042	1254.11
578.403	1252.52
578.763	1284.39
579.124	1282.35
579.485	1256.14
579.845	1287.55
580.206	1322.13
580.566	1296.59
580.927	1285.52
581.287	1305.86
581.648	1315.8
582.008	1284.84
582.368	1308.12
582.728	1310.38
583.089	1297.04
583.449	1293.65
583.809	1318.06
584.169	1283.71
584.529	1297.95
584.889	1297.95
585.249	1303.37
585.609	1310.15
585.969	1311.05
586.329	1295.91
586.688	1328
587.048	1300.66
587.408	1334.33
587.768	1312.18
588.127	1302.24
588.487	1295.69
588.846	1308.79
589.206	1317.15
589.565	1307.44
589.925	1318.28
590.284	1348.79
590.643	1308.57
591.003	1309.92
591.362	1302.69
591.721	1327.1
592.08	1300.66
592.44	1326.42
592.799	1334.1
593.158	1302.92
593.517	1322.58
593.876	1348.34
594.235	1334.1
594.593	1336.82
594.952	1318.51
595.311	1312.63
595.67	1333.43
596.029	1335.46
596.387	1297.49
596.746	1332.3
597.104	1308.12
597.463	1316.7
597.822	1341.11
598.18	1312.63
598.538	1308.79
598.897	1329.13
599.255	1328.91
599.613	1284.16
599.972	1321.45
600.33	1344.05
600.688	1314.67
601.046	1294.1
601.404	1288.91
601.762	1329.13
602.12	1334.78
602.478	1325.06
602.836	1308.57
603.194	1299.75
603.552	1300.66
603.91	1304.27
604.268	1323.26
604.625	1316.02
604.983	1307.44
605.341	1279.42
605.698	1295.69
606.056	1316.25
606.413	1337.72
606.771	1315.57
607.128	1333.43
607.485	1304.27
607.843	1331.62
608.2	1325.97
608.557	1300.66
608.914	1305.63
609.272	1338.85
609.629	1356.02
609.986	1323.48
610.343	1319.41
610.7	1299.75
611.057	1316.93
611.414	1349.24
611.771	1324.61
612.127	1341.56
612.484	1339.3
612.841	1326.65
613.198	1337.95
613.554	1318.06
613.911	1332.3
614.267	1312.18
614.624	1327.55
614.98	1330.26
615.337	1350.15
615.693	1343.14
616.05	1357.61
616.406	1351.96
616.762	1331.39
617.118	1347.21
617.475	1339.07
617.831	1333.2
618.187	1346.08
618.543	1341.79
618.899	1347.66
619.255	1349.24
619.611	1356.02
619.967	1327.32
620.323	1322.13
620.678	1332.3
621.034	1344.27
621.39	1357.38
621.746	1368
622.101	1347.44
622.457	1332.07
622.812	1326.87
623.168	1347.89
623.523	1331.84
623.879	1363.48
624.234	1340.66
624.589	1329.36
624.945	1355.12
625.3	1367.55
625.655	1337.95
626.01	1367.55
626.365	1347.89
626.72	1369.58
627.075	1358.28
627.43	1349.92
627.785	1362.35
628.14	1339.3
628.495	1373.88
628.85	1364.39
629.205	1332.07
629.559	1383.14
629.914	1383.14
630.269	1339.3
630.623	1356.02
630.978	1376.36
631.332	1336.36
631.687	1357.83
632.041	1350.6
632.396	1372.52
632.75	1358.96
633.104	1343.59
633.459	1351.05
633.813	1368.45
634.167	1354.44
634.521	1349.7
634.875	1383.82
635.229	1359.41
635.583	1356.02
635.937	1346.08
636.291	1340.66
636.645	1361.67
636.999	1340.2
637.352	1359.41
637.706	1376.59
638.06	1367.32
638.413	1362.35
638.767	1366.42
639.121	1338.62
639.474	1367.77
639.828	1355.57
640.181	1347.89
640.534	1367.55
640.888	1335.01
641.241	1358.06
641.594	1379.07
641.947	1367.32
642.301	1348.79
642.654	1370.49
643.007	1364.16
643.36	1351.05
643.713	1349.02
644.066	1350.83
644.419	1356.25
644.771	1368.23
645.124	1332.75
645.477	1347.44
645.83	1342.92
646.182	1348.57
646.535	1336.36
646.888	1338.62
647.24	1318.06
647.593	1348.34
647.945	1362.13
648.298	1351.73
648.65	1354.44
649.002	1355.8
649.355	1349.02
649.707	1342.69
650.059	1358.96
650.411	1364.16
650.763	1368.68
651.115	1356.48
651.467	1356.7
651.819	1372.97
652.171	1400.09
652.523	1386.53
652.875	1383.14
653.227	1375.68
653.578	1390.37
653.93	1380.43
654.282	1382.46
654.633	1407.77
654.985	1370.71
655.337	1373.42
655.688	1398.96
656.039	1402.8
656.391	1377.49
656.742	1421.56
657.094	1420.2
657.445	1380.88
657.796	1418.39
658.147	1424.04
658.498	1408.23
658.849	1423.14
659.2	1382.46
659.551	1415.46
659.902	1414.55
660.253	1393.08
660.604	1423.59
660.955	1396.25
661.306	1422.24
661.656	1394.89
662.007	1439.64
662.358	1384.72
662.708	1433.08
663.059	1408
663.409	1405.51
663.76	1415.23
664.11	1455.91
664.461	1408.45
664.811	1418.17
665.161	1431.73
665.511	1423.82
665.862	1381.11
666.212	1378.85
666.562	1434.44
666.912	1379.07
667.262	1412.07
667.612	1395.8
667.962	1386.08
668.312	1415.68
668.662	1415.01
669.011	1419.98
669.361	1423.59
669.711	1406.19
670.06	1425.63
670.41	1405.97
670.76	1385.85
671.109	1405.29
671.459	1394.67
671.808	1412.97
672.157	1437.6
672.507	1389.24
672.856	1396.02
673.205	1369.13
673.554	1394.89
673.904	1386.31
674.253	1406.87
674.602	1394.21
674.951	1391.95
675.3	1367.1
675.649	1379.3
675.998	1391.73
676.346	1400.09
676.695	1393.08
677.044	1395.57
677.393	1387.44
677.741	1373.42
678.09	1401.22
678.438	1397.15
678.787	1356.48
679.135	1348.34
679.484	1365.97
679.832	1366.19
680.181	1365.97
680.529	1377.04
680.877	1375.68
681.225	1357.15
681.573	1377.04
681.922	1360.32
682.27	1326.87
682.618	1334.1
682.966	1330.26
683.314	1358.74
683.661	1339.53
684.009	1353.31
684.357	1312.86
684.705	1335.91
685.053	1336.59
685.4	1302.47
685.748	1308.34
686.095	1315.12
686.443	1308.79
686.79	1310.83
687.138	1308.57
687.485	1319.19
687.832	1304.95
688.18	1302.01
688.527	1328
688.874	1318.74
689.221	1294.56
689.568	1287.78
689.915	1281
690.262	1299.98
690.609	1292.97
690.956	1292.97
691.303	1290.04
691.65	1287.78
691.997	1282.13
692.344	1267.44
692.69	1280.09
693.037	1266.99
693.383	1286.42
693.73	1267.66
694.077	1276.03
694.423	1251.39
694.769	1241
695.116	1256.14
695.462	1265.18
695.808	1224.28
696.155	1222.02
696.501	1240.09
696.847	1226.54
697.193	1254.33
697.539	1230.6
697.885	1236.25
698.231	1234.22
698.577	1247.78
698.923	1214.11
699.269	1212.98
699.614	1224.95
699.96	1227.67
700.306	1201.9
700.651	1200.77
700.997	1215.91
701.342	1212.52
701.688	1207.33
702.033	1193.99
702.379	1191.06
702.724	1190.6
703.069	1191.28
703.415	1198.29
703.76	1189.47
704.105	1203.49
704.45	1185.18
704.795	1184.5
705.14	1184.73
705.485	1177.27
705.83	1214.33
706.175	1170.27
706.52	1179.31
706.865	1185.63
707.209	1179.53
707.554	1182.47
707.899	1188.57
708.243	1199.87
708.588	1190.15
708.932	1179.08
709.277	1210.26
709.621	1195.35
709.966	1212.07
710.31	1162.13
710.654	1171.62
710.998	1194.22
711.342	1194.9
711.687	1192.41
712.031	1197.84
712.375	1182.47
712.719	1206.2
713.063	1173.2
713.407	1182.02
713.75	1191.51
714.094	1193.54
714.438	1186.76
714.782	1222.92
715.125	1186.99
715.469	1203.49
715.812	1188.34
716.156	1224.5
716.499	1187.44
716.843	1230.83
717.186	1232.41
717.53	1233.09
717.873	1243.71
718.216	1208.46
718.559	1221.56
718.902	1213.88
719.246	1213.2
719.589	1219.98
719.932	1203.49
720.275	1231.06
720.617	1238.74
720.96	1199.19
721.303	1229.7
721.646	1221.34
721.989	1251.39
722.331	1238.74
722.674	1263.14
723.016	1226.76
723.359	1272.18
723.701	1244.84
724.044	1265.4
724.386	1240.77
724.729	1267.66
725.071	1274.22
725.413	1269.47
725.755	1278.29
726.097	1291.62
726.439	1271.51
726.782	1283.94
727.124	1308.79
727.465	1305.86
727.807	1287.1
728.149	1322.35
728.491	1317.83
728.833	1351.96
729.175	1315.12
729.516	1321.45
729.858	1310.38
730.199	1355.35
730.541	1334.1
730.882	1334.33
731.224	1353.99
731.565	1330.49
731.906	1369.81
732.248	1376.59
732.589	1392.41
732.93	1368
733.271	1402.35
733.612	1396.93
733.953	1406.87
734.294	1434.44
734.635	1423.82
734.976	1431.5
735.317	1406.19
735.658	1445.96
735.999	1424.95
736.339	1463.82
736.68	1476.25
737.021	1456.36
737.361	1483.93
737.702	1494.33
738.042	1492.97
738.383	1482.57
738.723	1501.1
739.063	1516.92
739.404	1560.54
739.744	1532.74
740.084	1549.46
740.424	1577.03
740.764	1589.69
741.104	1604.15
741.444	1610.48
741.784	1622.23
742.124	1616.58
742.464	1642.8
742.804	1669.91
743.143	1639.41
743.483	1695.68
743.823	1684.38
744.162	1720.31
744.502	1753.98
744.841	1769.35
745.181	1781.32
745.52	1793.98
745.86	1803.02
746.199	1860.87
746.538	1858.61
746.877	1895.9
747.216	1900.19
747.556	1955.33
747.895	1910.81
748.234	1995.1
748.573	2012.28
748.911	2051.15
749.25	2057.47
749.589	2094.31
749.928	2145.83
750.267	2138.15
750.605	2192.84
750.944	2212.05
751.283	2219.28
751.621	2277.13
751.96	2308.32
752.298	2338.14
752.636	2374.75
752.975	2410.69
753.313	2434.64
753.651	2484.13
753.989	2524.35
754.327	2566.16
754.666	2581.75
755.004	2643.22
755.342	2677.57
755.679	2698.36
756.017	2775.2
756.355	2835.53
756.693	2858.36
757.031	2893.84
757.368	2936.77
757.706	2956.66
758.044	3017
758.381	3046.6
758.719	3102.64
759.056	3145.58
759.394	3206.82
759.731	3233.49
760.068	3282.3
760.405	3291.57
760.743	3377.89
761.08	3404.78
761.417	3458.34
761.754	3445.01
762.091	3537.66
762.428	3613.59
762.765	3582.18
763.102	3675.96
763.438	3699.01
763.775	3723.19
764.112	3772.68
764.449	3816.3
764.785	3856.75
765.122	3908.95
765.458	3922.96
765.795	3968.38
766.131	4037.08
766.467	4051.32
766.804	4087.93
767.14	4066.69
767.476	4152.56
767.812	4127.25
768.148	4185.55
768.485	4233.69
768.821	4242.73
769.157	4290.41
769.492	4295.61
769.828	4371.76
770.164	4336.06
770.5	4421.25
770.836	4386.9
771.171	4396.85
771.507	4468.26
771.842	4443.63
772.178	4499.22
772.513	4502.38
772.849	4534.25
773.184	4542.83
773.519	4543.96
773.855	4574.92
774.19	4627.58
774.525	4624.86
774.86	4623.28
775.195	4685.2
775.53	4652.66
775.865	4661.02
776.2	4661.02
776.535	4678.42
776.87	4637.29
777.205	4698.53
777.539	4698.31
777.874	4705.09
778.209	4702.15
778.543	4749.15
778.878	4718.2
779.212	4717.52
779.547	4733.79
779.881	4728.82
780.215	4782.15
780.55	4771.75
780.884	4774.24
781.218	4784.63
781.552	4766.78
781.886	4849.27
782.22	4731.3
782.554	4754.58
782.888	4728.82
783.222	4684.07
783.556	4751.87
783.889	4734.92
784.223	4703.05
784.557	4776.5
784.89	4766.1
785.224	4749.38
785.557	4702.83
785.891	4749.61
786.224	4802.26
786.558	4748.02
786.891	4772.43
787.224	4708.03
787.557	4752.09
787.891	4707.8
788.224	4736.95
788.557	4749.61
788.89	4718.65
789.223	4728.14
789.556	4727.23
789.888	4674.81
790.221	4723.39
790.554	4668.7
790.887	4706.44
791.219	4675.03
791.552	4726.33
791.884	4704.41
792.217	4702.83
792.549	4683.17
792.882	4676.61
793.214	4628.48
793.546	4645.43
793.879	4657.63
794.211	4624.41
794.543	4658.31
794.875	4640.01
795.207	4657.63
795.539	4607.92
795.871	4675.03
796.203	4645.43
796.535	4585.09
796.867	4600.91
797.198	4567.24
797.53	4560.23
797.862	4595.03
798.193	4567.24
798.525	4568.14
798.856	4586
799.188	4524.53
799.519	4506.9
799.85	4517.75
800.182	4529.05
800.513	4504.19
800.844	4478.88
801.175	4541.48
801.506	4525.21
801.837	4502.83
802.168	4455.6
802.499	4476.62
802.83	4479.33
803.161	4443.17
803.491	4468.71
803.822	4432.33
804.153	4438.43
804.483	4429.39
804.814	4378.32
805.145	4420.8
805.475	4362.5
805.805	4406.56
806.136	4410.86
806.466	4430.97
806.796	4364.98
807.126	4379.22
807.457	4379.67
807.787	4345.32
808.117	4347.58
808.447	4345.55
808.777	4347.36
809.107	4376.51
809.436	4263.52
809.766	4323.86
810.096	4316.85
810.426	4283.63
810.755	4317.98
811.085	4283.4
811.414	4286.79
811.744	4259.45
812.073	4284.53
812.403	4248.6
812.732	4271.65
813.061	4252.44
813.39	4271.65
813.719	4233.46
814.049	4244.99
814.378	4204.31
814.707	4214.48
815.036	4217.64
815.365	4202.95
815.693	4196.85
816.022	4188.72
816.351	4170.86
816.68	4155.27
817.008	4171.77
817.337	4140.58
817.665	4144.88
817.994	4155.05
818.322	4125.67
818.651	4113.01
818.979	4087.48
819.307	4140.36
819.636	4121.83
819.964	4076.86
820.292	4134.71
820.62	4057.42
820.948	4156.63
821.276	4126.8
821.604	4162.73
821.932	4122.05
822.259	4111.88
822.587	4090.42
822.915	4125.67
823.243	4125.67
823.57	4115.27
823.898	4099.45
824.225	4056.74
824.553	4100.81
824.88	4118.44
825.207	4133.8
825.535	4126.12
825.862	4092
826.189	4095.61
826.516	4138.55
826.843	4144.88
827.17	4128.61
827.497	4096.52
827.824	4117.76
828.151	4117.31
828.478	4106.91
828.805	4171.32
829.131	4106.91
829.458	4155.5
829.785	4121.15
830.111	4119.79
830.438	4141.26
830.764	4153.24
831.09	4114.82
831.417	4128.61
831.743	4097.65
832.069	4149.62
832.395	4109.62
832.722	4103.52
833.048	4099.23
833.374	4088.38
833.7	4060.36
834.026	4113.92
834.351	4124.76
834.677	4080.92
835.003	4117.08
835.329	4111.21
835.654	4110.3
835.98	4086.12
836.306	4087.25
836.631	4073.01
836.956	4136.52
837.282	4137.19
837.607	4085.22
837.932	4036.63
838.258	4084.54
838.583	4055.16
838.908	4042.51
839.233	4037.08
839.558	4035.28
839.883	4046.12
840.208	3986.24
840.533	4015.39
840.858	4049.06
841.182	4028.27
841.507	3993.92
841.832	4011.1
842.156	3986.46
842.481	3981.49
842.805	3962.06
843.13	3962.28
843.454	3958.89
843.778	3969.06
844.103	3947.82
844.427	3974.94
844.751	3928.16
845.075	3885.67
845.399	3903.08
845.723	3843.87
846.047	3877.54
846.371	3859.46
846.695	3833.7
847.019	3847.71
847.343	3802.74
847.666	3791.21
847.99	3774.27
848.313	3773.14
848.637	3724.55
848.96	3738.79
849.284	3735.4
849.607	3728.16
849.931	3719.13
850.254	3696.53
850.577	3683.19
850.9	3643.2
851.223	3660.6
851.546	3622.4
851.869	3637.77
852.192	3630.99
852.515	3611.33
852.838	3619.24
853.161	3613.14
853.483	3558.23
853.806	3549.19
854.129	3574.27
854.451	3567.72
854.774	3510.54
855.096	3567.26
855.419	3498.57
855.741	3501.28
856.063	3464.67
856.385	3516.19
856.708	3460.38
857.03	3426.25
857.352	3468.96
857.674	3465.57
857.996	3440.94
858.318	3446.14
858.64	3415.4
858.961	3387.61
859.283	3388.74
859.605	3395.52
859.926	3407.04
860.248	3382.86
860.57	3362.07
860.891	3369.98
861.212	3332.02
861.534	3369.53
861.855	3341.28
862.176	3374.73
862.498	3322.07
862.819	3337.67
863.14	3361.39
863.461	3333.37
863.782	3292.92
864.103	3303.54
864.424	3283.43
864.745	3324.56
865.065	3287.05
865.386	3273.49
865.707	3279.59
866.027	3281.85
866.348	3257.44
866.668	3253.83
866.989	3256.99
867.309	3222.64
867.63	3261.51
867.95	3234.84
868.27	3189.42
868.59	3209.31
868.91	3267.16
869.23	3202.98
869.55	3200.04
869.87	3201.4
870.19	3202.98
870.51	3197.33
870.83	3194.17
871.15	3180.16
871.469	3197.56
871.789	3172.02
872.109	3196.2
872.428	3130.89
872.748	3141.06
873.067	3166.82
873.386	3159.14
873.706	3171.12
874.025	3144
874.344	3109.2
874.663	3128.18
874.982	3098.35
875.301	3085.02
875.62	3108.97
875.939	3129.76
876.258	3132.7
876.577	3097.22
876.896	3069.65
877.214	3073.94
877.533	3102.42
877.852	3092.48
878.17	3111.23
878.489	3079.14
878.807	3111.91
879.125	3082.31
879.444	3073.27
879.762	3066.94
880.08	3047.73
880.398	3008.64
880.716	3042.08
881.034	3049.76
881.352	3010.44
881.67	3007.96
881.988	2984
882.306	3003.66
882.624	3025.36
882.941	2968.86
883.259	2977.9
883.577	2955.53
883.894	2950.11
884.212	2965.02
884.529	2956.21
884.846	2911.01
885.164	2941.29
885.481	2972.93
885.798	2953.27
886.115	2914.85
886.432	2910.79
886.75	2927.73
887.067	2899.26
887.383	2894.97
887.7	2887.73
888.017	2864.46
888.334	2925.7
888.651	2868.07
888.967	2850
889.284	2850.22
889.6	2809.77
889.917	2817.45
890.233	2849.77
890.55	2822.88
890.866	2799.83
891.182	2807.06
891.498	2794.4
891.815	2759.15
892.131	2755.53
892.447	2770.22
892.763	2773.16
893.079	2752.37
893.395	2732.48
893.71	2710.34
894.026	2765.48
894.342	2740.85
894.657	2710.34
894.973	2688.42
895.289	2682.54
895.604	2712.6
895.92	2682.99
896.235	2650.9
896.55	2678.47
896.865	2692.94
897.181	2628.76
897.496	2657.23
897.811	2606.61
898.126	2618.14
898.441	2626.95
898.756	2617.46
899.071	2609.32
899.386	2570.23
899.7	2574.07
900.015	2569.55
900.33	2561.19
900.644	2579.04
900.959	2523.45
901.273	2581.98
901.588	2540.63
901.902	2495.2
902.216	2504.47
902.531	2505.82
902.845	2475.09
903.159	2479.16
903.473	2431.93
903.787	2475.99
904.101	2480.97
904.415	2428.54
904.729	2434.87
905.042	2413.85
905.356	2425.83
905.67	2409.56
905.984	2403
906.297	2406.17
906.611	2359.39
906.924	2377.01
907.237	2352.16
907.551	2365.71
907.864	2353.06
908.177	2343.57
908.491	2336.34
908.804	2306.73
909.117	2318.94
909.43	2272.16
909.743	2311.25
910.056	2304.7
910.368	2284.59
910.681	2278.49
910.994	2250.92
911.307	2244.36
911.619	2256.79
911.932	2247.98
912.244	2213.85
912.557	2222.89
912.869	2190.8
913.181	2206.4
913.494	2205.27
913.806	2185.61
914.118	2186.51
914.43	2189
914.742	2181.31
915.054	2146.51
915.366	2150.58
915.678	2126.4
915.99	2133.18
916.302	2115.78
916.613	2104.03
916.925	2152.16
917.236	2108.32
917.548	2117.81
917.859	2093.63
918.171	2097.25
918.482	2079.62
918.794	2055.89
919.105	2052.28
919.416	2064.71
919.727	2035.1
920.038	2044.14
920.349	2026.74
920.66	2005.72
920.971	1995.1
921.282	1996.91
921.593	1979.06
921.903	2001.2
922.214	1963.92
922.525	1971.37
922.835	1960.53
923.146	1937.25
923.456	1958.27
923.767	1962.11
924.077	1936.12
924.387	1934.31
924.697	1930.7
925.008	1918.49
925.318	1933.86
925.628	1898.61
925.938	1953.3
926.248	1882.56
926.558	1860.42
926.867	1895.22
927.177	1848.67
927.487	1883.02
927.796	1851.15
928.106	1857.25
928.416	1834.2
928.725	1857.48
929.034	1827.88
929.344	1833.75
929.653	1830.14
929.962	1813.86
930.271	1788.55
930.581	1808.22
930.89	1796.46
931.199	1798.5
931.508	1786.52
931.817	1790.81
932.125	1755.11
932.434	1781.78
932.743	1779.97
933.051	1740.42
933.36	1740.87
933.669	1743.58
933.977	1737.93
934.286	1753.3
934.594	1707.43
934.902	1717.14
935.21	1676.02
935.519	1688.22
935.827	1679.18
936.135	1713.53
936.443	1678.05
936.751	1671.95
937.059	1681.44
937.367	1644.6
937.674	1666.75
937.982	1657.48
938.29	1633.08
938.597	1645.06
938.905	1624.94
939.213	1629.69
939.52	1615.9
939.827	1626.53
940.135	1610.25
940.442	1623.36
940.749	1599.86
941.056	1615.68
941.363	1602.8
941.67	1577.49
941.977	1542.69
942.284	1575.9
942.591	1578.84
942.898	1519.18
943.205	1545.62
943.511	1528.67
943.818	1554.89
944.125	1548.56
944.431	1528.9
944.738	1527.77
945.044	1535.68
945.35	1483.48
945.657	1528.22
945.963	1461.56
946.269	1471.05
946.575	1489.58
946.881	1463.59
947.187	1497.71
947.493	1502.01
947.799	1484.38
948.105	1457.94
948.41	1476.02
948.716	1462.46
949.022	1442.58
949.327	1451.84
949.633	1423.82
949.938	1426.98
950.244	1425.63
950.549	1419.75
950.854	1406.87
951.16	1383.37
951.465	1414.33
951.77	1406.42
952.075	1414.1
952.38	1393.99
952.685	1412.97
952.99	1373.88
953.294	1366.19
953.599	1363.48
953.904	1342.92
954.209	1375.68
954.513	1371.39
954.818	1377.72
955.122	1345.4
955.426	1344.05
955.731	1347.44
956.035	1316.02
956.339	1332.75
956.643	1326.87
956.948	1320.77
957.252	1332.52
957.556	1284.84
957.86	1290.26
958.163	1294.56
958.467	1294.1
958.771	1276.03
959.075	1319.41
959.378	1289.36
959.682	1313.09
959.985	1260.88
960.289	1286.65
960.592	1276.25
960.896	1256.59
961.199	1269.92
961.502	1281
961.805	1225.41
962.108	1244.16
962.411	1234.9
962.714	1242.58
963.017	1215.01
963.32	1241
963.623	1222.02
963.926	1204.39
964.228	1224.95
964.531	1212.52
964.833	1203.26
965.136	1206.2
965.438	1201.68
965.741	1199.64
966.043	1201.23
966.345	1183.82
966.648	1205.29
966.95	1172.98
967.252	1165.97
967.554	1151.51
967.856	1186.54
968.158	1153.77
968.46	1177.5
968.761	1143.15
969.063	1158.06
969.365	1153.09
969.666	1150.15
969.968	1114.45
970.269	1141.11
970.571	1132.53
970.872	1106.76
971.174	1130.04
971.475	1098.18
971.776	1113.09
972.077	1110.61
972.378	1094.79
972.679	1074.45
972.98	1098.63
973.281	1095.01
973.582	1064.28
973.883	1096.82
974.183	1104.73
974.484	1090.27
974.785	1096.14
975.085	1059.31
975.386	1069.48
975.686	1076.93
975.986	1077.16
976.287	1055.69
976.587	1038.52
976.887	1025.86
977.187	1032.87
977.487	1054.11
977.787	1014.56
978.087	1029.7
978.387	1028.35
978.687	1022.93
978.987	1014.11
979.286	1008.69
979.586	993.77
979.885	1018.18
980.185	1010.04
980.484	1011.63
980.784	1029.93
981.083	974.79
981.382	988.8
981.682	1002.36
981.981	994.9
982.28	980.21
982.579	982.47
982.878	987.45
983.177	975.92
983.475	977.5
983.774	969.82
984.073	988.35
984.372	965.07
984.67	979.54
984.969	968.69
985.267	954
985.566	923.27
985.864	938.63
986.162	936.83
986.461	946.54
986.759	938.41
987.057	951.74
987.355	923.04
987.653	923.94
987.951	900.22
988.249	929.82
988.547	911.06
988.844	893.21
989.142	918.07
989.44	904.74
989.737	884.85
990.035	913.1
990.332	884.62
990.63	869.93
990.927	894.34
991.224	890.27
991.521	876.26
991.819	884.85
992.116	857.73
992.413	855.02
992.71	853.89
993.006	877.17
993.303	866.32
993.6	852.99
993.897	848.92
994.193	848.47
994.49	848.47
994.787	848.47
995.083	843.72
995.379	846.88
995.676	830.84
995.972	860.22
996.268	804.4
996.565	826.32
996.861	825.64
997.157	828.58
997.453	802.14
997.749	828.35
998.044	798.75
998.34	804.17
998.636	824.51
998.932	810.05
999.227	803.04
999.523	811.41
999.818	797.39
1000.114	785.64
1000.409	784.51
1000.704	808.02
1001	786.1
1001.295	787
1001.59	772.31
1001.885	792.2
1002.18	781.12
1002.475	748.36
1002.77	765.76
1003.065	766.66
1003.359	768.24
1003.654	736.6
1003.949	755.59
1004.243	756.72
1004.538	768.92
1004.832	756.49
1005.127	726.66
1005.421	733.67
1005.715	758.3
1006.009	726.44
1006.304	745.87
1006.598	737.06
1006.892	737.51
1007.186	703.61
1007.48	706.1
1007.773	723.05
1008.067	729.15
1008.361	695.93
1008.655	692.99
1008.948	697.96
1009.242	702.26
1009.535	707.91
1009.829	690.73
1010.122	671.07
1010.415	704.97
1010.708	692.76
1011.001	677.85
1011.295	678.53
1011.588	677.85
1011.881	659.54
1012.173	664.52
1012.466	674.23
1012.759	688.02
1013.052	676.72
1013.344	653.9
1013.637	666.55
1013.93	660.22
1014.222	672.65
1014.514	645.31
1014.807	653.9
1015.099	670.62
1015.391	653.22
1015.683	638.3
1015.976	635.14
1016.268	647.34
1016.56	649.6
1016.851	619.55
1017.143	640.34
1017.435	617.51
1017.727	638.08
1018.018	627
1018.31	645.76
1018.602	613.9
1018.893	612.09
1019.185	632.88
1019.476	615.7
1019.767	612.99
1020.058	615.48
1020.35	614.12
1020.641	585.65
1020.932	615.25
1021.223	592.2
1021.514	603.73
1021.804	606.44
1022.095	568.93
1022.386	569.83
1022.677	579.09
1022.967	577.74
1023.258	583.84
1023.548	566.67
1023.839	562.37
1024.129	587.68
1024.419	584.29
1024.709	562.6
1025	563.5
1025.29	583.16
1025.58	540.9
1025.87	560.11
1026.16	544.29
1026.449	552.2
1026.739	526.44
1027.029	558.53
1027.319	562.6
1027.608	554.91
1027.898	547.91
1028.187	556.72
1028.477	533.67
1028.766	530.73
1029.055	534.58
1029.344	518.76
1029.634	535.71
1029.923	532.77
1030.212	507.23
1030.501	512.88
1030.79	534.35
1031.078	524.63
1031.367	515.59
1031.656	511.53
1031.945	511.3
1032.233	507.01
1032.522	495.03
1032.81	515.82
1033.099	498.42
1033.387	491.19
1033.675	500.9
1033.963	495.03
1034.251	501.58
1034.54	488.7
1034.828	492.77
1035.116	490.51
1035.403	493.22
1035.691	479.66
1035.979	504.07
1036.267	476.5
1036.554	472.21
1036.842	491.64
1037.129	471.3
1037.417	467.23
1037.704	456.61
1037.992	483.5
1038.279	490.74
1038.566	471.08
1038.853	471.08
1039.14	471.08
