Data from blue_surface_keyboard_FLMS001491_092.txt Node
Date: Tue Feb 07 11:13:54 GMT 2017
User: dcchb
Spectrometer: FLMS00149
Trigger mode: 0
Integration Time (sec): 2.000000E-2
Scans to average: 10
Electric dark correction enabled: true
Nonlinearity correction enabled: false
Boxcar width: 0
XAxis mode: Wavelengths
Number of Pixels in Spectrum: 2048
>>>>>Begin Spectral Data<<<<<
341.393	-15.52
341.776	-15.52
342.16	-15.52
342.543	-39.02
342.927	-73.6
343.31	-67.5
343.693	-68.4
344.077	-67.05
344.46	-47.61
344.843	-50.78
345.226	-37.67
345.61	-38.35
345.993	-13.49
346.376	2.1
346.759	19.96
347.142	19.05
347.525	38.26
347.908	50.69
348.291	92.27
348.674	61.54
349.057	106.96
349.44	120.29
349.823	148.99
350.206	145.6
350.588	198.26
350.971	181.76
351.354	209.78
351.737	215.43
352.119	218.82
352.502	234.41
352.884	249.56
353.267	274.87
353.65	280.74
354.032	291.36
354.414	292.27
354.797	316.45
355.179	298.82
355.562	315.54
355.944	309.67
356.326	310.12
356.709	312.38
357.091	303.11
357.473	337.01
357.855	327.29
358.238	328.42
358.62	303.57
359.002	308.54
359.384	332.49
359.766	325.94
360.148	319.16
360.53	322.32
360.912	311.25
361.294	303.57
361.676	298.37
362.057	304.92
362.439	316.22
362.821	336.56
363.203	327.29
363.584	294.07
363.966	321.19
364.348	315.54
364.729	305.15
365.111	306.05
365.493	303.57
365.874	295.43
366.256	302.44
366.637	293.4
367.019	297.46
367.4	294.98
367.781	308.76
368.163	308.54
368.544	287.29
368.925	282.78
369.306	279.61
369.688	285.03
370.069	270.35
370.45	297.92
370.831	315.54
371.212	306.28
371.593	304.92
371.974	297.01
372.355	306.5
372.736	301.08
373.117	288.2
373.498	265.6
373.879	314.41
374.26	316.67
374.641	273.06
375.021	311.25
375.402	278.26
375.783	288.2
376.163	315.99
376.544	313.96
376.925	276.22
377.305	311.25
377.686	304.24
378.066	293.4
378.447	290.91
378.827	299.95
379.208	291.36
379.588	285.94
379.968	283.68
380.349	311.47
380.729	303.11
381.109	305.37
381.489	311.7
381.87	307.18
382.25	309.44
382.63	289.78
383.01	295.88
383.39	296.11
383.77	309.22
384.15	318.48
384.53	323.45
384.91	333.62
385.29	310.34
385.67	318.03
386.049	326.16
386.429	317.8
386.809	322.32
387.189	329.78
387.568	308.09
387.948	313.73
388.328	314.64
388.707	310.34
389.087	339.5
389.466	328.2
389.846	310.8
390.225	329.55
390.605	338.14
390.984	330.23
391.363	330.01
391.743	324.36
392.122	319.61
392.501	315.54
392.881	325.26
393.26	339.04
393.639	310.57
394.018	323.68
394.397	328.42
394.776	319.38
395.155	324.36
395.534	336.78
395.913	329.33
396.292	314.19
396.671	332.49
397.05	359.84
397.429	327.29
397.808	323.68
398.186	329.55
398.565	340.85
398.944	347.63
399.323	344.47
399.701	349.89
400.08	350.57
400.458	348.31
400.837	361.19
401.215	373.85
401.594	338.59
401.972	314.64
402.351	354.64
402.729	367.29
403.107	356.9
403.486	323.9
403.864	341.08
404.242	348.99
404.62	368.2
404.999	350.12
405.377	359.16
405.755	349.44
406.133	346.95
406.511	346.73
406.889	364.35
407.267	353.06
407.645	353.96
408.023	361.64
408.401	370.46
408.779	360.06
409.156	376.56
409.534	340.17
409.912	374.52
410.29	374.3
410.667	352.38
411.045	354.19
411.422	370
411.8	381.98
412.178	369.78
412.555	365.03
412.933	386.05
413.31	395.54
413.687	392.6
414.065	376.78
414.442	395.54
414.819	406.61
415.197	393.73
415.574	397.57
415.951	387.41
416.328	402.32
416.705	393.05
417.082	377.69
417.46	388.31
417.837	382.89
418.214	381.98
418.591	400.51
418.967	393.28
419.344	409.55
419.721	398.48
420.098	402.55
420.475	394.86
420.852	377.46
421.228	429.44
421.605	393.28
421.982	393.28
422.358	400.74
422.735	409.55
423.111	412.72
423.488	432.83
423.864	406.61
424.241	408.42
424.617	407.74
424.994	417.69
425.37	428.31
425.746	419.49
426.123	393.51
426.499	432.83
426.875	426.73
427.251	443.9
427.627	435.31
428.003	436.9
428.379	420.62
428.756	443.67
429.132	439.16
429.507	429.21
429.883	435.99
430.259	426.73
430.635	440.96
431.011	448.87
431.387	441.19
431.763	458.36
432.138	477.12
432.514	457.69
432.89	450.91
433.265	469.89
433.641	467.4
434.016	463.34
434.392	468.08
434.767	485.93
435.143	476.44
435.518	490.68
435.894	479.83
436.269	491.13
436.644	493.84
437.02	490.23
437.395	493.62
437.77	491.81
438.145	495.42
438.52	477.57
438.895	502.66
439.271	485.26
439.646	496.33
440.021	490.68
440.395	520.51
440.77	495.65
441.145	526.38
441.52	512.6
441.895	526.84
442.27	505.59
442.645	521.19
443.019	550.56
443.394	522.54
443.769	542.43
444.143	537.23
444.518	537.68
444.892	527.97
445.267	526.16
445.641	524.12
446.016	560.28
446.39	530.9
446.764	539.04
447.139	555.54
447.513	555.76
447.887	527.29
448.262	549.43
448.636	544.24
449.01	566.16
449.384	566.84
449.758	548.53
450.132	550.56
450.506	581.75
450.88	581.75
451.254	577
451.628	570.68
452.002	553.73
452.376	563.45
452.75	573.39
453.123	550.56
453.497	574.29
453.871	597.12
454.244	582.43
454.618	619.94
454.992	588.08
455.365	611.81
455.739	600.28
456.112	596.67
456.486	586.04
456.859	614.07
457.232	630.11
457.606	618.59
457.979	618.59
458.352	624.46
458.725	640.96
459.099	625.36
459.472	628.98
459.845	646.16
460.218	625.14
460.591	651.35
460.964	641.41
461.337	642.31
461.71	664.46
462.083	684.12
462.456	667.85
462.829	670.34
463.201	673.05
463.574	710.11
463.947	667.4
464.32	685.25
464.692	687.06
465.065	714.85
465.438	692.48
465.81	725.93
466.183	690.22
466.555	727.06
466.928	704.01
467.3	726.83
467.672	739.94
468.045	710.33
468.417	747.85
468.789	720.73
469.161	768.19
469.534	764.8
469.906	774.74
470.278	775.87
470.65	769.09
471.022	794.63
471.394	795.3
471.766	794.4
472.138	790.33
472.51	832.59
472.882	809.09
473.253	836.21
473.625	801.41
473.997	815.42
474.369	844.12
474.74	842.76
475.112	859.94
475.484	850.67
475.855	858.58
476.227	880.5
476.598	896.09
476.97	885.25
477.341	913.94
477.713	904.68
478.084	918.69
478.455	944.68
478.827	952.59
479.198	939.25
479.569	940.16
479.94	960.05
480.311	967.95
480.682	972.02
481.053	985.13
481.424	998.24
481.795	999.82
482.166	1014.73
482.537	1017.22
482.908	1009.08
483.279	1014.06
483.65	1027.61
484.021	1062.64
484.391	1077.78
484.762	1088.63
485.133	1084.34
485.503	1062.64
485.874	1117.33
486.244	1120.95
486.615	1102.41
486.985	1112.81
487.356	1143.32
487.726	1147.16
488.097	1151.45
488.467	1149.64
488.837	1168.18
489.207	1171.79
489.578	1177.44
489.948	1162.3
490.318	1188.06
490.688	1214.5
491.058	1212.92
491.428	1213.37
491.798	1238.46
492.168	1217.44
492.538	1266.03
492.908	1249.3
493.278	1266.48
493.648	1261.73
494.017	1287.04
494.387	1274.61
494.757	1301.28
495.126	1286.36
495.496	1265.35
495.866	1291.79
496.235	1281.62
496.605	1290.88
496.974	1312.35
497.344	1291.34
497.713	1318.68
498.082	1334.72
498.452	1320.26
498.821	1318.45
499.19	1314.84
499.559	1337.44
499.928	1303.09
500.298	1334.27
500.667	1357.55
501.036	1320.26
501.405	1348.51
501.774	1348.06
502.143	1354.84
502.512	1368.17
502.88	1358
503.249	1392.35
503.618	1368.4
503.987	1335.63
504.356	1373.82
504.724	1363.42
505.093	1335.4
505.462	1385.12
505.83	1386.47
506.199	1379.7
506.567	1386.7
506.936	1376.98
507.304	1407.94
507.672	1380.83
508.041	1409.75
508.409	1387.15
508.777	1400.03
509.145	1417.89
509.514	1394.16
509.882	1431.9
510.25	1410.88
510.618	1410.88
510.986	1425.12
511.354	1421.05
511.722	1419.47
512.09	1426.7
512.458	1432.8
512.826	1433.71
513.193	1433.93
513.561	1435.97
513.929	1451.78
514.297	1450.88
514.664	1453.37
515.032	1464.89
515.4	1451.56
515.767	1455.85
516.135	1461.95
516.502	1469.41
516.869	1483.2
517.237	1472.12
517.604	1470.99
517.972	1457.89
518.339	1485.91
518.706	1457.66
519.073	1463.99
519.44	1469.64
519.808	1489.3
520.175	1483.2
520.542	1499.69
520.909	1470.09
521.276	1474.38
521.643	1505.57
522.009	1498.79
522.376	1489.07
522.743	1494.95
523.11	1521.39
523.477	1513.03
523.843	1545.57
524.21	1514.38
524.577	1524.32
524.943	1577.66
525.31	1510.31
525.676	1555.51
526.043	1567.04
526.409	1534.72
526.776	1565.91
527.142	1546.47
527.508	1530.88
527.874	1561.61
528.241	1580.82
528.607	1549.63
528.973	1558.22
529.339	1576.75
529.705	1594.15
530.071	1609.29
530.437	1565.45
530.803	1559.58
531.169	1598.22
531.535	1572.46
531.901	1585.57
532.267	1603.42
532.632	1589.18
532.998	1602.74
533.364	1615.85
533.73	1615.4
534.095	1606.13
534.461	1654.26
534.826	1590.54
535.192	1614.72
535.557	1616.53
535.923	1588.05
536.288	1601.38
536.653	1621.5
537.019	1610.65
537.384	1597.32
537.749	1585.34
538.114	1643.87
538.479	1634.83
538.845	1608.84
539.21	1630.99
539.575	1628.28
539.94	1637.32
540.305	1604.77
540.67	1616.3
541.034	1623.53
541.399	1642.74
541.764	1599.12
542.129	1611.1
542.494	1607.26
542.858	1648.39
543.223	1632.12
543.587	1640.48
543.952	1610.2
544.316	1630.54
544.681	1610.42
545.045	1614.49
545.41	1627.6
545.774	1647.48
546.138	1616.07
546.503	1646.13
546.867	1647.48
547.231	1634.6
547.595	1627.82
547.959	1640.25
548.324	1657.43
548.688	1635.51
549.052	1647.26
549.416	1635.28
549.779	1648.84
550.143	1609.29
550.507	1650.42
550.871	1649.74
551.235	1655.85
551.599	1619.24
551.962	1650.87
552.326	1649.97
552.689	1635.96
553.053	1630.08
553.417	1622.4
553.78	1629.41
554.143	1655.85
554.507	1662.85
554.87	1670.99
555.234	1672.34
555.597	1657.2
555.96	1689.07
556.323	1658.56
556.686	1629.41
557.05	1685.22
557.413	1659.24
557.776	1656.3
558.139	1652
558.502	1647.26
558.865	1655.17
559.228	1669.63
559.59	1630.31
559.953	1687.03
560.316	1681.83
560.679	1667.37
561.041	1701.27
561.404	1684.55
561.767	1692.46
562.129	1707.6
562.492	1702.4
562.854	1704.88
563.217	1701.49
563.579	1698.78
563.941	1730.65
564.304	1706.47
564.666	1706.47
565.028	1727.26
565.39	1718.67
565.753	1730.87
566.115	1727.26
566.477	1724.09
566.839	1718.22
567.201	1736.07
567.563	1709.18
567.925	1744.43
568.287	1727.93
568.648	1733.36
569.01	1744.43
569.372	1772.23
569.734	1762.51
570.095	1740.14
570.457	1777.43
570.819	1743.53
571.18	1748.05
571.542	1762.28
571.903	1763.64
572.265	1740.14
572.626	1749.63
572.987	1775.62
573.349	1765.45
573.71	1750.08
574.071	1793.02
574.432	1779.46
574.794	1781.27
575.155	1765.22
575.516	1775.39
575.877	1780.81
576.238	1766.35
576.599	1793.24
576.96	1803.86
577.32	1794.83
577.681	1777.43
578.042	1786.46
578.403	1776.07
578.763	1793.02
579.124	1839.8
579.485	1796.41
579.845	1842.96
580.206	1808.16
580.566	1823.3
580.927	1832.56
581.287	1808.38
581.648	1841.38
582.008	1805.9
582.368	1791.66
582.728	1799.8
583.089	1807.25
583.449	1821.49
583.809	1847.25
584.169	1828.5
584.529	1797.31
584.889	1818.78
585.249	1841.38
585.609	1830.53
585.969	1817.65
586.329	1836.63
586.688	1829.85
587.048	1797.99
587.408	1811.1
587.768	1835.73
588.127	1829.18
588.487	1852
588.846	1830.98
589.206	1816.29
589.565	1813.81
589.925	1841.83
590.284	1860.81
590.643	1843.64
591.003	1843.19
591.362	1855.84
591.721	1841.38
592.08	1871.21
592.44	1868.72
592.799	1838.67
593.158	1812.68
593.517	1839.34
593.876	1875.5
594.235	1892.22
594.593	1849.29
594.952	1875.05
595.311	1841.15
595.67	1843.19
596.029	1869.85
596.387	1895.39
596.746	1866.91
597.104	1875.5
597.463	1862.85
597.822	1856.29
598.18	1854.26
598.538	1849.97
598.897	1853.58
599.255	1875.73
599.613	1894.71
599.972	1885.67
600.33	1875.5
600.688	1854.94
601.046	1885.9
601.404	1898.33
601.762	1908.5
602.12	1903.3
602.478	1909.62
602.836	1909.17
603.194	1911.43
603.552	1861.49
603.91	1912.11
604.268	1909.62
604.625	1887.25
604.983	1894.94
605.341	1903.75
605.698	1918.89
606.056	1936.74
606.413	1892.22
606.771	1931.77
607.128	1937.87
607.485	1903.75
607.843	1924.09
608.2	1938.78
608.557	1923.18
608.914	1927.48
609.272	1947.82
609.629	1935.61
609.986	1928.38
610.343	1928.16
610.7	1969.96
611.057	1929.96
611.414	1960.02
611.771	1942.39
612.127	1928.61
612.484	1929.51
612.841	1937.19
613.198	1963.86
613.554	1940.36
613.911	1997.08
614.267	1969.06
614.624	1950.08
614.98	1963.18
615.337	1973.13
615.693	1985.1
616.05	1935.39
616.406	1980.13
616.762	1968.61
617.118	1987.36
617.475	1988.49
617.831	1988.72
618.187	1994.37
618.543	2008.15
618.899	2005.67
619.255	2005.22
619.611	2002.73
619.967	2007.7
620.323	2016.51
620.678	2029.17
621.034	2002.28
621.39	2033.92
621.746	2029.62
622.101	2007.02
622.457	2015.16
622.812	2030.75
623.168	2013.13
623.523	2046.8
623.879	2035.95
624.234	2060.36
624.589	2027.81
624.945	2040.69
625.3	2044.08
625.655	2103.29
626.01	2044.99
626.365	2059.9
626.72	2040.47
627.075	2069.62
627.43	2069.62
627.785	2050.86
628.14	2073.24
628.495	2063.52
628.85	2092.67
629.205	2085.67
629.559	2121.14
629.914	2098.77
630.269	2087.93
630.623	2119.11
630.978	2073.46
631.332	2121.6
631.687	2084.31
632.041	2106.46
632.396	2111.65
632.75	2101.48
633.104	2146
633.459	2118.88
633.813	2095.16
634.167	2142.84
634.521	2126.57
634.875	2121.37
635.229	2147.13
635.583	2148.26
635.937	2174.02
636.291	2158.43
636.645	2158.43
636.999	2175.61
637.352	2144.42
637.706	2148.49
638.06	2151.88
638.413	2134.03
638.767	2202.95
639.121	2161.14
639.474	2170.41
639.828	2180.35
640.181	2197.98
640.534	2189.84
640.888	2198.66
641.241	2192.56
641.594	2174.93
641.947	2236.4
642.301	2220.13
642.654	2205.66
643.007	2233.46
643.36	2209.28
643.713	2215.83
644.066	2210.63
644.419	2254.7
644.771	2251.54
645.124	2228.26
645.477	2229.16
645.83	2254.25
646.182	2252.67
646.535	2212.67
646.888	2245.21
647.24	2222.16
647.593	2260.35
647.945	2314.36
648.298	2287.47
648.65	2250.63
649.002	2291.08
649.355	2251.76
649.707	2324.3
650.059	2329.5
650.411	2329.5
650.763	2372.21
651.115	2414.47
651.467	2405.66
651.819	2428.71
652.171	2423.74
652.523	2397.75
652.875	2438.42
653.227	2416.05
653.578	2423.51
653.93	2415.37
654.282	2445.43
654.633	2452.89
654.985	2490.17
655.337	2465.77
655.688	2503.51
656.039	2541.7
656.391	2479.33
656.742	2536.73
657.094	2551.42
657.445	2535.15
657.796	2549.61
658.147	2528.37
658.498	2565.88
658.849	2602.94
659.2	2575.6
659.551	2587.57
659.902	2618.53
660.253	2655.14
660.604	2655.14
660.955	2642.26
661.306	2699.21
661.656	2645.42
662.007	2701.02
662.358	2669.83
662.708	2741.02
663.059	2719.55
663.409	2741.69
663.76	2736.27
664.11	2767
664.461	2745.08
664.811	2803.39
665.161	2801.13
665.511	2823.27
665.862	2812.65
666.212	2832.09
666.562	2867.34
666.912	2899.66
667.262	2861.46
667.612	2865.76
667.962	2900.33
668.312	2915.93
668.662	2917.28
669.011	2946.21
669.361	2936.26
669.711	2943.27
670.06	2984.4
670.41	2993.66
670.76	2998.41
671.109	3008.81
671.459	3047.45
671.808	3045.41
672.157	3075.92
672.507	3051.97
672.856	3045.64
673.205	3119.08
673.554	3098.97
673.904	3075.92
674.253	3161.8
674.602	3138.75
674.951	3116.82
675.3	3127.45
675.649	3128.8
675.998	3135.13
676.346	3217.61
676.695	3192.53
677.044	3209.48
677.393	3220.55
677.741	3265.75
678.09	3234.34
678.438	3265.52
678.787	3272.3
679.135	3251.96
679.484	3293.09
679.832	3292.87
680.181	3274.56
680.529	3335.8
680.877	3299.64
681.225	3331.51
681.573	3341.45
681.922	3367.44
682.27	3340.1
682.618	3377.83
682.966	3368.12
683.314	3427.33
683.661	3415.8
684.009	3395.46
684.357	3407.44
684.705	3398.17
685.053	3423.48
685.4	3430.94
685.748	3423.71
686.095	3451.51
686.443	3470.94
686.79	3426.87
687.138	3449.47
687.485	3469.58
687.832	3480.21
688.18	3476.36
688.527	3464.84
688.874	3515.91
689.221	3512.97
689.568	3519.53
689.915	3524.95
690.262	3477.27
690.609	3475.46
690.956	3519.53
691.303	3520.88
691.65	3505.74
691.997	3517.27
692.344	3528.57
692.69	3486.08
693.037	3509.13
693.383	3503.93
693.73	3505.52
694.077	3529.24
694.423	3500.09
694.769	3531.5
695.116	3533.54
695.462	3537.15
695.808	3549.58
696.155	3518.4
696.501	3494.22
696.847	3533.09
697.193	3528.11
697.539	3504.61
697.885	3538.06
698.231	3495.35
698.577	3549.36
698.923	3540.99
699.269	3496.48
699.614	3523.14
699.96	3510.03
700.306	3478.17
700.651	3482.01
700.997	3497.61
701.342	3496.02
701.688	3536.47
702.033	3509.36
702.379	3472.3
702.724	3505.29
703.069	3485.18
703.415	3461.67
703.76	3496.7
704.105	3463.03
704.45	3432.52
704.795	3452.86
705.14	3456.25
705.485	3432.3
705.83	3468.68
706.175	3495.12
706.52	3451.51
706.865	3453.31
707.209	3453.09
707.554	3447.44
707.899	3454.67
708.243	3452.64
708.588	3461.9
708.932	3409.92
709.277	3415.8
709.621	3405.63
709.966	3425.74
710.31	3440.43
710.654	3432.52
710.998	3419.87
711.342	3396.14
711.687	3422.35
712.031	3422.13
712.375	3369.47
712.719	3418.74
713.063	3442.92
713.407	3429.58
713.75	3406.53
714.094	3417.61
714.438	3411.05
714.782	3397.95
715.125	3372.19
715.469	3397.5
715.812	3372.19
716.156	3354.11
716.499	3404.73
716.843	3378.74
717.186	3381.45
717.53	3402.92
717.873	3425.74
718.216	3378.74
718.559	3392.07
718.902	3354.56
719.246	3390.04
719.589	3388.46
719.932	3373.54
720.275	3383.94
720.617	3421.45
720.96	3406.53
721.303	3364.05
721.646	3402.92
721.989	3414.22
722.331	3404.27
722.674	3393.2
723.016	3411.96
723.359	3400.21
723.701	3377.61
724.044	3326.54
724.386	3359.3
724.729	3416.7
725.071	3397.95
725.413	3398.85
725.755	3381.22
726.097	3365.41
726.439	3402.69
726.782	3375.8
727.124	3417.83
727.465	3420.55
727.807	3415.35
728.149	3372.64
728.491	3361.34
728.833	3391.62
729.175	3334.22
729.516	3369.93
729.858	3376.25
730.199	3451.51
730.541	3392.98
730.882	3403.82
731.224	3439.75
731.565	3414.67
731.906	3419.42
732.248	3412.18
732.589	3409.25
732.93	3439.75
733.271	3380.09
733.612	3408.34
733.953	3429.36
734.294	3407.44
734.635	3410.15
734.976	3432.52
735.317	3405.4
735.658	3468
735.999	3390.26
736.339	3436.59
736.68	3438.17
737.021	3415.57
737.361	3465.74
737.702	3453.77
738.042	3465.74
738.383	3478.85
738.723	3460.77
739.063	3497.83
739.404	3519.3
739.744	3479.3
740.084	3505.52
740.424	3532.63
740.764	3509.58
741.104	3524.95
741.444	3552.52
741.784	3544.61
742.124	3568.34
742.464	3548.45
742.804	3554.55
743.143	3530.37
743.483	3579.86
743.823	3593.2
744.162	3595.91
744.502	3635.23
744.841	3632.74
745.181	3640.88
745.52	3647.88
745.86	3652.86
746.199	3683.82
746.538	3698.5
746.877	3701.44
747.216	3706.64
747.556	3719.75
747.895	3776.92
748.234	3759.52
748.573	3731.95
748.911	3782.12
749.25	3784.6
749.589	3812.85
749.928	3810.14
750.267	3855.34
750.605	3867.54
750.944	3891.72
751.283	3886.3
751.621	3939.85
751.96	3923.36
752.298	3906.63
752.636	3975.79
752.975	3986.86
753.313	3969.46
753.651	4050.59
753.989	4064.6
754.327	4050.36
754.666	4071.15
755.004	4087.65
755.342	4117.93
755.679	4164.48
756.017	4154.09
756.355	4169.68
756.693	4198.15
757.031	4184.37
757.368	4201.09
757.706	4204.03
758.044	4255.78
758.381	4276.34
758.719	4265.04
759.056	4287.42
759.394	4315.89
759.731	4315.44
760.068	4318.38
760.405	4326.06
760.743	4375.55
761.08	4344.59
761.417	4373.29
761.754	4367.87
762.091	4383.01
762.428	4393.63
762.765	4413.74
763.102	4445.38
763.438	4450.12
763.775	4424.14
764.112	4466.17
764.449	4443.34
764.785	4430.91
765.122	4506.62
765.458	4429.33
765.795	4457.58
766.131	4461.87
766.467	4479.95
766.804	4496.45
767.14	4472.04
767.476	4456.68
767.812	4494.19
768.148	4477.24
768.485	4496.22
768.821	4468.88
769.157	4464.59
769.492	4484.47
769.828	4491.25
770.164	4448.09
770.5	4455.55
770.836	4451.93
771.171	4462.78
771.507	4471.37
771.842	4440.63
772.178	4477.24
772.513	4433.17
772.849	4436.11
773.184	4448.32
773.519	4451.03
773.855	4370.13
774.19	4437.02
774.525	4391.14
774.86	4413.74
775.195	4384.59
775.53	4371.71
775.865	4383.46
776.2	4335.78
776.535	4297.81
776.87	4356.11
777.205	4332.84
777.539	4308.88
777.874	4304.59
778.209	4254.42
778.543	4288.09
778.878	4256.23
779.212	4297.36
779.547	4259.85
779.881	4283.12
780.215	4225.5
780.55	4272.95
780.884	4230.69
781.218	4196.57
781.552	4229.11
781.886	4234.31
782.22	4213.97
782.554	4158.61
782.888	4152.28
783.222	4109.79
783.556	4104.37
783.889	4124.93
784.223	4096.46
784.557	4107.76
784.89	4095.56
785.224	4073.18
785.557	4048.1
785.891	4046.52
786.224	4042.45
786.558	4034.31
786.891	4037.7
787.224	3972.17
787.557	3952.51
787.891	4035.22
788.224	4008.1
788.557	3994.09
788.89	4002.23
789.223	3972.85
789.556	3940.98
789.888	3917.26
790.221	3968.55
790.554	3889.91
790.887	3918.61
791.219	3865.96
791.552	3834.77
791.884	3869.57
792.217	3845.85
792.549	3868.67
792.882	3790.25
793.214	3820.31
793.546	3818.73
793.879	3757.94
794.211	3787.32
794.543	3788.67
794.875	3770.37
795.207	3801.33
795.539	3754.77
795.871	3754.1
796.203	3736.47
796.535	3737.37
796.867	3678.84
797.198	3731.5
797.53	3701.89
797.862	3669.58
798.193	3659.64
798.525	3692.63
798.856	3679.97
799.188	3620.99
799.519	3622.8
799.85	3628.45
800.182	3622.35
800.513	3602.91
800.844	3578.51
801.175	3619.18
801.506	3582.35
801.837	3578.96
802.168	3566.3
802.499	3515.91
802.83	3535.34
803.161	3515.91
803.491	3548.68
803.822	3517.94
804.153	3535.57
804.483	3450.38
804.814	3465.52
805.145	3442.47
805.475	3477.04
805.805	3456.93
806.136	3448.12
806.466	3452.41
806.796	3402.24
807.126	3440.43
807.457	3437.72
807.787	3404.73
808.117	3401.79
808.447	3401.56
808.777	3418.51
809.107	3376.7
809.436	3373.54
809.766	3355.01
810.096	3358.4
810.426	3341.23
810.755	3341.68
811.085	3320.89
811.414	3347.1
811.744	3302.81
812.073	3295.35
812.403	3272.3
812.732	3294.45
813.061	3289.93
813.39	3270.27
813.719	3314.11
814.049	3249.25
814.378	3282.24
814.707	3263.94
815.036	3229.14
815.365	3246.31
815.693	3226.65
816.022	3223.26
816.351	3189.37
816.68	3200.44
817.008	3206.54
817.337	3195.24
817.665	3221.91
817.994	3165.86
818.322	3174.68
818.651	3174.22
818.979	3162.47
819.307	3150.5
819.636	3132.42
819.964	3125.19
820.292	3166.09
820.62	3133.77
820.948	3141.91
821.276	3132.64
821.604	3119.76
821.932	3156.6
822.259	3150.04
822.587	3120.21
822.915	3162.7
823.243	3125.86
823.57	3098.75
823.898	3099.2
824.225	3124.51
824.553	3147.11
824.88	3147.33
825.207	3141.68
825.535	3170.38
825.862	3110.72
826.189	3164.51
826.516	3170.83
826.843	3126.99
827.17	3139.65
827.497	3129.71
827.824	3151.17
828.151	3151.17
828.478	3099.2
828.805	3125.41
829.131	3121.12
829.458	3126.09
829.785	3124.51
830.111	3089.03
830.438	3126.54
830.764	3129.71
831.09	3134.23
831.417	3105.53
831.743	3094.68
832.069	3121.12
832.395	3121.8
832.722	3141.46
833.048	3137.62
833.374	3091.74
833.7	3084.28
834.026	3096.94
834.351	3065.75
834.677	3117.28
835.003	3101.68
835.329	3097.62
835.654	3098.97
835.98	3080.22
836.306	3117.05
836.631	3065.07
836.956	3108.69
837.282	3096.03
837.607	3093.77
837.932	3047
838.258	3100.55
838.583	3058.3
838.908	3044.28
839.233	3048.13
839.558	3017.39
839.883	3030.27
840.208	3017.62
840.533	3044.28
840.858	3024.85
841.182	3038.63
841.507	3011.74
841.832	2990.27
842.156	2981.01
842.481	2985.53
842.805	2988.24
843.13	3009.03
843.454	3006.09
843.778	2956.38
844.103	2948.24
844.427	2957.06
844.751	2979.2
845.075	2935.81
845.399	2958.64
845.723	2905.08
846.047	2956.83
846.371	2918.86
846.695	2905.98
847.019	2866.89
847.343	2856.27
847.666	2904.18
847.99	2835.25
848.313	2862.59
848.637	2845.65
848.96	2853.55
849.284	2818.3
849.607	2793.22
849.931	2816.04
850.254	2790.96
850.577	2799.77
850.9	2757.74
851.223	2745.54
851.546	2768.59
851.869	2757.74
852.192	2754.12
852.515	2720.68
852.838	2710.06
853.161	2697.17
853.483	2720
853.806	2696.5
854.129	2699.21
854.451	2664.63
854.774	2684.75
855.096	2676.16
855.419	2668.48
855.741	2641.58
856.063	2636.16
856.385	2659.89
856.708	2646.78
857.03	2610.62
857.352	2619.89
857.674	2594.58
857.996	2570.85
858.318	2595.03
858.64	2573.56
858.961	2586.22
859.283	2575.82
859.605	2572.66
859.926	2576.5
860.248	2571.3
860.57	2553
860.891	2540.57
861.212	2557.52
861.534	2553
861.855	2483.62
862.176	2535.15
862.498	2532.21
862.819	2534.02
863.14	2510.97
863.461	2517.97
863.782	2484.75
864.103	2526.78
864.424	2503.73
864.745	2482.04
865.065	2485.43
865.386	2482.72
865.707	2511.42
866.027	2481.36
866.348	2503.73
866.668	2476.39
866.989	2455.37
867.309	2451.98
867.63	2467.58
867.95	2458.09
868.27	2443.17
868.59	2452.44
868.91	2483.17
869.23	2409.72
869.55	2461.02
869.87	2450.85
870.19	2454.47
870.51	2431.87
870.83	2444.75
871.15	2431.65
871.469	2412.44
871.789	2405.43
872.109	2385.32
872.428	2411.98
872.748	2420.35
873.067	2423.96
873.386	2398.43
873.706	2356.39
874.025	2413.79
874.344	2368.6
874.663	2410.63
874.982	2395.04
875.301	2375.83
875.62	2388.03
875.939	2368.14
876.258	2372.44
876.577	2348.94
876.896	2365.88
877.214	2348.94
877.533	2405.66
877.852	2349.16
878.17	2383.96
878.489	2401.36
878.807	2317.75
879.125	2368.6
879.444	2376.05
879.762	2347.13
880.08	2343.74
880.398	2315.94
880.716	2361.82
881.034	2318.43
881.352	2348.48
881.67	2345.32
881.988	2312.1
882.306	2315.94
882.624	2311.87
882.941	2289.95
883.259	2303.51
883.577	2290.41
883.894	2305.09
884.212	2319.11
884.529	2276.39
884.846	2306
885.164	2297.19
885.481	2262.38
885.798	2237.07
886.115	2229.16
886.432	2231.42
886.75	2208.37
887.067	2261.71
887.383	2246.79
887.7	2233.91
888.017	2249.05
888.334	2243.63
888.651	2227.58
888.967	2236.4
889.284	2206.57
889.6	2230.52
889.917	2172.22
890.233	2192.33
890.55	2196.85
890.866	2189.17
891.182	2192.78
891.498	2189.39
891.815	2180.35
892.131	2141.71
892.447	2161.37
892.763	2150.3
893.079	2138.55
893.395	2118.66
893.71	2139
894.026	2127.02
894.342	2103.07
894.657	2134.93
894.973	2130.64
895.289	2114.82
895.604	2089.96
895.92	2118.43
896.235	2088.6
896.55	2085.67
896.865	2084.54
897.181	2048.6
897.496	2065.78
897.811	2067.13
898.126	2026.68
898.441	2041.37
898.756	2042.28
899.071	2030.3
899.386	2047.02
899.7	2008.83
900.015	2004.99
900.33	2004.31
900.644	2014.93
900.959	1991.66
901.273	2011.09
901.588	2009.96
901.902	1992.33
902.216	1995.5
902.531	1988.94
902.845	1974.71
903.159	1965.22
903.473	1957.76
903.787	1928.16
904.101	1991.66
904.415	1989.17
904.729	1960.02
905.042	1932.9
905.356	1943.07
905.67	1904.2
905.984	1929.51
906.297	1930.64
906.611	1879.8
906.924	1914.6
907.237	1918.44
907.551	1897.2
907.864	1905.33
908.177	1865.78
908.491	1901.04
908.804	1856.07
909.117	1852
909.43	1850.64
909.743	1851.77
910.056	1805.67
910.368	1826.46
910.681	1803.86
910.994	1810.87
911.307	1830.3
911.619	1800.02
911.932	1821.94
912.244	1798.89
912.557	1792.34
912.869	1779.23
913.181	1776.97
913.494	1747.82
913.806	1742.85
914.118	1763.64
914.43	1753.47
914.742	1757.09
915.054	1747.14
915.366	1737.65
915.678	1715.28
915.99	1728.61
916.302	1691.55
916.613	1698.33
916.925	1721.83
917.236	1695.62
917.548	1682.29
917.859	1703.3
918.171	1687.03
918.482	1685.22
918.794	1670.31
919.105	1678.44
919.416	1657.43
919.727	1671.67
920.038	1654.49
920.349	1617.88
920.66	1633.25
920.971	1634.15
921.282	1644.1
921.593	1659.46
921.903	1630.99
922.214	1630.76
922.525	1589.41
922.835	1617.2
923.146	1573.81
923.456	1600.71
923.767	1586.92
924.077	1587.37
924.387	1591.67
924.697	1573.36
925.008	1546.24
925.318	1570.42
925.628	1575.62
925.938	1553.02
926.248	1527.04
926.558	1557.09
926.867	1495.17
927.177	1536.98
927.487	1510.54
927.796	1520.03
928.106	1521.39
928.416	1505.12
928.725	1481.16
929.034	1454.72
929.344	1482.52
929.653	1489.52
929.962	1494.27
930.271	1463.99
930.581	1466.7
930.89	1481.16
931.199	1447.72
931.508	1452.69
931.817	1464.89
932.125	1472.12
932.434	1432.35
932.743	1431.9
933.051	1399.36
933.36	1417.43
933.669	1411.11
933.977	1428.73
934.286	1412.46
934.594	1411.11
934.902	1400.49
935.21	1399.36
935.519	1393.03
935.827	1397.32
936.135	1380.37
936.443	1389.64
936.751	1383.31
937.059	1389.86
937.367	1390.09
937.674	1374.05
937.982	1358.68
938.29	1362.75
938.597	1338.34
938.905	1369.53
939.213	1349.19
939.52	1333.82
939.827	1373.14
940.135	1328.85
940.442	1346.48
940.749	1301.28
941.056	1312.13
941.363	1311.22
941.67	1298.34
941.977	1283.65
942.284	1319.81
942.591	1297.21
942.898	1318
943.205	1273.48
943.511	1280.49
943.818	1303.54
944.125	1282.75
944.431	1263.99
944.738	1263.31
945.044	1247.72
945.35	1253.82
945.657	1239.36
945.963	1255.18
946.269	1254.73
946.575	1246.14
946.881	1236.65
947.187	1239.36
947.493	1248.85
947.799	1212.69
948.105	1224.9
948.41	1232.35
948.716	1194.16
949.022	1225.35
949.327	1207.95
949.633	1175.18
949.938	1195.75
950.244	1209.08
950.549	1171.11
950.854	1181.28
951.16	1188.06
951.465	1172.02
951.77	1182.19
952.075	1167.27
952.38	1179.25
952.685	1167.72
952.99	1172.47
953.294	1150.32
953.599	1134.5
953.904	1138.57
954.209	1135.41
954.513	1111.45
954.818	1133.6
955.122	1143.32
955.426	1131.34
955.731	1134.5
956.035	1121.85
956.339	1133.15
956.643	1093.15
956.948	1101.28
957.252	1119.14
957.556	1111.45
957.86	1060.16
958.163	1079.36
958.467	1087.05
958.771	1104.67
959.075	1090.66
959.378	1081.17
959.682	1062.42
959.985	1074.84
960.289	1080.95
960.592	1080.72
960.896	1063.55
961.199	1082.08
961.502	1089.76
961.805	1027.61
962.108	1051.79
962.411	1036.88
962.714	1038.46
963.017	1040.95
963.32	1049.76
963.623	1043.43
963.926	1008.86
964.228	1025.35
964.531	1027.84
964.833	1032.36
965.136	1010.67
965.438	1006.82
965.741	1010.67
966.043	1016.54
966.345	1000.04
966.648	977.67
966.95	1005.92
967.252	983.77
967.554	980.84
967.856	984.23
968.158	1014.73
968.46	992.81
968.761	955.53
969.063	956.43
969.365	977.22
969.666	949.65
969.968	971.12
970.269	952.81
970.571	946.94
970.872	985.81
971.174	996.88
971.475	943.77
971.776	951.23
972.077	956.66
972.378	937.45
972.679	940.61
972.98	941.06
973.281	959.14
973.582	933.61
973.883	930.67
974.183	931.57
974.484	924.79
974.785	937.67
975.085	903.78
975.386	912.36
975.686	911.69
975.986	897.45
976.287	926.6
976.587	892.02
976.887	888.63
977.187	913.94
977.487	890.22
977.787	891.57
978.087	893.61
978.387	881.18
978.687	885.92
978.987	875.98
979.286	863.1
979.586	880.73
979.885	874.17
980.185	884.79
980.484	875.08
980.784	862.42
981.083	899.26
981.382	862.19
981.682	854.06
981.981	869.43
982.28	868.52
982.579	834.4
982.878	867.62
983.177	846.38
983.475	855.87
983.774	815.42
984.073	857.9
984.372	814.74
984.67	824.46
984.969	835.75
985.267	833.72
985.566	839.82
985.864	826.26
986.162	827.39
986.461	833.5
986.759	833.04
987.057	796.21
987.355	820.84
987.653	792.37
987.951	784.46
988.249	782.65
988.547	806.83
988.844	814.06
989.142	784.91
989.44	787.85
989.737	785.59
990.035	782.2
990.332	773.16
990.63	793.5
990.927	777
991.224	786.04
991.521	805.02
991.819	770.22
992.116	781.52
992.413	773.84
992.71	751.69
993.006	756.66
993.303	779.26
993.6	753.05
993.897	758.47
994.193	744.46
994.49	750.33
994.787	734.74
995.083	757.11
995.379	738.36
995.676	733.16
995.972	752.59
996.268	717.34
996.565	739.49
996.861	737.45
997.157	722.99
997.453	730.22
997.749	724.8
998.044	710.33
998.34	738.58
998.636	753.05
998.932	687.06
999.227	712.82
999.523	721.41
999.818	724.12
1000.114	718.7
1000.409	693.39
1000.704	699.71
1001	708.3
1001.295	690.9
1001.59	693.39
1001.885	704.91
1002.18	693.16
1002.475	694.29
1002.77	685.93
1003.065	686.15
1003.359	689.09
1003.654	657.45
1003.949	661.07
1004.243	665.82
1004.538	676.21
1004.832	666.04
1005.127	694.52
1005.421	662.43
1005.715	673.95
1006.009	663.56
1006.304	664.46
1006.598	656.32
1006.892	648.64
1007.186	657.23
1007.48	660.39
1007.773	624.01
1008.067	647.29
1008.361	643.44
1008.655	644.57
1008.948	654.06
1009.242	626.95
1009.535	636.21
1009.829	646.16
1010.122	660.84
1010.415	615.87
1010.708	625.82
1011.001	614.97
1011.295	628.3
1011.588	617.23
1011.881	619.04
1012.173	645.7
1012.466	619.94
1012.759	595.99
1013.052	614.29
1013.344	630.56
1013.637	602.54
1013.93	597.12
1014.222	579.72
1014.514	613.39
1014.807	588.76
1015.099	631.24
1015.391	581.3
1015.683	574.29
1015.976	612.26
1016.268	593.73
1016.56	594.86
1016.851	573.16
1017.143	570
1017.435	602.31
1017.727	591.47
1018.018	559.6
1018.31	571.36
1018.602	589.21
1018.893	557.34
1019.185	554.18
1019.476	541.75
1019.767	583.33
1020.058	562.54
1020.35	548.3
1020.641	567.97
1020.932	572.26
1021.223	553.5
1021.514	551.02
1021.804	546.5
1022.095	536.1
1022.386	537.01
1022.677	548.98
1022.967	547.17
1023.258	562.99
1023.548	525.48
1023.839	512.83
1024.129	547.63
1024.419	520.28
1024.709	528.19
1025	545.59
1025.29	538.81
1025.58	520.73
1025.87	504.46
1026.16	520.06
1026.449	525.03
1026.739	501.07
1027.029	520.73
1027.319	517.35
1027.608	525.48
1027.898	516.89
1028.187	513.05
1028.477	537.68
1028.766	499.04
1029.055	490.23
1029.344	506.95
1029.634	512.37
1029.923	508.98
1030.212	501.3
1030.501	487.29
1030.79	488.87
1031.078	496.33
1031.367	487.52
1031.656	483.67
1031.945	482.09
1032.233	459.27
1032.522	487.06
1032.81	487.06
1033.099	487.52
1033.387	496.1
1033.675	483.22
1033.963	463.79
1034.251	482.54
1034.54	464.92
1034.828	496.78
1035.116	483.45
1035.403	485.71
1035.691	476.44
1035.979	455.43
1036.267	442.32
1036.554	452.71
1036.842	463.11
1037.129	479.38
1037.417	455.65
1037.704	472.6
1037.992	463.11
1038.279	461.75
1038.566	467.18
1038.853	467.18
1039.14	467.18
