Data from blue_chair_FLMS001491_00006.txt Node
Date: Wed Feb 08 10:28:55 GMT 2017
User: dcchb
Spectrometer: FLMS00149
Trigger mode: 0
Integration Time (sec): 2.000000E-2
Scans to average: 10
Electric dark correction enabled: true
Nonlinearity correction enabled: false
Boxcar width: 0
XAxis mode: Wavelengths
Number of Pixels in Spectrum: 2048
>>>>>Begin Spectral Data<<<<<
341.393	-5.2
341.776	-5.2
342.16	-5.2
342.543	-52.43
342.927	-61.02
343.31	-67.34
343.693	-56.72
344.077	-52.65
344.46	-52.2
344.843	-50.39
345.226	-43.16
345.61	-8.14
345.993	-23.05
346.376	-6.78
346.759	7.01
347.142	11.07
347.525	30.06
347.908	60.11
348.291	51.07
348.674	92.88
349.057	108.25
349.44	113.22
349.823	117.96
350.206	156.83
350.588	168.36
350.971	176.04
351.354	215.59
351.737	202.71
352.119	214.91
352.502	229.82
352.884	248.81
353.267	257.62
353.65	237.73
354.032	269.6
354.414	282.7
354.797	286.32
355.179	284.06
355.562	297.62
355.944	298.07
356.326	307.56
356.709	294.46
357.091	281.57
357.473	317.96
357.855	317.96
358.238	302.14
358.62	315.25
359.002	313.66
359.384	309.37
359.766	309.6
360.148	305.53
360.53	338.97
360.912	313.44
361.294	312.76
361.676	308.92
362.057	321.12
362.439	279.77
362.821	311.18
363.203	310.73
363.584	299.65
363.966	283.83
364.348	301.46
364.729	306.43
365.111	282.03
365.493	290.84
365.874	290.61
366.256	294.23
366.637	293.1
367.019	268.92
367.4	283.61
367.781	280.22
368.163	278.18
368.544	277.51
368.925	279.99
369.306	283.16
369.688	263.04
370.069	261.91
370.45	264.85
370.831	276.15
371.212	255.81
371.593	295.59
371.974	300.11
372.355	297.62
372.736	262.82
373.117	289.71
373.498	296.04
373.879	285.87
374.26	296.04
374.641	274.34
375.021	279.31
375.402	314.57
375.783	285.87
376.163	279.99
376.544	293.1
376.925	287.68
377.305	278.64
377.686	271.63
378.066	283.38
378.447	293.33
378.827	271.41
379.208	288.81
379.588	284.06
379.968	294.68
380.349	298.3
380.729	325.64
381.109	304.4
381.489	282.48
381.87	285.42
382.25	293.33
382.63	278.41
383.01	302.82
383.39	299.43
383.77	291.52
384.15	299.43
384.53	298.98
384.91	300.33
385.29	299.2
385.67	304.17
386.049	272.31
386.429	308.92
386.809	302.14
387.189	310.27
387.568	299.65
387.948	295.36
388.328	323.83
388.707	310.05
389.087	312.76
389.466	303.04
389.846	298.75
390.225	314.57
390.605	312.53
390.984	291.97
391.363	316.15
391.743	327.9
392.122	315.47
392.501	319.77
392.881	315.02
393.26	311.63
393.639	311.18
394.018	305.75
394.397	314.57
394.776	316.15
395.155	327.45
395.534	319.99
395.913	324.74
396.292	324.96
396.671	343.95
397.05	326.32
397.429	334.68
397.808	332.19
398.186	319.99
398.565	339.88
398.944	329.48
399.323	313.66
399.701	343.72
400.08	319.99
400.458	334.91
400.837	345.75
401.215	324.74
401.594	324.29
401.972	344.85
402.351	316.6
402.729	350.5
403.107	348.47
403.486	343.49
403.864	347.11
404.242	348.01
404.62	338.3
404.999	354.34
405.377	356.37
405.755	355.02
406.133	359.31
406.511	333.55
406.889	356.83
407.267	358.86
407.645	349.82
408.023	384.85
408.401	375.13
408.779	359.76
409.156	374.45
409.534	369.48
409.912	378.07
410.29	400.89
410.667	382.36
411.045	378.3
411.422	402.25
411.8	388.01
412.178	378.07
412.555	406.32
412.933	379.43
413.31	407.67
413.687	401.12
414.065	409.93
414.442	390.5
414.819	409.71
415.197	407.22
415.574	403.15
415.951	401.35
416.328	392.76
416.705	416.71
417.082	404.96
417.46	406.32
417.837	414.68
418.214	412.42
418.591	408.35
418.967	452.19
419.344	451.29
419.721	412.64
420.098	407.45
420.475	414.23
420.852	441.57
421.228	432.98
421.605	443.15
421.982	422.36
422.358	430.95
422.735	433.43
423.111	437.5
423.488	455.58
423.864	432.08
424.241	452.19
424.617	442.47
424.994	446.99
425.37	475.02
425.746	473.66
426.123	485.18
426.499	453.1
426.875	474.79
427.251	471.4
427.627	501.23
428.003	460.33
428.379	484.06
428.756	494.45
429.132	479.99
429.507	503.72
429.883	485.41
430.259	493.77
430.635	517.27
431.011	502.36
431.387	515.92
431.763	534
432.138	522.92
432.514	534.45
432.89	549.14
433.265	540.55
433.641	559.31
434.016	536.94
434.392	541.23
434.767	560.21
435.143	563.83
435.518	551.17
435.894	574.22
436.269	581.23
436.644	574.9
437.02	568.57
437.395	605.41
437.77	611.74
438.145	605.63
438.52	631.62
438.895	611.06
439.271	621.23
439.646	647.67
440.021	636.37
440.395	642.02
440.77	630.49
441.145	654.67
441.52	656.25
441.895	667.55
442.27	662.13
442.645	671.85
443.019	659.42
443.394	669.13
443.769	687.44
444.143	699.64
444.518	690.38
444.892	717.04
445.267	707.1
445.641	692.19
446.016	722.47
446.39	709.13
446.764	716.37
447.139	722.92
447.513	719.76
447.887	708.46
448.262	722.24
448.636	739.87
449.01	738.51
449.384	744.61
449.758	738.74
450.132	757.04
450.506	766.31
450.88	748.23
451.254	757.95
451.628	773.54
452.002	769.02
452.376	773.31
452.75	791.39
453.123	805.63
453.497	802.92
453.871	823.93
454.244	827.1
454.618	809.24
454.992	816.02
455.365	832.07
455.739	844.05
456.112	848.57
456.486	825.06
456.859	858.51
457.232	842.69
457.606	862.58
457.979	858.06
458.352	876.81
458.725	901.67
459.099	889.47
459.472	920.2
459.845	910.71
460.218	881.78
460.591	916.59
460.964	929.92
461.337	926.98
461.71	924.04
462.083	929.24
462.456	922.24
462.829	937.38
463.201	968.34
463.574	978.05
463.947	971.27
464.32	962.23
464.692	972.86
465.065	963.59
465.438	1010.59
465.81	975.34
466.183	997.04
466.555	1028.9
466.928	1049.24
467.3	1031.16
467.672	1027.77
468.045	1060.31
468.417	1061.67
468.789	1034.55
469.161	1059.18
469.534	1046.75
469.906	1086.75
470.278	1087.66
470.65	1099.86
471.022	1114.32
471.394	1117.48
471.766	1126.07
472.138	1143.02
472.51	1152.74
472.882	1164.49
473.253	1180.99
473.625	1175.11
473.997	1169.46
474.369	1180.53
474.74	1205.17
475.112	1211.49
475.484	1229.57
475.855	1236.35
476.227	1254.88
476.598	1277.93
476.97	1279.97
477.341	1278.84
477.713	1297.14
478.084	1295.56
478.455	1319.29
478.827	1316.35
479.198	1346.41
479.569	1339.17
479.94	1340.98
480.311	1358.83
480.682	1394.77
481.053	1394.77
481.424	1412.39
481.795	1418.95
482.166	1413.3
482.537	1439.96
482.908	1448.32
483.279	1441.77
483.65	1477.25
484.021	1470.24
484.391	1484.71
484.762	1500.53
485.133	1472.28
485.503	1500.98
485.874	1525.16
486.244	1505.27
486.615	1526.06
486.985	1528.77
487.356	1556.8
487.726	1556.12
488.097	1535.1
488.467	1591.14
488.837	1566.96
489.207	1599.96
489.578	1623.23
489.948	1624.59
490.318	1636.57
490.688	1582.33
491.058	1609.45
491.428	1638.38
491.798	1627.3
492.168	1610.58
492.538	1633.4
492.908	1646.28
493.278	1686.51
493.648	1653.74
494.017	1638.6
494.387	1654.65
494.757	1671.59
495.126	1639.28
495.496	1627.53
495.866	1671.14
496.235	1657.81
496.605	1646.96
496.974	1651.48
497.344	1650.8
497.713	1642.89
498.082	1657.13
498.452	1636.57
498.821	1650.35
499.19	1655.32
499.559	1658.71
499.928	1642.22
500.298	1658.04
500.667	1627.08
501.036	1641.54
501.405	1641.54
501.774	1613.06
502.143	1632.5
502.512	1635.44
502.88	1648.54
503.249	1625.04
503.618	1618.04
503.987	1615.32
504.356	1628.88
504.724	1614.42
505.093	1629.11
505.462	1596.12
505.83	1587.3
506.199	1612.84
506.567	1628.21
506.936	1597.02
507.304	1614.42
507.672	1610.35
508.041	1558.83
508.409	1621.2
508.777	1600.41
509.145	1601.99
509.514	1582.11
509.882	1585.04
510.25	1588.66
510.618	1592.5
510.986	1581.2
511.354	1551.37
511.722	1545.04
512.09	1583.01
512.458	1555.89
512.826	1559.73
513.193	1569.45
513.561	1554.08
513.929	1547.08
514.297	1547.98
514.664	1543.91
515.032	1534.2
515.4	1538.26
515.767	1520.19
516.135	1518.83
516.502	1488.32
516.869	1517.7
517.237	1512.05
517.604	1479.51
517.972	1469.79
518.339	1485.38
518.706	1486.51
519.073	1470.47
519.44	1470.92
519.808	1465.72
520.175	1468.44
520.542	1450.81
520.909	1484.03
521.276	1464.82
521.643	1444.03
522.009	1466.18
522.376	1452.39
522.743	1426.63
523.11	1423.47
523.477	1465.95
523.843	1441.09
524.21	1459.85
524.577	1460.98
524.943	1453.75
525.31	1443.58
525.676	1457.36
526.043	1428.66
526.409	1414.65
526.776	1451.04
527.142	1437.48
527.508	1427.31
527.874	1452.62
528.241	1431.15
528.607	1440.64
528.973	1466.4
529.339	1421.88
529.705	1438.61
530.071	1458.27
530.437	1438.83
530.803	1412.17
531.169	1434.31
531.535	1391.6
531.901	1410.13
532.267	1427.99
532.632	1422.79
532.998	1407.42
533.364	1432.28
533.73	1441.77
534.095	1418.95
534.461	1381.66
534.826	1422.79
535.192	1430.7
535.557	1438.61
535.923	1395.44
536.288	1394.31
536.653	1434.76
537.019	1405.39
537.384	1413.07
537.749	1391.83
538.114	1405.16
538.479	1400.42
538.845	1391.83
539.21	1364.94
539.575	1397.25
539.94	1373.3
540.305	1402.45
540.67	1399.74
541.034	1386.18
541.399	1406.29
541.764	1354.54
542.129	1363.81
542.494	1375.33
542.858	1364.94
543.223	1378.95
543.587	1379.85
543.952	1386.4
544.316	1382.34
544.681	1383.69
545.045	1372.17
545.41	1376.46
545.774	1369.91
546.138	1351.6
546.503	1341.43
546.867	1387.99
547.231	1365.39
547.595	1337.37
547.959	1345.95
548.324	1339.17
548.688	1354.31
549.052	1336.24
549.416	1306.86
549.779	1328.78
550.143	1302.34
550.507	1312.73
550.871	1315.22
551.235	1301.89
551.599	1323.36
551.962	1302.79
552.326	1323.58
552.689	1336.69
553.053	1329
553.417	1326.52
553.78	1329.91
554.143	1324.03
554.507	1294.2
554.87	1312.51
555.234	1337.59
555.597	1298.04
555.96	1307.54
556.323	1299.85
556.686	1297.37
557.05	1310.47
557.413	1297.37
557.776	1312.73
558.139	1282.23
558.502	1314.32
558.865	1274.54
559.228	1300.3
559.59	1289.68
559.953	1312.73
560.316	1312.51
560.679	1293.3
561.041	1300.76
561.404	1320.87
561.767	1316.12
562.129	1285.39
562.492	1327.65
562.854	1294.66
563.217	1306.63
563.579	1303.24
563.941	1293.53
564.304	1294.66
564.666	1300.98
565.028	1331.26
565.39	1313.19
565.753	1322
566.115	1326.74
566.477	1316.35
566.839	1302.79
567.201	1319.29
567.563	1313.19
567.925	1347.54
568.287	1305.28
568.648	1328.33
569.01	1314.09
569.372	1342.11
569.734	1336.24
570.095	1366.29
570.457	1351.38
570.819	1351.6
571.18	1350.02
571.542	1359.06
571.903	1341.21
572.265	1348.89
572.626	1333.3
572.987	1384.6
573.349	1381.66
573.71	1369.68
574.071	1378.95
574.432	1359.51
574.794	1389.12
575.155	1385.5
575.516	1377.59
575.877	1375.78
576.238	1392.51
576.599	1393.64
576.96	1410.13
577.32	1424.82
577.681	1420.3
578.042	1413.52
578.403	1401.77
578.763	1411.49
579.124	1400.64
579.485	1447.19
579.845	1442.67
580.206	1437.48
580.566	1429.57
580.927	1439.51
581.287	1445.16
581.648	1426.18
582.008	1433.86
582.368	1456.68
582.728	1449.91
583.089	1439.74
583.449	1479.74
583.809	1472.28
584.169	1462.79
584.529	1440.64
584.889	1430.47
585.249	1465.5
585.609	1453.07
585.969	1458.27
586.329	1470.24
586.688	1479.51
587.048	1474.09
587.408	1481.32
587.768	1460.75
588.127	1473.63
588.487	1436.8
588.846	1480.64
589.206	1502.79
589.565	1464.59
589.925	1482.22
590.284	1467.76
590.643	1472.28
591.003	1463.92
591.362	1456.68
591.721	1501.66
592.08	1504.14
592.44	1507.08
592.799	1479.06
593.158	1478.38
593.517	1476.8
593.876	1470.02
594.235	1491.71
594.593	1477.7
594.952	1493.29
595.311	1491.71
595.67	1484.93
596.029	1489.23
596.387	1492.62
596.746	1496.01
597.104	1464.59
597.463	1490.81
597.822	1460.53
598.18	1471.83
598.538	1465.72
598.897	1478.61
599.255	1463.69
599.613	1502.33
599.972	1473.86
600.33	1476.8
600.688	1455.78
601.046	1458.49
601.404	1476.12
601.762	1448.1
602.12	1470.92
602.478	1466.18
602.836	1458.72
603.194	1476.12
603.552	1482.45
603.91	1452.62
604.268	1463.92
604.625	1490.36
604.983	1470.47
605.341	1505.5
605.698	1462.79
606.056	1482.45
606.413	1457.36
606.771	1476.12
607.128	1493.29
607.485	1448.55
607.843	1482.22
608.2	1486.06
608.557	1481.54
608.914	1500.98
609.272	1481.32
609.629	1492.84
609.986	1498.04
610.343	1487.87
610.7	1498.94
611.057	1482.67
611.414	1491.49
611.771	1480.87
612.127	1506.4
612.484	1473.18
612.841	1470.47
613.198	1461.66
613.554	1485.16
613.911	1497.14
614.267	1484.48
614.624	1485.84
614.98	1492.84
615.337	1519.73
615.693	1495.78
616.05	1494.65
616.406	1505.05
616.762	1517.47
617.118	1492.16
617.475	1487.87
617.831	1503.46
618.187	1494.42
618.543	1488.1
618.899	1510.02
619.255	1497.81
619.611	1495.1
619.967	1536
620.323	1500.3
620.678	1515.44
621.034	1509.56
621.39	1484.93
621.746	1459.85
622.101	1530.58
622.457	1529.68
622.812	1488.1
623.168	1510.47
623.523	1515.89
623.879	1519.51
624.234	1503.46
624.589	1538.04
624.945	1516.57
625.3	1539.85
625.655	1528.1
626.01	1509.56
626.365	1544.59
626.72	1533.29
627.075	1519.73
627.43	1526.97
627.785	1519.73
628.14	1514.76
628.495	1522.67
628.85	1531.94
629.205	1527.64
629.559	1557.93
629.914	1506.18
630.269	1529
630.623	1522.9
630.978	1521.09
631.332	1539.17
631.687	1511.6
632.041	1492.16
632.396	1520.86
632.75	1533.74
633.104	1516.12
633.459	1503.69
633.813	1506.18
634.167	1509.34
634.521	1551.82
634.875	1549.56
635.229	1533.52
635.583	1502.33
635.937	1553.86
636.291	1522.45
636.645	1523.58
636.999	1546.4
637.352	1535.78
637.706	1501.43
638.06	1536.68
638.413	1523.8
638.767	1533.07
639.121	1521.99
639.474	1493.29
639.828	1513.18
640.181	1526.06
640.534	1518.15
640.888	1536.23
641.241	1524.48
641.594	1520.41
641.947	1555.21
642.301	1543.69
642.654	1514.08
643.007	1541.43
643.36	1543.24
643.713	1527.42
644.066	1550.92
644.419	1556.57
644.771	1507.98
645.124	1491.26
645.477	1540.75
645.83	1521.09
646.182	1531.94
646.535	1518.15
646.888	1504.82
647.24	1501.2
647.593	1534.87
647.945	1492.39
648.298	1533.07
648.65	1505.5
649.002	1492.62
649.355	1539.85
649.707	1509.11
650.059	1520.64
650.411	1553.41
650.763	1597.92
651.115	1547.53
651.467	1568.55
651.819	1580.98
652.171	1597.92
652.523	1588.66
652.875	1571.03
653.227	1561.99
653.578	1553.86
653.93	1602.22
654.282	1577.81
654.633	1586.4
654.985	1574.2
655.337	1593.18
655.688	1576.23
656.039	1591.6
656.391	1571.94
656.742	1591.14
657.094	1590.92
657.445	1576.91
657.796	1584.59
658.147	1581.43
658.498	1597.02
658.849	1609.68
659.2	1622.78
659.551	1610.13
659.902	1606.51
660.253	1610.13
660.604	1613.52
660.955	1626.4
661.306	1620.75
661.656	1617.58
662.007	1585.04
662.358	1614.87
662.708	1621.65
663.059	1604.48
663.409	1630.92
663.76	1619.62
664.11	1612.61
664.461	1616.23
664.811	1614.19
665.161	1628.88
665.511	1638.15
665.862	1645.15
666.212	1617.36
666.562	1611.48
666.912	1640.41
667.262	1641.54
667.612	1589.11
667.962	1646.96
668.312	1614.65
668.662	1605.83
669.011	1623.23
669.361	1626.17
669.711	1619.17
670.06	1628.88
670.41	1609
670.76	1591.82
671.109	1621.43
671.459	1625.95
671.808	1600.41
672.157	1622.78
672.507	1599.96
672.856	1601.31
673.205	1619.62
673.554	1573.52
673.904	1592.05
674.253	1570.13
674.602	1579.85
674.951	1557.25
675.3	1553.63
675.649	1591.6
675.998	1576.23
676.346	1577.36
676.695	1554.54
677.044	1585.27
677.393	1574.42
677.741	1573.52
678.09	1586.85
678.438	1604.25
678.787	1582.11
679.135	1580.3
679.484	1549.79
679.832	1560.64
680.181	1562.67
680.529	1564.7
680.877	1531.71
681.225	1547.76
681.573	1536.91
681.922	1545.95
682.27	1561.09
682.618	1537.13
682.966	1533.74
683.314	1562.44
683.661	1551.6
684.009	1554.08
684.357	1510.47
684.705	1540.75
685.053	1514.76
685.4	1523.12
685.748	1489
686.095	1472.96
686.443	1515.44
686.79	1478.15
687.138	1480.87
687.485	1492.16
687.832	1502.33
688.18	1486.06
688.527	1486.06
688.874	1475.22
689.221	1482.67
689.568	1458.27
689.915	1446.06
690.262	1457.81
690.609	1453.07
690.956	1474.31
691.303	1460.75
691.65	1455.78
691.997	1448.1
692.344	1467.08
692.69	1439.06
693.037	1448.55
693.383	1429.34
693.73	1440.19
694.077	1406.06
694.423	1403.8
694.769	1414.88
695.116	1381.88
695.462	1446.06
695.808	1403.13
696.155	1394.54
696.501	1374.43
696.847	1385.5
697.193	1384.6
697.539	1387.76
697.885	1362.68
698.231	1377.36
698.577	1375.56
698.923	1384.6
699.269	1384.37
699.614	1336.91
699.96	1349.12
700.306	1378.49
700.651	1379.4
700.997	1355.67
701.342	1357.48
701.688	1354.99
702.033	1361.55
702.379	1327.42
702.724	1308.67
703.069	1355.22
703.415	1364.94
703.76	1350.02
704.105	1357.48
704.45	1334.65
704.795	1358.16
705.14	1353.41
705.485	1330.36
705.83	1335.11
706.175	1350.92
706.52	1344.82
706.865	1329
707.209	1326.29
707.554	1329
707.899	1311.6
708.243	1323.81
708.588	1327.2
708.932	1330.36
709.277	1353.64
709.621	1336.46
709.966	1301.89
710.31	1352.51
710.654	1349.12
710.998	1344.6
711.342	1332.17
711.687	1321.1
712.031	1315.22
712.375	1316.12
712.719	1325.61
713.063	1322.23
713.407	1336.01
713.75	1308.21
714.094	1341.43
714.438	1319.51
714.782	1375.56
715.125	1348.67
715.469	1357.93
715.812	1333.52
716.156	1333.3
716.499	1352.96
716.843	1353.64
717.186	1345.28
717.53	1381.66
717.873	1365.61
718.216	1339.17
718.559	1365.16
718.902	1335.56
719.246	1359.96
719.589	1387.99
719.932	1403.58
720.275	1364.94
720.617	1393.18
720.96	1409.23
721.303	1374.65
721.646	1394.54
721.989	1413.07
722.331	1416.91
722.674	1392.51
723.016	1402.45
723.359	1447.19
723.701	1436.8
724.044	1407.42
724.386	1435.22
724.729	1423.01
725.071	1471.83
725.413	1452.84
725.755	1440.19
726.097	1464.59
726.439	1443.8
726.782	1481.09
727.124	1482.67
727.465	1465.05
727.807	1490.58
728.149	1479.06
728.491	1465.05
728.833	1481.77
729.175	1516.8
729.516	1518.38
729.858	1521.09
730.199	1540.07
730.541	1527.42
730.882	1537.59
731.224	1569.68
731.565	1541.2
731.906	1559.96
732.248	1589.34
732.589	1533.74
732.93	1597.7
733.271	1607.64
733.612	1588.21
733.953	1604.93
734.294	1632.73
734.635	1639.28
734.976	1645.61
735.317	1644.7
735.658	1673.18
735.999	1690.35
736.339	1681.54
736.68	1686.51
737.021	1703.91
737.361	1712.95
737.702	1703.23
738.042	1712.05
738.383	1770.12
738.723	1772.83
739.063	1779.16
739.404	1757.02
739.744	1776
740.084	1804.47
740.424	1824.36
740.764	1858.71
741.104	1865.04
741.444	1889.22
741.784	1856.9
742.124	1933.51
742.464	1930.34
742.804	1940.51
743.143	1971.47
743.483	1994.52
743.823	2013.28
744.162	2061.64
744.502	2058.25
744.841	2075.65
745.181	2113.39
745.52	2110.68
745.86	2168.3
746.199	2201.07
746.538	2190.9
746.877	2235.42
747.216	2263.44
747.556	2309.09
747.895	2384.57
748.234	2376.43
748.573	2414.4
748.911	2418.69
749.25	2436.55
749.589	2503.21
749.928	2550.89
750.267	2555.41
750.605	2628.18
750.944	2659.37
751.283	2703.21
751.621	2770.77
751.96	2771.9
752.298	2813.03
752.636	2825.01
752.975	2911.11
753.313	2914.73
753.651	2974.84
753.989	3053.71
754.327	3061.84
754.666	3163.76
755.004	3201.5
755.342	3222.51
755.679	3302.96
756.017	3310.2
756.355	3366.47
756.693	3381.61
757.031	3471.77
757.368	3556.74
757.706	3591.32
758.044	3667.02
758.381	3691.65
758.719	3748.15
759.056	3768.26
759.394	3847.58
759.731	3856.62
760.068	3978.65
760.405	4003.06
760.743	4035.15
761.08	4154.69
761.417	4147.91
761.754	4213
762.091	4201.47
762.428	4337.06
762.765	4321.47
763.102	4392.2
763.438	4475.14
763.775	4488.24
764.112	4539.99
764.449	4631.06
764.785	4644.4
765.122	4621.8
765.458	4713.1
765.795	4737.73
766.131	4783.15
766.467	4875.35
766.804	4894.33
767.14	4883.49
767.476	4940.66
767.812	4976.59
768.148	5036.7
768.485	5075.8
768.821	5084.84
769.157	5117.38
769.492	5138.17
769.828	5200.99
770.164	5280.77
770.5	5232.86
770.836	5280.54
771.171	5299.75
771.507	5348.56
771.842	5320.09
772.178	5396.24
772.513	5436.69
772.849	5466.75
773.184	5458.16
773.519	5493.64
773.855	5539.29
774.19	5548.55
774.525	5536.13
774.86	5623.13
775.195	5614.32
775.53	5640.53
775.865	5621.1
776.2	5624.03
776.535	5624.94
776.87	5724.6
777.205	5684.37
777.539	5667.42
777.874	5724.37
778.209	5707.42
778.543	5732.73
778.878	5720.98
779.212	5735.22
779.547	5759.17
779.881	5816.8
780.215	5850.92
780.55	5784.71
780.884	5824.93
781.218	5837.81
781.552	5846.17
781.886	5883.69
782.22	5809.34
782.554	5820.19
782.888	5819.06
783.222	5829.68
783.556	5829.68
783.889	5863.57
784.223	5842.11
784.557	5811.6
784.89	5895.44
785.224	5861.77
785.557	5855.67
785.891	5842.33
786.224	5854.99
786.558	5930.92
786.891	5854.99
787.224	5846.17
787.557	5878.26
787.891	5875.33
788.224	5837.59
788.557	5917.58
788.89	5872.39
789.223	5869.22
789.556	5860.18
789.888	5882.56
790.221	5845.27
790.554	5867.87
790.887	5860.18
791.219	5859.51
791.552	5874.42
791.884	5872.39
792.217	5870.81
792.549	5862.22
792.882	5850.47
793.214	5810.24
793.546	5850.24
793.879	5841.43
794.211	5803.24
794.543	5790.81
794.875	5835.55
795.207	5895.89
795.539	5849.34
795.871	5794.2
796.203	5783.12
796.535	5786.97
796.867	5811.82
797.198	5786.29
797.53	5824.93
797.862	5792.39
798.193	5822.45
798.525	5789
798.856	5849.56
799.188	5701.54
799.519	5691.6
799.85	5706.52
800.182	5716.69
800.513	5769.34
800.844	5676.91
801.175	5733.63
801.506	5742.45
801.837	5684.6
802.168	5732.28
802.499	5686.63
802.83	5637.14
803.161	5637.14
803.491	5642.11
803.822	5654.09
804.153	5646.41
804.483	5606.63
804.814	5585.84
805.145	5657.25
805.475	5551.04
805.805	5596.91
806.136	5577.03
806.466	5633.98
806.796	5571.15
807.126	5571.15
807.457	5559.4
807.787	5582.23
808.117	5569.35
808.447	5543.58
808.777	5573.86
809.107	5521.21
809.436	5533.87
809.766	5571.6
810.096	5554.66
810.426	5506.97
810.755	5529.12
811.085	5530.48
811.414	5497.93
811.744	5514.21
812.073	5523.02
812.403	5475.56
812.732	5503.13
813.061	5471.27
813.39	5478.5
813.719	5441.89
814.049	5471.49
814.378	5412.74
814.707	5434.43
815.036	5410.25
815.365	5379.29
815.693	5391.95
816.022	5372.74
816.351	5344.72
816.68	5385.85
817.008	5401.44
817.337	5357.6
817.665	5342.91
817.994	5356.24
818.322	5305.85
818.651	5325.96
818.979	5335.45
819.307	5340.2
819.636	5354.21
819.964	5268.79
820.292	5286.41
820.62	5293.19
820.948	5258.39
821.276	5351.95
821.604	5325.28
821.932	5320.76
822.259	5271.5
822.587	5331.39
822.915	5312.4
823.243	5351.27
823.57	5353.31
823.898	5345.62
824.225	5316.24
824.553	5328.45
824.88	5330.48
825.207	5360.31
825.535	5331.61
825.862	5322.57
826.189	5341.78
826.516	5390.59
826.843	5391.27
827.17	5366.41
827.497	5384.27
827.824	5370.25
828.151	5373.87
828.478	5382.91
828.805	5345.4
829.131	5366.64
829.458	5369.35
829.785	5312.63
830.111	5379.07
830.438	5403.47
830.764	5357.83
831.09	5399.41
831.417	5312.63
831.743	5388.33
832.069	5416.58
832.395	5411.16
832.722	5373.42
833.048	5363.25
833.374	5365.28
833.7	5339.75
834.026	5349.46
834.351	5386.3
834.677	5374.32
835.003	5412.97
835.329	5332.06
835.654	5362.57
835.98	5343.14
836.306	5338.62
836.631	5363.93
836.956	5330.71
837.282	5350.14
837.607	5330.71
837.932	5301.56
838.258	5312.4
838.583	5337.26
838.908	5272.86
839.233	5304.27
839.558	5269.92
839.883	5259.07
840.208	5246.87
840.533	5247.09
840.858	5280.09
841.182	5280.99
841.507	5279.64
841.832	5260.65
842.156	5242.57
842.481	5250.48
842.805	5240.99
843.13	5267.88
843.454	5187.89
843.778	5204.83
844.103	5188.79
844.427	5193.76
844.751	5125.97
845.075	5164.38
845.399	5166.64
845.723	5056.82
846.047	5148.11
846.371	5040.32
846.695	5068.79
847.019	5023.37
847.343	5037.61
847.666	4969.13
847.99	4974.56
848.313	4962.81
848.637	4978.85
848.96	4958.51
849.284	4941.79
849.607	4913.09
849.931	4912.19
850.254	4886.65
850.577	4882.36
850.9	4793.55
851.223	4803.94
851.546	4779.99
851.869	4745.86
852.192	4786.77
852.515	4724.4
852.838	4732.53
853.161	4751.06
853.483	4694.79
853.806	4702.02
854.129	4693.21
854.451	4682.36
854.774	4682.14
855.096	4645.75
855.419	4643.72
855.741	4614.79
856.063	4618.86
856.385	4623.83
856.708	4547
857.03	4581.35
857.352	4601.91
857.674	4561.24
857.996	4530.28
858.318	4556.72
858.64	4537.06
858.961	4528.47
859.283	4467.23
859.605	4477.62
859.926	4459.77
860.248	4431.07
860.57	4460.22
860.891	4438.08
861.212	4420.22
861.534	4439.88
861.855	4416.16
862.176	4384.07
862.498	4398.3
862.819	4380.9
863.14	4415.03
863.461	4413.44
863.782	4380.45
864.103	4374.57
864.424	4356.27
864.745	4375.25
865.065	4347.46
865.386	4308.59
865.707	4325.54
866.027	4323.05
866.348	4354.24
866.668	4290.73
866.989	4263.39
867.309	4257.97
867.63	4307.91
867.95	4253.9
868.27	4253.45
868.59	4260.68
868.91	4261.81
869.23	4227.69
869.55	4201.02
869.87	4256.16
870.19	4247.8
870.51	4277.63
870.83	4219.1
871.15	4268.14
871.469	4186.78
871.789	4217.97
872.109	4231.3
872.428	4159.21
872.748	4159.44
873.067	4188.36
873.386	4147.24
873.706	4180.68
874.025	4177.97
874.344	4113.34
874.663	4177.97
874.982	4145.88
875.301	4149.04
875.62	4130.74
875.939	4112.21
876.258	4135.94
876.577	4075.83
876.896	4116.28
877.214	4083.28
877.533	4127.58
877.852	4070.85
878.17	4087.58
878.489	4096.16
878.807	4075.6
879.125	4078.76
879.444	4035.15
879.762	4015.49
880.08	4023.85
880.398	4040.35
880.716	4012.1
881.034	4026.56
881.352	4007.58
881.67	3992.66
881.988	4027.92
882.306	4037.86
882.624	3980.69
882.941	3960.35
883.259	3968.71
883.577	3934.13
883.894	3977.75
884.212	3925.55
884.529	3975.71
884.846	3921.93
885.164	3954.47
885.481	3888.94
885.798	3926
886.115	3863.18
886.432	3900.91
886.75	3870.63
887.067	3889.84
887.383	3834.7
887.7	3827.47
888.017	3829.05
888.334	3861.37
888.651	3842.16
888.967	3816.85
889.284	3749.51
889.6	3778.66
889.917	3775.49
890.233	3736.4
890.55	3753.12
890.866	3723.97
891.182	3718.09
891.498	3728.26
891.815	3680.58
892.131	3685.78
892.447	3671.77
892.763	3683.52
893.079	3636.51
893.395	3644.42
893.71	3658.43
894.026	3603.07
894.342	3639.45
894.657	3622.73
894.973	3604.65
895.289	3614.82
895.604	3591.54
895.92	3549.74
896.235	3593.35
896.55	3537.31
896.865	3551.32
897.181	3529.4
897.496	3507.48
897.811	3530.75
898.126	3478.1
898.441	3457.54
898.756	3449.85
899.071	3469.06
899.386	3462.96
899.7	3443.75
900.015	3417.31
900.33	3410.31
900.644	3378.22
900.959	3395.16
901.273	3358.56
901.588	3374.37
901.902	3358.78
902.216	3346.13
902.531	3265.45
902.845	3362.85
903.159	3314.94
903.473	3289.41
903.787	3239.01
904.101	3249.86
904.415	3286.69
904.729	3246.69
905.042	3240.82
905.356	3199.69
905.67	3207.15
905.984	3162.4
906.297	3216.19
906.611	3147.71
906.924	3143.19
907.237	3172.57
907.551	3151.1
907.864	3126.25
908.177	3130.09
908.491	3116.98
908.804	3135.06
909.117	3086.7
909.43	3047.6
909.743	3072.46
910.056	3028.62
910.368	3042.63
910.681	3037.21
910.994	2997.89
911.307	3005.57
911.619	2963.54
911.932	2941.39
912.244	2967.38
912.557	2958.79
912.869	2928.96
913.181	2936.19
913.494	2938.45
913.806	2904.1
914.118	2894.16
914.43	2896.42
914.742	2884.22
915.054	2856.42
915.366	2830.89
915.678	2811
915.99	2860.04
916.302	2809.19
916.613	2761.74
916.925	2774.39
917.236	2807.61
917.548	2784.11
917.859	2758.35
918.171	2775.52
918.482	2745.69
918.794	2716.76
919.105	2708.86
919.416	2701.17
919.727	2698.91
920.038	2720.83
920.349	2701.4
920.66	2660.72
920.971	2653.49
921.282	2650.78
921.593	2661.62
921.903	2621.17
922.214	2590.67
922.525	2594.73
922.835	2609.65
923.146	2608.29
923.456	2567.62
923.767	2577.33
924.077	2578.24
924.387	2542.08
924.697	2576.88
925.008	2536.43
925.318	2522.42
925.628	2500.73
925.938	2527.62
926.248	2515.41
926.558	2486.94
926.867	2460.73
927.177	2466.15
927.487	2472.48
927.796	2439.71
928.106	2463.21
928.416	2455.08
928.725	2434.06
929.034	2393.61
929.344	2454.62
929.653	2441.29
929.962	2396.77
930.271	2357.45
930.581	2400.61
930.89	2351.8
931.199	2323.78
931.508	2323.55
931.817	2357.23
932.125	2295.76
932.434	2320.16
932.743	2323.33
933.051	2304.35
933.36	2311.58
933.669	2280.17
933.977	2260.28
934.286	2272.48
934.594	2288.08
934.902	2238.81
935.21	2242.88
935.519	2251.47
935.827	2210.11
936.135	2231.35
936.443	2176.21
936.751	2201.98
937.059	2172.6
937.367	2161.3
937.674	2204.91
937.982	2180.96
938.29	2157.01
938.597	2169.43
938.905	2124.24
939.213	2113.62
939.52	2126.95
939.827	2132.83
940.135	2089.44
940.442	2094.63
940.749	2096.89
941.056	2090.57
941.363	2077.91
941.67	2091.92
941.977	2052.15
942.284	2029.78
942.591	2024.13
942.898	2047.18
943.205	2077.46
943.511	2019.38
943.818	1992.26
944.125	2005.82
944.431	1997.46
944.738	2010.57
945.044	2008.31
945.35	1986.61
945.657	1935.09
945.963	1957.46
946.269	1977.8
946.575	1967.41
946.881	1915.66
947.187	1941.42
947.493	1918.82
947.799	1932.38
948.105	1907.75
948.41	1894.19
948.716	1908.65
949.022	1872.72
949.327	1902.32
949.633	1877.92
949.938	1856.9
950.244	1883.57
950.549	1863.68
950.854	1854.19
951.16	1827.97
951.465	1853.74
951.77	1804.47
952.075	1807.86
952.38	1806.96
952.685	1804.02
952.99	1836.56
953.294	1799.05
953.599	1791.82
953.904	1802.66
954.209	1774.19
954.513	1776.68
954.818	1755.21
955.122	1764.7
955.426	1729.45
955.731	1729.9
956.035	1696.23
956.339	1707.07
956.643	1713.85
956.948	1703.68
957.252	1666.17
957.556	1702.1
957.86	1698.94
958.163	1708.88
958.467	1686.28
958.771	1669.33
959.075	1688.77
959.378	1638.83
959.682	1650.35
959.985	1665.72
960.289	1647.41
960.592	1619.39
960.896	1622.1
961.199	1641.76
961.502	1623.46
961.805	1593.18
962.108	1590.69
962.411	1591.37
962.714	1568.55
963.017	1580.75
963.32	1586.17
963.623	1595.21
963.926	1583.01
964.228	1555.67
964.531	1559.51
964.833	1560.41
965.136	1545.72
965.438	1563.12
965.741	1532.39
966.043	1524.03
966.345	1556.57
966.648	1515.44
966.95	1519.51
967.252	1534.2
967.554	1479.51
967.856	1483.58
968.158	1498.27
968.46	1455.33
968.761	1463.01
969.063	1489.23
969.365	1456.01
969.666	1434.99
969.968	1437.93
970.269	1466.18
970.571	1435.89
970.872	1460.98
971.174	1442.67
971.475	1430.02
971.776	1416.91
972.077	1393.86
972.378	1402.45
972.679	1407.42
972.98	1383.24
973.281	1422.11
973.582	1422.34
973.883	1407.65
974.183	1407.65
974.484	1424.37
974.785	1379.62
975.085	1367.87
975.386	1370.59
975.686	1354.09
975.986	1356.12
976.287	1340.53
976.587	1322.68
976.887	1319.97
977.187	1301.66
977.487	1327.87
977.787	1334.2
978.087	1326.07
978.387	1311.38
978.687	1328.33
978.987	1275.9
979.286	1302.56
979.586	1303.69
979.885	1290.59
980.185	1303.02
980.484	1288.1
980.784	1270.02
981.083	1272.96
981.382	1251.49
981.682	1251.04
981.981	1239.29
982.28	1257.59
982.579	1239.74
982.878	1225.5
983.177	1253.98
983.475	1246.97
983.774	1221.21
984.073	1218.27
984.372	1212.4
984.67	1230.25
984.969	1206.07
985.267	1194.54
985.566	1176.47
985.864	1180.76
986.162	1171.27
986.461	1183.92
986.759	1191.38
987.057	1169.01
987.355	1182.12
987.653	1178.95
987.951	1135.79
988.249	1145.73
988.547	1141.89
988.844	1161.33
989.142	1143.47
989.44	1138.28
989.737	1137.15
990.035	1132.17
990.332	1113.42
990.63	1149.8
990.927	1120.65
991.224	1114.1
991.521	1103.7
991.819	1104.83
992.116	1110.48
992.413	1076.13
992.71	1098.95
993.006	1089.01
993.303	1076.36
993.6	1083.36
993.897	1074.77
994.193	1065.06
994.49	1093.08
994.787	1072.29
995.083	1058.5
995.379	1046.98
995.676	1048.11
995.972	1045.4
996.268	1043.36
996.565	1045.85
996.861	1055.34
997.157	1038.16
997.453	1038.84
997.749	1038.39
998.044	1020.99
998.34	1015.57
998.636	1003.36
998.932	1009.24
999.227	991.61
999.523	1003.59
999.818	988.22
1000.114	986.87
1000.409	997.71
1000.704	983.48
1001	987.32
1001.295	977.83
1001.59	962.01
1001.885	959.07
1002.18	948
1002.475	931.95
1002.77	966.75
1003.065	954.55
1003.359	937.38
1003.654	943.03
1003.949	933.99
1004.243	914.1
1004.538	915.23
1004.832	938.51
1005.127	911.39
1005.421	920.2
1005.715	895.8
1006.009	911.84
1006.304	907.32
1006.598	858.06
1006.892	893.99
1007.186	860.32
1007.48	880.43
1007.773	889.92
1008.067	894.67
1008.361	860.32
1008.655	873.65
1008.948	825.97
1009.242	860.99
1009.535	868.45
1009.829	851.5
1010.122	856.7
1010.415	825.06
1010.708	852.18
1011.001	815.12
1011.295	845.63
1011.588	849.24
1011.881	817.15
1012.173	833.2
1012.466	824.39
1012.759	807.89
1013.052	827.77
1013.344	791.62
1013.637	791.39
1013.93	794.33
1014.222	807.21
1014.514	771.51
1014.807	798.4
1015.099	783.71
1015.391	784.61
1015.683	771.73
1015.976	784.39
1016.268	776.7
1016.56	764.95
1016.851	745.74
1017.143	752.75
1017.435	748
1017.727	738.29
1018.018	741.45
1018.31	754.1
1018.602	739.19
1018.893	720.43
1019.185	749.13
1019.476	729.47
1019.767	722.92
1020.058	726.53
1020.35	722.24
1020.641	709.81
1020.932	729.92
1021.223	691.51
1021.514	738.06
1021.804	708.68
1022.095	713.2
1022.386	680.43
1022.677	698.06
1022.967	701.45
1023.258	690.83
1023.548	666.65
1023.839	691.73
1024.129	674.56
1024.419	655.8
1024.709	681.79
1025	692.86
1025.29	671.39
1025.58	661.68
1025.87	671.39
1026.16	659.64
1026.449	654.45
1026.739	625.07
1027.029	663.03
1027.319	650.15
1027.608	630.94
1027.898	642.47
1028.187	654.45
1028.477	648.12
1028.766	622.13
1029.055	611.28
1029.344	621.9
1029.634	634.56
1029.923	602.24
1030.212	604.5
1030.501	599.76
1030.79	612.41
1031.078	615.13
1031.367	599.08
1031.656	637.05
1031.945	596.37
1032.233	589.59
1032.522	592.07
1032.81	595.24
1033.099	599.98
1033.387	588.69
1033.675	579.19
1033.963	579.42
1034.251	595.01
1034.54	558.86
1034.828	573.09
1035.116	571.28
1035.403	542.13
1035.691	583.49
1035.979	563.83
1036.267	544.17
1036.554	554.79
1036.842	561.34
1037.129	548.46
1037.417	551.17
1037.704	531.74
1037.992	552.98
1038.279	547.1
1038.566	532.87
1038.853	532.87
1039.14	532.87
