Data from blue_shiny_book_FLMS001491_00037.txt Node
Date: Wed Feb 08 15:26:53 GMT 2017
User: dcchb
Spectrometer: FLMS00149
Trigger mode: 0
Integration Time (sec): 2.000000E-2
Scans to average: 10
Electric dark correction enabled: true
Nonlinearity correction enabled: false
Boxcar width: 0
XAxis mode: Wavelengths
Number of Pixels in Spectrum: 2048
>>>>>Begin Spectral Data<<<<<
341.393	-13.15
341.776	-13.15
342.16	-13.15
342.543	-86.37
342.927	-47.05
343.31	-61.74
343.693	-40.72
344.077	-58.35
344.46	-68.74
344.843	-71.9
345.226	-27.61
345.61	-26.03
345.993	-20.15
346.376	1.09
346.759	-1.62
347.142	39.96
347.525	39.28
347.908	42.22
348.291	63.01
348.674	93.29
349.057	98.03
349.44	131.71
349.823	149.33
350.206	158.37
350.588	200.63
350.971	220.06
351.354	226.62
351.737	237.92
352.119	245.83
352.502	253.06
352.884	275.88
353.267	278.82
353.65	293.74
354.032	310.23
354.414	321.08
354.797	328.76
355.179	314.07
355.562	335.77
355.944	331.47
356.326	337.12
356.709	370.12
357.091	325.15
357.473	341.87
357.855	339.38
358.238	350.68
358.62	356.33
359.002	342.77
359.384	343.23
359.766	346.62
360.148	342.77
360.53	348.42
360.912	340.97
361.294	358.82
361.676	344.81
362.057	350.68
362.439	347.97
362.821	320.63
363.203	331.02
363.584	319.27
363.966	345.49
364.348	341.19
364.729	319.5
365.111	353.39
365.493	326.73
365.874	306.16
366.256	348.88
366.637	333.28
367.019	355.65
367.4	336.45
367.781	324.24
368.163	322.44
368.544	327.63
368.925	332.83
369.306	323.79
369.688	345.49
370.069	329.44
370.45	337.35
370.831	333.96
371.212	309.33
371.593	325.6
371.974	312.04
372.355	323.56
372.736	344.13
373.117	346.84
373.498	342.77
373.879	345.71
374.26	329.21
374.641	325.37
375.021	328.31
375.402	326.95
375.783	333.73
376.163	360.17
376.544	364.92
376.925	356.33
377.305	346.62
377.686	365.6
378.066	364.47
378.447	372.6
378.827	378.7
379.208	363.56
379.588	352.72
379.968	392.26
380.349	378.93
380.729	363.56
381.109	383.68
381.489	379.16
381.87	379.38
382.25	360.4
382.63	397.69
383.01	393.39
383.39	383.45
383.77	377.8
384.15	394.3
384.53	388.87
384.91	394.07
385.29	387.74
385.67	379.16
386.049	402.88
386.429	399.04
386.809	419.61
387.189	416.22
387.568	413.05
387.948	407.63
388.328	438.82
388.707	435.2
389.087	426.61
389.466	423
389.846	447.18
390.225	445.6
390.605	449.89
390.984	449.66
391.363	434.75
391.743	450.57
392.122	470
392.501	460.96
392.881	473.62
393.26	476.33
393.639	476.1
394.018	476.1
394.397	491.47
394.776	477.23
395.155	477.91
395.534	475.2
395.913	492.15
396.292	508.64
396.671	498.02
397.05	492.15
397.429	517.46
397.808	534.63
398.186	511.36
398.565	521.53
398.944	538.02
399.323	516.78
399.701	547.29
400.08	558.36
400.458	557.68
400.837	545.93
401.215	560.85
401.594	556.78
401.972	583.67
402.351	586.38
402.729	586.83
403.107	581.41
403.486	600.17
403.864	587.06
404.242	598.36
404.62	624.12
404.999	594.07
405.377	639.04
405.755	635.65
406.133	644.91
406.511	644.69
406.889	648.08
407.267	656.89
407.645	658.47
408.023	677
408.401	701.86
408.779	706.61
409.156	727.17
409.534	738.7
409.912	733.5
410.29	724.23
410.667	757.68
411.045	762.2
411.422	758.81
411.8	762.2
412.178	807.39
412.555	808.3
412.933	799.03
413.31	841.74
413.687	829.77
414.065	828.64
414.442	856.21
414.819	854.4
415.197	867.51
415.574	887.84
415.951	873.83
416.328	911.57
416.705	903.66
417.082	924.45
417.46	912.02
417.837	938.01
418.214	966.94
418.591	966.03
418.967	945.92
419.344	965.13
419.721	985.02
420.098	1011
420.475	994.28
420.852	1043.32
421.228	1031.12
421.605	1040.83
421.982	1083.54
422.358	1085.35
422.735	1074.28
423.111	1121.06
423.488	1104.56
423.864	1103.21
424.241	1140.27
424.617	1133.26
424.994	1144.79
425.37	1174.62
425.746	1186.37
426.123	1201.73
426.499	1206.25
426.875	1206.48
427.251	1251.68
427.627	1264.11
428.003	1285.8
428.379	1282.64
428.756	1287.83
429.132	1308.85
429.507	1342.97
429.883	1353.59
430.259	1394.27
430.635	1403.31
431.011	1407.83
431.387	1446.7
431.763	1451.44
432.138	1456.64
432.514	1487.15
432.89	1515.17
433.265	1544.32
433.641	1573.25
434.016	1594.72
434.392	1615.73
434.767	1609.86
435.143	1650.31
435.518	1697.77
435.894	1701.16
436.269	1698.22
436.644	1754.26
437.02	1768.27
437.395	1778.44
437.77	1793.13
438.145	1834.26
438.52	1839.46
438.895	1850.08
439.271	1869.74
439.646	1917.2
440.021	1953.13
440.395	1922.17
440.77	1968.95
441.145	1954.71
441.52	2049.17
441.895	2005.55
442.27	2036.06
442.645	2044.65
443.019	2068.6
443.394	2050.53
443.769	2090.52
444.143	2090.75
444.518	2129.17
444.892	2098.89
445.267	2169.62
445.641	2213.91
446.016	2187.47
446.39	2215.49
446.764	2234.48
447.139	2273.34
447.513	2266.79
447.887	2280.58
448.262	2289.61
448.636	2329.84
449.01	2338.2
449.384	2368.48
449.758	2380.46
450.132	2412.1
450.506	2419.78
450.88	2460.91
451.254	2477.41
451.628	2533.68
452.002	2507.24
452.376	2571.19
452.75	2577.97
453.123	2602.6
453.497	2682.15
453.871	2721.92
454.244	2716.72
454.618	2773.9
454.992	2776.61
455.365	2802.14
455.739	2841.69
456.112	2917.85
456.486	2894.8
456.859	2968.69
457.232	2965.98
457.606	2989.48
457.979	3072.42
458.352	3109.25
458.725	3130.5
459.099	3197.16
459.472	3232.19
459.845	3253.66
460.218	3311.28
460.591	3351.51
460.964	3372.98
461.337	3444.39
461.71	3502.92
462.083	3610.48
462.456	3584.27
462.829	3591.28
463.201	3678.96
463.574	3693.42
463.947	3747.2
464.32	3815.68
464.692	3855.68
465.065	3897.71
465.438	3974.77
465.81	4042.11
466.183	4020.42
466.555	4134.99
466.928	4159.4
467.3	4167.08
467.672	4249.79
468.045	4359.84
468.417	4393.29
468.789	4466.73
469.161	4445.94
469.534	4554.64
469.906	4638.93
470.278	4694.75
470.65	4738.14
471.022	4811.36
471.394	4899.94
471.766	4940.62
472.138	5011.35
472.51	5168.41
472.882	5198.01
473.253	5236.88
473.625	5324.56
473.997	5440.49
474.369	5485.24
474.74	5575.18
475.112	5642.07
475.484	5747.83
475.855	5844.32
476.227	5928.16
476.598	6056.52
476.97	6162.06
477.341	6307.36
477.713	6389.39
478.084	6438.21
478.455	6636.85
478.827	6590.07
479.198	6842.94
479.569	6894.24
479.94	7017.63
480.311	7123.16
480.682	7235.02
481.053	7437.73
481.424	7511.17
481.795	7633.88
482.166	7777.61
482.537	7904.61
482.908	8096.69
483.279	8090.14
483.65	8312.06
484.021	8456.46
484.391	8549.34
484.762	8651.48
485.133	8710.24
485.503	8868.43
485.874	9080.62
486.244	9099.38
486.615	9342.99
486.985	9441.97
487.356	9651
487.726	9714.28
488.097	9947.72
488.467	9972.12
488.837	10203.08
489.207	10328.05
489.578	10523.3
489.948	10613.24
490.318	10741.82
490.688	10803.52
491.058	10939.78
491.428	11121.25
491.798	11228.81
492.168	11429.71
492.538	11503.38
492.908	11650.72
493.278	11742.25
493.648	11791.29
494.017	11945.18
494.387	12130.71
494.757	12260.88
495.126	12527.31
495.496	12556.24
495.866	12625.39
496.235	12753.52
496.605	12946.28
496.974	12971.14
497.344	13116.22
497.713	13120.74
498.082	13207.97
498.452	13381.07
498.821	13464.91
499.19	13481.86
499.559	13615.19
499.928	13681.41
500.298	13764.57
500.667	14051.79
501.036	13987.16
501.405	14289.98
501.774	14293.37
502.143	14505.11
502.512	14578.33
502.88	14625.56
503.249	14695.62
503.618	14770.42
503.987	14885.67
504.356	14904.2
504.724	15019.68
505.093	15122.27
505.462	15097.19
505.83	15345.99
506.199	15324.3
506.567	15501.02
506.936	15543.73
507.304	15787.57
507.672	15863.5
508.041	16042.93
508.409	16208.12
508.777	16364.73
509.145	16538.51
509.514	16460.32
509.882	16601.78
510.25	16705.96
510.618	16789.57
510.986	16809.46
511.354	16989.12
511.722	17101.43
512.09	17220.07
512.458	17129.68
512.826	17344.81
513.193	17484.47
513.561	17523.11
513.929	17775.76
514.297	17992.25
514.664	18064.79
515.032	18197.67
515.4	18369.64
515.767	18408.06
516.135	18663.2
516.502	18588.17
516.869	18926.01
517.237	18881.04
517.604	18920.59
517.972	19168.95
518.339	19243.97
518.706	19170.75
519.073	19384.08
519.44	19498.43
519.808	19611.65
520.175	19642.15
520.542	20025.65
520.909	20067.45
521.276	20198.75
521.643	20362.59
522.009	20566.42
522.376	20781.56
522.743	20935.68
523.11	21200.53
523.477	21315.56
523.843	21447.3
524.21	21626.06
524.577	21850.46
524.943	21858.37
525.31	21822.66
525.676	22049.32
526.043	22169.09
526.409	22238.02
526.776	22612.47
527.142	22569.31
527.508	22765.91
527.874	22935.63
528.241	23140.59
528.607	23243.41
528.973	23504.65
529.339	23668.71
529.705	23788.48
530.071	24111.87
530.437	24153.67
530.803	24327.45
531.169	24376.72
531.535	24464.63
531.901	24560.67
532.267	24677.05
532.632	24710.49
532.998	24983.48
533.364	24771.74
533.73	24957.04
534.095	25249.24
534.461	25263.47
534.826	25474.09
535.192	25559.29
535.557	25725.38
535.923	25746.63
536.288	25854.65
536.653	26042.89
537.019	26067.52
537.384	26227.29
537.749	26488.75
538.114	26576.66
538.479	26636.55
538.845	26813.04
539.21	26614.4
539.575	26800.61
539.94	26780.72
540.305	26893.94
540.67	26787.95
541.034	26984.33
541.399	27088.74
541.764	26984.33
542.129	27176.19
542.494	27232.24
542.858	27374.61
543.223	27566.69
543.587	27752
543.952	27803.97
544.316	27894.59
544.681	27986.79
545.045	28075.15
545.41	28285.99
545.774	28384.97
546.138	28245.32
546.503	28319.89
546.867	28329.83
547.231	28614.12
547.595	28583.61
547.959	28631.75
548.324	28539.09
548.688	28606.66
549.052	28798.97
549.416	28635.14
549.779	28704.06
550.143	28789.48
550.507	28944.51
550.871	29016.37
551.235	29217.72
551.599	29382.69
551.962	29595.11
552.326	29598.5
552.689	29744.03
553.053	29741.1
553.417	29843.24
553.78	30091.37
554.143	30122.78
554.507	30245.49
554.87	30184.02
555.234	30605.25
555.597	30352.38
555.96	30297.92
556.323	30502.21
556.686	30530.23
557.05	30626.05
557.413	30652.48
557.776	30744.23
558.139	30962.76
558.502	30976.54
558.865	31106.48
559.228	31108.97
559.59	31188.97
559.953	31370.66
560.316	31677.99
560.679	31801.83
561.041	31989.62
561.404	32134.93
561.767	32364.53
562.129	32245.21
562.492	32570.4
562.854	32553.23
563.217	32592.77
563.579	32721.58
563.941	32856.95
564.304	32835.25
564.666	33089.94
565.028	32980.79
565.39	33232.3
565.753	33176.71
566.115	33194.57
566.477	33435.01
566.839	33630.49
567.201	33616.02
567.563	33849.01
567.925	34027.76
568.287	34013.98
568.648	34189.79
569.01	34398.38
569.372	34574.87
569.734	34497.13
570.095	34805.14
570.457	34807.86
570.819	34977.79
571.18	34978.92
571.542	35253.49
571.903	35179.6
572.265	35233.61
572.626	35461.62
572.987	35410.1
573.349	35561.73
573.71	35652.35
574.071	35643.77
574.432	35685.12
574.794	35833.59
575.155	35748.85
575.516	35663.2
575.877	35893.7
576.238	36067.03
576.599	36270.64
576.96	36175.73
577.32	36367.81
577.681	36602.84
578.042	36601.03
578.403	36668.15
578.763	36796.96
579.124	36968.7
579.485	37118.98
579.845	37196.95
580.206	37089.83
580.566	37003.05
580.927	37128.47
581.287	37153.78
581.648	37109.49
582.008	37220.22
582.368	37226.1
582.728	37171.86
583.089	37108.36
583.449	36985.88
583.809	37137.06
584.169	37309.26
584.529	37219.32
584.889	37336.83
585.249	37192.88
585.609	37105.87
585.969	37392.42
586.329	37365.98
586.688	37468.58
587.048	37381.8
587.408	37505.19
587.768	37575.92
588.127	37534.34
588.487	37555.35
588.846	37923.25
589.206	37712.19
589.565	37656.59
589.925	37779.76
590.284	37518.52
590.643	37650.95
591.003	37760.09
591.362	37878.51
591.721	37622.02
592.08	37655.24
592.44	37673.77
592.799	37777.95
593.158	37695.46
593.517	37767.1
593.876	37801.45
594.235	37697.05
594.593	37788.57
594.952	37886.19
595.311	37746.31
595.67	37864.95
596.029	38099.97
596.387	38244.83
596.746	38185.39
597.104	38031.27
597.463	37993.08
597.822	38273.08
598.18	38137.49
598.538	38293.41
598.897	38537.02
599.255	38017.26
599.613	38523.69
599.972	38302.68
600.33	38484.82
600.688	38288.22
601.046	38410.25
601.404	38563.24
601.762	38329.8
602.12	38516.68
602.478	38503.58
602.836	38510.36
603.194	38449.12
603.552	38530.92
603.91	38290.93
604.268	38433.75
604.625	38327.54
604.983	38439.17
605.341	38218.16
605.698	38487.08
606.056	38625.38
606.413	38673.52
606.771	38824.7
607.128	38795.32
607.485	38752.16
607.843	38873.74
608.2	39048.2
608.557	39164.58
608.914	38958.03
609.272	39274.18
609.629	39307.85
609.986	39472.59
610.343	39222.43
610.7	39331.13
611.057	39314.4
611.414	39439.15
611.771	39403.44
612.127	39475.53
612.484	39412.25
612.841	39517.11
613.198	39425.81
613.554	39452.03
613.911	39518.01
614.267	39585.58
614.624	39396.44
614.98	39740.38
615.337	39814.05
615.693	39647.05
616.05	39578.35
616.406	39935.4
616.762	39873.03
617.118	39981.28
617.475	40066.7
617.831	40031.67
618.187	40061.96
618.543	40170.88
618.899	40321.61
619.255	40278.9
619.611	40198.22
619.967	40456.97
620.323	40246.81
620.678	40195.28
621.034	40312.57
621.39	40217.21
621.746	40110.99
622.101	40616.52
622.457	40274.15
622.812	40236.64
623.168	40409.52
623.523	40321.84
623.879	40323.19
624.234	40171.78
624.589	40321.61
624.945	40232.35
625.3	40312.34
625.655	40264.21
626.01	40221.95
626.365	40373.81
626.72	40262.18
627.075	40291.33
627.43	40247.26
627.785	40361.61
628.14	40372.23
628.495	40432.11
628.85	40391.44
629.205	40234.15
629.559	40564.54
629.914	40330.87
630.269	40342.4
630.623	40271.44
630.978	40188.73
631.332	40292.01
631.687	40390.53
632.041	40293.14
632.396	40482.28
632.75	39991.67
633.104	40195.51
633.459	39979.92
633.813	39856.08
634.167	39800.95
634.521	39826.93
634.875	39701.29
635.229	39746.26
635.583	39583.1
635.937	39610.67
636.291	39545.58
636.645	39603.44
636.999	39563.89
637.352	39623.77
637.706	39519.82
638.06	39395.31
638.413	39458.58
638.767	39388.53
639.121	39302.65
639.474	39102.43
639.828	39212.49
640.181	39096.78
640.534	39125.93
640.888	39198.02
641.241	39012.49
641.594	39108.53
641.947	39310.11
642.301	39197.8
642.654	39340.62
643.007	39248.19
643.36	39118.25
643.713	39048.2
644.066	38998.71
644.419	38916.45
644.771	38701.09
645.124	38700.86
645.477	38703.12
645.83	38374.09
646.182	37953.08
646.535	37612.3
646.888	37499.54
647.24	37084.63
647.593	37093.9
647.945	37139.55
648.298	36944.07
648.65	36852.77
649.002	36865.65
649.355	37095.25
649.707	37239.2
650.059	37526.65
650.411	38193.53
650.763	38087.09
651.115	38421.09
651.467	38125.06
651.819	38203.7
652.171	38195.79
652.523	38046.41
652.875	38141.78
653.227	37937.04
653.578	38268.1
653.93	38175.45
654.282	38069.69
654.633	37641.45
654.985	37793.54
655.337	37922.12
655.688	37732.07
656.039	37926.19
656.391	37702.24
656.742	37771.17
657.094	37635.8
657.445	37872.41
657.796	37915.12
658.147	37678.06
658.498	37594.9
658.849	37678.06
659.2	37645.3
659.551	37480.55
659.902	37582.47
660.253	37536.6
660.604	37579.08
660.955	37503.83
661.306	37555.35
661.656	37497.05
662.007	37424.28
662.358	37492.08
662.708	37569.59
663.059	37422.48
663.409	37323.95
663.76	37597.39
664.11	37502.02
664.461	37524.62
664.811	37581.57
665.161	37620.44
665.511	37535.92
665.862	37606.88
666.212	37529.82
666.562	37712.64
666.912	37490.27
667.262	37401.91
667.612	37630.38
667.962	37594.22
668.312	37523.04
668.662	37703.83
669.011	37519.2
669.361	37387.68
669.711	37444.4
670.06	37155.14
670.41	37174.8
670.76	36952.66
671.109	37112.65
671.459	37026.1
671.808	37062.03
672.157	37156.49
672.507	36867.69
672.856	36841.02
673.205	36962.6
673.554	37058.42
673.904	36922.6
674.253	37065.2
674.602	36936.84
674.951	36445.1
675.3	36405.78
675.649	36915.15
675.998	36802.15
676.346	36829.05
676.695	36988.82
677.044	36695.72
677.393	36791.31
677.741	36849.84
678.09	36644.42
678.438	36613.23
678.787	36561.71
679.135	36617.3
679.484	36305.44
679.832	36508.38
680.181	36298.44
680.529	36329.85
680.877	36230.87
681.225	36116.52
681.573	36227.93
681.922	36203.3
682.27	35849.86
682.618	35873.14
682.966	35810.99
683.314	35830.43
683.661	35530.32
684.009	35355.64
684.357	35359.03
684.705	35228.18
685.053	35295.07
685.4	35209.2
685.748	35152.71
686.095	35147.51
686.443	35031.13
686.79	35015.08
687.138	35077.91
687.485	35191.35
687.832	35003.11
688.18	35026.83
688.527	34740.74
688.874	34733.28
689.221	34636.11
689.568	34495.32
689.915	34600.63
690.262	34463.68
690.609	34496.68
690.956	34339.85
691.303	34379.39
691.65	34139.4
691.997	34070.47
692.344	34002
692.69	33750.93
693.037	33763.82
693.383	33380.32
693.73	33605.18
694.077	33391.62
694.423	33230.5
694.769	33111.86
695.116	32896.49
695.462	32824.63
695.808	32884.52
696.155	32829.38
696.501	32645.43
696.847	32664.64
697.193	32417.18
697.539	32411.53
697.885	32271.43
698.231	32167.25
698.577	32123.86
698.923	32185.55
699.269	31883.64
699.614	31846.35
699.96	31758.22
700.306	31745.34
700.651	31698.79
700.997	31394.61
701.342	31577.21
701.688	31297.89
702.033	31407.72
702.379	31391.9
702.724	31332.24
703.069	31294.5
703.415	30988.52
703.76	30927.28
704.105	30934.06
704.45	30724.35
704.795	30652.26
705.14	30573.84
705.485	30397.35
705.83	30428.54
706.175	30362.32
706.52	30286.17
706.865	30072.16
707.209	30113.06
707.554	29937.02
707.899	29930.92
708.243	29607.09
708.588	29751.27
708.932	29554.89
709.277	29583.81
709.621	29496.58
709.966	29316.7
710.31	29521.44
710.654	29180.43
710.998	29228.79
711.342	29232.18
711.687	29184.05
712.031	28997.39
712.375	28909.71
712.719	29074.45
713.063	28902.93
713.407	29024.73
713.75	28849.37
714.094	28838.52
714.438	28742.03
714.782	28731.18
715.125	28693.21
715.469	28822.48
715.812	28568.92
716.156	28534.8
716.499	28443.5
716.843	28433.33
717.186	28206.9
717.53	28318.76
717.873	28269.5
718.216	28225.88
718.559	28118.77
718.902	27989.28
719.246	28080.12
719.589	27944.99
719.932	27911.31
720.275	27983.18
720.617	27859.56
720.96	27754.48
721.303	27754.26
721.646	27636.52
721.989	27631.55
722.331	27638.33
722.674	27643.75
723.016	27681.94
723.359	27609.18
723.701	27529.86
724.044	27315.62
724.386	27251.67
724.729	27408.73
725.071	27273.36
725.413	27356.3
725.755	27258.9
726.097	27279.92
726.439	27171.67
726.782	27161.96
727.124	27279.92
727.465	27002.86
727.807	26913.83
728.149	26928.97
728.491	26851.23
728.833	27076.99
729.175	26991.56
729.516	26871.12
729.858	27069.75
730.199	26998.12
730.541	26925.58
730.882	26943.2
731.224	27064.1
731.565	26893.04
731.906	26989.53
732.248	26971.45
732.589	26895.3
732.93	26865.01
733.271	26789.08
733.612	26779.59
733.953	26765.58
734.294	26752.47
734.635	26734.17
734.976	26767.84
735.317	26511.8
735.658	26639.03
735.999	26652.59
736.339	26617.56
736.68	26630.44
737.021	26653.72
737.361	26467.06
737.702	26586.6
738.042	26512.93
738.383	26597.68
738.723	26578.69
739.063	26544.8
739.404	26563.55
739.744	26558.81
740.084	26620.73
740.424	26604.68
740.764	26489.43
741.104	26616.66
741.444	26425.03
741.784	26528.98
742.124	26528.75
742.464	26506.38
742.804	26583.89
743.143	26565.81
743.483	26570.56
743.823	26465.7
744.162	26604.91
744.502	26765.58
744.841	26514.51
745.181	26642.87
745.52	26559.49
745.86	26612.59
746.199	26679.71
746.538	26712.25
746.877	26802.64
747.216	26752.25
747.556	26844
747.895	26741.85
748.234	26738.01
748.573	26739.14
748.911	26728.07
749.25	26784.11
749.589	26814.39
749.928	26810.55
750.267	26761.97
750.605	26735.53
750.944	26844
751.283	26755.64
751.621	26879.48
751.96	26809.87
752.298	26879.25
752.636	26907.27
752.975	26845.35
753.313	26764.9
753.651	26905.24
753.989	26734.62
754.327	26818.46
754.666	26681.97
755.004	26795.86
755.342	26998.34
755.679	26846.03
756.017	26812.36
756.355	26913.37
756.693	26858.01
757.031	26977.1
757.368	26921.06
757.706	26830.44
758.044	26746.6
758.381	26945.24
758.719	26831.34
759.056	26917.44
759.394	26852.81
759.731	26723.1
760.068	26768.29
760.405	26836.99
760.743	26825.02
761.08	26936.88
761.417	26861.62
761.754	26762.87
762.091	26860.27
762.428	26848.29
762.765	26700.27
763.102	26740.05
763.438	26704.57
763.775	26566.49
764.112	26733.49
764.449	26608.75
764.785	26563.33
765.122	26405.59
765.458	26444.91
765.795	26544.12
766.131	26515.87
766.467	26448.08
766.804	26352.94
767.14	26378.7
767.476	26342.77
767.812	26228.87
768.148	26394.07
768.485	26060.29
768.821	26043.34
769.157	25998.6
769.492	25855.77
769.828	25816
770.164	25846.28
770.5	25673.41
770.836	25723.58
771.171	25574.88
771.507	25640.64
771.842	25366.97
772.178	25501.66
772.513	25353.19
772.849	25365.84
773.184	25066.64
773.519	25059.19
773.855	24908.68
774.19	24927.66
774.525	24972.63
774.86	25000.88
775.195	25005.63
775.53	24795.69
775.865	24743.71
776.2	24685.18
776.535	24568.35
776.87	24615.13
777.205	24527.22
777.539	24305.76
777.874	24364.29
778.209	24152.32
778.543	24118.42
778.878	23966.56
779.212	23951.42
779.547	23925.2
779.881	23886.79
780.215	23736.06
780.55	23784.87
780.884	23581.48
781.218	23580.58
781.552	23638.43
781.886	23404.77
782.22	23301.94
782.554	23198.22
782.888	23058.11
783.222	22908.28
783.556	23022.18
783.889	22920.03
784.223	22758.91
784.557	22748.96
784.89	22676.88
785.224	22576.54
785.557	22383.78
785.891	22448.41
786.224	22284.57
786.558	22292.48
786.891	22015.88
787.224	22004.58
787.557	21874.41
787.891	21917.8
788.224	21974.75
788.557	21913.51
788.89	21789.67
789.223	21715.54
789.556	21662.44
789.888	21518.94
790.221	21552.84
790.554	21393.75
790.887	21334.31
791.219	21238.5
791.552	21230.81
791.884	21031.5
792.217	21052.51
792.549	21022.91
792.882	20908.79
793.214	20815
793.546	20872.18
793.879	20734.33
794.211	20751.05
794.543	20710.15
794.875	20603.26
795.207	20618.17
795.539	20522.36
795.871	20403.26
796.203	20334.11
796.535	20137.51
796.867	20206.66
797.198	20242.14
797.53	20123.72
797.862	19977.06
798.193	19974.8
798.525	19925.54
798.856	19991.97
799.188	19826.78
799.519	19751.53
799.85	19704.75
800.182	19584.75
800.513	19638.09
800.844	19430.18
801.175	19536.62
801.506	19525.55
801.837	19388.6
802.168	19142.96
802.499	19099.12
802.83	19096.63
803.161	19063.64
803.491	19050.53
803.822	18995.84
804.153	18860.03
804.483	18801.5
804.814	18678.11
805.145	18637.66
805.475	18689.41
805.805	18630.65
806.136	18570.77
806.466	18608.06
806.796	18600.15
807.126	18346.37
807.457	18346.82
807.787	18230.44
808.117	18279.03
808.447	18141.63
808.777	18245.35
809.107	18115.64
809.436	17990.45
809.766	18079.26
810.096	18045.58
810.426	17981.63
810.755	17982.08
811.085	17931.69
811.414	17842.88
811.744	17752.71
812.073	17737.34
812.403	17755.87
812.732	17623
813.061	17598.14
813.39	17459.84
813.719	17435.43
814.049	17587.07
814.378	17507.97
814.707	17453.06
815.036	17441.76
815.365	17363.57
815.693	17209.45
816.022	17112.73
816.351	17089.45
816.68	17016.69
817.008	17156.34
817.337	16967.2
817.665	16853.07
817.994	16994.77
818.322	16941.89
818.651	16851.94
818.979	16673.64
819.307	16792.74
819.636	16828.22
819.964	16781.89
820.292	16691.5
820.62	16677.03
820.948	16633.64
821.276	16705.73
821.604	16691.72
821.932	16633.19
822.259	16587.32
822.587	16540.31
822.915	16566.3
823.243	16585.74
823.57	16491.95
823.898	16515
824.225	16487.89
824.553	16525.4
824.88	16601.1
825.207	16464.84
825.535	16556.81
825.862	16622.12
826.189	16466.19
826.516	16602.91
826.843	16557.49
827.17	16609.01
827.497	16552.74
827.824	16522.24
828.151	16525.17
828.478	16501.9
828.805	16560.65
829.131	16462.8
829.458	16410.83
829.785	16475.46
830.111	16449.69
830.438	16496.92
830.764	16489.92
831.09	16575.12
831.417	16392.52
831.743	16552.29
832.069	16575.12
832.395	16479.07
832.722	16536.7
833.048	16536.7
833.374	16541.44
833.7	16462.8
834.026	16435.23
834.351	16404.05
834.677	16453.31
835.003	16497.6
835.329	16411.05
835.654	16373.99
835.98	16317.27
836.306	16298.29
836.631	16386.19
836.956	16311.62
837.282	16286.99
837.607	16294.9
837.932	16232.75
838.258	16078.86
838.583	16137.84
838.908	16079.08
839.233	15989.59
839.558	15998.86
839.883	15911.18
840.208	15801.58
840.533	15893.78
840.858	15944.17
841.182	15876.83
841.507	15875.7
841.832	15662.37
842.156	15690.39
842.481	15697.85
842.805	15582.15
843.13	15523.17
843.454	15544.18
843.778	15445.43
844.103	15379.67
844.427	15340.12
844.751	15443.17
845.075	15315.49
845.399	15414.02
845.723	15225.55
846.047	15215.38
846.371	15099.45
846.695	15068.71
847.019	14943.52
847.343	14886.35
847.666	14849.96
847.99	14759.8
848.313	14788.5
848.637	14684.32
848.96	14790.76
849.284	14661.49
849.607	14517.32
849.931	14594.15
850.254	14438
850.577	14413.14
850.9	14285.46
851.223	14248.4
851.546	14172.92
851.869	14133.37
852.192	14251.33
852.515	14128.17
852.838	14057.22
853.161	14032.36
853.483	13917.33
853.806	13939.93
854.129	13922.53
854.451	13767.96
854.774	13784
855.096	13701.52
855.419	13689.32
855.741	13561.41
856.063	13572.71
856.385	13558.02
856.708	13509.88
857.03	13402.09
857.352	13420.85
857.674	13443.9
857.996	13380.85
858.318	13273.51
858.64	13244.58
858.961	13225.6
859.283	13146.96
859.605	13108.31
859.926	13095.43
860.248	13172.72
860.57	13012.72
860.891	12941.31
861.212	12958.71
861.534	12900.18
861.855	12895.89
862.176	12871.94
862.498	12899.96
862.819	12846.85
863.14	12759.85
863.461	12781.32
863.782	12768.89
864.103	12787.64
864.424	12662.9
864.745	12670.36
865.065	12691.6
865.386	12571.38
865.707	12461.55
866.027	12561.66
866.348	12466.07
866.668	12480.76
866.989	12429.91
867.309	12429.46
867.63	12382.68
867.95	12385.62
868.27	12376.36
868.59	12333.64
868.91	12391.27
869.23	12285.28
869.55	12275.57
869.87	12365.51
870.19	12339.52
870.51	12250.71
870.83	12330.71
871.15	12220.43
871.469	12212.52
871.789	12275.79
872.109	12145.85
872.428	12137.27
872.748	12208
873.067	12156.7
873.386	12153.31
873.706	12054.56
874.025	12104.72
874.344	12031.28
874.663	12106.76
874.982	11954.9
875.301	12048.68
875.62	11969.13
875.939	11946.99
876.258	11942.92
876.577	11879.65
876.896	11897.5
877.214	11881.68
877.533	11912.86
877.852	11883.49
878.17	11909.93
878.489	11864.73
878.807	11803.26
879.125	11766.88
879.444	11820.44
879.762	11736.15
880.08	11718.07
880.398	11665.41
880.716	11692.08
881.034	11685.98
881.352	11640.33
881.67	11539.32
881.988	11547.45
882.306	11542.48
882.624	11461.58
882.941	11354.01
883.259	11380
883.577	11411.18
883.894	11330.06
884.212	11265.88
884.529	11230.62
884.846	11196.05
885.164	11209.83
885.481	11140.68
885.798	11199.44
886.115	11128.03
886.432	11094.81
886.75	11070.18
887.067	11137.29
887.383	10959.67
887.7	11086.9
888.017	11085.32
888.334	10948.14
888.651	10919.44
888.967	10941.82
889.284	10888.48
889.6	10890.97
889.917	10753.57
890.233	10783.18
890.55	10806.68
890.866	10812.33
891.182	10719
891.498	10798.09
891.815	10636.74
892.131	10655.5
892.447	10660.92
892.763	10586.57
893.079	10594.03
893.395	10566.69
893.71	10544.31
894.026	10502.96
894.342	10557.87
894.657	10429.51
894.973	10496.86
895.289	10438.78
895.604	10408.5
895.92	10287.37
896.235	10333.25
896.55	10282.63
896.865	10273.81
897.181	10269.52
897.496	10247.6
897.811	10089.64
898.126	10126.25
898.441	10018.68
898.756	10073.14
899.071	9971.45
899.386	9968.74
899.7	9886.7
900.015	9806.25
900.33	9827.27
900.644	9816.87
900.959	9822.3
901.273	9711.11
901.588	9709.98
901.902	9640.16
902.216	9594.96
902.531	9681.74
902.845	9562.42
903.159	9507.73
903.473	9467.05
903.787	9371.91
904.101	9403.1
904.415	9399.26
904.729	9333.72
905.042	9259.83
905.356	9283.1
905.67	9150.68
905.984	9199.49
906.297	9184.12
906.611	9092.83
906.924	9065.26
907.237	8999.95
907.551	8956.78
907.864	8933.73
908.177	8910.46
908.491	8861.42
908.804	8759.5
909.117	8762.67
909.43	8667.07
909.743	8671.82
910.056	8655.55
910.368	8630.24
910.681	8597.02
910.994	8594.76
911.307	8658.26
911.619	8497.14
911.932	8514.99
912.244	8470.24
912.557	8431.83
912.869	8420.75
913.181	8328.33
913.494	8350.92
913.806	8247.42
914.118	8278.38
914.43	8265.95
914.742	8254.2
915.054	8252.85
915.366	8213.98
915.678	8097.15
915.99	8076.13
916.302	8058.95
916.613	8084.26
916.925	8082.46
917.236	8023.02
917.548	7899.64
917.859	7939.41
918.171	7880.43
918.482	7864.61
918.794	7775.35
919.105	7863.25
919.416	7766.31
919.727	7693.54
920.038	7699.64
920.349	7641.34
920.66	7594.56
920.971	7620.77
921.282	7598.4
921.593	7586.2
921.903	7515.01
922.214	7532.87
922.525	7483.38
922.835	7399.09
923.146	7356.15
923.456	7377.62
923.767	7292.42
924.077	7339.2
924.387	7239.77
924.697	7226.21
925.008	7203.16
925.318	7176.94
925.628	7195.7
925.938	7084.07
926.248	7052.2
926.558	7022.15
926.867	7025.76
927.177	6918.42
927.487	6960.68
927.796	6854.69
928.106	6828.25
928.416	6844.75
928.725	6813.79
929.034	6720.68
929.344	6709.16
929.653	6705.54
929.962	6616.73
930.271	6670.06
930.581	6632.1
930.89	6593
931.199	6541.71
931.508	6558.66
931.817	6519.11
932.125	6489.73
932.434	6507.58
932.743	6417.64
933.051	6441.82
933.36	6380.81
933.669	6312.56
933.977	6275.5
934.286	6348.72
934.594	6216.97
934.902	6226.91
935.21	6249.06
935.519	6248.61
935.827	6145.33
936.135	6145.33
936.443	6129.29
936.751	6071.21
937.059	6081.83
937.367	6063.75
937.674	6067.82
937.982	6058.56
938.29	6018.1
938.597	5994.6
938.905	5960.48
939.213	5957.32
939.52	5887.49
939.827	5889.07
940.135	5869.86
940.442	5854.94
940.749	5820.82
941.056	5783.76
941.363	5721.62
941.67	5719.81
941.977	5708.96
942.284	5689.3
942.591	5668.28
942.898	5627.15
943.205	5553.26
943.511	5594.39
943.818	5563.88
944.125	5494.05
944.431	5506.48
944.738	5532.24
945.044	5521.17
945.35	5479.59
945.657	5406.82
945.963	5402.53
946.269	5379.25
946.575	5424.45
946.881	5402.53
947.187	5381.96
947.493	5282.98
947.799	5293.6
948.105	5287.5
948.41	5247.5
948.716	5189.65
949.022	5205.92
949.327	5175.87
949.633	5094.96
949.938	5102.2
950.244	5088.86
950.549	5036.21
950.854	5009.54
951.16	5000.73
951.465	4981.52
951.77	4961.64
952.075	4940.62
952.38	4934.74
952.685	4913.95
952.99	4844.58
953.294	4889.32
953.599	4830.57
953.904	4807.97
954.209	4762.32
954.513	4778.59
954.818	4769.1
955.122	4732.71
955.426	4687.29
955.731	4692.94
956.035	4653.17
956.339	4695.2
956.643	4630.12
956.948	4616.56
957.252	4568.43
957.556	4556.22
957.86	4578.37
958.163	4479.39
958.467	4489.78
958.771	4464.47
959.075	4499.05
959.378	4450.24
959.682	4457.47
959.985	4422.21
960.289	4418.6
960.592	4419.73
960.896	4346.51
961.199	4371.82
961.502	4339.73
961.805	4373.85
962.108	4321.2
962.411	4291.14
962.714	4288.21
963.017	4276.68
963.32	4261.54
963.623	4248.43
963.926	4239.62
964.228	4197.59
964.531	4161.43
964.833	4150.36
965.136	4117.82
965.438	4121.88
965.741	4094.54
966.043	4090.47
966.345	4045.27
966.648	4069
966.95	4088.44
967.252	4032.17
967.554	4007.76
967.856	3998.27
968.158	3946.97
968.46	3977.48
968.761	3937.93
969.063	3933.64
969.365	3904.26
969.666	3928.67
969.968	3836.47
970.269	3834.43
970.571	3855.68
970.872	3847.77
971.174	3838.27
971.475	3874.88
971.776	3793.53
972.077	3761.89
972.378	3740.65
972.679	3752.85
972.98	3719.41
973.281	3719.41
973.582	3756.47
973.883	3683.48
974.183	3674.66
974.484	3648.9
974.785	3622.69
975.085	3589.02
975.386	3605.51
975.686	3571.16
975.986	3514.89
976.287	3543.59
976.587	3488.23
976.887	3466.76
977.187	3469.92
977.487	3497.27
977.787	3406.65
978.087	3416.59
978.387	3411.85
978.687	3377.95
978.987	3354.9
979.286	3353.99
979.586	3356.71
979.885	3354.9
980.185	3344.5
980.484	3298.63
980.784	3253.21
981.083	3259.08
981.382	3257.95
981.682	3259.76
981.981	3206.65
982.28	3227.9
982.579	3201.23
982.878	3178.18
983.177	3155.81
983.475	3178.86
983.774	3168.24
984.073	3122.14
984.372	3086.88
984.67	3095.92
984.969	3053.44
985.267	3104.73
985.566	3091.63
985.864	3068.8
986.162	3035.81
986.461	3050.72
986.759	3028.58
987.057	2978.64
987.355	2958.98
987.653	2979.31
987.951	2942.25
988.249	2936.6
988.547	2910.62
988.844	2923.95
989.142	2931.18
989.44	2874.91
989.737	2890.5
990.035	2912.2
990.332	2845.53
990.63	2866.1
990.927	2867.9
991.224	2825.19
991.521	2808.47
991.819	2824.06
992.116	2820.45
992.413	2773.67
992.71	2813.67
993.006	2754.46
993.303	2700.9
993.6	2740
993.897	2724.86
994.193	2723.05
994.49	2679.44
994.787	2683.5
995.083	2643.96
995.379	2662.71
995.676	2639.89
995.972	2639.44
996.268	2625.43
996.565	2624.52
996.861	2601.92
997.157	2589.27
997.453	2549.04
997.749	2549.95
998.044	2537.97
998.34	2497.97
998.636	2491.42
998.932	2505.65
999.227	2486.67
999.523	2460.91
999.818	2446.9
1000.114	2441.93
1000.409	2426.79
1000.704	2401.7
1001	2394.92
1001.295	2407.8
1001.59	2410.74
1001.885	2401.25
1002.18	2340.46
1002.475	2360.12
1002.77	2348.6
1003.065	2314.02
1003.359	2330.74
1003.654	2281.93
1003.949	2269.28
1004.243	2264.76
1004.538	2217.53
1004.832	2245.32
1005.127	2247.36
1005.421	2200.8
1005.715	2194.7
1006.009	2162.39
1006.304	2190.18
1006.598	2160.8
1006.892	2150.18
1007.186	2125.55
1007.48	2125.1
1007.773	2108.83
1008.067	2121.94
1008.361	2078.1
1008.655	2071.77
1008.948	2014.82
1009.242	2071.54
1009.535	2053.01
1009.829	2003.97
1010.122	2001.03
1010.415	2010.3
1010.708	1992.22
1011.001	2005.55
1011.295	1961.49
1011.588	1943.64
1011.881	1956.52
1012.173	1964.65
1012.466	1905.9
1012.759	1943.64
1013.052	1891.43
1013.344	1894.15
1013.637	1892.34
1013.93	1886.01
1014.222	1874.48
1014.514	1874.71
1014.807	1871.55
1015.099	1847.59
1015.391	1848.95
1015.683	1850.98
1015.976	1785.45
1016.268	1794.26
1016.56	1800.14
1016.851	1772.79
1017.143	1767.14
1017.435	1751.78
1017.727	1730.99
1018.018	1734.38
1018.31	1729.86
1018.602	1723.75
1018.893	1687.37
1019.185	1726.69
1019.476	1676.3
1019.767	1684.89
1020.058	1699.12
1020.35	1664.09
1020.641	1642.17
1020.932	1626.58
1021.223	1639.69
1021.514	1624.55
1021.804	1611.67
1022.095	1612.8
1022.386	1575.28
1022.677	1579.13
1022.967	1583.87
1023.258	1536.19
1023.548	1538.9
1023.839	1531.22
1024.129	1548.17
1024.419	1552.69
1024.709	1504.32
1025	1475.63
1025.29	1498.22
1025.58	1471.11
1025.87	1445.8
1026.16	1439.24
1026.449	1453.03
1026.739	1425
1027.029	1474.5
1027.319	1427.49
1027.608	1415.51
1027.898	1402.41
1028.187	1432.24
1028.477	1364.67
1028.766	1375.29
1029.055	1372.12
1029.344	1386.14
1029.634	1331.67
1029.923	1337.78
1030.212	1327.15
1030.501	1299.58
1030.79	1324.89
1031.078	1290.09
1031.367	1295.06
1031.656	1270.21
1031.945	1272.01
1032.233	1276.31
1032.522	1246.7
1032.81	1246.93
1033.099	1219.81
1033.387	1234.73
1033.675	1237.67
1033.963	1196.31
1034.251	1203.32
1034.54	1195.18
1034.828	1191.56
1035.116	1199.02
1035.403	1199.47
1035.691	1173.94
1035.979	1178.01
1036.267	1163.32
1036.554	1157.67
1036.842	1139.36
1037.129	1160.38
1037.417	1112.7
1037.704	1124.45
1037.992	1092.81
1038.279	1091.45
1038.566	1092.58
1038.853	1092.58
1039.14	1092.58
