Data from blue_clamp_base_FLMS001491_00078.txt Node
Date: Wed Feb 08 15:16:30 GMT 2017
User: dcchb
Spectrometer: FLMS00149
Trigger mode: 0
Integration Time (sec): 2.000000E-2
Scans to average: 10
Electric dark correction enabled: true
Nonlinearity correction enabled: false
Boxcar width: 0
XAxis mode: Wavelengths
Number of Pixels in Spectrum: 2048
>>>>>Begin Spectral Data<<<<<
341.393	-16.51
341.776	-16.51
342.16	-16.51
342.543	-62.39
342.927	-75.04
343.31	-61.93
343.693	-88.37
344.077	-62.84
344.46	-56.51
344.843	-50.18
345.226	-55.15
345.61	-35.04
345.993	-30.3
346.376	-6.34
346.759	4.96
347.142	25.97
347.525	50.15
347.908	70.94
348.291	81.11
348.674	109.81
349.057	103.71
349.44	115.46
349.823	136.48
350.206	161.79
350.588	214.67
350.971	206.53
351.354	234.56
351.737	214.9
352.119	239.53
352.502	277.27
352.884	259.19
353.267	273.88
353.65	302.58
354.032	293.31
354.414	316.59
354.797	317.94
355.179	319.07
355.562	340.32
355.944	307.55
356.326	330.15
356.709	320.66
357.091	331.95
357.473	347.55
357.855	352.29
358.238	340.09
358.62	341.22
359.002	330.37
359.384	336.93
359.766	348.68
360.148	335.34
360.53	348.23
360.912	336.7
361.294	365.4
361.676	310.71
362.057	325.63
362.439	338.96
362.821	334.89
363.203	332.41
363.584	348.23
363.966	296.48
364.348	352.74
364.729	320.88
365.111	298.74
365.493	325.18
365.874	313.65
366.256	327.89
366.637	312.07
367.019	324.72
367.4	328.11
367.781	331.5
368.163	337.6
368.544	323.37
368.925	321.56
369.306	336.25
369.688	321.33
370.069	329.69
370.45	343.03
370.831	347.1
371.212	315.46
371.593	322.01
371.974	325.4
372.355	333.76
372.736	325.18
373.117	330.37
373.498	336.47
373.879	326.98
374.26	334.67
374.641	318.62
375.021	338.28
375.402	318.17
375.783	354.78
376.163	349.13
376.544	341.22
376.925	338.51
377.305	349.13
377.686	321.11
378.066	348
378.447	341.9
378.827	348.68
379.208	350.49
379.588	348.9
379.968	351.16
380.349	343.25
380.729	377.83
381.109	355.46
381.489	366.3
381.87	379.86
382.25	362.69
382.63	358.39
383.01	377.83
383.39	370.82
383.77	383.25
384.15	374.89
384.53	379.41
384.91	384.38
385.29	381.67
385.67	379.41
386.049	394.55
386.429	403.82
386.809	376.25
387.189	388.45
387.568	412.18
387.948	388.68
388.328	401.78
388.707	392.07
389.087	406.53
389.466	397.26
389.846	394.33
390.225	398.17
390.605	396.59
390.984	392.29
391.363	418.51
391.743	446.3
392.122	409.24
392.501	425.74
392.881	445.4
393.26	449.69
393.639	456.25
394.018	454.89
394.397	461.89
394.776	445.85
395.155	466.19
395.534	460.09
395.913	484.04
396.292	454.21
396.671	456.92
397.05	487.66
397.429	474.55
397.808	478.84
398.186	472.97
398.565	503.02
398.944	520.2
399.323	499.86
399.701	495.57
400.08	515.45
400.458	508.45
400.837	532.18
401.215	548.45
401.594	514.32
401.972	516.13
402.351	553.87
402.729	530.82
403.107	562.46
403.486	575.11
403.864	567.88
404.242	580.31
404.62	585.28
404.999	571.95
405.377	596.81
405.755	587.32
406.133	611.95
406.511	596.13
406.889	599.97
407.267	616.92
407.645	616.47
408.023	621.89
408.401	637.71
408.779	658.27
409.156	638.84
409.534	674.09
409.912	648.78
410.29	678.84
410.667	681.32
411.045	682
411.422	711.83
411.8	703.47
412.178	695.33
412.555	740.76
412.933	726.75
413.31	760.42
413.687	767.42
414.065	762
414.442	758.38
414.819	766.97
415.197	779.85
415.574	799.29
415.951	801.09
416.328	832.96
416.705	811.49
417.082	821.66
417.46	842.9
417.837	845.61
418.214	816.46
418.591	857.82
418.967	852.62
419.344	857.36
419.721	887.42
420.098	872.05
420.475	907.53
420.852	912.73
421.228	910.7
421.605	929.9
421.982	938.94
422.358	920.41
422.735	940.98
423.111	952.5
423.488	973.97
423.864	981.2
424.241	999.73
424.617	993.86
424.994	979.62
425.37	1000.19
425.746	1010.81
426.123	1026.85
426.499	1016
426.875	1058.26
427.251	1076.57
427.627	1066.17
428.003	1101.88
428.379	1107.08
428.756	1124.7
429.132	1120.18
429.507	1139.84
429.883	1129.9
430.259	1174.42
430.635	1196.79
431.011	1185.49
431.387	1206.51
431.763	1237.02
432.138	1232.27
432.514	1285.38
432.89	1258.48
433.265	1293.06
433.641	1327.18
434.016	1332.38
434.392	1352.72
434.767	1404.92
435.143	1375.54
435.518	1383.23
435.894	1409.89
436.269	1426.39
436.644	1463
437.02	1462.09
437.395	1434.07
437.77	1463
438.145	1496.9
438.52	1520.17
438.895	1533.28
439.271	1563.11
439.646	1576.22
440.021	1585.25
440.395	1647.4
440.77	1599.94
441.145	1642.43
441.52	1627.97
441.895	1619.38
442.27	1651.02
442.645	1680.17
443.019	1685.59
443.394	1689.88
443.769	1727.4
444.143	1736.21
444.518	1745.02
444.892	1749.09
445.267	1764.01
445.641	1795.87
446.016	1784.57
446.39	1808.07
446.764	1819.6
447.139	1807.4
447.513	1860.28
447.887	1860.95
448.262	1818.47
448.636	1883.33
449.01	1905.92
449.384	1955.64
449.758	1940.05
450.132	1953.61
450.506	1954.51
450.88	1958.35
451.254	1963.32
451.628	2032.25
452.002	2043.77
452.376	2061.17
452.75	2086.48
453.123	2039.93
453.497	2116.99
453.871	2113.83
454.244	2187.05
454.618	2167.61
454.992	2184.34
455.365	2231.79
455.739	2270.66
456.112	2265.69
456.486	2315.86
456.859	2312.47
457.232	2375.06
457.606	2364.22
457.979	2372.35
458.352	2415.74
458.725	2458.23
459.099	2486.7
459.472	2477.66
459.845	2536.64
460.218	2523.54
460.591	2547.72
460.964	2552.46
461.337	2643.98
461.71	2686.47
462.083	2720.82
462.456	2707.71
462.829	2744.09
463.201	2757.65
463.574	2748.61
463.947	2809.18
464.32	2860.25
464.692	2859.35
465.065	2922.85
465.438	2959.23
465.81	2969.17
466.183	3004.2
466.555	3028.83
466.928	3063.18
467.3	3071.32
467.672	3098.44
468.045	3190.86
468.417	3185.44
468.789	3229.96
469.161	3279.22
469.534	3334.14
469.906	3333.46
470.278	3358.09
470.65	3400.8
471.022	3471.08
471.394	3502.72
471.766	3511.76
472.138	3568.93
472.51	3637.18
472.882	3690.96
473.253	3690.28
473.625	3759.66
473.997	3816.16
474.369	3853.22
474.74	3863.16
475.112	3902.93
475.484	4015.25
475.855	4028.58
476.227	4088.47
476.598	4205.07
476.97	4159.2
477.341	4241.23
477.713	4305.64
478.084	4373.88
478.455	4440.1
478.827	4456.82
479.198	4597.83
479.569	4565.06
479.94	4637.15
480.311	4691.39
480.682	4784.04
481.053	4859.52
481.424	4931.83
481.795	4951.04
482.166	5009.8
482.537	5054.77
482.908	5183.35
483.279	5206.4
483.65	5255.89
484.021	5351.03
484.391	5430.8
484.762	5425.15
485.133	5516
485.503	5576.56
485.874	5571.36
486.244	5628.99
486.615	5723.9
486.985	5786.05
487.356	5856.1
487.726	5885.03
488.097	6003.22
488.467	6023.1
488.837	6113.72
489.207	6170.45
489.578	6189.43
489.948	6247.51
490.318	6289.99
490.688	6283.44
491.058	6347.62
491.428	6414.05
491.798	6504.45
492.168	6588.97
492.538	6588.29
492.908	6620.83
493.278	6678.45
493.648	6666.93
494.017	6764.1
494.387	6763.42
494.757	6785.12
495.126	6877.77
495.496	6800.71
495.866	6898.79
496.235	6952.12
496.605	6947.15
496.974	6993.93
497.344	6990.76
497.713	7012.46
498.082	7076.64
498.452	7088.61
498.821	7132.68
499.19	7141.49
499.559	7197.54
499.928	7172.45
500.298	7282.73
500.667	7284.77
501.036	7237.76
501.405	7320.7
501.774	7293.58
502.143	7306.23
502.512	7344.65
502.88	7354.37
503.249	7366.57
503.618	7418.55
503.987	7452.9
504.356	7452.45
504.724	7563.85
505.093	7540.13
505.462	7514.82
505.83	7579.45
506.199	7617.64
506.567	7663.97
506.936	7621.71
507.304	7734.02
507.672	7739.67
508.041	7777.18
508.409	7786.9
508.777	7821.93
509.145	7819.89
509.514	7819.67
509.882	7955.03
510.25	7864.19
510.618	7931.75
510.986	7965.88
511.354	8022.83
511.722	8072.54
512.09	8124.29
512.458	8117.51
512.826	8121.35
513.193	8126.1
513.561	8164.52
513.929	8231.63
514.297	8317.51
514.664	8331.74
515.032	8277.73
515.4	8362.7
515.767	8314.34
516.135	8369.71
516.502	8325.42
516.869	8418.97
517.237	8431.4
517.604	8413.32
517.972	8464.85
518.339	8517.95
518.706	8546.88
519.073	8528.35
519.44	8588.91
519.808	8621.23
520.175	8694.45
520.542	8731.51
520.909	8762.92
521.276	8721.79
521.643	8777.38
522.009	8832.07
522.376	8888.79
522.743	8922.46
523.11	8933.31
523.477	9003.82
523.843	9058.28
524.21	9110.71
524.577	9174.43
524.943	9245.84
525.31	9210.14
525.676	9258.05
526.043	9320.42
526.409	9326.29
526.776	9373.3
527.142	9451.49
527.508	9487.87
527.874	9511.6
528.241	9540.07
528.607	9595.21
528.973	9676.12
529.339	9634.99
529.705	9685.61
530.071	9743.68
530.437	9772.38
530.803	9896.9
531.169	9886.96
531.535	9915.66
531.901	9925.6
532.267	9917.47
532.632	10000.63
532.998	10042.89
533.364	10112.04
533.73	10107.06
534.095	10157.68
534.461	10228.19
534.826	10205.14
535.192	10205.14
535.557	10274.52
535.923	10294.63
536.288	10301.86
536.653	10429.09
537.019	10348.87
537.384	10364.69
537.749	10414.4
538.114	10488.75
538.479	10536.88
538.845	10463.89
539.21	10521.07
539.575	10526.04
539.94	10575.98
540.305	10649.65
540.67	10652.14
541.034	10665.47
541.399	10750.44
541.764	10754.05
542.129	10789.08
542.494	10789.98
542.858	10816.65
543.223	10827.95
543.587	10962.86
543.952	10802.64
544.316	10882.64
544.681	10915.63
545.045	10966.7
545.41	11037.21
545.774	11068.17
546.138	11012.58
546.503	11060.26
546.867	11124.21
547.231	11149.98
547.595	11123.99
547.959	11215.28
548.324	11181.16
548.688	11227.94
549.052	11239.69
549.416	11245.57
549.779	11262.51
550.143	11358.33
550.507	11477.65
550.871	11386.35
551.235	11393.36
551.599	11448.27
551.962	11440.36
552.326	11547.93
552.689	11596.07
553.053	11576.4
553.417	11574.6
553.78	11729.85
554.143	11657.53
554.507	11771.65
554.87	11723.29
555.234	11848.94
555.597	11822.73
555.96	11858.21
556.323	11841.71
556.686	11898.66
557.05	11964.19
557.413	11944.08
557.776	11982.5
558.139	12034.92
558.502	12095.49
558.865	12056.39
559.228	12094.58
559.59	12180.23
559.953	12146.56
560.316	12356.5
560.679	12385.87
561.041	12358.3
561.404	12377.74
561.767	12505.65
562.129	12469.26
562.492	12559.88
562.854	12525.76
563.217	12504.97
563.579	12626.32
563.941	12668.13
564.304	12773.66
564.666	12780.44
565.028	12782.93
565.39	12959.65
565.753	12893.66
566.115	12927.1
566.477	13051.62
566.839	13002.13
567.201	13144.27
567.563	13066.76
567.925	13238.51
568.287	13252.07
568.648	13194.89
569.01	13325.74
569.372	13489.12
569.734	13415.9
570.095	13479.41
570.457	13488.22
570.819	13591.04
571.18	13591.27
571.542	13650.47
571.903	13704.71
572.265	13747.87
572.626	13706.07
572.987	13749.91
573.349	13802.11
573.71	13934.53
574.071	13900.86
574.432	13982.9
574.794	14148.54
575.155	14081.42
575.516	14023.12
575.877	14214.98
576.238	14193.96
576.599	14176.79
576.96	14235.77
577.32	14226.05
577.681	14304.92
578.042	14366.39
578.403	14410.23
578.763	14412.26
579.124	14347.63
579.485	14494.29
579.845	14458.81
580.206	14478.25
580.566	14491.13
580.927	14400.74
581.287	14605.48
581.648	14598.02
582.008	14565.7
582.368	14539.04
582.728	14606.61
583.089	14684.35
583.449	14573.39
583.809	14598.7
584.169	14660.17
584.529	14677.79
584.889	14740.16
585.249	14687.28
585.609	14659.04
585.969	14767.28
586.329	14765.7
586.688	14760.73
587.048	14795.98
587.408	14690.45
587.768	14728.86
588.127	14755.08
588.487	14779.48
588.846	14912.59
589.206	14748.98
589.565	14795.98
589.925	14953.04
590.284	14855.87
590.643	14934.06
591.003	14813.61
591.362	14908.75
591.721	14926.6
592.08	14954.17
592.44	14999.14
592.799	14907.84
593.158	15012.7
593.517	14941.06
593.876	15095.41
594.235	15045.92
594.593	15022.64
594.952	14998.91
595.311	15011.12
595.67	15023.77
596.029	15077.1
596.387	15104
596.746	15189.19
597.104	15090.21
597.463	14997.11
597.822	15131.79
598.18	15089.31
598.538	15032.36
598.897	15147.61
599.255	15083.21
599.613	15314.39
599.972	15192.58
600.33	15192.58
600.688	15181.51
601.046	15238.46
601.404	15283.2
601.762	15203.43
602.12	15278.68
602.478	15287.27
602.836	15332.01
603.194	15165.46
603.552	15321.16
603.91	15183.54
604.268	15294.05
604.625	15324.1
604.983	15403.2
605.341	15359.58
605.698	15375.17
606.056	15418.56
606.413	15415.4
606.771	15465.57
607.128	15466.25
607.485	15330.43
607.843	15358.68
608.2	15517.09
608.557	15500.37
608.914	15501.5
609.272	15512.8
609.629	15576.07
609.986	15621.95
610.343	15485.91
610.7	15682.74
611.057	15657.43
611.414	15585.79
611.771	15692.23
612.127	15695.84
612.484	15686.81
612.841	15786.01
613.198	15731.78
613.554	15747.14
613.911	15862.39
614.267	15836.86
614.624	15790.53
614.98	15817.88
615.337	15888.16
615.693	15817.88
616.05	15775.39
616.406	16001.15
616.762	15892.68
617.118	15890.19
617.475	15825.56
617.831	15979.68
618.187	16040.69
618.543	15964.09
618.899	16086.79
619.255	16048.6
619.611	16049.51
619.967	16100.13
620.323	16198.43
620.678	16107.13
621.034	16156.85
621.39	16120.24
621.746	16155.72
622.101	16193.01
622.457	16106.46
622.812	16119.79
623.168	16258.99
623.523	16177.64
623.879	16284.98
624.234	16289.5
624.589	16266.68
624.945	16236.62
625.3	16405.88
625.655	16318.65
626.01	16381.7
626.365	16334.47
626.72	16322.04
627.075	16362.49
627.43	16316.17
627.785	16284.76
628.14	16498.08
628.495	16417.63
628.85	16427.58
629.205	16273.23
629.559	16495.82
629.914	16375.83
630.269	16453.34
630.623	16394.13
630.978	16415.15
631.332	16418.99
631.687	16434.81
632.041	16483.17
632.396	16599.1
632.75	16448.14
633.104	16436.62
633.459	16527.69
633.813	16564.3
634.167	16486.11
634.521	16480.91
634.875	16559.1
635.229	16529.27
635.583	16437.97
635.937	16556.16
636.291	16528.36
636.645	16450.4
636.999	16447.91
637.352	16634.35
637.706	16533.79
638.06	16580.79
638.413	16588.7
638.767	16510.96
639.121	16625.31
639.474	16517.74
639.828	16551.42
640.181	16608.36
640.534	16712.77
640.888	16545.77
641.241	16599.1
641.594	16567.46
641.947	16688.81
642.301	16667.57
642.654	16680.23
643.007	16659.89
643.36	16607.68
643.713	16654.46
644.066	16737.85
644.419	16717.29
644.771	16537.4
645.124	16401.36
645.477	16311.42
645.83	16350.52
646.182	16208.15
646.535	16285.21
646.888	16423.96
647.24	16227.58
647.593	16480.46
647.945	16470.51
648.298	16338.99
648.65	16327.24
649.002	16407.24
649.355	16461.93
649.707	16257.64
650.059	16402.27
650.411	16590.28
650.763	16793.89
651.115	16998.41
651.467	16885.64
651.819	16856.94
652.171	16910.73
652.523	16835.02
652.875	16789.15
653.227	16800.67
653.578	17068.92
653.93	16898.52
654.282	16864.4
654.633	16871.41
654.985	16964.74
655.337	16981.91
655.688	16992.31
656.039	17137.61
656.391	16850.39
656.742	17042.48
657.094	16978.3
657.445	17066.88
657.796	17083.6
658.147	17008.13
658.498	17078.86
658.849	17076.37
659.2	17063.04
659.551	17066.66
659.902	17185.75
660.253	17051.97
660.604	17112.98
660.955	17025.07
661.306	17134.45
661.656	17105.75
662.007	17131.06
662.358	17121.57
662.708	17145.75
663.059	17229.14
663.409	16985.3
663.76	17135.35
664.11	17141
664.461	17150.04
664.811	17154.34
665.161	17168.12
665.511	17093.1
665.862	17103.94
666.212	17169.25
666.562	17047.45
666.912	17052.64
667.262	17013.55
667.612	17079.99
667.962	17195.01
668.312	17028.24
668.662	17216.71
669.011	17034.57
669.361	16990.05
669.711	16970.39
670.06	17008.35
670.41	16974.45
670.76	16842.25
671.109	16876.38
671.459	16969.26
671.808	16906.89
672.157	16945.98
672.507	16799.77
672.856	16797.96
673.205	16725.2
673.554	16758.42
673.904	16686.55
674.253	16747.79
674.602	16693.78
674.951	16470.97
675.3	16414.24
675.649	16591.41
675.998	16581.7
676.346	16458.76
676.695	16657.85
677.044	16490.85
677.393	16536.27
677.741	16537.18
678.09	16488.14
678.438	16422.6
678.787	16426.9
679.135	16398.65
679.484	16321.59
679.832	16436.39
680.181	16264.64
680.529	16360.01
680.877	16259.45
681.225	16118.88
681.573	16368.82
681.922	16200.01
682.27	16204.08
682.618	16180.13
682.966	16122.73
683.314	16082.73
683.661	16059.9
684.009	15868.04
684.357	15897.65
684.705	15900.81
685.053	15969.28
685.4	16013.8
685.748	15836.63
686.095	15852.22
686.443	15700.14
686.79	15637.77
687.138	15776.29
687.485	15769.74
687.832	15714.83
688.18	15676.64
688.527	15650.65
688.874	15571.55
689.221	15614.49
689.568	15546.7
689.915	15456.3
690.262	15510.09
690.609	15486.81
690.956	15495.62
691.303	15392.35
691.65	15344.22
691.997	15397.55
692.344	15283.88
692.69	15316.42
693.037	15327.27
693.383	15188.06
693.73	15308.28
694.077	15178.12
694.423	15189.87
694.769	15115.29
695.116	15199.81
695.462	15137.21
695.808	15151.23
696.155	15134.05
696.501	14947.62
696.847	15013.83
697.193	14878.46
697.539	15047.5
697.885	14895.64
698.231	14920.27
698.577	14865.36
698.923	14819.03
699.269	14865.13
699.614	14790.33
699.96	14790.33
700.306	14757.56
700.651	14650.9
700.997	14657
701.342	14700.39
701.688	14681.86
702.033	14670.56
702.379	14661.52
702.724	14557.57
703.069	14590.79
703.415	14583.11
703.76	14567.29
704.105	14481.41
704.45	14440.96
704.795	14348.99
705.14	14396.22
705.485	14496.33
705.83	14407.74
706.175	14374.07
706.52	14453.39
706.865	14337.46
707.209	14303.11
707.554	14281.64
707.899	14284.13
708.243	14180.86
708.588	14244.81
708.932	14218.37
709.277	14253.17
709.621	14217.24
709.966	14092.04
710.31	14179.73
710.654	14089.11
710.998	14139.73
711.342	14174.53
711.687	14120.52
712.031	14085.04
712.375	14079.84
712.719	14052.5
713.063	14090.01
713.407	14181.08
713.75	14017.47
714.094	14137.69
714.438	14021.31
714.782	14121.87
715.125	13862.9
715.469	14041.42
715.812	13962.56
716.156	13896.12
716.499	13896.57
716.843	13995.78
717.186	13863.35
717.53	13982.44
717.873	13980.18
718.216	13886.63
718.559	13935.44
718.902	13817.48
719.246	13897.47
719.589	13850.24
719.932	13870.36
720.275	13781.77
720.617	13801.43
720.96	13792.84
721.303	13721.66
721.646	13879.85
721.989	13758.72
722.331	13732.28
722.674	13714.2
723.016	13822.9
723.359	13682.34
723.701	13785.39
724.044	13634.43
724.386	13680.08
724.729	13780.41
725.071	13713.75
725.413	13667.42
725.755	13695.44
726.097	13632.85
726.439	13600.31
726.782	13617.93
727.124	13684.15
727.465	13723.69
727.807	13607.99
728.149	13607.99
728.491	13610.02
728.833	13641.89
729.175	13600.98
729.516	13606.86
729.858	13549.91
730.199	13607.76
730.541	13658.16
730.882	13589.69
731.224	13646.18
731.565	13590.36
731.906	13554.66
732.248	13705.61
732.589	13562.57
732.93	13511.27
733.271	13606.18
733.612	13626.07
733.953	13663.36
734.294	13621.77
734.635	13549.91
734.976	13680.3
735.317	13645.5
735.658	13489.8
735.999	13571.61
736.339	13631.04
736.68	13711.72
737.021	13637.82
737.361	13641.66
737.702	13793.3
738.042	13658.38
738.383	13730.47
738.723	13888.66
739.063	13744.94
739.404	13771.83
739.744	13811.15
740.084	13808.89
740.424	13846.63
740.764	13888.66
741.104	13888.89
741.444	13903.35
741.784	13863.58
742.124	13868.55
742.464	13900.64
742.804	13924.59
743.143	13951.03
743.483	13972.05
743.823	14004.36
744.162	13969.56
744.502	13954.87
744.841	14086.85
745.181	14077.81
745.52	14056.57
745.86	14089.11
746.199	14157.58
746.538	14064.25
746.877	14149.22
747.216	14219.27
747.556	14223.34
747.895	14270.35
748.234	14280.29
748.573	14314.86
748.911	14292.94
749.25	14303.79
749.589	14285.94
749.928	14343.79
750.267	14457.23
750.605	14381.53
750.944	14501.98
751.283	14430.79
751.621	14524.12
751.96	14454.97
752.298	14524.8
752.636	14450.23
752.975	14550.34
753.313	14548.98
753.651	14572.26
753.989	14568.42
754.327	14634.86
754.666	14597.57
755.004	14652.48
755.342	14724.34
755.679	14639.83
756.017	14664.01
756.355	14790.33
756.693	14705.81
757.031	14768.64
757.368	14710.56
757.706	14759.82
758.044	14725.47
758.381	14819.26
758.719	14760.73
759.056	14861.06
759.394	14820.61
759.731	14782.65
760.068	14911.23
760.405	14873.04
760.743	14855.19
761.08	14957.11
761.417	14880.72
761.754	14891.12
762.091	14934.51
762.428	14927.73
762.765	14850.89
763.102	15016.09
763.438	14968.63
763.775	14831.46
764.112	14925.47
764.449	15003.43
764.785	14904.9
765.122	14875.07
765.458	14906.26
765.795	14936.09
766.131	15004.56
766.467	14910.55
766.804	14924.11
767.14	14856.09
767.476	14960.72
767.812	14912.36
768.148	14948.29
768.485	14881.85
768.821	14852.7
769.157	14886.37
769.492	14861.74
769.828	14856.32
770.164	14797.11
770.5	14735.87
770.836	14913.94
771.171	14832.82
771.507	14868.3
771.842	14753.27
772.178	14760.28
772.513	14743.55
772.849	14859.03
773.184	14778.13
773.519	14734.06
773.855	14800.5
774.19	14722.76
774.525	14796.43
774.86	14787.62
775.195	14730.67
775.53	14696.32
775.865	14652.26
776.2	14614.06
776.535	14565.25
776.87	14635.99
777.205	14605.03
777.539	14548.3
777.874	14682.09
778.209	14461.98
778.543	14566.16
778.878	14569.32
779.212	14515.76
779.547	14535.2
779.881	14628.53
780.215	14441.41
780.55	14479.15
780.884	14468.53
781.218	14492.71
781.552	14492.26
781.886	14454.07
782.22	14396.9
782.554	14413.62
782.888	14284.81
783.222	14262.21
783.556	14241.65
783.889	14241.65
784.223	14147.64
784.557	14252.04
784.89	14321.42
785.224	14200.52
785.557	14118.48
785.891	14123
786.224	14049.33
786.558	14205.49
786.891	14099.05
787.224	14101.54
787.557	14010.01
787.891	14020.18
788.224	13983.12
788.557	14014.53
788.89	13965.49
789.223	14053.63
789.556	13905.83
789.888	13835.33
790.221	13877.59
790.554	13838.04
790.887	13893.86
791.219	13884.82
791.552	13849.57
791.884	13693.41
792.217	13770.92
792.549	13748.1
792.882	13657.93
793.214	13679.4
793.546	13687.76
793.879	13637.14
794.211	13649.12
794.543	13709.91
794.875	13627.65
795.207	13627.2
795.539	13539.74
795.871	13579.52
796.203	13454.77
796.535	13427.66
796.867	13464.04
797.198	13412.29
797.53	13448.67
797.862	13346.75
798.193	13421.55
798.525	13298.39
798.856	13370.48
799.188	13274.67
799.519	13325.96
799.85	13222.24
800.182	13244.38
800.513	13262.46
800.844	13101.56
801.175	13259.98
801.506	13191.73
801.837	13163.26
802.168	13111.28
802.499	13128.68
802.83	13070.38
803.161	13045.52
803.491	13077.61
803.822	13070.6
804.153	13003.03
804.483	12937.27
804.814	12899.53
805.145	12915.35
805.475	12913.54
805.805	12862.02
806.136	12866.99
806.466	12874.9
806.796	12796.71
807.126	12762.81
807.457	12732.98
807.787	12743.61
808.117	12674.68
808.447	12659.09
808.777	12697.51
809.107	12704.74
809.436	12588.36
809.766	12641.91
810.096	12610.28
810.426	12524.4
810.755	12600.56
811.085	12515.81
811.414	12547.23
811.744	12477.4
812.073	12409.6
812.403	12473.1
812.732	12351.75
813.061	12328.48
813.39	12382.71
813.719	12298.87
814.049	12374.8
814.378	12359.89
814.707	12250.74
815.036	12218.42
815.365	12273.79
815.693	12143.4
816.022	12194.69
816.351	12070.18
816.68	12083.28
817.008	12175.71
817.337	12025.66
817.665	12064.3
817.994	11991.99
818.322	12001.7
818.651	11856.85
818.979	11963.06
819.307	12024.3
819.636	11933.46
819.964	11911.76
820.292	11932.78
820.62	11898.66
820.948	11937.98
821.276	11929.62
821.604	11904.76
821.932	11892.55
822.259	11986.79
822.587	11949.95
822.915	11816.17
823.243	12010.97
823.57	11913.8
823.898	11917.19
824.225	11918.99
824.553	11922.84
824.88	11954.7
825.207	11902.05
825.535	11895.04
825.862	11951.54
826.189	11985.43
826.516	11984.98
826.843	11993.34
827.17	12014.59
827.497	12020.91
827.824	12026.56
828.151	12080.8
828.478	11943.85
828.805	12101.81
829.131	12012.33
829.458	11894.36
829.785	11963.74
830.111	12030.63
830.438	12023.62
830.764	11980.01
831.09	12043.96
831.417	11943.63
831.743	11966
832.069	11989.05
832.395	11958.09
832.722	12128.03
833.048	11912.22
833.374	11939.11
833.7	11918.99
834.026	12039.9
834.351	11975.26
834.677	11933.68
835.003	11916.06
835.329	11939.11
835.654	11905.21
835.98	11818.88
836.306	11943.63
836.631	11893.01
836.956	11886.23
837.282	11976.62
837.607	11866.11
837.932	11829.51
838.258	11873.57
838.583	11875.15
838.908	11777.98
839.233	11785.44
839.558	11816.4
839.883	11684.65
840.208	11663.63
840.533	11646.01
840.858	11766.46
841.182	11727.14
841.507	11667.25
841.832	11644.88
842.156	11614.82
842.481	11674.93
842.805	11611.66
843.13	11626.12
843.454	11573.24
843.778	11547.03
844.103	11501.83
844.427	11411.44
844.751	11454.6
845.075	11471.77
845.399	11370.76
845.723	11345
846.047	11421.83
846.371	11309.74
846.695	11269.07
847.019	11198.79
847.343	11179.8
847.666	11189.07
847.99	11086.93
848.313	11090.32
848.637	11049.41
848.96	11041.28
849.284	10971.9
849.607	10975.29
849.931	10860.27
850.254	10813.49
850.577	10760.61
850.9	10657.11
851.223	10742.08
851.546	10573.95
851.869	10502.31
852.192	10665.92
852.515	10527.39
852.838	10469.77
853.161	10556.54
853.483	10468.64
853.806	10433.84
854.129	10332.37
854.451	10314.29
854.774	10262.99
855.096	10312.03
855.419	10280.62
855.741	10198.36
856.063	10196.55
856.385	10114.3
856.708	10061.87
857.03	10071.13
857.352	10103.68
857.674	10083.56
857.996	9985.26
858.318	9938.03
858.64	9946.17
858.961	9959.05
859.283	9863.68
859.605	9853.06
859.926	9851.25
860.248	9858.48
860.57	9792.95
860.891	9808.54
861.212	9793.85
861.534	9739.84
861.855	9745.49
862.176	9779.84
862.498	9742.1
862.819	9695.78
863.14	9678.38
863.461	9719.28
863.782	9652.39
864.103	9643.12
864.424	9656.68
864.745	9641.99
865.065	9573.75
865.386	9496.69
865.707	9559.73
866.027	9588.66
866.348	9559.51
866.668	9547.98
866.989	9451.94
867.309	9433.86
867.63	9438.16
867.95	9435.22
868.27	9354.54
868.59	9390.47
868.91	9369.68
869.23	9425.5
869.55	9381.66
869.87	9388.44
870.19	9304.6
870.51	9335.79
870.83	9322
871.15	9258.73
871.469	9239.06
871.789	9332.85
872.109	9278.39
872.428	9224.83
872.748	9251.95
873.067	9238.84
873.386	9225.73
873.706	9182.8
874.025	9181.67
874.344	9150.25
874.663	9218.5
874.982	9190.93
875.301	9094.44
875.62	9136.92
875.939	9117.71
876.258	9104.15
876.577	9037.04
876.896	9091.72
877.214	9046.53
877.533	9042.91
877.852	9051.27
878.17	9009.92
878.489	9068
878.807	8953.2
879.125	9028
879.444	8882.46
879.762	8850.6
880.08	8947.1
880.398	8888.57
880.716	8923.82
881.034	8898.73
881.352	8874.55
881.67	8787.33
881.988	8837.72
882.306	8813.31
882.624	8806.53
882.941	8779.64
883.259	8665.07
883.577	8712.3
883.894	8679.08
884.212	8698.51
884.529	8648.57
884.846	8670.49
885.164	8598.4
885.481	8603.6
885.798	8653.54
886.115	8462.81
886.432	8572.42
886.75	8519.76
887.067	8476.37
887.383	8477.96
887.7	8461.46
888.017	8531.51
888.334	8475.02
888.651	8399.54
888.967	8446.54
889.284	8344.63
889.6	8365.87
889.917	8275.02
890.233	8369.71
890.55	8232.99
890.866	8303.04
891.182	8256.72
891.498	8237.74
891.815	8200.67
892.131	8203.61
892.447	8191.41
892.763	8101.47
893.079	8062.82
893.395	8081.36
893.71	8058.31
894.026	8014.46
894.342	7990.51
894.657	8015.82
894.973	7957.97
895.289	7933.79
895.604	7923.62
895.92	7863.51
896.235	7837.52
896.55	7843.85
896.865	7793.23
897.181	7839.33
897.496	7778.09
897.811	7729.73
898.126	7713.46
898.441	7685.21
898.756	7619.22
899.071	7631.88
899.386	7636.4
899.7	7593.91
900.015	7514.36
900.33	7459.22
900.644	7538.77
900.959	7475.27
901.273	7438.21
901.588	7446.34
901.902	7387.14
902.216	7345.33
902.531	7328.38
902.845	7347.82
903.159	7253.81
903.473	7166.35
903.787	7228.72
904.101	7180.59
904.415	7165.45
904.729	7155.5
905.042	7110.76
905.356	7035.28
905.67	7043.87
905.984	7079.12
906.297	7015.17
906.611	6955.06
906.924	6988.05
907.237	6962.74
907.551	6888.62
907.864	6863.53
908.177	6823.31
908.491	6862.18
908.804	6764.78
909.117	6767.72
909.43	6764.33
909.743	6703.31
910.056	6710.32
910.368	6656.53
910.681	6663.31
910.994	6636.42
911.307	6556.42
911.619	6537.44
911.932	6555.29
912.244	6520.72
912.557	6502.64
912.869	6473.71
913.181	6457.22
913.494	6425.58
913.806	6380.84
914.118	6391.91
914.43	6311.91
914.742	6337.9
915.054	6219.94
915.366	6266.04
915.678	6226.71
915.99	6240.5
916.302	6158.47
916.613	6146.94
916.925	6100.84
917.236	6122.76
917.548	6128.64
917.859	6110.56
918.171	6059.04
918.482	5990.34
918.794	5953.28
919.105	5964.35
919.416	5897.01
919.727	5933.84
920.038	5878.25
920.349	5794.18
920.66	5841.19
920.971	5829.44
921.282	5828.53
921.593	5780.4
921.903	5777.46
922.214	5715.09
922.525	5645.26
922.835	5691.14
923.146	5656.11
923.456	5600.29
923.767	5556.68
924.077	5573.85
924.387	5593.06
924.697	5508.54
925.008	5515.55
925.318	5473.97
925.628	5526.85
925.938	5446.17
926.248	5363.46
926.558	5392.61
926.867	5364.36
927.177	5344.48
927.487	5313.97
927.796	5286.4
928.106	5261.99
928.416	5292.95
928.725	5233.97
929.034	5191.04
929.344	5235.78
929.653	5183.35
929.962	5128.44
930.271	5110.81
930.581	5093.19
930.89	5111.94
931.199	5026.97
931.508	5028.1
931.817	5096.12
932.125	4995.11
932.434	4996.01
932.743	4928.67
933.051	4973.41
933.36	4915.34
933.669	4880.54
933.977	4858.84
934.286	4831.72
934.594	4815.23
934.902	4845.96
935.21	4765.96
935.519	4776.13
935.827	4787.43
936.135	4758.73
936.443	4724.61
936.751	4692.74
937.059	4678.73
937.367	4676.47
937.674	4616.81
937.982	4605.06
938.29	4567.32
938.597	4616.14
938.905	4534.56
939.213	4510.83
939.52	4501.11
939.827	4510.38
940.135	4451.39
940.442	4459.08
940.749	4462.69
941.056	4462.47
941.363	4387.22
941.67	4337.05
941.977	4370.49
942.284	4356.93
942.591	4342.92
942.898	4320.55
943.205	4339.53
943.511	4321.68
943.818	4261.34
944.125	4214.56
944.431	4232.42
944.738	4241.91
945.044	4214.56
945.35	4180.67
945.657	4140.67
945.963	4119.88
946.269	4151.29
946.575	4134.57
946.881	4070.39
947.187	4095.02
947.493	4053.66
947.799	4043.27
948.105	4039.88
948.41	3985.64
948.716	3970.95
949.022	3951.29
949.327	3975.25
949.633	3916.72
949.938	3897.74
950.244	3911.97
950.549	3850.96
950.854	3890.05
951.16	3833.56
951.465	3810.28
951.77	3794.01
952.075	3805.54
952.38	3751.53
952.685	3809.6
952.99	3721.24
953.294	3703.39
953.599	3752.66
953.904	3691.19
954.209	3654.81
954.513	3695.93
954.818	3653
955.122	3624.75
955.426	3654.35
955.731	3653
956.035	3596.5
956.339	3591.98
956.643	3593.56
956.948	3554.92
957.252	3542.04
957.556	3525.09
957.86	3525.77
958.163	3505.2
958.467	3462.95
958.771	3485.77
959.075	3481.25
959.378	3438.99
959.682	3459.78
959.985	3406.45
960.289	3332.55
960.592	3364.42
960.896	3338.2
961.199	3340.01
961.502	3348.15
961.805	3311.09
962.108	3286.91
962.411	3311.76
962.714	3289.84
963.017	3279.67
963.32	3264.98
963.623	3207.36
963.926	3241.03
964.228	3180.02
964.531	3226.57
964.833	3167.36
965.136	3165.55
965.438	3136.63
965.741	3141.37
966.043	3119.68
966.345	3104.99
966.648	3107.25
966.95	3103.63
967.252	3076.74
967.554	3063.63
967.856	3086.46
968.158	3008.04
968.46	3028.38
968.761	2996.52
969.063	2997.87
969.365	2983.18
969.666	3004.43
969.968	2943.64
970.269	2949.06
970.571	2956.74
970.872	2917.2
971.174	2840.14
971.475	2889.18
971.776	2883.75
972.077	2867.93
972.378	2841.49
972.679	2842.4
972.98	2850.76
973.281	2806.24
973.582	2805.79
973.883	2772.79
974.183	2802.17
974.484	2764.88
974.785	2759.46
975.085	2742.29
975.386	2772.57
975.686	2721.27
975.986	2740.93
976.287	2721.27
976.587	2715.17
976.887	2665.23
977.187	2659.35
977.487	2677.88
977.787	2628.84
978.087	2630.43
978.387	2610.76
978.687	2625
978.987	2605.12
979.286	2546.36
979.586	2556.98
979.885	2550.65
980.185	2559.69
980.484	2527.83
980.784	2519.02
981.083	2543.65
981.382	2540.94
981.682	2495.29
981.981	2515.85
982.28	2474.95
982.579	2458.9
982.878	2447.83
983.177	2436.98
983.475	2459.58
983.774	2415.52
984.073	2425.23
984.372	2402.63
984.67	2428.17
984.969	2407.15
985.267	2369.19
985.566	2352.24
985.864	2357.44
986.162	2371
986.461	2311.34
986.759	2314.5
987.057	2288.74
987.355	2272.69
987.653	2291
987.951	2236.54
988.249	2269.3
988.547	2289.64
988.844	2241.96
989.142	2193.83
989.44	2217.78
989.737	2231.11
990.035	2204.22
990.332	2196.54
990.63	2205.35
990.927	2183.66
991.224	2164.67
991.521	2177.78
991.819	2153.38
992.116	2140.72
992.413	2143.43
992.71	2133.94
993.006	2084.45
993.303	2134.39
993.6	2114.96
993.897	2091.23
994.193	2096.88
994.49	2055.53
994.787	2037.45
995.083	2056.2
995.379	2023.66
995.676	2008.29
995.972	2026.37
996.268	2016.88
996.565	1989.31
996.861	1990.67
997.157	1967.17
997.453	1964.23
997.749	1972.36
998.044	1915.19
998.34	1904.34
998.636	1964.45
998.932	1940.95
999.227	1907.96
999.523	1886.94
999.818	1900.27
1000.114	1882.2
1000.409	1860.5
1000.704	1859.15
1001	1859.82
1001.295	1835.64
1001.59	1822.99
1001.885	1831.8
1002.18	1812.82
1002.475	1808.98
1002.77	1795.87
1003.065	1794.51
1003.359	1785.02
1003.654	1786.38
1003.949	1756.78
1004.243	1788.41
1004.538	1754.29
1004.832	1738.7
1005.127	1727.4
1005.421	1696.89
1005.715	1695.99
1006.009	1694.4
1006.304	1682.88
1006.598	1687.85
1006.892	1679.49
1007.186	1653.05
1007.48	1674.97
1007.773	1636.33
1008.067	1643.56
1008.361	1623.67
1008.655	1612.15
1008.948	1599.72
1009.242	1553.84
1009.535	1591.81
1009.829	1579.38
1010.122	1572.6
1010.415	1555.65
1010.708	1567.4
1011.001	1521.98
1011.295	1526.95
1011.588	1509.32
1011.881	1518.82
1012.173	1495.09
1012.466	1519.72
1012.759	1477.69
1013.052	1467.29
1013.344	1494.86
1013.637	1480.4
1013.93	1452.15
1014.222	1460.29
1014.514	1444.24
1014.807	1453.96
1015.099	1436.78
1015.391	1443.34
1015.683	1428.2
1015.976	1404.92
1016.268	1395.88
1016.56	1378.48
1016.851	1387.75
1017.143	1367.18
1017.435	1366.96
1017.727	1353.17
1018.018	1375.32
1018.31	1330.8
1018.602	1316.11
1018.893	1334.41
1019.185	1308.2
1019.476	1303.91
1019.767	1298.71
1020.058	1277.92
1020.35	1288.99
1020.641	1251.03
1020.932	1244.02
1021.223	1242.21
1021.514	1253.51
1021.804	1224.59
1022.095	1253.51
1022.386	1230.24
1022.677	1204.25
1022.967	1212.84
1023.258	1187.53
1023.548	1194.98
1023.839	1176.9
1024.129	1161.54
1024.419	1154.08
1024.709	1169.9
1025	1125.61
1025.29	1137.58
1025.58	1137.36
1025.87	1145.94
1026.16	1117.47
1026.449	1090.8
1026.739	1097.13
1027.029	1111.82
1027.319	1110.24
1027.608	1119.05
1027.898	1059.85
1028.187	1089.9
1028.477	1059.17
1028.766	1057.59
1029.055	1067.3
1029.344	1054.65
1029.634	1058.94
1029.923	1031.37
1030.212	1030.92
1030.501	1047.64
1030.79	1006.97
1031.078	1007.42
1031.367	1016.91
1031.656	987.53
1031.945	1002.22
1032.233	972.84
1032.522	964.48
1032.81	961.99
1033.099	977.81
1033.387	963.12
1033.675	958.83
1033.963	948.21
1034.251	937.14
1034.54	935.33
1034.828	956.34
1035.116	918.15
1035.403	929.9
1035.691	917.7
1035.979	894.65
1036.267	922.45
1036.554	898.49
1036.842	887.42
1037.129	885.16
1037.417	890.13
1037.704	883.35
1037.992	883.8
1038.279	855.1
1038.566	849.23
1038.853	849.23
1039.14	849.23
