Data from blue_shiny_book_FLMS001491_00064.txt Node
Date: Wed Feb 08 15:27:21 GMT 2017
User: dcchb
Spectrometer: FLMS00149
Trigger mode: 0
Integration Time (sec): 2.000000E-2
Scans to average: 10
Electric dark correction enabled: true
Nonlinearity correction enabled: false
Boxcar width: 0
XAxis mode: Wavelengths
Number of Pixels in Spectrum: 2048
>>>>>Begin Spectral Data<<<<<
341.393	4.36
341.776	4.36
342.16	4.36
342.543	-51.68
342.927	-66.14
343.31	-73.83
343.693	-74.05
344.077	-46.71
344.46	-51.45
344.843	-53.26
345.226	-36.76
345.61	-23.21
345.993	-18.69
346.376	-1.96
346.759	-16.43
347.142	26.06
347.525	34.19
347.908	58.37
348.291	72.39
348.674	97.7
349.057	107.64
349.44	135.89
349.823	143.8
350.206	151.71
350.588	193.06
350.971	217.69
351.354	211.82
351.737	228.99
352.119	259.5
352.502	262.44
352.884	280.29
353.267	290.01
353.65	296.33
354.032	299.27
354.414	302.44
354.797	317.58
355.179	331.59
355.562	332.49
355.944	314.41
356.326	343.56
356.709	345.82
357.091	368.87
357.473	357.35
357.855	354.41
358.238	357.8
358.62	354.41
359.002	338.14
359.384	359.84
359.766	349.21
360.148	386.05
360.53	348.54
360.912	351.02
361.294	347.63
361.676	347.18
362.057	331.59
362.439	349.67
362.821	334.07
363.203	357.35
363.584	345.37
363.966	333.17
364.348	339.27
364.729	329.55
365.111	347.18
365.493	328.65
365.874	338.59
366.256	337.01
366.637	337.24
367.019	323.23
367.4	339.27
367.781	340.4
368.163	335.88
368.544	317.58
368.925	333.4
369.306	347.41
369.688	344.24
370.069	326.62
370.45	345.15
370.831	325.03
371.212	337.01
371.593	331.59
371.974	353.06
372.355	326.62
372.736	325.71
373.117	352.38
373.498	342.89
373.879	317.8
374.26	365.94
374.641	337.69
375.021	336.11
375.402	341.53
375.783	366.39
376.163	382.21
376.544	357.8
376.925	342.89
377.305	379.27
377.686	368.87
378.066	360.06
378.447	379.04
378.827	375.43
379.208	366.61
379.588	371.36
379.968	367.74
380.349	388.99
380.729	404.35
381.109	387.63
381.489	379.27
381.87	400.74
382.25	393.73
382.63	418.36
383.01	391.47
383.39	410.91
383.77	400.29
384.15	397.8
384.53	410.23
384.91	392.6
385.29	413.85
385.67	423.11
386.049	419.95
386.429	428.76
386.809	447.97
387.189	446.61
387.568	453.39
387.948	458.14
388.328	440.96
388.707	461.98
389.087	465.37
389.466	484.8
389.846	488.19
390.225	486.61
390.605	482.77
390.984	478.7
391.363	483.22
391.743	474.41
392.122	507.4
392.501	478.93
392.881	512.15
393.26	530.45
393.639	506.72
394.018	526.61
394.397	505.37
394.776	538.59
395.155	525.48
395.534	533.16
395.913	532.94
396.292	558.7
396.671	536.55
397.05	567.51
397.429	538.14
397.808	577.46
398.186	586.04
398.565	585.14
398.944	573.16
399.323	593.73
399.701	597.12
400.08	615.65
400.458	592.15
400.837	605.7
401.215	611.58
401.594	625.82
401.972	634.18
402.351	602.31
402.729	638.7
403.107	674.4
403.486	687.96
403.864	661.75
404.242	666.72
404.62	680.28
404.999	666.72
405.377	734.51
405.755	719.6
406.133	753.95
406.511	688.19
406.889	745.14
407.267	739.94
407.645	738.81
408.023	776.1
408.401	791.24
408.779	805.93
409.156	781.29
409.534	773.61
409.912	829.88
410.29	812.93
410.667	864.23
411.045	861.97
411.422	868.07
411.8	871.01
412.178	896.54
412.555	938.58
412.933	909.2
413.31	930.44
413.687	936.32
414.065	948.97
414.442	997.33
414.819	965.47
415.197	998.91
415.574	1020.83
415.951	1018.57
416.328	1027.84
416.705	1056.31
417.082	1067.16
417.46	1096.09
417.837	1098.57
418.214	1105.8
418.591	1106.71
418.967	1111
419.344	1115.3
419.721	1120.72
420.098	1137.44
420.475	1176.99
420.852	1190.77
421.228	1222.19
421.605	1231
421.982	1227.38
422.358	1222.86
422.735	1253.6
423.111	1264.67
423.488	1289.53
423.864	1305.12
424.241	1317.1
424.617	1348.06
424.994	1352.35
425.37	1387.15
425.746	1381.05
426.123	1405.23
426.499	1434.16
426.875	1422.41
427.251	1486.59
427.627	1502.18
428.003	1471.9
428.379	1535.4
428.756	1555.28
429.132	1564.1
429.507	1614.49
429.883	1658.78
430.259	1654.49
430.635	1657.88
431.011	1709.18
431.387	1706.69
431.763	1761.38
432.138	1760.25
432.514	1771.1
432.89	1770.87
433.265	1854.03
433.641	1884.99
434.016	1902.17
434.392	1931.55
434.767	1948.27
435.143	1960.7
435.518	2008.38
435.894	2069.62
436.269	2041.6
436.644	2104.2
437.02	2124.31
437.395	2116.4
437.77	2164.76
438.145	2207.24
438.52	2183.29
438.895	2222.61
439.271	2262.61
439.646	2338.09
440.021	2364.98
440.395	2360.91
440.77	2344.42
441.145	2385.32
441.52	2401.36
441.895	2435.94
442.27	2485.43
442.645	2466.45
443.019	2481.59
443.394	2497.63
443.769	2535.82
444.143	2537.41
444.518	2584.64
444.892	2603.17
445.267	2615.37
445.641	2645.42
446.016	2667.35
446.39	2734.46
446.764	2744.18
447.139	2700.79
447.513	2778.75
447.887	2767.46
448.262	2734.69
448.636	2776.49
449.01	2845.42
449.384	2879.77
449.758	2880.9
450.132	2997.96
450.506	2982.14
450.88	2965.64
451.254	3021.69
451.628	3061.01
452.002	3096.49
452.376	3129.03
452.75	3140.78
453.123	3157.28
453.497	3247.89
453.871	3214
454.244	3293.32
454.618	3354.11
454.992	3440.88
455.365	3443.82
455.739	3512.97
456.112	3578.28
456.486	3608.34
456.859	3657.15
457.232	3688.11
457.606	3719.07
457.979	3765.17
458.352	3813.3
458.725	3858.5
459.099	3907.76
459.472	3977.37
459.845	4009.91
460.218	4065.05
460.591	4101.21
460.964	4172.62
461.337	4261.65
461.71	4354.53
462.083	4397.47
462.456	4398.37
462.829	4432.72
463.201	4523.12
463.574	4518.14
463.947	4582.55
464.32	4736.44
464.692	4743.67
465.065	4792.49
465.438	4875.2
465.81	4885.59
466.183	5025.7
466.555	5090.33
466.928	5143.89
467.3	5191.35
467.672	5332.13
468.045	5425.69
468.417	5445.58
468.789	5474.95
469.161	5534.61
469.534	5573.03
469.906	5755.4
470.278	5773.48
470.65	5824.55
471.022	5983.87
471.394	6027.71
471.766	6107.25
472.138	6236.74
472.51	6419.56
472.882	6483.74
473.253	6539.11
473.625	6663.62
473.997	6763.06
474.369	6831.3
474.74	6928.93
475.112	7085.08
475.484	7171.41
475.855	7275.59
476.227	7316.49
476.598	7562.81
476.97	7634.45
477.341	7870.37
477.713	7963.48
478.084	8017.49
478.455	8187.43
478.827	8335.67
479.198	8608.21
479.569	8579.28
479.94	8886.16
480.311	8966.61
480.682	9114.63
481.053	9351.46
481.424	9396.21
481.795	9482.99
482.166	9728.4
482.537	9854.27
482.908	10000.94
483.279	10191.44
483.65	10316.64
484.021	10658.1
484.391	10691.99
484.762	10749.39
485.133	10947.35
485.503	11139.21
485.874	11337.17
486.244	11547.34
486.615	11695.13
486.985	11795.92
487.356	12058.28
487.726	12101.67
488.097	12375.11
488.467	12406.3
488.837	12749.57
489.207	12833.63
489.578	13083.12
489.948	13273.17
490.318	13472.48
490.688	13505.25
491.058	13721.07
491.428	14082.86
491.798	14120.6
492.168	14423.87
492.538	14443.53
492.908	14575.96
493.278	14794.94
493.648	14862.05
494.017	15128.26
494.387	15210.07
494.757	15350.4
495.126	15641.02
495.496	15733.89
495.866	15808.47
496.235	16045.3
496.605	16202.81
496.974	16281.68
497.344	16492.29
497.713	16567.77
498.082	16668.56
498.452	16963.24
498.821	16981.55
499.19	17005.95
499.559	17209.11
499.928	17396.68
500.298	17472.83
500.667	17665.37
501.036	17624.92
501.405	17955.98
501.774	17960.95
502.143	18235.75
502.512	18324.11
502.88	18433.48
503.249	18452.92
503.618	18645.23
503.987	18725
504.356	18905.79
504.724	18997.99
505.093	18945.34
505.462	19189.85
505.83	19309.85
506.199	19394.14
506.567	19690.17
506.936	19763.17
507.304	20008.58
507.672	20090.62
508.041	20180.33
508.409	20336.94
508.777	20641.34
509.145	20755.46
509.514	20779.86
509.882	20972.4
510.25	20999.74
510.618	21227.08
510.986	21339.62
511.354	21519.05
511.722	21577.81
512.09	21723.12
512.458	21786.39
512.826	22056.44
513.193	22210.11
513.561	22322.2
513.929	22492.36
514.297	22801.05
514.664	22802.86
515.032	22938.45
515.4	23134.38
515.767	23296.86
516.135	23530.98
516.502	23520.36
516.869	23877.41
517.237	23935.26
517.604	23809.39
517.972	24185.65
518.339	24233.11
518.706	24341.13
519.073	24471.29
519.44	24686.2
519.808	24931.62
520.175	24970.71
520.542	25396.92
520.909	25582
521.276	25534.31
521.643	26007.97
522.009	26033.28
522.376	26331.58
522.743	26488.41
523.11	26756.2
523.477	26989.64
523.843	27078.91
524.21	27403.42
524.577	27545.34
524.943	27585.79
525.31	27706.46
525.676	27999.79
526.043	28103.96
526.409	28320
526.776	28679.09
527.142	28790.95
527.508	28884.28
527.874	29189.81
528.241	29342.35
528.607	29505.74
528.973	29905.5
529.339	29937.59
529.705	30193.85
530.071	30500.06
530.437	30623.67
530.803	30879.94
531.169	30971.91
531.535	30990.22
531.901	31161.74
532.267	31150.21
532.632	31356.99
532.998	31508.85
533.364	31657.09
533.73	31729.86
534.095	31912
534.461	32073.35
534.826	32327.58
535.192	32482.15
535.557	32847.57
535.923	32793.56
536.288	32981.58
536.653	33149.71
537.019	33040.56
537.384	33436.71
537.749	33624.5
538.114	33632.63
538.479	33559.64
538.845	33715.12
539.21	33638.28
539.575	33744.04
539.94	33795.79
540.305	34008.67
540.67	33863.59
541.034	34121.43
541.399	34120.76
541.764	34228.1
542.129	34461.76
542.494	34392.61
542.858	34788.31
543.223	34879.61
543.587	35040.73
543.952	35163.21
544.316	35272.59
544.681	35393.04
545.045	35598.68
545.41	35715.06
545.774	35855.4
546.138	35689.75
546.503	35784.21
546.867	35706.7
547.231	35984.66
547.595	35958.67
547.959	36078.22
548.324	36072.34
548.688	36140.14
549.052	36198.89
549.416	36201.38
549.779	36442.5
550.143	36411.54
550.507	36677.07
550.871	36848.37
551.235	36840.68
551.599	37234.12
551.962	37333.78
552.326	37571.51
552.689	37687.22
553.053	37681.34
553.417	37780.09
553.78	38028.68
554.143	37793.43
554.507	37934.21
554.87	38093.31
555.234	38372.85
555.597	38151.16
555.96	38054.89
556.323	38247.43
556.686	38376.91
557.05	38617.59
557.413	38644.03
557.776	38591.37
558.139	38896.67
558.502	39011.02
558.865	39095.31
559.228	39326.04
559.59	39523.55
559.953	39716.77
560.316	40094.61
560.679	40074.95
561.041	40512.68
561.404	40695.5
561.767	40864.08
562.129	40641.04
562.492	41052.78
562.854	40938.43
563.217	40947.02
563.579	41044.19
563.941	41084.41
564.304	41321.47
564.666	41327.8
565.028	41473.1
565.39	41452.99
565.753	41648.24
566.115	41789.25
566.477	41941.79
566.839	42017.72
567.201	42354.44
567.563	42554.21
567.925	42801.43
568.287	42952.61
568.648	43106.96
569.01	43499.72
569.372	43685.25
569.734	43564.8
570.095	43899.26
570.457	43880.5
570.819	43971.8
571.18	43848.64
571.542	44101.74
571.903	44073.26
572.265	44036.43
572.626	44083.43
572.987	43960.72
573.349	44087.27
573.71	44337.66
574.071	44335.18
574.432	44377.21
574.794	44715.28
575.155	44664.21
575.516	44728.16
575.877	44924.31
576.238	45060.58
576.599	45317.07
576.96	45368.14
577.32	45600
577.681	45730.62
578.042	45980.1
578.403	45989.6
578.763	46045.87
579.124	46230.49
579.485	46195.92
579.845	46260.55
580.206	46298.97
580.566	46106.43
580.927	46098.52
581.287	46165.18
581.648	45988.01
582.008	46218.52
582.368	46058.97
582.728	46124.96
583.089	46065.53
583.449	46061.23
583.809	46149.82
584.169	46239.53
584.529	46206.09
584.889	46519.3
585.249	46379.87
585.609	46388.68
585.969	46811.72
586.329	46674.32
586.688	46824.6
587.048	46865.96
587.408	46816.92
587.768	47021.89
588.127	46938.95
588.487	46791.38
588.846	47176.23
589.206	46857.82
589.565	46766.07
589.925	46852.62
590.284	46621.9
590.643	46691.95
591.003	46715.68
591.362	46763.36
591.721	46577.6
592.08	46567.21
592.44	46717.94
592.799	46661.44
593.158	46587.32
593.517	46693.76
593.876	46738.5
594.235	46875.22
594.593	46965.16
594.952	47029.57
595.311	46868.44
595.67	47099.85
596.029	47479.95
596.387	47620.51
596.746	47611.93
597.104	47399.05
597.463	47486.51
597.822	47599.05
598.18	47447.18
598.538	47492.83
598.897	47719.72
599.255	47233.4
599.613	47707.52
599.972	47361.09
600.33	47289.22
600.688	47159.06
601.046	47256.68
601.404	47227.3
601.762	47104.37
602.12	47341.88
602.478	47453.29
602.836	47525.83
603.194	47457.58
603.552	47485.15
603.91	47319.5
604.268	47623
604.625	47575.99
604.983	47711.13
605.341	47596.11
605.698	47931.01
606.056	47960.39
606.413	48045.59
606.771	48261.63
607.128	48297.78
607.485	48163.1
607.843	48246.94
608.2	48552.47
608.557	48499.59
608.914	48178.01
609.272	48364.67
609.629	48475.86
609.986	48402.87
610.343	48218.69
610.7	48281.74
611.057	48188.86
611.414	48279.03
611.771	48235.19
612.127	48321.74
612.484	48308.63
612.841	48365.35
613.198	48326.03
613.554	48407.39
613.911	48736.87
614.267	48637.44
614.624	48655.97
614.98	48747.72
615.337	49113.58
615.693	49117.42
616.05	49078.1
616.406	49269.28
616.762	49282.84
617.118	49318.1
617.475	49451.88
617.831	49380.02
618.187	49411.88
618.543	49359.68
618.899	49612.78
619.255	49558.99
619.611	49459.34
619.967	49396.96
620.323	49453.23
620.678	49219.79
621.034	49097.99
621.39	49108.38
621.746	48976.64
622.101	49416.4
622.457	49114.03
622.812	49066.13
623.168	49179.79
623.523	49168.27
623.879	49295.72
624.234	48998.56
624.589	49350.86
624.945	49408.26
625.3	49431.77
625.655	49501.37
626.01	49404.87
626.365	49634.25
626.72	49552.44
627.075	49736.16
627.43	49786.33
627.785	49690.06
628.14	49794.24
628.495	49807.8
628.85	49786.78
629.205	49538.88
629.559	49841.25
629.914	49537.3
630.269	49536.85
630.623	49313.8
630.978	49288.27
631.332	49495.49
631.687	49324.65
632.041	49144.32
632.396	49158.33
632.75	48893.93
633.104	48796.53
633.459	48595.18
633.813	48759.01
634.167	48695.51
634.521	48714.5
634.875	48602.86
635.229	48644.22
635.583	48559.25
635.937	48631.11
636.291	48640.6
636.645	48774.16
636.999	48678.34
637.352	48795.4
637.706	48649.86
638.06	48923.98
638.413	48787.26
638.767	48664.33
639.121	48727.83
639.474	48461.85
639.828	48628.85
640.181	48498
640.534	48474.95
640.888	48305.24
641.241	48224.57
641.594	48142.99
641.947	48223.89
642.301	48068.64
642.654	48094.63
643.007	48020.5
643.36	47697.8
643.713	47717.69
644.066	47745.03
644.419	47526.96
644.771	47521.53
645.124	47354.31
645.477	47362.22
645.83	47228.21
646.182	46772.4
646.535	46457.83
646.888	46195.24
647.24	46018.07
647.593	46170.61
647.945	46045.87
648.298	46013.55
648.65	45980.56
649.002	45991.4
649.355	46248.8
649.707	46314.11
650.059	46902.11
650.411	47397.47
650.763	47241.54
651.115	47720.85
651.467	47558.37
651.819	47472.27
652.171	47378.94
652.523	47181.88
652.875	47124.71
653.227	46916.35
653.578	47298.94
653.93	47060.53
654.282	46853.75
654.633	46698.5
654.985	46614.21
655.337	46691.72
655.688	46586.42
656.039	46616.92
656.391	46229.36
656.742	46460.77
657.094	46443.6
657.445	46518.4
657.796	46377.38
658.147	46411.05
658.498	46495.8
658.849	46585.51
659.2	46373.77
659.551	46276.82
659.902	46706.64
660.253	46754.32
660.604	46823.92
660.955	46677.71
661.306	46810.37
661.656	46810.82
662.007	46670.48
662.358	46727.88
662.708	46858.05
663.059	46809.24
663.409	46492.18
663.76	46650.37
664.11	46565.4
664.461	46471.84
664.811	46514.55
665.161	46486.98
665.511	46290.83
665.862	46450.15
666.212	46300.55
666.562	46352.3
666.912	46188.23
667.262	46208.57
667.612	46239.53
667.962	46021.69
668.312	45938.3
668.662	46015.81
669.011	46016.71
669.361	45823.72
669.711	45739.21
670.06	45796.83
670.41	45808.13
670.76	45773.56
671.109	45932.87
671.459	45771.52
671.808	45675.71
672.157	45981.91
672.507	45683.84
672.856	45745.76
673.205	45880.45
673.554	46079.76
673.904	45960.44
674.253	46231.85
674.602	46080.67
674.951	45361.59
675.3	45273.91
675.649	45908.47
675.998	45823.72
676.346	45736.95
676.695	45887.9
677.044	45527.91
677.393	45570.62
677.741	45549.61
678.09	45244.53
678.438	45074.37
678.787	45087.47
679.135	44992.11
679.484	44619.01
679.832	44722.06
680.181	44554.15
680.529	44620.14
680.877	44440.94
681.225	44346.7
681.573	44517.09
681.922	44168.4
682.27	44309.64
682.618	44212.47
682.966	44115.97
683.314	43979.71
683.661	44023.77
684.009	43963.66
684.357	43925.24
684.705	43873.27
685.053	43907.39
685.4	44018.35
685.748	43824.68
686.095	43913.27
686.443	43724.12
686.79	43863.32
687.138	43881.85
687.485	43920.27
687.832	43612.26
688.18	43667.62
688.527	43499.27
688.874	43365.94
689.221	43307.63
689.568	43365.03
689.915	43007.08
690.262	43197.35
690.609	42820.41
690.956	42622
691.303	42647.54
691.65	42365.74
691.997	42216.81
692.344	41987.44
692.69	41811.85
693.037	41742.48
693.383	41339.1
693.73	41452.31
694.077	41187.46
694.423	41204.86
694.769	40910.18
695.116	40744.08
695.462	40708.6
695.808	40527.59
696.155	40714.93
696.501	40275.4
696.847	40486.69
697.193	40256.41
697.539	40381.61
697.885	40190.43
698.231	40059.81
698.577	40232.01
698.923	40198.79
699.269	40077.43
699.614	39966.48
699.96	39798.35
700.306	39932.58
700.651	39815.97
700.997	39719.7
701.342	39575.53
701.688	39515.19
702.033	39453.27
702.379	39409.66
702.724	39278.81
703.069	39442.42
703.415	38959.05
703.76	38931.48
704.105	38777.36
704.45	38523.8
704.795	38244.94
705.14	38011.5
705.485	37879.3
705.83	37847.89
706.175	37727.67
706.52	37512.3
706.865	37355.25
707.209	37293.55
707.554	36977.4
707.899	37120.9
708.243	36847.69
708.588	36731.53
708.932	36741.48
709.277	36661.71
709.621	36718.2
709.966	36308.04
710.31	36622.61
710.654	36278.21
710.998	36447.7
711.342	36468.26
711.687	36480.47
712.031	36189.18
712.375	36313.47
712.719	36339
713.063	36165.22
713.407	36381.49
713.75	36327.03
714.094	36310.75
714.438	36240.25
714.782	36375.61
715.125	36167.26
715.469	36296.07
715.812	36071.89
716.156	35866.47
716.499	35874.38
716.843	35847.26
717.186	35367.28
717.53	35555.07
717.873	35518.68
718.216	35283.66
718.559	35155.98
718.902	34913.95
719.246	35111.01
719.589	35026.72
719.932	34739.95
720.275	34697.24
720.617	34526.39
720.96	34460.18
721.303	34374.31
721.646	34460.41
721.989	34173.18
722.331	34068.33
722.674	33959.4
723.016	34003.7
723.359	33992.62
723.701	34037.14
724.044	33792.4
724.386	33867.43
724.729	33920.53
725.071	33844.6
725.413	33968.67
725.755	33939.29
726.097	33857.03
726.439	33793.31
726.782	33895.9
727.124	34021.1
727.465	33907.65
727.807	34000.53
728.149	33821.78
728.491	33863.81
728.833	34108.1
729.175	33761.67
729.516	33918.5
729.858	34041.89
730.199	34042.11
730.541	33984.04
730.882	34012.74
731.224	33909.46
731.565	33732.97
731.906	33629.69
732.248	33785.62
732.589	33540.88
732.93	33223.83
733.271	33356.93
733.612	33328.01
733.953	33354.9
734.294	33151.52
734.635	33034
734.976	33136.15
735.317	32864.74
735.658	33009.6
735.999	32822.03
736.339	32686.44
736.68	32811.19
737.021	32713.11
737.361	32603.06
737.702	32805.99
738.042	32733.45
738.383	32701.58
738.723	32669.95
739.063	32495.04
739.404	32702.04
739.744	32793.56
740.084	32527.8
740.424	32905.65
740.764	32618.87
741.104	32902.48
741.444	32770.51
741.784	32702.04
742.124	32869.26
742.464	32935.48
742.804	33027
743.143	33060.22
743.483	32984.74
743.823	32916.27
744.162	33068.81
744.502	33132.53
744.841	32948.36
745.181	33201.91
745.52	32905.65
745.86	33119.88
746.199	33033.55
746.538	33132.76
746.877	33330.49
747.216	33150.39
747.556	33019.77
747.895	32925.76
748.234	32912.2
748.573	32876.27
748.911	32668.36
749.25	32691.41
749.589	32571.42
749.928	32702.26
750.267	32707.69
750.605	32551.53
750.944	32583.85
751.283	32592.43
751.621	32714.01
751.96	32422.04
752.298	32474.47
752.636	32656.84
752.975	32463.62
753.313	32307.92
753.651	32429.05
753.989	32301.59
754.327	32297.3
754.666	32236.96
755.004	32352.44
755.342	32479.67
755.679	32434.25
756.017	32398.31
756.355	32569.61
756.693	32512.66
757.031	32575.94
757.368	32654.81
757.706	32637.63
758.044	32546.79
758.381	32751.98
758.719	32573.9
759.056	32834.01
759.394	32616.84
759.731	32474.02
760.068	32684.41
760.405	32553.11
760.743	32500.91
761.08	32728.02
761.417	32619.33
761.754	32525.32
762.091	32615.48
762.428	32403.29
762.765	32317.86
763.102	32342.72
763.438	32426.79
763.775	32342.95
764.112	32224.31
764.449	32123.29
764.785	32003.75
765.122	31786.35
765.458	31829.74
765.795	31659.58
766.131	31618.9
766.467	31509.3
766.804	31346.82
767.14	31355.86
767.476	31318.8
767.812	31142.98
768.148	31206.48
768.485	31116.99
768.821	30904.57
769.157	30931.01
769.492	30800.84
769.828	30684.69
770.164	30520.62
770.5	30686.27
770.836	30461.87
771.171	30357.69
771.507	30341.19
771.842	30134.42
772.178	30342.32
772.513	30280.18
772.849	30107.75
773.184	30114.53
773.519	29997.93
773.855	30028.89
774.19	29860.75
774.525	29780.76
774.86	29941.43
775.195	29758.16
775.53	29705.5
775.865	29653.08
776.2	29405.85
776.535	29355.68
776.87	29384.16
777.205	29290.15
777.539	28992.08
777.874	29058.74
778.209	28885.86
778.543	28985.07
778.878	28820.56
779.212	28774.46
779.547	28637.74
779.881	28748.47
780.215	28482.71
780.55	28552.77
780.884	28261.02
781.218	28116.39
781.552	28143.06
781.886	27925.66
782.22	27587.59
782.554	27528.16
782.888	27414.49
783.222	27319.35
783.556	27154.61
783.889	27124.1
784.223	26960.04
784.557	26819.03
784.89	26887.05
785.224	26649.54
785.557	26621.29
785.891	26539.94
786.224	26513.5
786.558	26428.75
786.891	26018.37
787.224	25981.76
787.557	25739.96
787.891	25934.98
788.224	25886.85
788.557	25914.87
788.89	25650.92
789.223	25755.55
789.556	25598.72
789.888	25683.46
790.221	25579.74
790.554	25341.78
790.887	25386.07
791.219	25262.68
791.552	25344.26
791.884	25151.95
792.217	25084.16
792.549	25135.91
792.882	24775.92
793.214	24817.72
793.546	24937.49
793.879	24843.49
794.211	24643.72
794.543	24736.6
794.875	24578.63
795.207	24678.29
795.539	24424.97
795.871	24510.39
796.203	24207.34
796.535	24217.29
796.867	24147.23
797.198	23986.56
797.53	24049.38
797.862	23816.39
798.193	23733.46
798.525	23627.47
798.856	23690.3
799.188	23357.42
799.519	23194.71
799.85	23136.86
800.182	23149.07
800.513	23201.72
800.844	22928.06
801.175	23053.93
801.506	23003.99
801.837	22756.53
802.168	22812.8
802.499	22769.19
802.83	22622.75
803.161	22614.84
803.491	22465.24
803.822	22396.32
804.153	22341.63
804.483	22150.9
804.814	22101.64
805.145	22025.48
805.475	22091.92
805.805	21960.17
806.136	21910.23
806.466	21876.78
806.796	21834.52
807.126	21667.3
807.457	21709.1
807.787	21717.47
808.117	21650.8
808.447	21524.48
808.777	21708.43
809.107	21531.26
809.436	21489.22
809.766	21437.7
810.096	21366.06
810.426	21233.18
810.755	21369.45
811.085	21259.85
811.414	21200.87
811.744	21109.57
812.073	21068.67
812.403	21023.25
812.732	21053.08
813.061	20959.75
813.39	20849.47
813.719	20825.51
814.049	20929.01
814.378	20875.45
814.707	20725.18
815.036	20660.09
815.365	20552.3
815.693	20418.06
816.022	20518.18
816.351	20378.29
816.68	20306.66
817.008	20322.93
817.337	20056.94
817.665	20042.93
817.994	20107.79
818.322	20044.97
818.651	19967.46
818.979	19825.31
819.307	19866.89
819.636	19898.98
819.964	19632.77
820.292	19675.26
820.62	19616.28
820.948	19505.09
821.276	19710.96
821.604	19600.91
821.932	19696.05
822.259	19576.73
822.587	19553.68
822.915	19524.98
823.243	19557.75
823.57	19540.57
823.898	19451.76
824.225	19420.35
824.553	19343.52
824.88	19467.58
825.207	19566.34
825.535	19470.29
825.862	19503.51
826.189	19445.66
826.516	19584.87
826.843	19674.58
827.17	19626.45
827.497	19517.98
827.824	19543.96
828.151	19572.89
828.478	19482.27
828.805	19589.39
829.131	19496.96
829.458	19396.85
829.785	19516.39
830.111	19478.88
830.438	19678.42
830.764	19568.6
831.09	19607.46
831.417	19446.56
831.743	19584.41
832.069	19601.14
832.395	19597.07
832.722	19686.33
833.048	19481.14
833.374	19488.6
833.7	19439.11
834.026	19519.56
834.351	19545.09
834.677	19498.99
835.003	19503.51
835.329	19457.19
835.654	19446.11
835.98	19477.98
836.306	19394.14
836.631	19229.62
836.956	19283.63
837.282	19296.96
837.607	19211.09
837.932	19114.6
838.258	19004.77
838.583	18910.08
838.908	18809.29
839.233	18835.51
839.558	18777.66
839.883	18733.14
840.208	18772.46
840.533	18713.02
840.858	18708.51
841.182	18683.2
841.507	18677.77
841.832	18498.57
842.156	18383.77
842.481	18316.88
842.805	18302.64
843.13	18313.71
843.454	18220.61
843.778	18149.88
844.103	18122.76
844.427	18053.61
844.751	18055.87
845.075	17962.31
845.399	17958.47
845.723	17855.19
846.047	17998.24
846.371	17775.42
846.695	17881.41
847.019	17711.24
847.343	17638.93
847.666	17712.37
847.99	17572.49
848.313	17507.41
848.637	17413.17
848.96	17376.79
849.284	17408.43
849.607	17299.5
849.931	17189.68
850.254	17050.7
850.577	17005.05
850.9	16921.89
851.223	16838.95
851.546	16814.09
851.869	16791.72
852.192	16806.63
852.515	16680.31
852.838	16558.05
853.161	16659.97
853.483	16511.5
853.806	16450.94
854.129	16519.64
854.451	16409.36
854.774	16240.32
855.096	16280.55
855.419	16174.33
855.741	16210.49
856.063	16075.35
856.385	16045.07
856.708	15979.31
857.03	15822.25
857.352	15851.41
857.674	15750.62
857.996	15666.55
858.318	15639.43
858.64	15723.05
858.961	15627.46
859.283	15608.7
859.605	15417.29
859.926	15470.62
860.248	15401.25
860.57	15243.96
860.891	15388.37
861.212	15212.78
861.534	15173.23
861.855	15053.01
862.176	15161.03
862.498	15047.13
862.819	14966.23
863.14	15054.36
863.461	14874.93
863.782	14884.2
864.103	14999.22
864.424	14891.43
864.745	14825.67
865.065	14754.48
865.386	14779.12
865.707	14660.25
866.027	14787.03
866.348	14722.62
866.668	14657.31
866.989	14679.23
867.309	14509.75
867.63	14633.36
867.95	14555.39
868.27	14452.8
868.59	14630.65
868.91	14522.85
869.23	14547.48
869.55	14511.1
869.87	14587.94
870.19	14502.51
870.51	14544.09
870.83	14533.93
871.15	14440.59
871.469	14473.36
871.789	14477.43
872.109	14442.63
872.428	14404.66
872.748	14419.35
873.067	14355.63
873.386	14487.15
873.706	14427.71
874.025	14359.47
874.344	14324.44
874.663	14358.34
874.982	14287.83
875.301	14228.17
875.62	14111.11
875.939	14129.64
876.258	14146.14
876.577	14135.29
876.896	14154.95
877.214	14072.47
877.533	14070.44
877.852	14052.13
878.17	14055.97
878.489	14038.12
878.807	13876.99
879.125	13901.63
879.444	13814.62
879.762	13877.22
880.08	13780.05
880.398	13730.78
880.716	13693.72
881.034	13661.18
881.352	13657.34
881.67	13546.38
881.988	13630.9
882.306	13532.6
882.624	13457.57
882.941	13446.27
883.259	13390.9
883.577	13300.06
883.894	13288.99
884.212	13309.78
884.529	13131.48
884.846	13165.37
885.164	13151.36
885.481	13114.75
885.798	13176.67
886.115	13042.89
886.432	13040.63
886.75	13013.51
887.067	13016.45
887.383	12871.14
887.7	13009.67
888.017	12862.33
888.334	12784.82
888.651	12771.49
888.967	12785.95
889.284	12750.24
889.6	12830.02
889.917	12730.58
890.233	12770.81
890.55	12690.81
890.866	12644.03
891.182	12637.03
891.498	12663.01
891.815	12594.54
892.131	12591.83
892.447	12561.77
892.763	12493.98
893.079	12442
893.395	12406.3
893.71	12389.12
894.026	12506.41
894.342	12454.21
894.657	12369.01
894.973	12360.2
895.289	12277.94
895.604	12277.04
895.92	12162.69
896.235	12057.15
896.55	12185.06
896.865	12119.98
897.181	12078.4
897.496	12000.43
897.811	11907.1
898.126	11959.3
898.441	11832.98
898.756	11810.38
899.071	11800.66
899.386	11845.41
899.7	11684.28
900.015	11632.76
900.33	11635.24
900.644	11568.81
900.959	11552.76
901.273	11554.8
901.588	11444.29
901.902	11349.38
902.216	11349.6
902.531	11305.08
902.845	11288.14
903.159	11144.18
903.473	11076.39
903.787	11022.15
904.101	10974.47
904.415	10924.08
904.729	10871.42
905.042	10739.22
905.356	10750.52
905.67	10703.74
905.984	10684.31
906.297	10651.09
906.611	10613.8
906.924	10559.34
907.237	10519.34
907.551	10499.68
907.864	10466.91
908.177	10347.6
908.491	10348.27
908.804	10240.48
909.117	10196.64
909.43	10197.99
909.743	10087.49
910.056	10171.1
910.368	10024.89
910.681	10078.9
910.994	10054.95
911.307	10046.13
911.619	9954.16
911.932	9938.79
912.244	9881.17
912.557	9909.19
912.869	9850.66
913.181	9848.17
913.494	9789.42
913.806	9703.77
914.118	9678.91
914.43	9619.25
914.742	9649.53
915.054	9624
915.366	9598.24
915.678	9570.21
915.99	9517.33
916.302	9498.13
916.613	9480.05
916.925	9409.54
917.236	9441.4
917.548	9378.13
917.859	9382.2
918.171	9352.82
918.482	9295.87
918.794	9268.3
919.105	9275.98
919.416	9151.47
919.727	9115.54
920.038	9146.72
920.349	9037.35
920.66	8996.22
920.971	9066.95
921.282	9007.29
921.593	8902.66
921.903	8831.02
922.214	8819.27
922.525	8811.59
922.835	8822.66
923.146	8733.4
923.456	8582.9
923.767	8619.5
924.077	8680.52
924.387	8586.06
924.697	8514.2
925.008	8443.46
925.318	8440.3
925.628	8390.13
925.938	8320.53
926.248	8270.59
926.558	8246.41
926.867	8142.46
927.177	8109.69
927.487	8115.34
927.796	8043.25
928.106	8026.53
928.416	7961.67
928.725	7968.45
929.034	7819.3
929.344	7824.95
929.653	7870.15
929.962	7775.01
930.271	7747.89
930.581	7671.73
930.89	7711.73
931.199	7617.27
931.508	7593.77
931.817	7506.31
932.125	7523.94
932.434	7503.15
932.743	7420.21
933.051	7383.38
933.36	7375.92
933.669	7292.76
933.977	7268.35
934.286	7287.34
934.594	7222.93
934.902	7207.79
935.21	7167.57
935.519	7163.27
935.827	7208.92
936.135	7197.17
936.443	7117.17
936.751	7137.28
937.059	7107.68
937.367	7109.71
937.674	7084.86
937.982	7033.33
938.29	7014.58
938.597	6952.66
938.905	6949.04
939.213	6882.6
939.52	6864.52
939.827	6914.92
940.135	6802.15
940.442	6893.22
940.749	6853.68
941.056	6829.04
941.363	6722.61
941.67	6764.41
941.977	6678.09
942.284	6668.6
942.591	6591.54
942.898	6646.22
943.205	6632.89
943.511	6556.28
943.818	6592.67
944.125	6504.76
944.431	6425.89
944.738	6462.73
945.044	6471.31
945.35	6439.68
945.657	6394.03
945.963	6364.88
946.269	6319.68
946.575	6344.31
946.881	6370.75
947.187	6304.99
947.493	6284.65
947.799	6173.02
948.105	6120.14
948.41	6103.41
948.716	6121.27
949.022	6036.52
949.327	5978.67
949.633	5959.24
949.938	5973.02
950.244	5957.65
950.549	5913.59
950.854	5842.63
951.16	5860.26
951.465	5823.65
951.77	5801.73
952.075	5745.91
952.38	5736.19
952.685	5681.28
952.99	5665.01
953.294	5681.96
953.599	5585.69
953.904	5543.43
954.209	5510.66
954.513	5555.63
954.818	5466.82
955.122	5458.23
955.426	5386.14
955.731	5422.53
956.035	5362.42
956.339	5334.62
956.643	5348.63
956.948	5316.99
957.252	5262.98
957.556	5251.91
957.86	5216.66
958.163	5240.38
958.467	5172.36
958.771	5215.07
959.075	5208.52
959.378	5169.65
959.682	5122.42
959.985	5032.48
960.289	5061.18
960.592	5084.46
960.896	5044.68
961.199	5061.18
961.502	5006.94
961.805	4974.63
962.108	4983.67
962.411	4928.08
962.714	4938.02
963.017	4875.2
963.32	4902.09
963.623	4914.29
963.926	4918.36
964.228	4844.91
964.531	4827.74
964.833	4825.03
965.136	4797.01
965.438	4862.32
965.741	4794.52
966.043	4744.13
966.345	4744.13
966.648	4714.07
966.95	4648.76
967.252	4660.06
967.554	4644.24
967.856	4659.61
968.158	4666.16
968.46	4564.7
968.761	4601.08
969.063	4564.47
969.365	4570.57
969.666	4540.29
969.968	4545.94
970.269	4521.08
970.571	4504.81
970.872	4461.42
971.174	4423.46
971.475	4376
971.776	4434.08
972.077	4362.89
972.378	4394.08
972.679	4343.23
972.98	4338.04
973.281	4265.5
973.582	4293.52
973.883	4234.31
974.183	4212.84
974.484	4201.77
974.785	4220.07
975.085	4170.58
975.386	4140.98
975.686	4132.62
975.986	4083.35
976.287	4112.96
976.587	4031.38
976.887	4003.58
977.187	4005.39
977.487	4009.68
977.787	3973.53
978.087	3946.41
978.387	3949.35
978.687	3914.77
978.987	3883.58
979.286	3867.77
979.586	3870.03
979.885	3819.63
980.185	3796.35
980.484	3772.17
980.784	3783.47
981.083	3748.45
981.382	3711.61
981.682	3712.52
981.981	3689.47
982.28	3666.41
982.579	3651.73
982.878	3643.14
983.177	3588.45
983.475	3644.72
983.774	3605.17
984.073	3587.09
984.372	3578.28
984.67	3539.41
984.969	3559.75
985.267	3509.81
985.566	3510.26
985.864	3482.92
986.162	3482.24
986.461	3482.92
986.759	3468.68
987.057	3444.5
987.355	3452.41
987.653	3393.2
987.951	3397.27
988.249	3389.13
988.547	3369.02
988.844	3351.62
989.142	3364.95
989.44	3305.29
989.737	3335.58
990.035	3312.53
990.332	3288.35
990.63	3304.62
990.927	3266.2
991.224	3253.32
991.521	3232.98
991.819	3238.86
992.116	3202.25
992.413	3204.73
992.71	3163.6
993.006	3146.65
993.303	3129.93
993.6	3158.86
993.897	3148.01
994.193	3117.05
994.49	3087.45
994.787	3112.98
995.083	3081.12
995.379	3086.77
995.676	3100.1
995.972	3042.48
996.268	3026.88
996.565	3014.91
996.861	3039.09
997.157	2978.52
997.453	2923.38
997.749	2944.63
998.044	2925.19
998.34	2949.6
998.636	2901.01
998.932	2899.43
999.227	2864.63
999.523	2854.01
999.818	2842.03
1000.114	2815.36
1000.409	2760
1000.704	2740.34
1001	2768.59
1001.295	2729.04
1001.59	2731.75
1001.885	2743.05
1002.18	2710.96
1002.475	2680.23
1002.77	2675.25
1003.065	2642.26
1003.359	2648.14
1003.654	2654.69
1003.949	2605.65
1004.243	2573.34
1004.538	2562.04
1004.832	2560.68
1005.127	2518.87
1005.421	2515.48
1005.715	2482.04
1006.009	2485.2
1006.304	2458.09
1006.598	2446.79
1006.892	2441.81
1007.186	2424.64
1007.48	2400.91
1007.773	2412.21
1008.067	2361.36
1008.361	2358.43
1008.655	2345.09
1008.948	2324.76
1009.242	2313.91
1009.535	2303.51
1009.829	2257.86
1010.122	2237.3
1010.415	2282.72
1010.708	2224.19
1011.001	2262.38
1011.295	2226.9
1011.588	2205.21
1011.881	2194.14
1012.173	2165.66
1012.466	2181.71
1012.759	2154.36
1013.052	2156.62
1013.344	2151.2
1013.637	2130.86
1013.93	2134.7
1014.222	2112.11
1014.514	2134.03
1014.807	2101.94
1015.099	2082.73
1015.391	2083.86
1015.683	2080.47
1015.976	2043.63
1016.268	2044.99
1016.56	1996.85
1016.851	1985.78
1017.143	1987.36
1017.435	1982.39
1017.727	1976.97
1018.018	1963.18
1018.31	1962.28
1018.602	1926.8
1018.893	1938.78
1019.185	1927.93
1019.476	1937.42
1019.767	1910.53
1020.058	1922.05
1020.35	1876.63
1020.641	1859.46
1020.932	1871.43
1021.223	1833.69
1021.514	1859.23
1021.804	1851.55
1022.095	1815.16
1022.386	1846.8
1022.677	1811.77
1022.967	1776.97
1023.258	1743.53
1023.548	1786.69
1023.839	1745.79
1024.129	1708.5
1024.419	1730.65
1024.709	1707.6
1025	1669.41
1025.29	1675.73
1025.58	1683.87
1025.87	1673.25
1026.16	1642.06
1026.449	1653.13
1026.739	1603.64
1027.029	1595.28
1027.319	1603.42
1027.608	1620.59
1027.898	1587.37
1028.187	1602.97
1028.477	1565.45
1028.766	1519.13
1029.055	1526.58
1029.344	1506.92
1029.634	1518.67
1029.923	1485.68
1030.212	1497.66
1030.501	1450.43
1030.79	1481.39
1031.078	1449.98
1031.367	1470.77
1031.656	1431.9
1031.945	1423.31
1032.233	1417.89
1032.522	1414.72
1032.81	1416.3
1033.099	1370.66
1033.387	1384.44
1033.675	1358
1033.963	1373.14
1034.251	1315.74
1034.54	1325.91
1034.828	1329.53
1035.116	1317.32
1035.403	1300.15
1035.691	1290.88
1035.979	1274.84
1036.267	1295.4
1036.554	1286.82
1036.842	1278.91
1037.129	1246.59
1037.417	1206.82
1037.704	1203.88
1037.992	1200.94
1038.279	1218.34
1038.566	1206.59
1038.853	1206.59
1039.14	1206.59
