Data from blue_clamp_base_FLMS001491_00073.txt Node
Date: Wed Feb 08 15:16:29 GMT 2017
User: dcchb
Spectrometer: FLMS00149
Trigger mode: 0
Integration Time (sec): 2.000000E-2
Scans to average: 10
Electric dark correction enabled: true
Nonlinearity correction enabled: false
Boxcar width: 0
XAxis mode: Wavelengths
Number of Pixels in Spectrum: 2048
>>>>>Begin Spectral Data<<<<<
341.393	-4.89
341.776	-4.89
342.16	-4.89
342.543	-58.22
342.927	-51.21
343.31	-65.9
343.693	-45.11
344.077	-51.67
344.46	-54.15
344.843	-55.51
345.226	-40.37
345.61	-29.74
345.993	-22.74
346.376	-18.45
346.759	2.57
347.142	22.91
347.525	39.86
347.908	64.72
348.291	47.54
348.674	97.48
349.057	108.56
349.44	125.51
349.823	132.51
350.206	167.76
350.588	186.07
350.971	200.08
351.354	214.99
351.737	226.75
352.119	248.89
352.502	279.63
352.884	289.12
353.267	287.76
353.65	288.21
354.032	310.36
354.414	322.34
354.797	317.36
355.179	312.84
355.562	313.52
355.944	319.85
356.326	338.15
356.709	325.5
357.091	336.8
357.473	347.42
357.855	345.39
358.238	334.09
358.62	330.25
359.002	339.28
359.384	328.66
359.766	337.25
360.148	332.51
360.53	356.01
360.912	354.2
361.294	351.94
361.676	321.21
362.057	317.14
362.439	344.26
362.821	336.35
363.203	322.34
363.584	325.05
363.966	312.84
364.348	337.7
364.729	306.29
365.111	319.17
365.493	327.76
365.874	306.52
366.256	316.69
366.637	326.63
367.019	319.4
367.4	304.71
367.781	336.12
368.163	308.33
368.544	325.73
368.925	334.99
369.306	325.5
369.688	337.93
370.069	294.54
370.45	351.94
370.831	318.95
371.212	328.66
371.593	303.81
371.974	335.9
372.355	324.82
372.736	324.37
373.117	307.87
373.498	318.04
373.879	339.28
374.26	292.51
374.641	323.24
375.021	339.51
375.402	335.44
375.783	349.45
376.163	347.87
376.544	319.62
376.925	330.02
377.305	341.32
377.686	333.41
378.066	346.97
378.447	357.59
378.827	338.15
379.208	369.11
379.588	374.31
379.968	339.51
380.349	355.78
380.729	362.56
381.109	352.17
381.489	350.58
381.87	358.27
382.25	337.48
382.63	355.56
383.01	358.95
383.39	367.98
383.77	364.59
384.15	382.22
384.53	395.55
384.91	370.47
385.29	368.21
385.67	388.32
386.049	386.52
386.429	378.83
386.809	408.44
387.189	400.07
387.568	356.91
387.948	374.99
388.328	387.19
388.707	372.05
389.087	418.83
389.466	414.76
389.846	385.61
390.225	443.46
390.605	413.18
390.984	426.51
391.363	426.29
391.743	419.96
392.122	403.92
392.501	430.81
392.881	438.27
393.26	459.51
393.639	441.88
394.018	438.27
394.397	443.46
394.776	420.41
395.155	462.45
395.534	460.86
395.913	466.97
396.292	456.34
396.671	478.26
397.05	478.72
397.429	488.43
397.808	515.1
398.186	487.08
398.565	496.34
398.944	511.71
399.323	500.86
399.701	494.31
400.08	533.18
400.458	534.53
400.837	506.96
401.215	527.08
401.594	532.73
401.972	534.76
402.351	544.48
402.729	527.08
403.107	557.81
403.486	567.3
403.864	555.55
404.242	548.09
404.62	572.27
404.999	587.64
405.377	590.58
405.755	589.67
406.133	611.59
406.511	600.29
406.889	598.04
407.267	620.18
407.645	608.88
408.023	635.1
408.401	636.45
408.779	654.53
409.156	674.19
409.534	648.2
409.912	666.96
410.29	672.16
410.667	667.19
411.045	678.03
411.422	727.98
411.8	734.98
412.178	726.17
412.555	744.02
412.933	749.67
413.31	732.95
413.687	742.44
414.065	761.19
414.442	771.36
414.819	765.71
415.197	785.6
415.574	794.41
415.951	805.71
416.328	828.76
416.705	819.72
417.082	824.24
417.46	858.82
417.837	829.22
418.214	836.22
418.591	837.12
418.967	865.82
419.344	861.08
419.721	871.47
420.098	860.4
420.475	910.8
420.852	900.4
421.228	894.52
421.605	917.35
421.982	931.59
422.358	935.2
422.735	936.78
423.111	960.96
423.488	971.58
423.864	965.71
424.241	1002.54
424.617	968.65
424.994	1009.1
425.37	1006.39
425.746	1004.8
426.123	998.25
426.499	1012.04
426.875	1046.16
427.251	1083.22
427.627	1092.26
428.003	1104.91
428.379	1085.93
428.756	1110.34
429.132	1140.17
429.507	1157.57
429.883	1157.12
430.259	1178.58
430.635	1200.73
431.011	1241.41
431.387	1202.09
431.763	1244.8
432.138	1243.22
432.514	1281.18
432.89	1285.47
433.265	1286.6
433.641	1344.68
434.016	1344
434.392	1345.36
434.767	1361.86
435.143	1387.62
435.518	1410.9
435.894	1408.86
436.269	1442.98
436.644	1436.66
437.02	1466.03
437.395	1459.71
437.77	1487.5
438.145	1510.1
438.52	1537.45
438.895	1537.22
439.271	1576.54
439.646	1599.36
440.021	1612.25
440.395	1598.91
440.77	1579.93
441.145	1621.51
441.52	1623.32
441.895	1638.91
442.27	1700.83
442.645	1643.66
443.019	1701.51
443.394	1674.62
443.769	1697.89
444.143	1684.33
444.518	1729.3
444.892	1749.42
445.267	1756.42
445.641	1773.37
446.016	1777.21
446.39	1781.73
446.764	1824.9
447.139	1809.53
447.513	1823.99
447.887	1833.48
448.262	1836.19
448.636	1873.93
449.01	1890.43
449.384	1896.98
449.758	1915.29
450.132	1953.48
450.506	1935.85
450.88	2000.71
451.254	1959.36
451.628	2015.17
452.002	2045.45
452.376	2028.73
452.75	2046.81
453.123	2078.9
453.497	2096.3
453.871	2064.66
454.244	2160.48
454.618	2150.31
454.992	2207.71
455.365	2180.37
455.739	2253.13
456.112	2256.52
456.486	2267.37
456.859	2307.37
457.232	2374.94
457.606	2362.51
457.979	2355.28
458.352	2412.22
458.725	2454.03
459.099	2465.33
459.472	2523.63
459.845	2540.58
460.218	2562.96
460.591	2564.99
460.964	2558.44
461.337	2634.82
461.71	2641.37
462.083	2695.16
462.456	2716.85
462.829	2727.24
463.201	2784.19
463.574	2789.39
463.947	2814.93
464.32	2871.2
464.692	2888.6
465.065	2854.02
465.438	2908.71
465.81	2976.28
466.183	2982.83
466.555	3045.43
466.928	3061.7
467.3	3032.32
467.672	3124.97
468.045	3175.59
468.417	3183.05
468.789	3190.06
469.161	3216.72
469.534	3278.87
469.906	3352.54
470.278	3352.76
470.65	3426.44
471.022	3459.2
471.394	3509.82
471.766	3531.74
472.138	3608.35
472.51	3625.75
472.882	3685.41
473.253	3709.37
473.625	3751.62
473.997	3819.42
474.369	3848.8
474.74	3893.32
475.112	3948.23
475.484	3994.56
475.855	4039.98
476.227	4105.06
476.598	4188
476.97	4168.79
477.341	4302.57
477.713	4311.61
478.084	4333.98
478.455	4454.43
478.827	4449.69
479.198	4591.83
479.569	4603.81
479.94	4650.13
480.311	4698.94
480.682	4784.59
481.053	4853.97
481.424	4940.52
481.795	4954.98
482.166	5041.31
482.537	5117.24
482.908	5180.51
483.279	5253.51
483.65	5291.25
484.021	5384.35
484.391	5415.76
484.762	5424.35
485.133	5435.65
485.503	5492.6
485.874	5588.64
486.244	5641.07
486.615	5755.19
486.985	5785.24
487.356	5823.66
487.726	5885.58
488.097	5970.1
488.467	5960.83
488.837	6123.09
489.207	6114.05
489.578	6159.02
489.948	6199.02
490.318	6264.78
490.688	6304.78
491.058	6347.71
491.428	6420.25
491.798	6439.01
492.168	6599.46
492.538	6535.73
492.908	6594.26
493.278	6690.53
493.648	6644.2
494.017	6722.62
494.387	6770.53
494.757	6789.74
495.126	6844.88
495.496	6873.8
495.866	6884.42
496.235	6890.98
496.605	6961.71
496.974	6930.52
497.344	7007.81
497.713	7038.54
498.082	7118.77
498.452	7136.17
498.821	7131.2
499.19	7187.92
499.559	7181.14
499.928	7182.49
500.298	7271.08
500.667	7278.09
501.036	7259.1
501.405	7260.01
501.774	7348.37
502.143	7380
502.512	7373.22
502.88	7398.99
503.249	7399.66
503.618	7434.47
503.987	7464.75
504.356	7517.85
504.724	7465.65
505.093	7513.79
505.462	7533.9
505.83	7552.2
506.199	7629.26
506.567	7693.67
506.936	7659.32
507.304	7756.49
507.672	7692.09
508.041	7747.68
508.409	7809.82
508.777	7840.33
509.145	7844.85
509.514	7854.79
509.882	7949.25
510.25	7904.06
510.618	7965.98
510.986	7970.72
511.354	8073.09
511.722	8033.32
512.09	8109.25
512.458	8107.89
512.826	8112.19
513.193	8171.62
513.561	8177.04
513.929	8198.74
514.297	8301.34
514.664	8257.95
515.032	8390.6
515.4	8317.15
515.767	8359.64
516.135	8313.54
516.502	8308.79
516.869	8410.49
517.237	8469.24
517.604	8391.28
517.972	8428.11
518.339	8551.05
518.706	8561.89
519.073	8530.93
519.44	8613.42
519.808	8634.21
520.175	8586.07
520.542	8728.22
520.909	8781.32
521.276	8720.53
521.643	8746.75
522.009	8813.41
522.376	8872.39
522.743	8936.57
523.11	8982.45
523.477	8974.54
523.843	8991.71
524.21	9120.3
524.577	9151.48
524.943	9157.36
525.31	9178.15
525.676	9313.74
526.043	9269.22
526.409	9331.14
526.776	9347.64
527.142	9436.22
527.508	9439.16
527.874	9492.94
528.241	9597.35
528.607	9610.91
528.973	9662.66
529.339	9652.71
529.705	9776.32
530.071	9761.41
530.437	9812.93
530.803	9853.16
531.169	9907.85
531.535	9886.6
531.901	9887.51
532.267	9977.45
532.632	10016.09
532.998	10069.88
533.364	10064.23
533.73	10141.96
534.095	10200.04
534.461	10153.49
534.826	10242.3
535.192	10195.52
535.557	10376.99
535.923	10280.04
536.288	10346.48
536.653	10336.76
537.019	10344.22
537.384	10446.82
537.749	10413.6
538.114	10548.51
538.479	10481.62
538.845	10496.31
539.21	10543.31
539.575	10551.45
539.94	10638.22
540.305	10670.31
540.67	10635.74
541.034	10676.87
541.399	10743.53
541.764	10664.66
542.129	10742.18
542.494	10782.63
542.858	10849.29
543.223	10876.41
543.587	10927.26
543.952	10882.96
544.316	10998.44
544.681	10951.89
545.045	10957.31
545.41	11085.22
545.774	11039.57
546.138	11047.25
546.503	11132.22
546.867	11055.39
547.231	11148.72
547.595	11158.66
547.959	11256.51
548.324	11232.56
548.688	11267.59
549.052	11279.79
549.416	11266.91
549.779	11376.73
550.143	11273.46
550.507	11362.5
550.871	11459.67
551.235	11444.98
551.599	11413.34
551.962	11491.31
552.326	11582.38
552.689	11593
553.053	11566.33
553.417	11583.28
553.78	11754.13
554.143	11600.91
554.507	11769.49
554.87	11692.66
555.234	11834.35
555.597	11738.53
555.96	11811.53
556.323	11892.2
556.686	11866.67
557.05	11865.99
557.413	11972.88
557.776	12003.38
558.139	12078.64
558.502	12069.82
558.865	12122.25
559.228	12232.08
559.59	12235.24
559.953	12206.54
560.316	12224.17
560.679	12270.04
561.041	12346.2
561.404	12448.8
561.767	12525.86
562.129	12491.06
562.492	12555.46
562.854	12612.86
563.217	12497.84
563.579	12581.9
563.941	12672.97
564.304	12734.44
564.666	12776.25
565.028	12806.53
565.39	12794.32
565.753	12929.01
566.115	13004.94
566.477	13044.26
566.839	13064.37
567.201	13103.02
567.563	13101.89
567.925	13187.08
568.287	13230.02
568.648	13284.03
569.01	13305.27
569.372	13411.94
569.734	13342.33
570.095	13451.48
570.457	13566.96
570.819	13488.54
571.18	13461.2
571.542	13672.49
571.903	13699.39
572.265	13776.45
572.626	13722.44
572.987	13790
573.349	13915.2
573.71	13903.22
574.071	13955.2
574.432	13978.7
574.794	14107.28
575.155	14102.09
575.516	14020.96
575.877	14100.05
576.238	14097.57
576.599	14177.11
576.96	14213.04
577.32	14291.23
577.681	14300.5
578.042	14380.72
578.403	14347.05
578.763	14358.13
579.124	14328.3
579.485	14525.8
579.845	14488.29
580.206	14513.6
580.566	14533.94
580.927	14473.38
581.287	14594.28
581.648	14540.04
582.008	14658.23
582.368	14570.55
582.728	14674.5
583.089	14611.45
583.449	14601.73
583.809	14695.52
584.169	14617.78
584.529	14620.27
584.889	14817.55
585.249	14722.41
585.609	14667.04
585.969	14784.55
586.329	14718.79
586.688	14795.63
587.048	14721.73
587.408	14795.18
587.768	14750.66
588.127	14770.54
588.487	14855.06
588.846	14900.71
589.206	14787.49
589.565	14929.41
589.925	14814.84
590.284	14878.79
590.643	14908.62
591.003	14949.75
591.362	14943.19
591.721	14942.97
592.08	14988.84
592.44	15040.82
592.799	14978
593.158	14949.75
593.517	14982.74
593.876	14986.58
594.235	15036.3
594.593	15027.03
594.952	15086.47
595.311	15027.26
595.67	14988.17
596.029	15113.59
596.387	15069.52
596.746	15105.45
597.104	15001.72
597.463	15054.6
597.822	15086.47
598.18	15125.34
598.538	15084.66
598.897	15233.13
599.255	15068.62
599.613	15272.68
599.972	15192.45
600.33	15279.01
600.688	15200.14
601.046	15283.3
601.404	15276.07
601.762	15240.59
602.12	15313.58
602.478	15329.17
602.836	15288.5
603.194	15193.13
603.552	15363.52
603.91	15246.46
604.268	15260.7
604.625	15266.58
604.983	15361.94
605.341	15270.87
605.698	15318.78
606.056	15469.06
606.413	15335.73
606.771	15399.91
607.128	15451.88
607.485	15343.18
607.843	15402.39
608.2	15519.22
608.557	15460.92
608.914	15476.97
609.272	15581.6
609.629	15544.53
609.986	15563.29
610.343	15601.03
610.7	15602.61
611.057	15624.53
611.414	15577.75
611.771	15584.99
612.127	15635.38
612.484	15625.44
612.841	15751.08
613.198	15611.43
613.554	15797.18
613.911	15809.61
614.267	15764.19
614.624	15818.43
614.98	15832.66
615.337	15852.32
615.693	15869.5
616.05	15785.66
616.406	15961.7
616.762	15926.67
617.118	15895.94
617.475	15881.93
617.831	15989.49
618.187	15964.64
618.543	15998.76
618.899	16159.21
619.255	16140.23
619.611	16017.06
619.967	16144.97
620.323	16222.03
620.678	16202.14
621.034	16124.18
621.39	16085.76
621.746	16042.15
622.101	16325.31
622.457	16078.08
622.812	16095.71
623.168	16205.08
623.523	16249.83
623.879	16268.81
624.234	16201.92
624.589	16230.62
624.945	16198.75
625.3	16354.46
625.655	16345.19
626.01	16321.24
626.365	16335.02
626.72	16323.27
627.075	16311.97
627.43	16348.58
627.785	16341.35
628.14	16411.63
628.495	16355.36
628.85	16496.6
629.205	16422.7
629.559	16525.98
629.914	16389.48
630.269	16395.36
630.623	16396.49
630.978	16326.66
631.332	16567.56
631.687	16481.69
632.041	16516.03
632.396	16508.58
632.75	16505.19
633.104	16501.8
633.459	16370.73
633.813	16432.87
634.167	16439.2
634.521	16506.32
634.875	16514.9
635.229	16517.39
635.583	16430.61
635.937	16589.93
636.291	16521.91
636.645	16499.54
636.999	16515.36
637.352	16537.95
637.706	16507
638.06	16572.3
638.413	16513.1
638.767	16508.8
639.121	16556.26
639.474	16515.36
639.828	16565.3
640.181	16540.67
640.534	16591.06
640.888	16621.12
641.241	16507
641.594	16600.1
641.947	16602.59
642.301	16628.57
642.654	16612.08
643.007	16704.96
643.36	16742.24
643.713	16660.66
644.066	16834.22
644.419	16661.79
644.771	16518.75
645.124	16418.64
645.477	16315.59
645.83	16222.71
646.182	16263.39
646.535	16356.94
646.888	16382.03
647.24	16421.12
647.593	16403.5
647.945	16410.95
648.298	16364.4
648.65	16396.04
649.002	16425.87
649.355	16431.97
649.707	16406.21
650.059	16409.37
650.411	16680.32
650.763	16685.3
651.115	16863.82
651.467	16862.47
651.819	16905.63
652.171	16925.52
652.523	16875.8
652.875	16897.27
653.227	16860.43
653.578	16850.49
653.93	16875.57
654.282	16958.28
654.633	16902.69
654.985	16901.56
655.337	16989.24
655.688	17010.03
656.039	17060.88
656.391	16939.3
656.742	17029.92
657.094	17037.38
657.445	17136.36
657.796	17001.22
658.147	16979.07
658.498	17053.65
658.849	17064.04
659.2	17071.5
659.551	17028.79
659.902	17163.48
660.253	17092.52
660.604	17080.31
660.955	17043.48
661.306	17171.84
661.656	17012.74
662.007	17162.12
662.358	17165.74
662.708	17095.68
663.059	17151.27
663.409	17054.55
663.76	17153.53
664.11	17119.18
664.461	17132.97
664.811	17161.89
665.161	17259.07
665.511	17093.42
665.862	17074.21
666.212	17158.28
666.562	17189.46
666.912	17036.02
667.262	17018.17
667.612	17143.36
667.962	17107.43
668.312	17096.81
668.662	17129.58
669.011	17077.15
669.361	16965.97
669.711	17005.29
670.06	16935.23
670.41	17005.74
670.76	16991.95
671.109	17023.59
671.459	16905.18
671.808	16941.33
672.157	16964.16
672.507	16872.86
672.856	16928.91
673.205	16891.84
673.554	16819.76
673.904	16729.81
674.253	16787.44
674.602	16765.29
674.951	16496.15
675.3	16382.25
675.649	16682.81
675.998	16644.39
676.346	16549.25
676.695	16580.67
677.044	16563.27
677.393	16580.21
677.741	16532.31
678.09	16467.67
678.438	16404.63
678.787	16476.04
679.135	16435.36
679.484	16337.96
679.832	16358.52
680.181	16350.39
680.529	16294.8
680.877	16262.93
681.225	16231.97
681.573	16323.27
681.922	16249.83
682.27	16191.3
682.618	16168.47
682.966	16132.99
683.314	16044.86
683.661	16036.5
684.009	16033.11
684.357	15976.39
684.705	15987.91
685.053	15885.32
685.4	15940.68
685.748	15812.1
686.095	15836.05
686.443	15671.54
686.79	15669.28
687.138	15766.45
687.485	15840.8
687.832	15633.8
688.18	15668.83
688.527	15617.3
688.874	15588.6
689.221	15674.02
689.568	15476.06
689.915	15469.73
690.262	15511.54
690.609	15477.19
690.956	15439.9
691.303	15504.54
691.65	15332.79
691.997	15356.97
692.344	15270.64
692.69	15380.7
693.037	15236.52
693.383	15286.69
693.73	15369.4
694.077	15151.32
694.423	15153.36
694.769	15219.35
695.116	15126.92
695.462	15182.51
695.808	15057.09
696.155	15151.78
696.501	15008.73
696.847	15073.59
697.193	14885.57
697.539	14930.99
697.885	14906.36
698.231	14878.34
698.577	14925.57
698.923	14831.33
699.269	14885.57
699.614	14815.97
699.96	14665.46
700.306	14809.41
700.651	14727.38
700.997	14731.9
701.342	14714.95
701.688	14668.63
702.033	14653.48
702.379	14643.99
702.724	14628.63
703.069	14644.22
703.415	14428.86
703.76	14544.56
704.105	14565.13
704.45	14486.03
704.795	14403.55
705.14	14428.86
705.485	14419.37
705.83	14391.8
706.175	14502.53
706.52	14439.71
706.865	14270.67
707.209	14288.97
707.554	14333.95
707.899	14365.36
708.243	14353.38
708.588	14271.12
708.932	14168.98
709.277	14197.45
709.621	14234.74
709.966	14217.34
710.31	14204.91
710.654	14067.51
710.998	14071.35
711.342	14127.4
711.687	14098.92
712.031	14075.19
712.375	14005.82
712.719	14086.49
713.063	14020.51
713.407	14162.2
713.75	14083.1
714.094	14088.53
714.438	14050.56
714.782	14144.8
715.125	14005.37
715.469	14073.39
715.812	13948.64
716.156	13949.77
716.499	13931.47
716.843	13937.12
717.186	13890.79
717.53	13873.84
717.873	13985.71
718.216	13891.47
718.559	13873.39
718.902	13818.93
719.246	13808.99
719.589	13780.06
719.932	13747.29
720.275	13786.84
720.617	13847.18
720.96	13807.41
721.303	13720.85
721.646	13799.04
721.989	13682.21
722.331	13780.97
722.674	13731.02
723.016	13712.72
723.359	13749.55
723.701	13762.66
724.044	13699.84
724.386	13633.17
724.729	13753.4
725.071	13727.63
725.413	13773.73
725.755	13705.49
726.097	13647.86
726.439	13609.44
726.782	13608.31
727.124	13644.92
727.465	13651.7
727.807	13613.06
728.149	13691.93
728.491	13590.46
728.833	13714.3
729.175	13508.88
729.516	13601.76
729.858	13569.67
730.199	13570.35
730.541	13568.99
730.882	13598.82
731.224	13677.69
731.565	13575.77
731.906	13605.6
732.248	13600.63
732.589	13575.77
732.93	13580.52
733.271	13627.52
733.612	13604.25
733.953	13700.52
734.294	13633.4
734.635	13522.44
734.976	13663.45
735.317	13595.21
735.658	13676.79
735.999	13737.58
736.339	13640.18
736.68	13711.59
737.021	13664.13
737.361	13625.72
737.702	13805.6
738.042	13776.9
738.383	13721.31
738.723	13722.66
739.063	13711.14
739.404	13827.74
739.744	13841.53
740.084	13719.27
740.424	13793.62
740.764	13861.87
741.104	13912.26
741.444	13963.56
741.784	13853.05
742.124	13847.63
742.464	13922.66
742.804	13902.54
743.143	13893.05
743.483	13974.63
743.823	13949.1
744.162	13963.79
744.502	14070.22
744.841	14060.96
745.181	14139.6
745.52	14059.38
745.86	14163.78
746.199	14112.26
746.538	14144.35
746.877	14215.76
747.216	14269.31
747.556	14190.22
747.895	14240.16
748.234	14287.84
748.573	14215.08
748.911	14279.71
749.25	14303.89
749.589	14262.99
749.928	14265.47
750.267	14413.72
750.605	14366.26
750.944	14418.01
751.283	14378.24
751.621	14528.52
751.96	14487.84
752.298	14431.8
752.636	14539.59
752.975	14541.4
753.313	14467.05
753.651	14641.96
753.989	14527.39
754.327	14580.72
754.666	14588.63
755.004	14621.17
755.342	14699.13
755.679	14717.21
756.017	14732.58
756.355	14750.43
756.693	14715.18
757.031	14813.03
757.368	14734.16
757.706	14734.39
758.044	14832.24
758.381	14815.06
758.719	14764.89
759.056	14925.12
759.394	14910.88
759.731	14853.48
760.068	14852.58
760.405	14872.01
760.743	14810.32
761.08	14908.17
761.417	14865.46
761.754	14820.94
762.091	14879.47
762.428	14894.16
762.765	14872.69
763.102	15000.37
763.438	14874.72
763.775	14943.42
764.112	15043.76
764.449	15033.14
764.785	14988.84
765.122	14909.98
765.458	14934.38
765.795	14954.49
766.131	14972.8
766.467	14920.37
766.804	14930.99
767.14	14937.32
767.476	14910.88
767.812	14916.98
768.148	15008.05
768.485	14970.31
768.821	14868.39
769.157	14925.79
769.492	14885.12
769.828	14942.06
770.164	14837.66
770.5	14813.25
770.836	14840.6
771.171	14810.09
771.507	14950.88
771.842	14693.94
772.178	14792.46
772.513	14783.2
772.849	14834.95
773.184	14757.44
773.519	14781.39
773.855	14704.1
774.19	14834.27
774.525	14716.99
774.86	14799.02
775.195	14899.35
775.53	14771.22
775.865	14658.23
776.2	14669.53
776.535	14542.75
776.87	14580.49
777.205	14635.41
777.539	14559.93
777.874	14661.62
778.209	14552.02
778.543	14550.89
778.878	14533.49
779.212	14576.88
779.547	14498.91
779.881	14546.37
780.215	14427.5
780.55	14534.84
780.884	14491.23
781.218	14512.25
781.552	14472.25
781.886	14481.06
782.22	14392.7
782.554	14399.93
782.888	14342.98
783.222	14335.98
783.556	14257.79
783.889	14262.76
784.223	14191.12
784.557	14180.95
784.89	14270.67
785.224	14167.4
785.557	14156.55
785.891	14132.37
786.224	14105.02
786.558	14129.2
786.891	14074.97
787.224	14116.78
787.557	14008.3
787.891	13967.63
788.224	14053.73
788.557	14036.78
788.89	14020.51
789.223	13973.5
789.556	14012.82
789.888	13955.65
790.221	14008.3
790.554	13772.38
790.887	13885.82
791.219	13808.99
791.552	13740.74
791.884	13755.88
792.217	13734.41
792.549	13747.52
792.882	13717.46
793.214	13656.45
793.546	13683.11
793.879	13644.02
794.211	13602.21
794.543	13678.14
794.875	13682.44
795.207	13648.09
795.539	13555.89
795.871	13629.78
796.203	13561.99
796.535	13481.76
796.867	13455.32
797.198	13415.78
797.53	13424.14
797.862	13396.57
798.193	13385.95
798.525	13344.14
798.856	13320.64
799.188	13178.95
799.519	13231.6
799.85	13172.85
800.182	13217.59
800.513	13271.15
800.844	13153.19
801.175	13176.69
801.506	13216.23
801.837	13026.86
802.168	13143.47
802.499	13085.84
802.83	13172.17
803.161	13013.98
803.491	13029.35
803.822	13043.13
804.153	13091.49
804.483	12900.99
804.814	12918.16
805.145	12897.6
805.475	12862.8
805.805	12882.23
806.136	12845.62
806.466	12860.54
806.796	12844.72
807.126	12735.8
807.457	12715.68
807.787	12732.41
808.117	12678.17
808.447	12718.39
808.777	12594.1
809.107	12647.44
809.436	12607.21
809.766	12646.08
810.096	12580.09
810.426	12588.68
810.755	12566.31
811.085	12567.44
811.414	12546.2
811.744	12382.36
812.073	12539.42
812.403	12409.48
812.732	12327.9
813.061	12410.61
813.39	12353.88
813.719	12293.77
814.049	12339.42
814.378	12405.41
814.707	12296.26
815.036	12280.44
815.365	12244.28
815.693	12133.33
816.022	12197.5
816.351	12151.4
816.68	12093.1
817.008	12112.53
817.337	12108.92
817.665	12069.15
817.994	12077.96
818.322	12084.51
818.651	11945.31
818.979	11932.65
819.307	11996.83
819.636	11983.95
819.964	11863.28
820.292	11927.68
820.62	11976.94
820.948	11926.55
821.276	11947.79
821.604	11844.97
821.932	11983.05
822.259	11975.82
822.587	11945.08
822.915	11906.21
823.243	11943.27
823.57	11881.35
823.898	12008.13
824.225	11881.58
824.553	11898.75
824.88	11946.21
825.207	11958.64
825.535	11879.32
825.862	11939.88
826.189	11962.71
826.516	11952.99
826.843	12032.76
827.17	12063.04
827.497	11985.08
827.824	11950.05
828.151	12091.74
828.478	12000.22
828.805	12037.51
829.131	11994.12
829.458	12037.96
829.785	11934.69
830.111	11976.49
830.438	12069.15
830.764	12011.29
831.09	12035.93
831.417	11999.77
831.743	12092.42
832.069	12050.16
832.395	11960.9
832.722	12007.23
833.048	11964.74
833.374	12014.01
833.7	11910.96
834.026	11999.32
834.351	12031.18
834.677	11948.02
835.003	12028.92
835.329	11927.91
835.654	11974.01
835.98	11851.07
836.306	11965.65
836.631	11808.59
836.956	11869.15
837.282	11886.55
837.607	11864.86
837.932	11823.05
838.258	11860.56
838.583	11847
838.908	11762.49
839.233	11802.26
839.558	11836.84
839.883	11772.43
840.208	11707.12
840.533	11672.09
840.858	11692.21
841.182	11744.86
841.507	11768.14
841.832	11604.53
842.156	11675.71
842.481	11564.07
842.805	11606.11
843.13	11565.88
843.454	11626.45
843.778	11555.71
844.103	11467.58
844.427	11510.06
844.751	11495.38
845.075	11474.36
845.399	11464.19
845.723	11362.05
846.047	11400.69
846.371	11316.62
846.695	11310.52
847.019	11256.51
847.343	11210.64
847.666	11120.7
847.99	11079.12
848.313	11127.02
848.637	11077.31
848.96	11014.26
849.284	10963.64
849.607	10883.87
849.931	10894.26
850.254	10807.71
850.577	10788.73
850.9	10716.19
851.223	10623.08
851.546	10629.86
851.869	10662.4
852.192	10600.71
852.515	10489.75
852.838	10521.62
853.161	10500.37
853.483	10440.49
853.806	10442.97
854.129	10344.9
854.451	10263.77
854.774	10281.17
855.096	10246.14
855.419	10240.49
855.741	10221.06
856.063	10168.4
856.385	10158.01
856.708	10132.93
857.03	10114.17
857.352	10117.11
857.674	10076.2
857.996	9977.9
858.318	9946.04
858.64	9946.49
858.961	9880.73
859.283	9905.81
859.605	9817.45
859.926	9866.49
860.248	9826.04
860.57	9807.51
860.891	9816.1
861.212	9755.53
861.534	9798.92
861.855	9790.79
862.176	9796.89
862.498	9757.57
862.819	9763.67
863.14	9709.43
863.461	9724.57
863.782	9643
864.103	9711.24
864.424	9612.94
864.745	9629.66
865.065	9623.33
865.386	9497.69
865.707	9564.81
866.027	9572.49
866.348	9525.03
866.668	9542.43
866.989	9498.14
867.309	9530.68
867.63	9477.58
867.95	9476.45
868.27	9405.26
868.59	9337.01
868.91	9377.24
869.23	9381.98
869.55	9370.23
869.87	9401.65
870.19	9340.4
870.51	9407.07
870.83	9324.81
871.15	9259.28
871.469	9337.01
871.789	9281.65
872.109	9290.69
872.428	9277.81
872.748	9193.97
873.067	9202.1
873.386	9179.05
873.706	9203.91
874.025	9157.81
874.344	9166.4
874.663	9146.06
874.982	9106.96
875.301	9110.81
875.62	9093.86
875.939	9067.87
876.258	9030.36
876.577	8978.83
876.896	9054.54
877.214	9017.93
877.533	9092.28
877.852	8986.29
878.17	9006.4
878.489	9008.89
878.807	9010.47
879.125	9011.37
879.444	8971.37
879.762	8934.31
880.08	8910.81
880.398	8903.81
880.716	8931.6
881.034	8843.47
881.352	8864.26
881.67	8842.56
881.988	8822.9
882.306	8833.52
882.624	8770.93
882.941	8737.93
883.259	8688.44
883.577	8732.06
883.894	8669.69
884.212	8679.63
884.529	8603.02
884.846	8642.34
885.164	8588.33
885.481	8593.31
885.798	8601.89
886.115	8560.09
886.432	8528
886.75	8564.38
887.067	8549.92
887.383	8474.44
887.7	8488.22
888.017	8440.77
888.334	8422.46
888.651	8417.26
888.967	8432.86
889.284	8274.44
889.6	8320.32
889.917	8267.66
890.233	8271.28
890.55	8302.47
890.866	8326.42
891.182	8280.54
891.498	8219.08
891.815	8165.29
892.131	8107.22
892.447	8134.56
892.763	8109.7
893.079	8082.58
893.395	8026.09
893.71	8089.59
894.026	8040.1
894.342	8053.66
894.657	7936.15
894.973	7932.08
895.289	8009.59
895.604	7936.37
895.92	7913.55
896.235	7799.2
896.55	7846.21
896.865	7799.2
897.181	7846.43
897.496	7788.81
897.811	7798.07
898.126	7647.79
898.441	7675.36
898.756	7596.72
899.071	7637.85
899.386	7626.78
899.7	7543.62
900.015	7545.2
900.33	7439.21
900.644	7503.62
900.959	7521.02
901.273	7486.67
901.588	7432.66
901.902	7350.63
902.216	7345.88
902.531	7321.47
902.845	7371.42
903.159	7261.36
903.473	7217.07
903.787	7161.25
904.101	7128.94
904.415	7208.71
904.729	7118.09
905.042	7111.31
905.356	7124.19
905.67	7055.27
905.984	7048.71
906.297	7028.6
906.611	6955.38
906.924	6971.43
907.237	6958.32
907.551	6864.54
907.864	6897.98
908.177	6871.09
908.491	6902.28
908.804	6818.66
909.117	6812.11
909.43	6773.01
909.743	6679.46
910.056	6720.59
910.368	6724.65
910.681	6602.62
910.994	6561.49
911.307	6562.17
911.619	6491.21
911.932	6590.87
912.244	6537.54
912.557	6479.24
912.869	6474.94
913.181	6435.17
913.494	6366.25
913.806	6370.76
914.118	6421.16
914.43	6338.22
914.742	6302.74
915.054	6294.83
915.366	6260.26
915.678	6233.14
915.99	6229.53
916.302	6204.44
916.613	6138.45
916.925	6150.43
917.236	6104.11
917.548	6113.14
917.859	6143.43
918.171	6074.5
918.482	6010.32
918.794	6017.78
919.105	5965.58
919.416	5919.48
919.727	5925.8
920.038	5878.8
920.349	5845.58
920.66	5834.96
920.971	5846.03
921.282	5845.13
921.593	5831.34
921.903	5765.36
922.214	5709.77
922.525	5700.05
922.835	5682.65
923.146	5651.91
923.456	5643.33
923.767	5633.16
924.077	5553.61
924.387	5546.83
924.697	5551.58
925.008	5558.81
925.318	5509.09
925.628	5451.47
925.938	5500.73
926.248	5408.53
926.558	5332.83
926.867	5343.45
927.177	5378.47
927.487	5310.45
927.796	5298.02
928.106	5294.63
928.416	5292.37
928.725	5256.9
929.034	5240.62
929.344	5199.5
929.653	5223.68
929.962	5165.37
930.271	5121.31
930.581	5128.54
930.89	5074.75
931.199	5073.4
931.508	5019.16
931.817	5055.77
932.125	5005.15
932.434	5039.05
932.743	4908.88
933.051	4984.36
933.36	4934.19
933.669	4891.93
933.977	4913.4
934.286	4868.21
934.594	4835.21
934.902	4804.93
935.21	4776.68
935.519	4763.58
935.827	4739.85
936.135	4740.3
936.443	4688.78
936.751	4682.45
937.059	4693.97
937.367	4618.27
937.674	4691.94
937.982	4606.74
938.29	4548.44
938.597	4610.36
938.905	4556.58
939.213	4499.63
939.52	4510.02
939.827	4483.81
940.135	4457.59
940.442	4462.34
940.749	4422.79
941.056	4427.31
941.363	4423.47
941.67	4384.83
941.977	4433.41
942.284	4374.21
942.591	4353.19
942.898	4316.81
943.205	4297.37
943.511	4293.98
943.818	4286.07
944.125	4263.25
944.431	4189.58
944.738	4190.94
945.044	4211.05
945.35	4161.78
945.657	4194.1
945.963	4143.93
946.269	4095.57
946.575	4124.5
946.881	4063.03
947.187	4089.92
947.493	4014.22
947.799	4023.71
948.105	4031.39
948.41	3973.09
948.716	3998.62
949.022	3956.36
949.327	3953.2
949.633	3898.97
949.938	3942.35
950.244	3931.05
950.549	3878.17
950.854	3904.61
951.16	3846.09
951.465	3853.09
951.77	3846.76
952.075	3821
952.38	3779.19
952.685	3840.44
952.99	3729.7
953.294	3743.04
953.599	3715.47
953.904	3754.11
954.209	3667.11
954.513	3708.24
954.818	3694.45
955.122	3635.02
955.426	3650.16
955.731	3609.71
956.035	3563.61
956.339	3594.57
956.643	3573.1
956.948	3533.33
957.252	3553.21
957.556	3502.37
957.86	3480.45
958.163	3505.08
958.467	3473.67
958.771	3474.34
959.075	3441.8
959.378	3428.92
959.682	3410.84
959.985	3404.52
960.289	3378.98
960.592	3346.66
960.896	3340.79
961.199	3361.13
961.502	3321.35
961.805	3335.82
962.108	3265.08
962.411	3254.69
962.714	3267.12
963.017	3289.26
963.32	3244.52
963.623	3217.4
963.926	3220.79
964.228	3250.62
964.531	3195.71
964.833	3195.48
965.136	3141.25
965.438	3144.86
965.741	3130.62
966.043	3130.17
966.345	3079.33
966.648	3074.81
966.95	3142.6
967.252	3077.29
967.554	3055.15
967.856	3056.28
968.158	3028.93
968.46	3022.6
968.761	3019.67
969.063	3006.56
969.365	2985.09
969.666	2938.31
969.968	2924.3
970.269	2924.98
970.571	2964.53
970.872	2911.65
971.174	2901.93
971.475	2881.14
971.776	2852.67
972.077	2850.63
972.378	2854.25
972.679	2848.37
972.98	2863.06
973.281	2801.82
973.582	2800.46
973.883	2808.15
974.183	2790.97
974.484	2756.85
974.785	2767.7
975.085	2731.99
975.386	2769.05
975.686	2734.02
975.986	2741.03
976.287	2702.16
976.587	2662.84
976.887	2675.49
977.187	2719.34
977.487	2651.09
977.787	2619.9
978.087	2624.2
978.387	2611.09
978.687	2607.47
978.987	2552.79
979.286	2611.54
979.586	2576.74
979.885	2563.86
980.185	2535.84
980.484	2531.54
980.784	2530.87
981.083	2500.81
981.382	2518.89
981.682	2485.9
981.981	2510.08
982.28	2482.73
982.579	2449.51
982.878	2469.4
983.177	2441.6
983.475	2434.15
983.774	2443.64
984.073	2419.68
984.372	2412
984.67	2381.94
984.969	2359.8
985.267	2381.49
985.566	2385.78
985.864	2356.86
986.162	2332.45
986.461	2316.86
986.759	2291.55
987.057	2314.83
987.355	2285
987.653	2256.75
987.951	2282.74
988.249	2272.57
988.547	2254.04
988.844	2233.02
989.142	2232.34
989.44	2244.32
989.737	2236.18
990.035	2188.28
990.332	2202.74
990.63	2190.76
990.927	2181.95
991.224	2184.43
991.521	2170.88
991.819	2154.6
992.116	2147.82
992.413	2148.73
992.71	2125.68
993.006	2099.46
993.303	2110.76
993.6	2080.26
993.897	2082.29
994.193	2060.37
994.49	2040.03
994.787	2056.53
995.083	2039.58
995.379	2042.74
995.676	2008.39
995.972	1985.12
996.268	2013.37
996.565	2050.65
996.861	1992.12
997.157	1951.67
997.453	1939.24
997.749	1957.1
998.044	1971.78
998.34	1959.81
998.636	1934.27
998.932	1937.43
999.227	1909.41
999.523	1877.32
999.818	1923.42
1000.114	1895.63
1000.409	1883.65
1000.704	1882.97
1001	1847.49
1001.295	1840.71
1001.59	1834.84
1001.885	1870.54
1002.18	1808.85
1002.475	1805.69
1002.77	1779.25
1003.065	1791.22
1003.359	1797.55
1003.654	1774.95
1003.949	1749.64
1004.243	1728.85
1004.538	1717.1
1004.832	1728.85
1005.127	1744.22
1005.421	1725.01
1005.715	1699.93
1006.009	1694.73
1006.304	1669.42
1006.598	1688.18
1006.892	1682.07
1007.186	1659.7
1007.48	1683.66
1007.773	1628.29
1008.067	1637.1
1008.361	1608.86
1008.655	1624
1008.948	1579.25
1009.242	1614.73
1009.535	1591.23
1009.829	1582.64
1010.122	1562.53
1010.415	1566.37
1010.708	1551.46
1011.001	1526.15
1011.295	1545.58
1011.588	1496.32
1011.881	1494.28
1012.173	1509.88
1012.466	1496.54
1012.759	1509.88
1013.052	1491.34
1013.344	1475.07
1013.637	1478.46
1013.93	1463.32
1014.222	1419.48
1014.514	1438.47
1014.807	1431.46
1015.099	1431.01
1015.391	1421.29
1015.683	1388.75
1015.976	1404.79
1016.268	1404.34
1016.56	1378.58
1016.851	1384.68
1017.143	1390.56
1017.435	1358.69
1017.727	1362.99
1018.018	1351.69
1018.31	1326.15
1018.602	1356.21
1018.893	1341.52
1019.185	1295.87
1019.476	1311.01
1019.767	1305.81
1020.058	1288.19
1020.35	1280.28
1020.641	1263.55
1020.932	1275.98
1021.223	1256.1
1021.514	1247.96
1021.804	1230.56
1022.095	1233.5
1022.386	1225.59
1022.677	1212.26
1022.967	1199.15
1023.258	1207.28
1023.548	1192.37
1023.839	1182.2
1024.129	1185.36
1024.419	1163.22
1024.709	1160.51
1025	1176.78
1025.29	1150.34
1025.58	1163.22
1025.87	1146.04
1026.16	1137
1026.449	1126.61
1026.739	1104.91
1027.029	1078.47
1027.319	1134.74
1027.608	1102.43
1027.898	1091.58
1028.187	1071.69
1028.477	1071.47
1028.766	1050.45
1029.055	1072.6
1029.344	1052.94
1029.634	1037.35
1029.923	1033.96
1030.212	1024.69
1030.501	1007.52
1030.79	1026.5
1031.078	1015.88
1031.367	1012.26
1031.656	1007.06
1031.945	1024.01
1032.233	962.09
1032.522	977.23
1032.81	968.87
1033.099	976.1
1033.387	970.45
1033.675	972.04
1033.963	952.83
1034.251	958.03
1034.54	953.73
1034.828	950.57
1035.116	901.53
1035.403	925.03
1035.691	929.55
1035.979	901.53
1036.267	912.15
1036.554	925.26
1036.842	893.39
1037.129	897.69
1037.417	859.27
1037.704	868.76
1037.992	875.77
1038.279	837.35
1038.566	865.37
1038.853	865.37
1039.14	865.37
