Data from breadboard_white_FLMS001491_00008.txt Node
Date: Wed Feb 08 10:47:10 GMT 2017
User: dcchb
Spectrometer: FLMS00149
Trigger mode: 0
Integration Time (sec): 2.000000E-2
Scans to average: 10
Electric dark correction enabled: true
Nonlinearity correction enabled: false
Boxcar width: 0
XAxis mode: Wavelengths
Number of Pixels in Spectrum: 2048
>>>>>Begin Spectral Data<<<<<
341.393	-1.24
341.776	-1.24
342.16	-1.24
342.543	-51.19
342.927	-69.49
343.31	-68.81
343.693	-68.13
344.077	-76.95
344.46	-53.67
344.843	-34.91
345.226	-41.47
345.61	-8.02
345.993	-27.23
346.376	-13.22
346.759	15.71
347.142	17.29
347.525	56.16
347.908	36.72
348.291	78.3
348.674	76.95
349.057	111.3
349.44	113.33
349.823	126.89
350.206	178.41
350.588	209.82
350.971	238.3
351.354	246.43
351.737	246.89
352.119	243.27
352.502	299.77
352.884	275.81
353.267	313.33
353.65	315.58
354.032	317.17
354.414	334.34
354.797	329.6
355.179	324.62
355.562	335.92
355.944	342.25
356.326	340.89
356.709	347.45
357.091	375.02
357.473	351.52
357.855	365.3
358.238	366.21
358.62	382.93
359.002	359.43
359.384	377.5
359.766	368.01
360.148	360.56
360.53	363.27
360.912	388.58
361.294	371.4
361.676	343.38
362.057	363.27
362.439	365.75
362.821	341.8
363.203	370.95
363.584	371.18
363.966	354.91
364.348	345.19
364.729	349.26
365.111	343.61
365.493	343.15
365.874	343.61
366.256	371.18
366.637	358.97
367.019	343.15
367.4	336.15
367.781	360.1
368.163	361.91
368.544	346.32
368.925	363.95
369.306	354.91
369.688	353.78
370.069	360.1
370.45	349.26
370.831	362.59
371.212	354.45
371.593	341.12
371.974	376.37
372.355	356.49
372.736	374.11
373.117	361.69
373.498	373.66
373.879	368.46
374.26	376.6
374.641	365.53
375.021	372.31
375.402	363.27
375.783	357.17
376.163	392.42
376.544	369.82
376.925	364.4
377.305	365.3
377.686	379.76
378.066	384.74
378.447	399.65
378.827	406.88
379.208	393.77
379.588	402.81
379.968	406.66
380.349	406.88
380.729	399.2
381.109	390.84
381.489	423.15
381.87	390.39
382.25	397.39
382.63	409.82
383.01	427.9
383.39	423.15
383.77	409.59
384.15	434
384.53	429.03
384.91	437.16
385.29	430.61
385.67	444.17
386.049	443.27
386.429	450.5
386.809	445.98
387.189	413.44
387.568	442.36
387.948	471.29
388.328	458.86
388.707	459.08
389.087	449.59
389.466	493.89
389.846	478.52
390.225	485.07
390.605	495.92
390.984	501.34
391.363	500.21
391.743	491.17
392.122	501.79
392.501	497.73
392.881	538.18
393.26	513.32
393.639	531.62
394.018	551.96
394.397	547.9
394.776	552.64
395.155	544.51
395.534	568.01
395.913	563.49
396.292	574.79
396.671	583.6
397.05	595.13
397.429	607.33
397.808	596.71
398.186	612.75
398.565	610.72
398.944	633.77
399.323	649.14
399.701	638.74
400.08	673.99
400.458	643.94
400.837	664.95
401.215	697.27
401.594	688
401.972	713.99
402.351	712.41
402.729	725.07
403.107	766.19
403.486	757.61
403.864	796.93
404.242	795.8
404.62	775.91
404.999	799.64
405.377	810.26
405.755	816.14
406.133	845.06
406.511	864.95
406.889	888.23
407.267	904.72
407.645	923.48
408.023	943.59
408.401	960.77
408.779	970.03
409.156	1006.41
409.534	996.24
409.912	1031.05
410.29	1049.12
410.667	1077.6
411.045	1103.59
411.422	1112.4
411.8	1125.73
412.178	1146.52
412.555	1175.22
412.933	1179.29
413.31	1223.81
413.687	1265.84
414.065	1234.66
414.442	1271.49
414.819	1303.36
415.197	1307.65
415.574	1365.73
415.951	1366.4
416.328	1395.33
416.705	1422.22
417.082	1422.67
417.46	1476.46
417.837	1497.47
418.214	1490.92
418.591	1519.17
418.967	1529.79
419.344	1541.32
419.721	1585.38
420.098	1581.54
420.475	1610.24
420.852	1636.45
421.228	1640.3
421.605	1661.31
421.982	1711.25
422.358	1742.44
422.735	1747.86
423.111	1760.74
423.488	1767.3
423.864	1798.94
424.241	1811.59
424.617	1853.4
424.994	1860.18
425.37	1894.3
425.746	1868.09
426.123	1904.24
426.499	1918.93
426.875	1928.65
427.251	2023.56
427.627	2044.35
428.003	2061.98
428.379	2109.89
428.756	2112.6
429.132	2168.42
429.507	2167.51
429.883	2177
430.259	2250.45
430.635	2246.61
431.011	2269.43
431.387	2334.06
431.763	2368.64
432.138	2395.3
432.514	2433.5
432.89	2465.13
433.265	2499.48
433.641	2529.09
434.016	2566.37
434.392	2624.68
434.767	2641.4
435.143	2637.11
435.518	2680.95
435.894	2725.92
436.269	2713.94
436.644	2784.9
437.02	2840.94
437.395	2854.73
437.77	2885.91
438.145	2920.26
438.52	2956.87
438.895	3000.03
439.271	3009.75
439.646	3060.15
440.021	3080.03
440.395	3096.53
440.77	3058.79
441.145	3118.68
441.52	3181.05
441.895	3162.06
442.27	3231.89
442.645	3249.07
443.019	3266.92
443.394	3258.78
443.769	3364.09
444.143	3290.2
444.518	3355.73
444.892	3382.85
445.267	3405.22
445.641	3449.06
446.016	3449.51
446.39	3482.96
446.764	3542.84
447.139	3490.64
447.513	3591.21
447.887	3597.76
448.262	3603.86
448.636	3626.91
449.01	3691.54
449.384	3689.06
449.758	3758.88
450.132	3737.87
450.506	3799.34
450.88	3826
451.254	3870.97
451.628	3870.75
452.002	3952.1
452.376	3983.29
452.75	4033.45
453.123	4039.33
453.497	4113.45
453.871	4153.22
454.244	4208.36
454.618	4229.38
454.992	4348.93
455.365	4313.45
455.739	4459.2
456.112	4456.04
456.486	4484.06
456.859	4565.64
457.232	4616.04
457.606	4605.19
457.979	4672.76
458.352	4793.21
458.725	4852.64
459.099	4826.2
459.472	4953.2
459.845	5028.91
460.218	5112.52
460.591	5104.16
460.964	5148.68
461.337	5304.15
461.71	5371.5
462.083	5448.33
462.456	5435.68
462.829	5486.07
463.201	5588.89
463.574	5594.54
463.947	5693.07
464.32	5792.73
464.692	5872.95
465.065	5883.35
465.438	5983.46
465.81	6063
466.183	6071.14
466.555	6278.59
466.928	6295.54
467.3	6280.17
467.672	6404.24
468.045	6597.68
468.417	6608.3
468.789	6707.51
469.161	6810.56
469.534	6853.49
469.906	7033.15
470.278	7025.24
470.65	7123.32
471.022	7320.6
471.394	7419.35
471.766	7530.76
472.138	7604.21
472.51	7762.85
472.882	7829.74
473.253	7938.21
473.625	8074.7
473.997	8220.91
474.369	8239.44
474.74	8375.71
475.112	8524.63
475.484	8652.99
475.855	8798.75
476.227	8884.85
476.598	9201.45
476.97	9247.1
477.341	9497.94
477.713	9591.73
478.084	9622.46
478.455	9914.65
478.827	10069.23
479.198	10315.1
479.569	10315.1
479.94	10604.58
480.311	10737.01
480.682	10946.94
481.053	11139.26
481.424	11305.35
481.795	11408.4
482.166	11664.44
482.537	11828.95
482.908	12060.59
483.279	12171.32
483.65	12476.85
484.021	12626.9
484.391	12747.12
484.762	12842.71
485.133	13060.33
485.503	13207
485.874	13534.67
486.244	13682.01
486.615	13883.82
486.985	13989.8
487.356	14266.4
487.726	14451.48
488.097	14683.57
488.467	14740.52
488.837	15105.48
489.207	15237
489.578	15557.22
489.948	15576.43
490.318	15835.85
490.688	15947.26
491.058	16168.05
491.428	16329.63
491.798	16536.63
492.168	16891.19
492.538	16995.6
492.908	17139.55
493.278	17460.67
493.648	17389.94
494.017	17636.49
494.387	17825.18
494.757	17877.61
495.126	18182.01
495.496	18225.85
495.866	18327.54
496.235	18508.33
496.605	18696.34
496.974	18889.33
497.344	18970.46
497.713	19002.78
498.082	19293.84
498.452	19467.85
498.821	19494.06
499.19	19671.23
499.559	19823.77
499.928	20029.64
500.298	20040.49
500.667	20250.43
501.036	20320.71
501.405	20581.49
501.774	20546.01
502.143	20810.87
502.512	20914.37
502.88	21001.82
503.249	21234.58
503.618	21304.86
503.987	21446.78
504.356	21597.06
504.724	21751.63
505.093	21752.54
505.462	21823.72
505.83	22063.94
506.199	22275.46
506.567	22556.81
506.936	22480.2
507.304	22752.74
507.672	22829.34
508.041	22922.22
508.409	23275.66
508.777	23362.44
509.145	23543.67
509.514	23568.53
509.882	23780.96
510.25	23816.44
510.618	24102.53
510.986	24190.66
511.354	24399.47
511.722	24596.75
512.09	24792.68
512.458	24796.07
512.826	25035.84
513.193	25248.71
513.561	25339.11
513.929	25432.44
514.297	25747.01
514.664	25890.28
515.032	25973.44
515.4	26275.81
515.767	26375.69
516.135	26533.88
516.502	26518.06
516.869	26977.03
517.237	27008.44
517.604	27004.37
517.972	27335.67
518.339	27513.51
518.706	27608.88
519.073	27899.94
519.44	28049.32
519.808	28288.18
520.175	28234.17
520.542	28729.3
520.909	28814.72
521.276	28878.22
521.643	29223.75
522.009	29501.71
522.376	29679.78
522.743	29800.91
523.11	30144.18
523.477	30455.58
523.843	30538.29
524.21	30782.81
524.577	31023.25
524.943	31277.93
525.31	31373.98
525.676	31669.56
526.043	31944.58
526.409	31996.11
526.776	32424.57
527.142	32503.21
527.508	32708.86
527.874	32945.91
528.241	33112.46
528.607	33147.72
528.973	33396.52
529.339	33578.21
529.705	34008.48
530.071	34129.61
530.437	34205.32
530.803	34395.37
531.169	34596.27
531.535	34703.38
531.901	34857.95
532.267	35029.02
532.632	35204.84
532.998	35270.6
533.364	35566.41
533.73	35654.09
534.095	35950.13
534.461	36099.95
534.826	36333.17
535.192	36335.2
535.557	36672.37
535.923	36465.59
536.288	36711.24
536.653	37036.2
537.019	36873.04
537.384	37030.1
537.749	37206.37
538.114	37424.44
538.479	37547.15
538.845	37563.65
539.21	37626.24
539.575	37906.23
539.94	37959.34
540.305	38201.59
540.67	38179.45
541.034	38381.25
541.399	38368.6
541.764	38577.4
542.129	38737.63
542.494	38721.35
542.858	38856.94
543.223	38966.09
543.587	39272.3
543.952	39173.55
544.316	39301.9
544.681	39325.86
545.045	39655.57
545.41	39814.66
545.774	39946.63
546.138	39837.94
546.503	40101.43
546.867	40013.52
547.231	40486.73
547.595	40373.29
547.959	40620.97
548.324	40552.49
548.688	40704.13
549.052	40965.36
549.416	41017.34
549.779	40965.82
550.143	41165.58
550.507	41555.18
550.871	41487.38
551.235	41468.85
551.599	41906.58
551.962	41885.11
552.326	42043.08
552.689	42301.83
553.053	42176.18
553.417	42367.81
553.78	42896.61
554.143	42541.37
554.507	42832.43
554.87	42964.63
555.234	43395.58
555.597	43063.39
555.96	43306.77
556.323	43613.43
556.686	43604.62
557.05	43920.54
557.413	44004.38
557.776	44144.71
558.139	44409.11
558.502	44343.58
558.865	44644.14
559.228	44833.51
559.59	45056.56
559.953	45171.58
560.316	45466.49
560.679	45587.16
561.041	45689.08
561.404	45955.06
561.767	46148.28
562.129	45955.74
562.492	46459.23
562.854	46473.02
563.217	46449.74
563.579	46677.08
563.941	46973.12
564.304	47129.04
564.666	47461.92
565.028	47444.06
565.39	47465.31
565.753	47784.39
566.115	48001.79
566.477	47950.49
566.839	48092.63
567.201	48304.61
567.563	48443.58
567.925	48655.33
568.287	48692.62
568.648	48838.83
569.01	49077.47
569.372	49179.16
569.734	49042.44
570.095	49383.45
570.457	49519.71
570.819	49524.23
571.18	49672.25
571.542	49778.01
571.903	49789.54
572.265	49983.66
572.626	49992.47
572.987	50268.4
573.349	50286.47
573.71	50368.05
574.071	50397.21
574.432	50562.4
574.794	50780.92
575.155	50803.97
575.516	50648.95
575.877	50845.56
576.238	50800.13
576.599	51034.25
576.96	51012.33
577.32	51055.04
577.681	51136.4
578.042	51160.12
578.403	51191.99
578.763	51330.97
579.124	51250.06
579.485	51403.51
579.845	51500.45
580.206	51501.81
580.566	51434.24
580.927	51575.71
581.287	51630.62
581.648	51511.75
582.008	51707.91
582.368	51549.04
582.728	51664.74
583.089	51677.17
583.449	51726.66
583.809	51739.54
584.169	51817.06
584.529	51634.91
584.889	51899.09
585.249	51718.75
585.609	51629.72
585.969	51916.26
586.329	51612.99
586.688	51742.48
587.048	51681.69
587.408	51722.82
587.768	51705.19
588.127	51679.43
588.487	51653.67
588.846	51887.56
589.206	51752.2
589.565	51579.32
589.925	51828.35
590.284	51637.63
590.643	51798.07
591.003	51834.91
591.362	51829.48
591.721	51842.37
592.08	51863.61
592.44	51828.13
592.799	51880.56
593.158	51834.23
593.517	51847.79
593.876	51977.73
594.235	51847.56
594.593	51883.04
594.952	51907.22
595.311	51744.06
595.67	51817.06
596.029	52005.75
596.387	52143.15
596.746	52161
597.104	52010.72
597.463	51895.7
597.822	52128.69
598.18	51987.9
598.538	51933.89
598.897	52119.87
599.255	51861.8
599.613	52351.05
599.972	52079.65
600.33	52158.97
600.688	52071.96
601.046	52144.96
601.404	52232.86
601.762	52178.85
602.12	52341.79
602.478	52397.15
602.836	52418.4
603.194	52162.58
603.552	52250.72
603.91	52155.35
604.268	52371.84
604.625	52253.88
604.983	52452.75
605.341	52279.87
605.698	52422.24
606.056	52510.82
606.413	52548.34
606.771	52446.19
607.128	52496.59
607.485	52448.68
607.843	52384.05
608.2	52673.98
608.557	52699.74
608.914	52679.41
609.272	52765.28
609.629	52868.78
609.986	52845.73
610.343	52737.26
610.7	52932.28
611.057	52871.04
611.414	52955.78
611.771	52958.95
612.127	52973.41
612.484	52975.67
612.841	53167.75
613.198	52935.22
613.554	52938.83
613.911	53078.04
614.267	53143.35
614.624	53121.2
614.98	53104.25
615.337	53305.38
615.693	53265.61
616.05	53209.56
616.406	53345.6
616.762	53266.96
617.118	53271.25
617.475	53309.67
617.831	53333.17
618.187	53434.41
618.543	53378.6
618.899	53585.37
619.255	53425.6
619.611	53441.65
619.967	53539.04
620.323	53513.06
620.678	53423.12
621.034	53290.01
621.39	53377.24
621.746	53329.78
622.101	53623.11
622.457	53385.83
622.812	53498.59
623.168	53567.97
623.523	53555.31
623.879	53595.31
624.234	53401.42
624.589	53618.82
624.945	53545.37
625.3	53606.39
625.655	53552.6
626.01	53575.43
626.365	53445.04
626.72	53518.93
627.075	53506.05
627.43	53538.59
627.785	53325.72
628.14	53444.58
628.495	53437.13
628.85	53403.23
629.205	53330.69
629.559	53346.05
629.914	53242.78
630.269	53275.77
630.623	53202.78
630.978	53063.35
631.332	53189
631.687	53212.5
632.041	53158.04
632.396	53135.44
632.75	53095.67
633.104	53066.29
633.459	52953.75
633.813	52925.28
634.167	52984.71
634.521	52846.63
634.875	53000.3
635.229	52809.35
635.583	52714.66
635.937	52699.52
636.291	52739.52
636.645	52694.32
636.999	52432.41
637.352	52642.8
637.706	52402.58
638.06	52593.08
638.413	52486.64
638.767	52466.76
639.121	52387.21
639.474	52314.67
639.828	52307.89
640.181	52258.17
640.534	52247.78
640.888	52105.18
641.241	51973.21
641.594	52047.78
641.947	52223.82
642.301	52107.44
642.654	52099.76
643.007	52091.62
643.36	52000.78
643.713	51945.87
644.066	51998.29
644.419	51762.59
644.771	51571.86
645.124	51159.67
645.477	51157.19
645.83	50885.55
646.182	50805.56
646.535	50724.43
646.888	50808.72
647.24	50635.17
647.593	50754.94
647.945	50635.17
648.298	50436.53
648.65	50470.65
649.002	50309.3
649.355	50414.61
649.707	50337.32
650.059	50517.43
650.411	50766.46
650.763	50867.48
651.115	51308.37
651.467	51063.63
651.819	50956.06
652.171	50850.98
652.523	50909.51
652.875	50961.03
653.227	50656.86
653.578	50972.78
653.93	50815.5
654.282	50731.43
654.633	50493.47
654.985	50728.95
655.337	50688.5
655.688	50603.75
656.039	50819.12
656.391	50486.24
656.742	50486.7
657.094	50556.52
657.445	50689.63
657.796	50519.46
658.147	50503.64
658.498	50385
658.849	50367.83
659.2	50412.35
659.551	50322.63
659.902	50328.06
660.253	50315.85
660.604	50333.03
660.955	50229.75
661.306	50446.02
661.656	50163.99
662.007	50123.31
662.358	50178.23
662.708	50149.75
663.059	50065.46
663.409	49799.26
663.76	50158.79
664.11	50154.73
664.461	50099.81
664.811	50077.67
665.161	50051.45
665.511	49866.37
665.862	49929.42
666.212	50085.35
666.562	50027.27
666.912	49898.24
667.262	49776.66
667.612	49800.16
667.962	49818.01
668.312	49716.55
668.662	50055.75
669.011	49856.2
669.361	49690.78
669.711	49762.87
670.06	49728.97
670.41	49633.61
670.76	49639.71
671.109	49721.74
671.459	49610.33
671.808	49547.28
672.157	49625.7
672.507	49318.14
672.856	49408.53
673.205	49526.04
673.554	49540.73
673.904	49241.98
674.253	49525.36
674.602	49421.41
674.951	48849.68
675.3	48675.44
675.649	49290.12
675.998	49143.45
676.346	49184.36
676.695	49275.2
677.044	48938.71
677.393	49102.32
677.741	49118.82
678.09	48939.39
678.438	48867.08
678.787	49080.63
679.135	48935.32
679.484	48685.84
679.832	48797.47
680.181	48725.16
680.529	48517.03
680.877	48507.76
681.225	48528.1
681.573	48663.24
681.922	48528.55
682.27	48258.51
682.618	48339.86
682.966	48228
683.314	48232.97
683.661	48208.34
684.009	47970.15
684.357	47852.64
684.705	47805.64
685.053	47864.62
685.4	47764.96
685.748	47654.45
686.095	47681.12
686.443	47279.32
686.79	47356.38
687.138	47443.61
687.485	47416.72
687.832	47250.17
688.18	47294.69
688.527	47096.05
688.874	47007.01
689.221	46979.67
689.568	46834.36
689.915	46766.79
690.262	46754.14
690.609	46627.81
690.956	46466.24
691.303	46408.16
691.65	46118.67
691.997	46077.55
692.344	45959.36
692.69	45825.8
693.037	45883.43
693.383	45523.89
693.73	45758.68
694.077	45363.44
694.423	45441.63
694.769	45225.59
695.116	45237.57
695.462	45154.41
695.808	44887.07
696.155	44988.31
696.501	44708.32
696.847	44642.78
697.193	44397.82
697.539	44374.99
697.885	44291.6
698.231	44056.58
698.577	44182.68
698.923	43907.21
699.269	43821.79
699.614	43643.49
699.96	43524.17
700.306	43572.07
700.651	43376.15
700.997	43244.17
701.342	43142.03
701.688	43203.95
702.033	42881.02
702.379	42917.4
702.724	42841.02
703.069	42842.83
703.415	42401.94
703.76	42502.5
704.105	42545.66
704.45	42301.37
704.795	42041.95
705.14	41917.2
705.485	41838.79
705.83	41810.77
706.175	41716.08
706.52	41696.19
706.865	41514.05
707.209	41299.14
707.554	41301.63
707.899	41358.57
708.243	41136.66
708.588	41037.68
708.932	40833.84
709.277	40789.77
709.621	40865.93
709.966	40525.38
710.31	40581.42
710.654	40313.63
710.998	40320.41
711.342	40235.67
711.687	40204.25
712.031	39864.38
712.375	39908.44
712.719	39844.04
713.063	39734.21
713.407	39887.43
713.75	39682.46
714.094	39606.3
714.438	39404.73
714.782	39482.01
715.125	39281.57
715.469	39254.9
715.812	39137.16
716.156	38994.57
716.499	38940.33
716.843	38997.51
717.186	38678.64
717.53	38835.7
717.873	38687.23
718.216	38734.24
718.559	38597.97
718.902	38338.31
719.246	38298.09
719.589	38262.84
719.932	38184.19
720.275	38035.05
720.617	38019.23
720.96	38051.99
721.303	37903.3
721.646	38008.38
721.989	37663.53
722.331	37732.45
722.674	37602.74
723.016	37734.26
723.359	37578.11
723.701	37665.34
724.044	37263.99
724.386	36893.83
724.729	37293.37
725.071	37160.27
725.413	37141.28
725.755	37110.78
726.097	36907.84
726.439	36744.23
726.782	36711.69
727.124	36906.26
727.465	36642.99
727.807	36485.71
728.149	36507.85
728.491	36478.25
728.833	36332.27
729.175	36211.82
729.516	36217.47
729.858	36234.41
730.199	36114.87
730.541	36195.77
730.882	35942.67
731.224	36064.7
731.565	35823.35
731.906	35903.12
732.248	35803.24
732.589	35785.39
732.93	35475.79
733.271	35576.35
733.612	35600.98
733.953	35687.76
734.294	35377.49
734.635	35304.04
734.976	35417.71
735.317	35252.29
735.658	35182.92
735.999	35278.28
736.339	34925.3
736.68	35208.45
737.021	34950.38
737.361	34908.57
737.702	34985.86
738.042	34930.04
738.383	34754
738.723	34879.87
739.063	34629.94
739.404	34720.1
739.744	34569.6
740.084	34549.94
740.424	34392.43
740.764	34252.09
741.104	34446.44
741.444	34163.96
741.784	34011.2
742.124	34222.72
742.464	34069.27
742.804	33914.48
743.143	33810.07
743.483	33797.19
743.823	33694.59
744.162	33621.38
744.502	33709.51
744.841	33506.35
745.181	33634.03
745.52	33506.8
745.86	33610.3
746.199	33371.44
746.538	33296.64
746.877	33399.23
747.216	33366.02
747.556	33267.71
747.895	33111.78
748.234	33064.1
748.573	33013.26
748.911	32905.01
749.25	32829.31
749.589	32808.97
749.928	32779.36
750.267	32760.61
750.605	32568.97
750.944	32521.07
751.283	32519.48
751.621	32425.93
751.96	32194.75
752.298	32158.36
752.636	32116.1
752.975	31972.61
753.313	31886.96
753.651	31933.06
753.989	31898.71
754.327	31793.85
754.666	31590.47
755.004	31627.98
755.342	31594.08
755.679	31579.17
756.017	31303.92
756.355	31345.28
756.693	31262.57
757.031	31275.45
757.368	31117.26
757.706	31020.09
758.044	30903.48
758.381	30905.06
758.719	30660.1
759.056	30745.07
759.394	30574
759.731	30384.62
760.068	30367.22
760.405	30214.46
760.743	30257.85
761.08	30157.29
761.417	30060.34
761.754	30019.44
762.091	29902.38
762.428	29808.37
762.765	29636.17
763.102	29649.73
763.438	29504.65
763.775	29363.41
764.112	29378.78
764.449	29326.57
764.785	29142.85
765.122	29049.74
765.458	28899.01
765.795	28934.04
766.131	28810.65
766.467	28699.02
766.804	28526.37
767.14	28485.69
767.476	28391.46
767.812	28275.98
768.148	28327.5
768.485	28139.03
768.821	27977.46
769.157	27901.75
769.492	27862.66
769.828	27824.92
770.164	27406.17
770.5	27519.62
770.836	27501.99
771.171	27214.31
771.507	27175.9
771.842	26937.94
772.178	26988.56
772.513	26908.56
772.849	26727.32
773.184	26605.29
773.519	26655.91
773.855	26535.46
774.19	26325.97
774.525	26226.99
774.86	26196.03
775.195	26219.76
775.53	26072.42
775.865	25867
776.2	25810.51
776.535	25540.91
776.87	25608.93
777.205	25467.47
777.539	25414.13
777.874	25458.2
778.209	25161.94
778.543	25086.46
778.878	24983.86
779.212	24939.34
779.547	24803.98
779.881	24803.98
780.215	24591.33
780.55	24759.46
780.884	24569.18
781.218	24432.92
781.552	24383.43
781.886	24312.92
782.22	24089.2
782.554	23963.1
782.888	23881.74
783.222	23780.5
783.556	23553.39
783.889	23662.99
784.223	23314.98
784.557	23342.55
784.89	23481.08
785.224	23286.73
785.557	23170.8
785.891	23097.58
786.224	22912.5
786.558	22963.13
786.891	22776.69
787.224	22692.17
787.557	22679.52
787.891	22602
788.224	22527.43
788.557	22501.67
788.89	22298.96
789.223	22366.76
789.556	22197.95
789.888	22150.27
790.221	22042.7
790.554	21876.37
790.887	21964.28
791.219	21791.4
791.552	21722.25
791.884	21678.19
792.217	21548.47
792.549	21475.25
792.882	21404.97
793.214	21196.39
793.546	21217.86
793.879	21096.96
794.211	21036.62
794.543	21098.32
794.875	20919.34
795.207	20976.28
795.539	20828.04
795.871	20791.88
796.203	20650.42
796.535	20551.89
796.867	20511.44
797.198	20399.8
797.53	20410.65
797.862	20298.79
798.193	20354.38
798.525	20149.41
798.856	20129.98
799.188	19966.82
799.519	19913.71
799.85	19831.91
800.182	19802.08
800.513	19786.03
800.844	19574.74
801.175	19674.62
801.506	19656.55
801.837	19521.41
802.168	19460.62
802.499	19296.33
802.83	19372.94
803.161	19273.5
803.491	19139.27
803.822	19275.76
804.153	19109.22
804.483	18992.16
804.814	18835.78
805.145	18859.28
805.475	18868.32
805.805	18795.78
806.136	18678.94
806.466	18716.46
806.796	18656.8
807.126	18489.57
807.457	18445.28
807.787	18449.8
808.117	18365.96
808.447	18321.21
808.777	18367.54
809.107	18241.67
809.436	18188.11
809.766	18126.87
810.096	18160.54
810.426	18077.15
810.755	18019.07
811.085	17959.64
811.414	17887.55
811.744	17847.78
812.073	17711.29
812.403	17742.7
812.732	17575.02
813.061	17707.22
813.39	17454.34
813.719	17490.95
814.049	17644.39
814.378	17419.99
814.707	17407.34
815.036	17396.04
815.365	17337.96
815.693	17184.29
816.022	17165.99
816.351	17043.05
816.68	16983.17
817.008	17067.69
817.337	16861.14
817.665	16830.86
817.994	16837.18
818.322	16845.77
818.651	16751.76
818.979	16674.7
819.307	16786.56
819.636	16683.06
819.964	16580.47
820.292	16564.88
820.62	16628.6
820.948	16498.89
821.276	16661.14
821.604	16481.26
821.932	16554.48
822.259	16566.46
822.587	16489.62
822.915	16420.02
823.243	16479.45
823.57	16420.47
823.898	16441.04
824.225	16378.89
824.553	16430.87
824.88	16394.94
825.207	16401.72
825.535	16364.65
825.862	16465.44
826.189	16378.89
826.516	16441.49
826.843	16533.69
827.17	16457.99
827.497	16494.59
827.824	16518.1
828.151	16400.59
828.478	16408.04
828.805	16444.65
829.131	16272.91
829.458	16333.69
829.785	16212.57
830.111	16291.66
830.438	16365.78
830.764	16368.27
831.09	16317.42
831.417	16245.11
831.743	16235.84
832.069	16268.84
832.395	16199.46
832.722	16222.06
833.048	16202.85
833.374	16229.29
833.7	16101.16
834.026	16097.09
834.351	16111.55
834.677	16022.29
835.003	16082.85
835.329	16020.71
835.654	16125.79
835.98	15937.77
836.306	16097.32
836.631	15972.57
836.956	15925.57
837.282	15976.19
837.607	15937.55
837.932	15837.89
838.258	15798.34
838.583	15851.67
838.908	15767.61
839.233	15726.71
839.558	15768.51
839.883	15662.98
840.208	15561.96
840.533	15618.01
840.858	15627.27
841.182	15617.56
841.507	15524.22
841.832	15558.57
842.156	15432.48
842.481	15393.83
842.805	15298.02
843.13	15307.51
843.454	15384.57
843.778	15283.55
844.103	15204.91
844.427	15189.09
844.751	15153.16
845.075	15112.71
845.399	15063.67
845.723	15013.28
846.047	14976.89
846.371	14897.35
846.695	14843.79
847.019	14707.07
847.343	14711.14
847.666	14583.91
847.99	14542.78
848.313	14528.32
848.637	14452.61
848.96	14375.1
849.284	14357.7
849.607	14289.91
849.931	14200.87
850.254	14091.95
850.577	14027.31
850.9	13988.22
851.223	13957.49
851.546	13900.31
851.869	13714.55
852.192	13841.78
852.515	13717.27
852.838	13660.32
853.161	13610.6
853.483	13626.65
853.806	13447.22
854.129	13492.41
854.451	13370.38
854.774	13352.3
855.096	13316.37
855.419	13319.99
855.741	13244.96
856.063	13171.07
856.385	13097.62
856.708	13137.62
857.03	13067.79
857.352	13065.31
857.674	13005.65
857.996	12952.09
858.318	12817.86
858.64	12870.06
858.961	12813.79
859.283	12820.34
859.605	12811.3
859.926	12820.79
860.248	12740.57
860.57	12661.93
860.891	12622.15
861.212	12574.25
861.534	12589.84
861.855	12496.73
862.176	12520.91
862.498	12455.83
862.819	12455.83
863.14	12370.86
863.461	12361.14
863.782	12369.51
864.103	12346.46
864.424	12292.22
864.745	12232.79
865.065	12219.23
865.386	12252.9
865.707	12160.47
866.027	12167.25
866.348	12141.71
866.668	12047.93
866.989	12116.4
867.309	11969.97
867.63	11978.56
867.95	12047.25
868.27	11896.98
868.59	11950.08
868.91	11925.68
869.23	11877.09
869.55	11801.38
869.87	11863.3
870.19	11791.67
870.51	11835.28
870.83	11793.93
871.15	11689.98
871.469	11665.79
871.789	11741.73
872.109	11680.71
872.428	11642.52
872.748	11612.69
873.067	11643.87
873.386	11681.39
873.706	11632.58
874.025	11470.09
874.344	11444.56
874.663	11456.53
874.982	11429.64
875.301	11439.36
875.62	11482.52
875.939	11355.97
876.258	11375.41
876.577	11319.36
876.896	11262.42
877.214	11313.04
877.533	11302.64
877.852	11244.56
878.17	11260.61
878.489	11314.39
878.807	11224.22
879.125	11236.88
879.444	11215.19
879.762	11179.48
880.08	11191.23
880.398	11022.87
880.716	11124.57
881.034	11118.46
881.352	11042.76
881.67	11082.76
881.988	11083.66
882.306	10999.6
882.624	10936.77
882.941	10948.3
883.259	10940.39
883.577	10887.28
883.894	10855.65
884.212	10858.81
884.529	10833.5
884.846	10809.32
885.164	10857.91
885.481	10711.47
885.798	10726.84
886.115	10680.96
886.432	10561.64
886.75	10626.5
887.067	10628.76
887.383	10570.68
887.7	10591.02
888.017	10605.71
888.334	10545.15
888.651	10458.6
888.967	10478.71
889.284	10482.55
889.6	10423.57
889.917	10286.85
890.233	10357.13
890.55	10264.25
890.866	10337.24
891.182	10230.35
891.498	10222.44
891.815	10163.01
892.131	10060.19
892.447	10103.12
892.763	10009.34
893.079	10028.78
893.395	10016.57
893.71	9922.79
894.026	9891.83
894.342	9858.61
894.657	9839.85
894.973	9810.7
895.289	9868.78
895.604	9814.77
895.92	9747.43
896.235	9714.21
896.55	9654.55
896.865	9661.33
897.181	9641.89
897.496	9591.73
897.811	9551.95
898.126	9525.74
898.441	9519.86
898.756	9476.02
899.071	9397.83
899.386	9401.67
899.7	9292.3
900.015	9271.28
900.33	9231.06
900.644	9218.85
900.959	9244.84
901.273	9169.14
901.588	9108.57
901.902	9091.4
902.216	9025.41
902.531	8961.23
902.845	8988.58
903.159	8942.93
903.473	8921.91
903.787	8866.32
904.101	8799.66
904.415	8759.88
904.729	8806.44
905.042	8753.56
905.356	8728.25
905.67	8765.76
905.984	8643.73
906.297	8602.82
906.611	8579.32
906.924	8585.42
907.237	8522.83
907.551	8470.4
907.864	8455.03
908.177	8424.98
908.491	8395.15
908.804	8316.73
909.117	8307.01
909.43	8275.38
909.743	8197.41
910.056	8254.81
910.368	8139.79
910.681	8104.76
910.994	8080.13
911.307	8046
911.619	8070.41
911.932	8021.37
912.244	7956.74
912.557	7938.66
912.869	7916.52
913.181	7943.41
913.494	7833.58
913.806	7757.88
914.118	7724.43
914.43	7699.12
914.742	7747.71
915.054	7624.77
915.366	7635.62
915.678	7560.82
915.99	7625.45
916.302	7570.76
916.613	7482.18
916.925	7483.76
917.236	7411.67
917.548	7389.98
917.859	7367.15
918.171	7298.9
918.482	7300.49
918.794	7271.56
919.105	7293.03
919.416	7147.5
919.727	7149.53
920.038	7133.03
920.349	7078.8
920.66	7039.7
920.971	7019.59
921.282	7017.33
921.593	6908.41
921.903	6925.58
922.214	6931.46
922.525	6830.67
922.835	6845.13
923.146	6805.36
923.456	6784.34
923.767	6734.4
924.077	6742.76
924.387	6678.58
924.697	6658.69
925.008	6634.51
925.318	6597.23
925.628	6578.02
925.938	6586.83
926.248	6474.07
926.558	6500.51
926.867	6495.08
927.177	6412.83
927.487	6411.47
927.796	6340.06
928.106	6296.22
928.416	6305.03
928.725	6332.83
929.034	6270.91
929.344	6279.5
929.653	6252.83
929.962	6169.22
930.271	6137.35
930.581	6080.18
930.89	6086.28
931.199	6049.45
931.508	6016.23
931.817	6017.58
932.125	5983.46
932.434	5966.06
932.743	5930.35
933.051	5906.85
933.36	5872.05
933.669	5846.96
933.977	5822.78
934.286	5839.28
934.594	5757.02
934.902	5722.22
935.21	5725.61
935.519	5718.15
935.827	5703.24
936.135	5633.86
936.443	5666.63
936.751	5611.94
937.059	5599.51
937.367	5586.63
937.674	5548.44
937.982	5534.43
938.29	5498.73
938.597	5501.66
938.905	5447.43
939.213	5460.99
939.52	5406.75
939.827	5410.14
940.135	5400.42
940.442	5342.8
940.749	5323.14
941.056	5274.1
941.363	5247.21
941.67	5289.92
941.977	5190.03
942.284	5188.9
942.591	5197.49
942.898	5131.05
943.205	5138.73
943.511	5111.17
943.818	5090.83
944.125	5039.3
944.431	5026.87
944.738	5009.92
945.044	4982.58
945.35	4957.27
945.657	4875.47
945.963	4908.01
946.269	4924.96
946.575	4849.25
946.881	4882.47
947.187	4823.49
947.493	4776.94
947.799	4771.96
948.105	4757.05
948.41	4723.6
948.716	4716.6
949.022	4709.37
949.327	4709.14
949.633	4649.93
949.938	4704.4
950.244	4604.06
950.549	4577.85
950.854	4579.2
951.16	4591.63
951.465	4496.04
951.77	4535.59
952.075	4512.76
952.38	4446.55
952.685	4439.09
952.99	4437.96
953.294	4387.57
953.599	4380.56
953.904	4382.82
954.209	4368.59
954.513	4313.67
954.818	4328.36
955.122	4320.23
955.426	4278.87
955.731	4202.04
956.035	4238.87
956.339	4227.35
956.643	4219.44
956.948	4192.09
957.252	4157.29
957.556	4138.99
957.86	4121.59
958.163	4062.15
958.467	4117.52
958.771	4105.32
959.075	4048.82
959.378	4008.6
959.682	4041.14
959.985	4030.29
960.289	3970.63
960.592	3987.58
960.896	3914.36
961.199	3906.22
961.502	3958.88
961.805	3898.09
962.108	3865.55
962.411	3853.12
962.714	3862.38
963.017	3820.8
963.32	3825.1
963.623	3804.31
963.926	3771.99
964.228	3712.33
964.531	3699.68
964.833	3692.67
965.136	3669.17
965.438	3648.15
965.741	3664.65
966.043	3623.75
966.345	3619.23
966.648	3624.65
966.95	3624.2
967.252	3588.72
967.554	3567.02
967.856	3601.37
968.158	3523.64
968.46	3547.82
968.761	3501.26
969.063	3493.58
969.365	3468.27
969.666	3453.36
969.968	3463.75
970.269	3409.74
970.571	3435.73
970.872	3427.82
971.174	3404.77
971.475	3388.95
971.776	3336.07
972.077	3354.83
972.378	3358.89
972.679	3356.41
972.98	3345.79
973.281	3310.31
973.582	3296.98
973.883	3235.73
974.183	3257.43
974.484	3236.64
974.785	3229.63
975.085	3174.72
975.386	3174.72
975.686	3143.53
975.986	3144.66
976.287	3153.7
976.587	3162.29
976.887	3097.43
977.187	3099.01
977.487	3070.31
977.787	3067.38
978.087	3022.41
978.387	3064.21
978.687	3023.31
978.987	2990.32
979.286	2960.71
979.586	2982.86
979.885	2951
980.185	2947.38
980.484	2945.12
980.784	2943.54
981.083	2937.89
981.382	2877.33
981.682	2906.48
981.981	2878.91
982.28	2882.3
982.579	2837.55
982.878	2872.35
983.177	2861.51
983.475	2844.78
983.774	2825.58
984.073	2795.07
984.372	2764.33
984.67	2758.01
984.969	2747.16
985.267	2730.89
985.566	2727.5
985.864	2716.65
986.162	2709.65
986.461	2695.86
986.759	2650.89
987.057	2654.05
987.355	2652.7
987.653	2617.67
987.951	2615.86
988.249	2591.01
988.547	2565.02
988.844	2591.46
989.142	2554.62
989.44	2568.18
989.737	2564.79
990.035	2515.53
990.332	2490.44
990.63	2508.75
990.927	2488.86
991.224	2515.75
991.521	2476.66
991.819	2498.8
992.116	2454.29
992.413	2426.26
992.71	2407.96
993.006	2388.07
993.303	2420.84
993.6	2394.85
993.897	2370.67
994.193	2355.76
994.49	2348.07
994.787	2360.73
995.083	2358.92
995.379	2318.02
995.676	2297
995.972	2300.39
996.268	2304.01
996.565	2298.81
996.861	2247.06
997.157	2245.25
997.453	2242.54
997.749	2221.75
998.044	2214.97
998.34	2232.6
998.636	2200.06
998.932	2193.05
999.227	2178.36
999.523	2186.72
999.818	2144.46
1000.114	2134.07
1000.409	2122.09
1000.704	2081.19
1001	2102.66
1001.295	2059.04
1001.59	2098.81
1001.885	2068.31
1002.18	2047.74
1002.475	2050.23
1002.77	2019.72
1003.065	2020.17
1003.359	2023.79
1003.654	2008.87
1003.949	2000.51
1004.243	1983.56
1004.538	1982.66
1004.832	1946.05
1005.127	1956.45
1005.421	1921.87
1005.715	1918.93
1006.009	1922.77
1006.304	1917.35
1006.598	1904.02
1006.892	1871.48
1007.186	1856.11
1007.48	1856.79
1007.773	1869.89
1008.067	1815.43
1008.361	1794.64
1008.655	1828.99
1008.948	1793.51
1009.242	1792.61
1009.535	1807.3
1009.829	1751.48
1010.122	1759.84
1010.415	1754.19
1010.708	1747.19
1011.001	1755.32
1011.295	1713.97
1011.588	1716
1011.881	1705.83
1012.173	1668.09
1012.466	1695.89
1012.759	1694.76
1013.052	1673.52
1013.344	1658.37
1013.637	1665.15
1013.93	1640.75
1014.222	1630.35
1014.514	1616.57
1014.807	1586.51
1015.099	1588.32
1015.391	1628.09
1015.683	1560.3
1015.976	1549.22
1016.268	1530.69
1016.56	1561.65
1016.851	1569.34
1017.143	1525.95
1017.435	1543.35
1017.727	1486.4
1018.018	1492.73
1018.31	1487.08
1018.602	1518.72
1018.893	1472.62
1019.185	1432.84
1019.476	1455.67
1019.767	1451.6
1020.058	1426.97
1020.35	1436.46
1020.641	1418.15
1020.932	1404.37
1021.223	1374.77
1021.514	1375.67
1021.804	1378.61
1022.095	1367.99
1022.386	1376.35
1022.677	1328.89
1022.967	1325.5
1023.258	1332.96
1023.548	1314.43
1023.839	1319.4
1024.129	1304.03
1024.419	1289.57
1024.709	1275.11
1025	1267.42
1025.29	1285.5
1025.58	1278.05
1025.87	1229.01
1026.16	1223.58
1026.449	1252.74
1026.739	1223.13
1027.029	1220.19
1027.319	1194.43
1027.608	1200.08
1027.898	1183.13
1028.187	1175
1028.477	1169.57
1028.766	1176.58
1029.055	1162.34
1029.344	1165.05
1029.634	1151.5
1029.923	1158.27
1030.212	1143.59
1030.501	1132.96
1030.79	1106.3
1031.078	1133.42
1031.367	1107.2
1031.656	1112.63
1031.945	1076.69
1032.233	1071.95
1032.522	1102.68
1032.81	1059.29
1033.099	1071.05
1033.387	1058.62
1033.675	1060.65
1033.963	1060.65
1034.251	1046.64
1034.54	1018.62
1034.828	1016.58
1035.116	1019.75
1035.403	1017.71
1035.691	975.68
1035.979	999.41
1036.267	991.95
1036.554	983.59
1036.842	979.3
1037.129	952.63
1037.417	932.97
1037.704	955.34
1037.992	964.83
1038.279	936.59
1038.566	935.91
1038.853	935.91
1039.14	935.91
