Data from breadboard_white_FLMS001491_00041.txt Node
Date: Wed Feb 08 10:47:46 GMT 2017
User: dcchb
Spectrometer: FLMS00149
Trigger mode: 0
Integration Time (sec): 2.000000E-2
Scans to average: 10
Electric dark correction enabled: true
Nonlinearity correction enabled: false
Boxcar width: 0
XAxis mode: Wavelengths
Number of Pixels in Spectrum: 2048
>>>>>Begin Spectral Data<<<<<
341.393	-17.92
341.776	-17.92
342.16	-17.92
342.543	-65.38
342.927	-40.75
343.31	-80.52
343.693	-85.27
344.077	-58.15
344.46	-41.2
344.843	-33.06
345.226	-38.49
345.61	-29.9
345.993	-35.55
346.376	12.36
346.759	2.42
347.142	11.91
347.525	36.31
347.908	46.48
348.291	88.51
348.674	95.29
349.057	108.85
349.44	113.15
349.823	151.34
350.206	156.99
350.588	232.69
350.971	231.56
351.354	234.73
351.737	252.58
352.119	283.54
352.502	259.81
352.884	285.8
353.267	293.26
353.65	297.77
354.032	292.58
354.414	314.5
354.797	339.81
355.179	329.86
355.562	335.06
355.944	339.13
356.326	353.37
356.709	353.82
357.091	345.68
357.473	359.92
357.855	352.91
358.238	360.82
358.62	355.17
359.002	352.91
359.384	363.76
359.766	342.75
360.148	364.44
360.53	359.92
360.912	361.05
361.294	333.03
361.676	361.95
362.057	338.68
362.439	337.77
362.821	345.46
363.203	340.03
363.584	357.89
363.966	362.86
364.348	349.3
364.729	333.25
365.111	335.29
365.493	321.28
365.874	343.88
366.256	356.76
366.637	330.77
367.019	334.84
367.4	341.84
367.781	346.13
368.163	348.85
368.544	333.03
368.925	349.3
369.306	349.3
369.688	338
370.069	350.65
370.45	329.86
370.831	356.98
371.212	348.85
371.593	335.97
371.974	340.71
372.355	338
372.736	345.23
373.117	344.78
373.498	330.09
373.879	362.63
374.26	371.9
374.641	361.95
375.021	353.59
375.402	353.14
375.783	364.89
376.163	374.38
376.544	360.82
376.925	386.81
377.305	372.57
377.686	372.12
378.066	368.51
378.447	358.56
378.827	383.87
379.208	375.74
379.588	399.24
379.968	386.81
380.349	399.24
380.729	379.35
381.109	385
381.489	398.34
381.87	402.63
382.25	401.27
382.63	397.89
383.01	407.6
383.39	392.91
383.77	410.31
384.15	417.09
384.53	426.36
384.91	395.63
385.29	422.52
385.67	427.26
386.049	411.44
386.429	433.82
386.809	447.15
387.189	446.25
387.568	448.96
387.948	429.97
388.328	462.29
388.707	444.89
389.087	433.14
389.466	466.13
389.846	462.97
390.225	466.36
390.605	472.91
390.984	471.56
391.363	479.24
391.743	490.76
392.122	477.66
392.501	508.16
392.881	495.96
393.26	501.16
393.639	504.55
394.018	527.15
394.397	522.63
394.776	533.02
395.155	541.61
395.534	563.76
395.913	537.32
396.292	538.9
396.671	571.67
397.05	559.69
397.429	592.68
397.808	577.54
398.186	594.04
398.565	594.72
398.944	608.95
399.323	602.63
399.701	598.78
400.08	624.55
400.458	654.83
400.837	633.36
401.215	645.34
401.594	659.57
401.972	686.69
402.351	671.32
402.729	713.13
403.107	735.5
403.486	709.29
403.864	734.15
404.242	750.64
404.62	760.81
404.999	770.08
405.377	782.28
405.755	779.34
406.133	820.47
406.511	806.01
406.889	857.76
407.267	864.99
407.645	852.11
408.023	885.1
408.401	907.48
408.779	913.35
409.156	934.14
409.534	933.46
409.912	948.15
410.29	994.48
410.667	1010.07
411.045	1013.24
411.422	1061.37
411.8	1028.83
412.178	1071.99
412.555	1100.92
412.933	1102.5
413.31	1144.31
413.687	1146.34
414.065	1167.13
414.442	1177.3
414.819	1228.82
415.197	1234.7
415.574	1256.85
415.951	1285.55
416.328	1283.06
416.705	1312.66
417.082	1321.02
417.46	1335.94
417.837	1365.77
418.214	1389.05
418.591	1399.21
418.967	1392.44
419.344	1432.89
419.721	1461.36
420.098	1461.59
420.475	1520.12
420.852	1512.66
421.228	1529.15
421.605	1547.69
421.982	1571.87
422.358	1564.41
422.735	1578.87
423.111	1589.94
423.488	1615.71
423.864	1635.37
424.241	1676.72
424.617	1728.47
424.994	1702.48
425.37	1722.37
425.746	1765.98
426.123	1768.92
426.499	1792.88
426.875	1817.06
427.251	1839.66
427.627	1887.11
428.003	1895.92
428.379	1919.65
428.756	1942.25
429.132	2008.46
429.507	2026.99
429.883	2051.63
430.259	2083.26
430.635	2109.03
431.011	2138.4
431.387	2164.17
431.763	2197.39
432.138	2201.23
432.514	2245.07
432.89	2261.11
433.265	2323.48
433.641	2335.91
434.016	2394.22
434.392	2384.73
434.767	2434.89
435.143	2443.93
435.518	2467.21
435.894	2510.15
436.269	2570.71
436.644	2568.22
437.02	2609.8
437.395	2627.43
437.77	2651.61
438.145	2712.4
438.52	2746.07
438.895	2759.63
439.271	2775.68
439.646	2860.65
440.021	2827.43
440.395	2862.9
440.77	2859.74
441.145	2874.2
441.52	2972.51
441.895	2943.35
442.27	2981.09
442.645	2997.82
443.019	3042.79
443.394	3020.64
443.769	3113.97
444.143	3076.46
444.518	3114.42
444.892	3132.95
445.267	3153.29
445.641	3212.05
446.016	3189
446.39	3253.86
446.764	3276.23
447.139	3276
447.513	3351.48
447.887	3329.56
448.262	3378.15
448.636	3373.63
449.01	3458.14
449.384	3465.6
449.758	3472.83
450.132	3516
450.506	3527.97
450.88	3559.84
451.254	3553.06
451.628	3632.38
452.002	3640.29
452.376	3699.27
452.75	3769.77
453.123	3775.88
453.497	3835.53
453.871	3838.7
454.244	3925.93
454.618	3970.9
454.992	3977.45
455.365	4047.73
455.739	4128.86
456.112	4160.95
456.486	4228.29
456.859	4278.91
457.232	4305.8
457.606	4333.83
457.979	4428.74
458.352	4500.38
458.725	4503.09
459.099	4598.23
459.472	4721.84
459.845	4696.98
460.218	4697.88
460.591	4826.02
460.964	4809.07
461.337	4927.03
461.71	5042.51
462.083	5121.15
462.456	5094.26
462.829	5122.05
463.201	5223.97
463.574	5254.48
463.947	5352.11
464.32	5384.87
464.692	5476.85
465.065	5541.7
465.438	5670.74
465.81	5698.76
466.183	5792.77
466.555	5901.7
466.928	5929.72
467.3	5943.95
467.672	6018.53
468.045	6162.71
468.417	6233.89
468.789	6283.61
469.161	6339.42
469.534	6492.64
469.906	6604.28
470.278	6604.05
470.65	6734.89
471.022	6885.4
471.394	6998.62
471.766	7060.08
472.138	7060.31
472.51	7304.82
472.882	7382.56
473.253	7496.23
473.625	7605.15
473.997	7786.17
474.369	7839.72
474.74	7911.81
475.112	8096.21
475.484	8166.04
475.855	8359.94
476.227	8377.11
476.598	8684.9
476.97	8674.05
477.341	8978
477.713	9074.49
478.084	9158.56
478.455	9380.02
478.827	9424.99
479.198	9748.15
479.569	9805.1
479.94	10049.83
480.311	10109.27
480.682	10353.56
481.053	10595.81
481.424	10798.29
481.795	10816.82
482.166	11056.14
482.537	11170.94
482.908	11362.34
483.279	11542.9
483.65	11767.53
484.021	12028.09
484.391	12122.55
484.762	12221.75
485.133	12397.57
485.503	12619.26
485.874	12829.2
486.244	12939.93
486.615	13123.2
486.985	13425.11
487.356	13647.93
487.726	13676.86
488.097	13952.1
488.467	14109.61
488.837	14369.72
489.207	14482.03
489.578	14731.29
489.948	14858.07
490.318	15135.35
490.688	15159.3
491.058	15442.46
491.428	15692.4
491.798	15806.29
492.168	16102.33
492.538	16206.06
492.908	16431.36
493.278	16535.09
493.648	16595.88
494.017	16793.39
494.387	16934.4
494.757	17234.5
495.126	17289.87
495.496	17441.73
495.866	17518.79
496.235	17799.91
496.605	17886.92
496.974	17957.65
497.344	18232.67
497.713	18328.94
498.082	18567.12
498.452	18677.4
498.821	18772.54
499.19	18958.3
499.559	19150.16
499.928	19300.21
500.298	19318.52
500.667	19490.94
501.036	19476.25
501.405	19650.49
501.774	19825.85
502.143	20005.05
502.512	20048.22
502.88	20262.67
503.249	20315.33
503.618	20434.19
503.987	20607.52
504.356	20820.17
504.724	20948.31
505.093	20992.6
505.462	21146.94
505.83	21348.75
506.199	21404.56
506.567	21747.38
506.936	21669.87
507.304	21893.14
507.672	22079.57
508.041	22282.73
508.409	22348.95
508.777	22496.29
509.145	22655.15
509.514	22892.43
509.882	22967.69
510.25	22950.96
510.618	23287.23
510.986	23309.6
511.354	23660.32
511.722	23729.7
512.09	24045.62
512.458	24007.21
512.826	24244.26
513.193	24425.73
513.561	24485.84
513.929	24853.74
514.297	24942.1
514.664	25168.99
515.032	25364.69
515.4	25482.88
515.767	25608.97
516.135	25740.04
516.502	25680.61
516.869	26181.61
517.237	26279.24
517.604	26261.84
517.972	26700.92
518.339	26799.68
518.706	26950.18
519.073	27044.19
519.44	27375.48
519.808	27580.45
520.175	27559.43
520.542	27916.94
520.909	28001.9
521.276	28244.38
521.643	28469.46
522.009	28650.93
522.376	28929.79
522.743	29070.8
523.11	29228.99
523.477	29669.66
523.843	29759.15
524.21	30141.51
524.577	30298.79
524.943	30422.86
525.31	30766.8
525.676	30954.37
526.043	31161.82
526.409	31308.94
526.776	31695.59
527.142	31783.95
527.508	31973.1
527.874	32135.13
528.241	32402.02
528.607	32468.91
528.973	32940.08
529.339	32875
529.705	33220.75
530.071	33459.61
530.437	33591.36
530.803	33961.52
531.169	34025.02
531.535	34035.87
531.901	34139.37
532.267	34489.64
532.632	34650.54
532.998	34754.72
533.364	34930.08
533.73	35108.16
534.095	35369.62
534.461	35377.53
534.826	35726.67
535.192	35783.85
535.557	36082.6
535.923	36067.68
536.288	36342.93
536.653	36463.38
537.019	36400.1
537.384	36572.53
537.749	36785.4
538.114	36810.71
538.479	36876.02
538.845	37130.03
539.21	37104.26
539.575	37360.3
539.94	37512.62
540.305	37694.98
540.67	37772.27
541.034	37882.78
541.399	38073.05
541.764	38103.79
542.129	38352.82
542.494	38358.92
542.858	38474.85
543.223	38652.92
543.587	38811.79
543.952	38817.89
544.316	39021.05
544.681	39044.33
545.045	39263.98
545.41	39388.5
545.774	39547.82
546.138	39527.48
546.503	39630.53
546.867	39739.9
547.231	40011.98
547.595	40134.92
547.959	40306.67
548.324	40249.49
548.688	40356.38
549.052	40725.41
549.416	40702.14
549.779	40697.62
550.143	40997.5
550.507	41140.09
550.871	41232.97
551.235	41277.71
551.599	41632.96
551.962	41680.87
552.326	41804.93
552.689	42155.21
553.053	41928.54
553.417	42056
553.78	42528.75
554.143	42488.98
554.507	42666.83
554.87	42829.31
555.234	43187.72
555.597	43069.76
555.96	43343.2
556.323	43293.25
556.686	43443.08
557.05	43781.83
557.413	43830.19
557.776	44057.75
558.139	44266.56
558.502	44360.12
558.865	44396.95
559.228	44811.63
559.59	44841.24
559.953	45076.03
560.316	45448.23
560.679	45382.24
561.041	45647.77
561.404	45817.48
561.767	46054.76
562.129	45953.75
562.492	46478.71
562.854	46358.71
563.217	46384.92
563.579	46579.04
563.941	46795.76
564.304	47050.44
564.666	47138.35
565.028	47267.84
565.39	47445.69
565.753	47829.86
566.115	47819.24
566.477	48035.73
566.839	48078.67
567.201	48394.36
567.563	48332.67
567.925	48758.87
568.287	48678.42
568.648	48828.25
569.01	48964.74
569.372	49290.16
569.734	49177.62
570.095	49323.6
570.457	49616.93
570.819	49592.75
571.18	49708.23
571.542	49935.57
571.903	49862.8
572.265	50011.27
572.626	50131.04
572.987	50153.64
573.349	50275.22
573.71	50249.23
574.071	50476.12
574.432	50663.91
574.794	50817.12
575.155	50791.81
575.516	50775.77
575.877	50881.08
576.238	50954.07
576.599	51071.13
576.96	51082.43
577.32	51205.81
577.681	51291.91
578.042	51318.58
578.403	51316.32
578.763	51319.26
579.124	51500.27
579.485	51538.69
579.845	51582.3
580.206	51590.44
580.566	51590.44
580.927	51785.23
581.287	51763.77
581.648	51669.98
582.008	51763.99
582.368	51747.04
582.728	51803.77
583.089	51747.27
583.449	51806.02
583.809	51810.09
584.169	51898.9
584.529	51808.28
584.889	52036.98
585.249	51814.84
585.609	51902.29
585.969	51941.16
586.329	51968.73
586.688	51953.37
587.048	51959.47
587.408	51961.73
587.768	51922.41
588.127	51964.66
588.487	51827.27
588.846	52130.31
589.206	51900.49
589.565	51915.17
589.925	52023.65
590.284	51998.79
590.643	51986.13
591.003	52053.48
591.362	52255.73
591.721	52136.64
592.08	52139.12
592.44	52196.3
592.799	52058
593.158	52118.11
593.517	52082.4
593.876	52123.08
594.235	52056.41
594.593	52086.02
594.952	52210.08
595.311	52117.43
595.67	52179.35
596.029	52380.02
596.387	52309.97
596.746	52472.45
597.104	52309.74
597.463	52253.02
597.822	52388.83
598.18	52366.01
598.538	52321.94
598.897	52461.15
599.255	52202.4
599.613	52628.83
599.972	52432
600.33	52587.93
600.688	52359
601.046	52572.11
601.404	52647.81
601.762	52520.36
602.12	52673.35
602.478	52712.89
602.836	52664.76
603.194	52619.34
603.552	52724.42
603.91	52645.1
604.268	52738.66
604.625	52694.14
604.983	52756.51
605.341	52689.39
605.698	52817.3
606.056	52888.93
606.413	52863.17
606.771	52929.84
607.128	52989.5
607.485	52843.06
607.843	52865.43
608.2	53041.47
608.557	53199.21
608.914	53087.57
609.272	53261.35
609.629	53289.6
609.986	53374.12
610.343	53195.59
610.7	53407.79
611.057	53359.88
611.414	53269.49
611.771	53299.32
612.127	53543.61
612.484	53435.59
612.841	53508.13
613.198	53459.54
613.554	53455.25
613.911	53651.63
614.267	53626.09
614.624	53639.42
614.98	53659.08
615.337	53731.4
615.693	53679.87
616.05	53770.49
616.406	53992.41
616.762	53800.55
617.118	53741.34
617.475	53789.02
617.831	53897.04
618.187	53925.29
618.543	53925.74
618.899	54016.14
619.255	53928
619.611	54038.51
619.967	54012.07
620.323	54168.45
620.678	53985.18
621.034	53994.67
621.39	53974.1
621.746	53928
622.101	54254.77
622.457	53991.73
622.812	54078.51
623.168	54099.07
623.523	54150.37
623.879	54237.6
624.234	54017.49
624.589	54093.2
624.945	54166.19
625.3	54137.49
625.655	54148.56
626.01	54146.08
626.365	54200.99
626.72	54168.9
627.075	54118.51
627.43	54053.65
627.785	54023.14
628.14	54039.86
628.495	54127.09
628.85	54003.93
629.205	53966.19
629.559	53995.35
629.914	53860.66
630.269	53990.6
630.623	53858.63
630.978	53878.74
631.332	53909.25
631.687	53938.62
632.041	53863.37
632.396	53886.87
632.75	53760.55
633.104	53781.57
633.459	53584.06
633.813	53698.4
634.167	53691.62
634.521	53635.81
634.875	53657.95
635.229	53563.94
635.583	53450.73
635.937	53510.61
636.291	53358.98
636.645	53465.64
636.999	53267.46
637.352	53322.37
637.706	53198.76
638.06	53333.89
638.413	53297.96
638.767	53190.62
639.121	53225.42
639.474	52966.9
639.828	53062.71
640.181	52991.53
640.534	53074.47
640.888	52881.02
641.241	52775.72
641.594	52944.98
641.947	53005.32
642.301	52850.52
642.654	52910.63
643.007	52895.26
643.36	52787.69
643.713	52664.53
644.066	52859.1
644.419	52681.71
644.771	52464.76
645.124	52191.78
645.477	52125.56
645.83	51859.13
646.182	51676.54
646.535	51561.29
646.888	51590.66
647.24	51384.34
647.593	51760.6
647.945	51565.58
648.298	51349.77
648.65	51324
649.002	51246.49
649.355	51299.82
649.707	51252.59
650.059	51380.27
650.411	51792.69
650.763	51838.11
651.115	52123.98
651.467	52053.25
651.819	51960.82
652.171	51881.05
652.523	51847.83
652.875	51858.45
653.227	51701.17
653.578	51833.82
653.93	51799.02
654.282	51683.09
654.633	51537.78
654.985	51693.03
655.337	51712.24
655.688	51685.35
656.039	51705.69
656.391	51536.43
656.742	51494.85
657.094	51614.84
657.445	51600.15
657.796	51534.17
658.147	51497.33
658.498	51533.94
658.849	51452.14
659.2	51477.9
659.551	51312.93
659.902	51557.9
660.253	51504.11
660.604	51505.92
660.955	51315.87
661.306	51432.48
661.656	51193.16
662.007	51377.34
662.358	51314.51
662.708	51283.1
663.059	51205.81
663.409	50940.51
663.76	51257.56
664.11	51127.4
664.461	51154.29
664.811	51191.13
665.161	51281.97
665.511	51039.27
665.862	51170.34
666.212	51190.45
666.562	51188.64
666.912	51039.72
667.262	51008.53
667.612	51023.45
667.962	51113.39
668.312	50977.35
668.662	51159.26
669.011	50967.18
669.361	50978.7
669.711	50985.03
670.06	50892.38
670.41	50837.24
670.76	50795.43
671.109	50911.13
671.459	50862.77
671.808	50756.11
672.157	50921.3
672.507	50625.72
672.856	50614.87
673.205	50685.15
673.554	50785.71
673.904	50578.94
674.253	50842.89
674.602	50579.62
674.951	50303.24
675.3	49912.74
675.649	50503.23
675.998	50485.16
676.346	50564.93
676.695	50598.37
677.044	50261.43
677.393	50388.21
677.741	50481.77
678.09	50251.94
678.438	50247.2
678.787	50293.75
679.135	50202.9
679.484	50137.59
679.832	50291.04
680.181	49945.73
680.529	50009.01
680.877	49988.22
681.225	49868.22
681.573	50184.82
681.922	49828.9
682.27	49720.43
682.618	49736.7
682.966	49759.3
683.314	49757.04
683.661	49717.04
684.009	49486.76
684.357	49436.82
684.705	49313.66
685.053	49391.85
685.4	49216.04
685.748	49028.02
686.095	49058.3
686.443	48880.68
686.79	48840.68
687.138	48912.99
687.485	49000.9
687.832	48741.02
688.18	48807.69
688.527	48511.42
688.874	48570.86
689.221	48449.95
689.568	48356.17
689.915	48111.43
690.262	48224.65
690.609	48248.38
690.956	48056.29
691.303	47874.83
691.65	47910.31
691.997	47755.51
692.344	47576.98
692.69	47648.62
693.037	47569.75
693.383	47242.75
693.73	47329.53
694.077	47068.3
694.423	47040.05
694.769	46968.19
695.116	46791.24
695.462	46748.08
695.808	46540.85
696.155	46862.2
696.501	46324.59
696.847	46350.8
697.193	46176.79
697.539	46198.04
697.885	45976.12
698.231	45803.02
698.577	45778.84
698.923	45607.09
699.269	45559.18
699.614	45276.93
699.96	45354.44
700.306	45359.87
700.651	45100.44
700.997	44895.02
701.342	44898.86
701.688	44865.64
702.033	44840.33
702.379	44677.17
702.724	44660.22
703.069	44754.68
703.415	44198.54
703.76	44182.95
704.105	44203.74
704.45	44014.14
704.795	43763.75
705.14	43806.01
705.485	43817.31
705.83	43602.62
706.175	43569.86
706.52	43456.87
706.865	43239.47
707.209	43278.34
707.554	43075.18
707.899	43150.66
708.243	42828.63
708.588	42853.49
708.932	42692.82
709.277	42664.12
709.621	42635.42
709.966	42313.39
710.31	42552.93
710.654	42033.17
710.998	42188.88
711.342	42159.5
711.687	41983.68
712.031	41891.94
712.375	41627.31
712.719	41803.35
713.063	41539.18
713.407	41783.69
713.75	41421.21
714.094	41443.36
714.438	41136.47
714.782	41358.62
715.125	41126.08
715.469	41212.41
715.812	40951.39
716.156	40717.5
716.499	40915.24
716.843	40717.73
717.186	40623.04
717.53	40842.7
717.873	40784.62
718.216	40543.5
718.559	40445.42
718.902	40241.58
719.246	40169.27
719.589	40122.49
719.932	40013.79
720.275	40112.55
720.617	40031.87
720.96	39847.24
721.303	39832.55
721.646	39843.18
721.989	39545.78
722.331	39651.32
722.674	39562.05
723.016	39564.76
723.359	39410.19
723.701	39359.57
724.044	39109.86
724.386	39063.99
724.729	39150.31
725.071	39113.93
725.413	39044.55
725.755	38986.7
726.097	38715.07
726.439	38594.17
726.782	38571.8
727.124	38815.63
727.465	38552.81
727.807	38592.36
728.149	38360.5
728.491	38320.73
728.833	38314.85
729.175	38286.38
729.516	38161.41
729.858	38062.88
730.199	38163.67
730.541	37918.25
730.882	37892.27
731.224	38093.17
731.565	37710.58
731.906	37753.74
732.248	37835.09
732.589	37574.31
732.93	37551.26
733.271	37478.04
733.612	37470.13
733.953	37401.88
734.294	37261.1
734.635	37156.92
734.976	37341.77
735.317	37085.51
735.658	37075.79
735.999	37061.1
736.339	36849.81
736.68	37089.35
737.021	36873.99
737.361	36580.66
737.702	36878.51
738.042	36618.85
738.383	36595.58
738.723	36738.62
739.063	36412.98
739.404	36645.75
739.744	36442.14
740.084	36360.56
740.424	36417.28
740.764	36348.13
741.104	36453.66
741.444	36062.26
741.784	36033.56
742.124	36172.76
742.464	35916.5
742.804	35881.92
743.143	35888.25
743.483	35921.92
743.823	35608.94
744.162	35630.4
744.502	35710.85
744.841	35484.19
745.181	35624.76
745.52	35340.47
745.86	35463.18
746.199	35395.61
746.538	35376.63
746.877	35329.4
747.216	35283.3
747.556	35126.92
747.895	35143.41
748.234	34963.76
748.573	34922.17
748.911	34808.05
749.25	34835.4
749.589	34663.88
749.928	34682.41
750.267	34648.06
750.605	34518.34
750.944	34358.12
751.283	34308.41
751.621	34419.82
751.96	34179.14
752.298	34130.78
752.636	34182.53
752.975	34002.65
753.313	33796.55
753.651	34108.19
753.989	33848.3
754.327	33775.99
754.666	33595.43
755.004	33566.96
755.342	33533.96
755.679	33536.9
756.017	33262.11
756.355	33331.26
756.693	33148.66
757.031	33201.32
757.368	32959.29
757.706	33082
758.044	32830.03
758.381	32882.68
758.719	32739.86
759.056	32735.11
759.394	32585.97
759.731	32350.94
760.068	32412.41
760.405	32242.25
760.743	32067.79
761.08	32181.68
761.417	32027.56
761.754	31976.04
762.091	31804.74
762.428	31684.07
762.765	31494.69
763.102	31581.02
763.438	31426
763.775	31282.72
764.112	31359.78
764.449	31155.27
764.785	31023.97
765.122	30850.19
765.458	30711.44
765.795	30680.25
766.131	30822.85
766.467	30492.01
766.804	30405.91
767.14	30224.67
767.476	30262.41
767.812	30072.81
768.148	30113.04
768.485	29864
768.821	29863.78
769.157	29735.42
769.492	29700.17
769.828	29575.87
770.164	29372.04
770.5	29273.06
770.836	29241.87
771.171	29175.89
771.507	29127.75
771.842	28907.87
772.178	28885.5
772.513	28684.82
772.849	28646.63
773.184	28454.77
773.519	28516.69
773.855	28334.1
774.19	28203.26
774.525	28279.86
774.86	28144.95
775.195	27997.16
775.53	27986.76
775.865	27775.02
776.2	27502.03
776.535	27477.17
776.87	27469.94
777.205	27274.47
777.539	27129.39
777.874	27164.19
778.209	26966.68
778.543	26983.4
778.878	26742.28
779.212	26753.8
779.547	26606.24
779.881	26590.19
780.215	26372.34
780.55	26460.93
780.884	26270.65
781.218	26265.91
781.552	26126.25
781.886	25987.72
782.22	25847.84
782.554	25769.42
782.888	25501.63
783.222	25494.85
783.556	25415.76
783.889	25338.92
784.223	25189.55
784.557	25056.45
784.89	25159.49
785.224	25060.97
785.557	24860.52
785.891	24830.24
786.224	24819.16
786.558	24751.59
786.891	24561.54
787.224	24410.59
787.557	24254.88
787.891	24329.69
788.224	24245.39
788.557	24165.62
788.89	24100.09
789.223	24085.4
789.556	23901
789.888	23829.81
790.221	23824.84
790.554	23634.79
790.887	23625.52
791.219	23401.57
791.552	23395.02
791.884	23312.08
792.217	23251.07
792.549	23117.97
792.882	22938.99
793.214	22930.85
793.546	23004.3
793.879	22823.06
794.211	22626.68
794.543	22756.62
794.875	22642.72
795.207	22640.46
795.539	22506.91
795.871	22487.47
796.203	22295.16
796.535	22179.46
796.867	22159.8
797.198	22078.67
797.53	22081.16
797.862	21897.43
798.193	21968.84
798.525	21727.27
798.856	21823.99
799.188	21583.54
799.519	21558.01
799.85	21365.02
800.182	21407.28
800.513	21417.67
800.844	21127.51
801.175	21363.44
801.506	21265.58
801.837	21159.82
802.168	21039.6
802.499	20975.65
802.83	20854.97
803.161	20877.57
803.491	20845.26
803.822	20748.76
804.153	20703.34
804.483	20431.71
804.814	20501.09
805.145	20464.48
805.475	20359.85
805.805	20345.38
806.136	20315.78
806.466	20290.92
806.796	20219.96
807.126	20055
807.457	20002.34
807.787	19971.83
808.117	19918.05
808.447	19840.09
808.777	19918.05
809.107	19787.43
809.436	19824.49
809.766	19653.65
810.096	19598.06
810.426	19496.82
810.755	19502.69
811.085	19478.51
811.414	19452.98
811.744	19240.33
812.073	19190.16
812.403	19198.07
812.732	19125.08
813.061	19130.27
813.39	19016.6
813.719	19011.41
814.049	19032.2
814.378	18977.28
814.707	18875.82
815.036	18875.59
815.365	18745.43
815.693	18600.34
816.022	18674.92
816.351	18508.14
816.68	18417.98
817.008	18531.19
817.337	18236.06
817.665	18254.14
817.994	18406.9
818.322	18267.92
818.651	18214.82
818.979	18097.98
819.307	18199.9
819.636	18089.62
819.964	18030.42
820.292	18062.28
820.62	18022.51
820.948	18053.69
821.276	18050.3
821.604	17987.03
821.932	18067.02
822.259	18020.7
822.587	17959.01
822.915	17893.7
823.243	18043.97
823.57	17943.19
823.898	17933.47
824.225	17852.79
824.553	17903.87
824.88	17899.57
825.207	17959.46
825.535	17807.37
825.862	17877.65
826.189	17852.12
826.516	18001.72
826.843	18001.04
827.17	17806.47
827.497	17864.77
827.824	17888.27
828.151	17969.63
828.478	17876.07
828.805	17973.24
829.131	17834.04
829.458	17876.52
829.785	17798.56
830.111	17772.12
830.438	17971.89
830.764	17740.25
831.09	17861.38
831.417	17757.43
831.743	17814.38
832.069	17783.19
832.395	17728.05
832.722	17752.68
833.048	17637.88
833.374	17714.27
833.7	17580.71
834.026	17654.83
834.351	17646.7
834.677	17572.12
835.003	17580.94
835.329	17633.14
835.654	17529.64
835.98	17432.01
836.306	17476.31
836.631	17451.45
836.956	17549.75
837.282	17451.9
837.607	17372.81
837.932	17309.98
838.258	17329.19
838.583	17246.03
838.908	17163.55
839.233	17199.7
839.558	17118.8
839.883	17144.79
840.208	17083.32
840.533	17111.8
840.858	17072.47
841.182	17072.47
841.507	17040.84
841.832	16924.46
842.156	16881.75
842.481	16786.61
842.805	16953.83
843.13	16796.32
843.454	16760.84
843.778	16745.03
844.103	16727.17
844.427	16710.68
844.751	16696.67
845.075	16605.14
845.399	16573.5
845.723	16423
846.047	16472.49
846.371	16185.72
846.695	16417.12
847.019	16182.55
847.343	16125.16
847.666	16046.51
847.99	15938.72
848.313	15869.57
848.637	15823.02
848.96	15768.1
849.284	15775.56
849.607	15647.43
849.931	15637.26
850.254	15455.12
850.577	15451.95
850.9	15358.85
851.223	15357.49
851.546	15220.09
851.869	15124.28
852.192	15194.33
852.515	15104.17
852.838	14968.58
853.161	15077.05
853.483	14985.07
853.806	14886.54
854.129	14896.71
854.451	14782.14
854.774	14694.01
855.096	14662.14
855.419	14592.09
855.741	14594.8
856.063	14502.15
856.385	14440.91
856.708	14405.88
857.03	14313.23
857.352	14351.87
857.674	14277.52
857.996	14309.38
858.318	14200.91
858.64	14164.75
858.961	14096.96
859.283	14146.22
859.605	13999.11
859.926	14117.07
860.248	13997.75
860.57	13909.17
860.891	14035.27
861.212	13789.62
861.534	13784.2
861.855	13826.23
862.176	13800.92
862.498	13770.41
862.819	13711.66
863.14	13759.79
863.461	13699.91
863.782	13594.83
864.103	13558.22
864.424	13585.79
864.745	13585.33
865.065	13444.55
865.386	13514.83
865.707	13440.03
866.027	13478.67
866.348	13380.59
866.668	13341.05
866.989	13375.4
867.309	13181.5
867.63	13282.52
867.95	13209.3
868.27	13170.66
868.59	13195.51
868.91	13168.4
869.23	13148.74
869.55	13042.75
869.87	13174.27
870.19	13092.69
870.51	13116.65
870.83	13058.57
871.15	12988.29
871.469	12986.25
871.789	12875.75
872.109	12913.04
872.428	12864.45
872.748	12866.03
873.067	12941.96
873.386	12885.24
873.706	12827.39
874.025	12742.19
874.344	12700.16
874.663	12768.41
874.982	12734.06
875.301	12702.19
875.62	12663.55
875.939	12614.74
876.258	12645.92
876.577	12572.48
876.896	12599.6
877.214	12570.22
877.533	12596.21
877.852	12558.92
878.17	12632.59
878.489	12578.58
878.807	12528.41
879.125	12414.97
879.444	12522.09
879.762	12421.75
880.08	12411.58
880.398	12280.96
880.716	12354.41
881.034	12336.1
881.352	12382.43
881.67	12372.94
881.988	12270.12
882.306	12239.61
882.624	12248.42
882.941	12274.18
883.259	12076.45
883.577	12107.18
883.894	12072.38
884.212	12128.42
884.529	12079.16
884.846	11928.88
885.164	12034.19
885.481	11962.33
885.798	11961.65
886.115	11852.73
886.432	11932.05
886.75	11874.65
887.067	11887.98
887.383	11812.95
887.7	11814.53
888.017	11748.1
888.334	11789
888.651	11697.47
888.967	11715.55
889.284	11607.08
889.6	11558.04
889.917	11527.54
890.233	11489.12
890.55	11484.37
890.866	11473.98
891.182	11444.37
891.498	11392.85
891.815	11393.53
892.131	11315.34
892.447	11300.42
892.763	11251.61
893.079	11204.15
893.395	11182.23
893.71	11166.64
894.026	11119.41
894.342	11154.89
894.657	11061.56
894.973	10985.4
895.289	10978.85
895.604	10974.33
895.92	10911.96
896.235	10850.27
896.55	10860.21
896.865	10850.49
897.181	10781.34
897.496	10777.27
897.811	10626.54
898.126	10620.89
898.441	10549.71
898.756	10618.63
899.071	10566.88
899.386	10534.34
899.7	10384.52
900.015	10408.92
900.33	10355.36
900.644	10377.74
900.959	10295.25
901.273	10261.81
901.588	10227.01
901.902	10185.88
902.216	10133
902.531	10127.8
902.845	10015.49
903.159	10014.13
903.473	10008.25
903.787	9926.67
904.101	9861.37
904.415	9888.48
904.729	9816.62
905.042	9788.82
905.356	9827.02
905.67	9728.94
905.984	9695.49
906.297	9664.53
906.611	9561.94
906.924	9635.83
907.237	9515.39
907.551	9509.96
907.864	9496.18
908.177	9427.7
908.491	9507.93
908.804	9386.58
909.117	9354.94
909.43	9248.05
909.743	9184.55
910.056	9233.36
910.368	9165.34
910.681	9167.6
910.994	9157.88
911.307	9016.87
911.619	9015.74
911.932	9053.7
912.244	8953.14
912.557	8909.75
912.869	8890.54
913.181	8884.67
913.494	8843.99
913.806	8763.31
914.118	8739.81
914.43	8643.54
914.742	8697.33
915.054	8621.85
915.366	8615.3
915.678	8541.63
915.99	8521.51
916.302	8440.61
916.613	8422.08
916.925	8389.99
917.236	8401.29
917.548	8299.82
917.859	8351.12
918.171	8267.28
918.482	8197.45
918.794	8157.46
919.105	8205.59
919.416	8099.15
919.727	8100.28
920.038	8056.21
920.349	8036.33
920.66	7977.12
920.971	7970.34
921.282	7876.78
921.593	7834.98
921.903	7870.68
922.214	7761.53
922.525	7744.81
922.835	7764.47
923.146	7671.59
923.456	7694.19
923.767	7661.87
924.077	7642.44
924.387	7552.73
924.697	7538.94
925.008	7528.32
925.318	7447.42
925.628	7440.64
925.938	7424.37
926.248	7372.84
926.558	7393.18
926.867	7325.39
927.177	7260.53
927.487	7245.84
927.796	7183.24
928.106	7191.83
928.416	7156.35
928.725	7158.16
929.034	7084.71
929.344	7138.27
929.653	7068.44
929.962	7027.77
930.271	6961.33
930.581	6939.63
930.89	6917.71
931.199	6887.66
931.508	6857.38
931.817	6816.93
932.125	6804.04
932.434	6758.17
932.743	6712.3
933.051	6695.57
933.36	6653.54
933.669	6602.47
933.977	6640.66
934.286	6582.13
934.594	6585.07
934.902	6522.02
935.21	6461.45
935.519	6453.55
935.827	6418.52
936.135	6437.05
936.443	6383.49
936.751	6321.8
937.059	6349.59
937.367	6320.89
937.674	6350.5
937.982	6250.39
938.29	6156.38
938.597	6222.82
938.905	6169.94
939.213	6158.86
939.52	6091.97
939.827	6116.6
940.135	6068.92
940.442	6022.6
940.749	6022.82
941.056	6009.94
941.363	5912.99
941.67	5906.21
941.977	5869.38
942.284	5873
942.591	5870.74
942.898	5846.78
943.205	5835.03
943.511	5827.8
943.818	5806.78
944.125	5721.36
944.431	5708.25
944.738	5696.95
945.044	5688.14
945.35	5618.76
945.657	5657.86
945.963	5580.8
946.269	5549.61
946.575	5543.51
946.881	5510.97
947.187	5549.61
947.493	5462.38
947.799	5413.12
948.105	5454.7
948.41	5346.46
948.716	5397.53
949.022	5361.6
949.327	5311.43
949.633	5294.93
949.938	5285.44
950.244	5233.01
950.549	5223.75
950.854	5211.54
951.16	5179.91
951.465	5157.08
951.77	5151.88
952.075	5172.9
952.38	5117.08
952.685	5051.1
952.99	5074.82
953.294	5046.35
953.599	4979.69
953.904	4945.56
954.209	4949.86
954.513	4925
954.818	4911.21
955.122	4885.68
955.426	4903.3
955.731	4814.49
956.035	4791.22
956.339	4792.35
956.643	4763.19
956.948	4750.99
957.252	4749.64
957.556	4655.17
957.86	4734.72
958.163	4632.12
958.467	4688.85
958.771	4653.82
959.075	4643.42
959.378	4598.45
959.682	4568.17
959.985	4539.92
960.289	4505.35
960.592	4487.27
960.896	4473.48
961.199	4541.5
961.502	4485.01
961.805	4439.36
962.108	4427.61
962.411	4409.98
962.714	4337.67
963.017	4356.43
963.32	4374.05
963.623	4362.07
963.926	4343.32
964.228	4230.55
964.531	4257.67
964.833	4260.38
965.136	4204.56
965.438	4213.38
965.741	4198.46
966.043	4162.76
966.345	4138.13
966.648	4128.41
966.95	4122.98
967.252	4080.05
967.554	4090.44
967.856	4057
968.158	4044.79
968.46	4064.46
968.761	3998.69
969.063	4016.32
969.365	4000.05
969.666	3969.99
969.968	3914.4
970.269	3909.66
970.571	3898.81
970.872	3874.63
971.174	3858.58
971.475	3804.58
971.776	3861.52
972.077	3801.64
972.378	3825.59
972.679	3797.34
972.98	3741.75
973.281	3765.48
973.582	3699.04
973.883	3676.67
974.183	3703.56
974.484	3658.82
974.785	3676.44
975.085	3639.16
975.386	3617.24
975.686	3606.84
975.986	3589.44
976.287	3612.04
976.587	3588.08
976.887	3567.97
977.187	3591.25
977.487	3525.94
977.787	3555.77
978.087	3504.92
978.387	3487.97
978.687	3484.36
978.987	3470.57
979.286	3464.92
979.586	3441.19
979.885	3413.4
980.185	3385.15
980.484	3344.25
980.784	3360.52
981.083	3323.01
981.382	3366.17
981.682	3343.12
981.981	3272.84
982.28	3277.36
982.579	3262.44
982.878	3266.28
983.177	3234.65
983.475	3255.44
983.774	3194.2
984.073	3183.57
984.372	3166.63
984.67	3156.68
984.969	3189.22
985.267	3148.1
985.566	3122.33
985.864	3091.15
986.162	3112.62
986.461	3098.15
986.759	3084.59
987.057	3035.78
987.355	3031.04
987.653	3011.83
987.951	3003.24
988.249	3024.48
988.547	2958.72
988.844	3000.98
989.142	2972.05
989.44	2937.25
989.737	2925.95
990.035	2901.55
990.332	2898.84
990.63	2878.72
990.927	2867.2
991.224	2857.48
991.521	2850.93
991.819	2783.81
992.116	2840.76
992.413	2810.02
992.71	2762.79
993.006	2771.83
993.303	2741.55
993.6	2713.3
993.897	2715.79
994.193	2713.3
994.49	2703.36
994.787	2676.92
995.083	2704.04
995.379	2653.64
995.676	2656.81
995.972	2639.86
996.268	2630.59
996.565	2568.22
996.861	2570.03
997.157	2608.67
997.453	2554.21
997.749	2565.29
998.044	2525.96
998.34	2544.5
998.636	2526.64
998.932	2506.98
999.227	2491.62
999.523	2487.55
999.818	2456.81
1000.114	2458.62
1000.409	2452.97
1000.704	2393.54
1001	2409.58
1001.295	2398.28
1001.59	2409.36
1001.885	2379.3
1002.18	2348.34
1002.475	2325.07
1002.77	2326.87
1003.065	2333.2
1003.359	2313.54
1003.654	2303.6
1003.949	2271.28
1004.243	2298.63
1004.538	2275.35
1004.832	2246.2
1005.127	2227.67
1005.421	2225.18
1005.715	2190.83
1006.009	2208.23
1006.304	2203.94
1006.598	2170.49
1006.892	2140.89
1007.186	2121.23
1007.48	2112.87
1007.773	2109.48
1008.067	2090.04
1008.361	2115.81
1008.655	2083.94
1008.948	2127.33
1009.242	2063.83
1009.535	2041.46
1009.829	2046.88
1010.122	2011.18
1010.415	2014.11
1010.708	1974.79
1011.001	1978.18
1011.295	1962.82
1011.588	1959.88
1011.881	1960.78
1012.173	1962.36
1012.466	1916.04
1012.759	1927.34
1013.052	1926.88
1013.344	1888.47
1013.637	1858.19
1013.93	1858.41
1014.222	1848.92
1014.514	1840.56
1014.807	1842.14
1015.099	1815.93
1015.391	1834.01
1015.683	1793.55
1015.976	1789.94
1016.268	1762.37
1016.56	1762.59
1016.851	1774.8
1017.143	1741.35
1017.435	1751.52
1017.727	1744.52
1018.018	1732.09
1018.31	1707.46
1018.602	1699.09
1018.893	1678.76
1019.185	1670.17
1019.476	1644.63
1019.767	1640.79
1020.058	1641.69
1020.35	1627.46
1020.641	1616.61
1020.932	1602.83
1021.223	1587.91
1021.514	1557.63
1021.804	1551.08
1022.095	1565.09
1022.386	1555.59
1022.677	1531.19
1022.967	1511.75
1023.258	1526.67
1023.548	1493.68
1023.839	1490.51
1024.129	1508.82
1024.419	1467.46
1024.709	1463.39
1025	1455.26
1025.29	1457.74
1025.58	1437.18
1025.87	1442.15
1026.16	1433.34
1026.449	1408.03
1026.739	1386.33
1027.029	1395.15
1027.319	1375.49
1027.608	1354.47
1027.898	1378.88
1028.187	1336.39
1028.477	1317.41
1028.766	1296.62
1029.055	1308.14
1029.344	1308.6
1029.634	1335.71
1029.923	1309.5
1030.212	1292.32
1030.501	1267.24
1030.79	1258.43
1031.078	1244.87
1031.367	1228.82
1031.656	1246
1031.945	1242.16
1032.233	1237.64
1032.522	1209.16
1032.81	1229.28
1033.099	1204.42
1033.387	1199.45
1033.675	1187.47
1033.963	1195.38
1034.251	1187.92
1034.54	1191.31
1034.828	1171.65
1035.116	1154.02
1035.403	1140.24
1035.691	1142.5
1035.979	1117.19
1036.267	1121.93
1036.554	1132.78
1036.842	1102.73
1037.129	1092.1
1037.417	1096.62
1037.704	1089.84
1037.992	1051.2
1038.279	1066.79
1038.566	1078.32
1038.853	1078.32
1039.14	1078.32
