Data from breadboard_black_back_FLMS001491_00092.txt Node
Date: Wed Feb 08 10:51:11 GMT 2017
User: dcchb
Spectrometer: FLMS00149
Trigger mode: 0
Integration Time (sec): 2.000000E-2
Scans to average: 10
Electric dark correction enabled: true
Nonlinearity correction enabled: false
Boxcar width: 0
XAxis mode: Wavelengths
Number of Pixels in Spectrum: 2048
>>>>>Begin Spectral Data<<<<<
341.393	-5.1
341.776	-5.1
342.16	-5.1
342.543	-67.47
342.927	-50.75
343.31	-72.22
343.693	-74.48
344.077	-62.72
344.46	-47.58
344.843	-37.87
345.226	-40.13
345.61	-18.66
345.993	-28.83
346.376	-19.11
346.759	5.52
347.142	23.6
347.525	62.02
347.908	41
348.291	61.57
348.674	91.62
349.057	116.25
349.44	144.28
349.823	146.08
350.206	154.22
350.588	191.05
350.971	213.65
351.354	231.28
351.737	243.48
352.119	271.28
352.502	272.63
352.884	281.22
353.267	289.58
353.65	311.28
354.032	301.79
354.414	314.89
354.797	331.84
355.179	314.21
355.562	337.49
355.944	316.47
356.326	336.36
356.709	318.51
357.091	334.55
357.473	341.33
357.855	336.59
358.238	337.72
358.62	330.71
359.002	349.02
359.384	346.76
359.766	354.89
360.148	346.98
360.53	352.18
360.912	349.47
361.294	336.81
361.676	368.45
362.057	344.04
362.439	344.5
362.821	349.69
363.203	353.99
363.584	356.25
363.966	313.54
364.348	343.82
364.729	327.55
365.111	351.05
365.493	327.55
365.874	318.51
366.256	335.68
366.637	347.89
367.019	339.07
367.4	313.76
367.781	336.59
368.163	320.54
368.544	353.99
368.925	326.64
369.306	356.93
369.688	325.51
370.069	339.3
370.45	314.44
370.831	340.65
371.212	337.72
371.593	301.33
371.974	348.79
372.355	339.75
372.736	358.06
373.117	344.5
373.498	341.56
373.879	325.74
374.26	350.15
374.641	324.38
375.021	322.12
375.402	330.49
375.783	340.43
376.163	367.77
376.544	359.19
376.925	354.67
377.305	358.73
377.686	353.99
378.066	364.16
378.447	360.09
378.827	372.29
379.208	368
379.588	365.74
379.968	360.54
380.349	388.11
380.729	373.42
381.109	367.09
381.489	363.48
381.87	377.26
382.25	391.95
382.63	377.94
383.01	388.11
383.39	397.15
383.77	396.47
384.15	390.6
384.53	388.56
384.91	411.39
385.29	390.15
385.67	405.29
386.049	421.33
386.429	422.91
386.809	409.81
387.189	435.79
387.568	413.65
387.948	429.01
388.328	436.02
388.707	430.37
389.087	442.35
389.466	422.69
389.846	429.01
390.225	449.8
390.605	452.29
390.984	460.43
391.363	469.92
391.743	446.64
392.122	468.56
392.501	459.3
392.881	452.29
393.26	456.36
393.639	468.11
394.018	478.05
394.397	453.19
394.776	499.97
395.155	464.95
395.534	500.2
395.913	495.45
396.292	472.4
396.671	477.37
397.05	500.2
397.429	510.82
397.808	503.14
398.186	501.55
398.565	539.75
398.944	522.12
399.323	529.8
399.701	523.02
400.08	537.49
400.458	529.58
400.837	533.42
401.215	560.54
401.594	539.07
401.972	546.07
402.351	524.6
402.729	558.05
403.107	561.89
403.486	569.35
403.864	562.12
404.242	590.59
404.62	597.6
404.999	599.86
405.377	585.85
405.755	603.7
406.133	605.96
406.511	596.92
406.889	616.81
407.267	627.65
407.645	618.39
408.023	634.43
408.401	628.56
408.779	637.82
409.156	665.17
409.534	638.5
409.912	659.29
410.29	687.31
410.667	665.84
411.045	689.12
411.422	687.76
411.8	721.21
412.178	690.48
412.555	713.3
412.933	697.93
413.31	735.45
413.687	720.98
414.065	742.68
414.442	722.79
414.819	766.63
415.197	721.66
415.574	779.06
415.951	774.77
416.328	765.05
416.705	783.58
417.082	791.72
417.46	801.66
417.837	786.74
418.214	819.51
418.591	798.04
418.967	842.56
419.344	826.52
419.721	845.95
420.098	844.82
420.475	850.47
420.852	848.44
421.228	863.8
421.605	872.84
421.982	883.01
422.358	907.42
422.735	915.56
423.111	903.8
423.488	919.85
423.864	952.84
424.241	933.63
424.617	959.85
424.994	956.23
425.37	949.68
425.746	970.24
426.123	991.94
426.499	965.05
426.875	1004.14
427.251	1026.96
427.627	1053.18
428.003	1046.17
428.379	1056.57
428.756	1052.5
429.132	1082.56
429.507	1071.03
429.883	1074.87
430.259	1119.17
430.635	1091.6
431.011	1125.49
431.387	1150.13
431.763	1151.71
432.138	1178.82
432.514	1165.49
432.89	1204.14
433.265	1219.05
433.641	1254.3
434.016	1235.55
434.392	1257.69
434.767	1262.21
435.143	1259.5
435.518	1287.75
435.894	1288.43
436.269	1334.08
436.644	1350.57
437.02	1360.97
437.395	1370.01
437.77	1359.39
438.145	1404.81
438.52	1399.61
438.895	1434.19
439.271	1452.04
439.646	1447.29
440.021	1461.98
440.395	1477.35
440.77	1473.73
441.145	1486.39
441.52	1497.23
441.895	1478.03
442.27	1550.79
442.645	1519.61
443.019	1568.42
443.394	1559.61
443.769	1591.47
444.143	1559.15
444.518	1591.7
444.892	1587.63
445.267	1578.81
445.641	1629.43
446.016	1623.56
446.39	1641.86
446.764	1646.16
447.139	1651.13
447.513	1658.36
447.887	1679.15
448.262	1685.48
448.636	1700.62
449.01	1718.02
449.384	1730.9
449.758	1786.04
450.132	1784.01
450.506	1780.84
450.88	1825.59
451.254	1796.89
451.628	1844.12
452.002	1829.88
452.376	1863.1
452.75	1908.07
453.123	1884.8
453.497	1927.28
453.871	1951.69
454.244	1970.67
454.618	1981.97
454.992	1998.46
455.365	2036.43
455.739	2072.81
456.112	2080.72
456.486	2085.69
456.859	2127.05
457.232	2154.84
457.606	2140.61
457.979	2192.81
458.352	2224.45
458.725	2241.85
459.099	2286.59
459.472	2306.93
459.845	2335.18
460.218	2343.54
460.591	2388.74
460.964	2391.9
461.337	2443.88
461.71	2496.53
462.083	2507.6
462.456	2492.01
462.829	2536.3
463.201	2605.23
463.574	2568.62
463.947	2645.23
464.32	2672.8
464.692	2719.8
465.065	2743.3
465.438	2730.65
465.81	2808.16
466.183	2846.13
466.555	2885.22
466.928	2931.32
467.3	2932.45
467.672	2950.08
468.045	3050.87
468.417	3053.35
468.789	3087.7
469.161	3101.03
469.534	3154.59
469.906	3219
470.278	3213.35
470.65	3271.88
471.022	3354.81
471.394	3404.08
471.766	3432.78
472.138	3490.85
472.51	3562.94
472.882	3610.85
473.253	3647.69
473.625	3682.04
473.997	3777.17
474.369	3805.2
474.74	3826.66
475.112	3897.85
475.484	3969.94
475.855	4036.15
476.227	4061.01
476.598	4182.14
476.97	4225.98
477.341	4304.84
477.713	4389.36
478.084	4455.12
478.455	4528.79
478.827	4554.56
479.198	4722.23
479.569	4699.86
479.94	4820.09
480.311	4832.74
480.682	4964.49
481.053	5074.99
481.424	5170.36
481.795	5236.12
482.166	5248.1
482.537	5391.14
482.908	5474.98
483.279	5526.06
483.65	5608.09
484.021	5709.33
484.391	5804.01
484.762	5855.76
485.133	5915.65
485.503	6019.38
485.874	6165.81
486.244	6220.73
486.615	6317.22
486.985	6338.46
487.356	6491
487.726	6507.05
488.097	6651.22
488.467	6690.09
488.837	6846.92
489.207	6933.48
489.578	7027.48
489.948	7110.19
490.318	7220.02
490.688	7180.02
491.058	7316.52
491.428	7439.68
491.798	7553.12
492.168	7670.86
492.538	7691.42
492.908	7776.84
493.278	7916.27
493.648	7911.76
494.017	7983.39
494.387	8120.34
494.757	8120.79
495.126	8243.27
495.496	8304.74
495.866	8371.18
496.235	8434.91
496.605	8556.71
496.974	8651.85
497.344	8664.73
497.713	8718.97
498.082	8798.06
498.452	8846.19
498.821	8968
499.19	8955.34
499.559	9035.57
499.928	9168.22
500.298	9170.25
500.667	9287.76
501.036	9292.74
501.405	9412.05
501.774	9386.07
502.143	9520.98
502.512	9539.28
502.88	9639.17
503.249	9664.25
503.618	9819.73
503.987	9845.04
504.356	9900.18
504.724	10032.83
505.093	10049.33
505.462	10091.13
505.83	10111.7
506.199	10259.26
506.567	10335.19
506.936	10296.55
507.304	10571.8
507.672	10543.78
508.041	10608.41
508.409	10754.62
508.777	10791
509.145	10853.15
509.514	10861.06
509.882	10976.53
510.25	11004.33
510.618	11136.08
510.986	11105.12
511.354	11314.38
511.722	11367.48
512.09	11481.83
512.458	11484.77
512.826	11603.86
513.193	11701.71
513.561	11653.13
513.929	11806.79
514.297	11904.42
514.664	12025.32
515.032	12123.4
515.4	12267.35
515.767	12323.39
516.135	12328.14
516.502	12325.65
516.869	12589.37
517.237	12644.74
517.604	12630.73
517.972	12792.08
518.339	12831.4
518.706	12847.22
519.073	13026.65
519.44	13008.8
519.808	13269.13
520.175	13269.81
520.542	13497.37
520.909	13541.66
521.276	13559.06
521.643	13734.88
522.009	13721.55
522.376	13907.08
522.743	13996.12
523.11	14210.35
523.477	14312.72
523.843	14365.37
524.21	14524.24
524.577	14595.2
524.943	14707.96
525.31	14807.39
525.676	14957.22
526.043	14954.28
526.409	15105.46
526.776	15316.98
527.142	15337.32
527.508	15436.98
527.874	15517.43
528.241	15663.19
528.607	15697.09
528.973	15914.03
529.339	15903.64
529.705	16070.64
530.071	16156.28
530.437	16226.34
530.803	16307.24
531.169	16487.35
531.535	16445.77
531.901	16534.58
532.267	16702.03
532.632	16771.41
532.998	16900.22
533.364	17016.15
533.73	17037.17
534.095	17112.19
534.461	17138.63
534.826	17227.89
535.192	17463.59
535.557	17514.67
535.923	17500.2
536.288	17561.9
536.653	17711.72
537.019	17649.8
537.384	17870.14
537.749	17924.15
538.114	17903.13
538.479	17960.08
538.845	18109.91
539.21	18064.26
539.575	18170.47
539.94	18245.72
540.305	18417.92
540.67	18439.39
541.034	18378.6
541.399	18567.52
541.764	18608.2
542.129	18556.67
542.494	18692.26
542.858	18784.46
543.223	18866.04
543.587	19036.66
543.952	18890
544.316	19080.73
544.681	19156.43
545.045	19166.83
545.41	19308.74
545.774	19475.07
546.138	19386.26
546.503	19479.59
546.867	19564.1
547.231	19694.04
547.595	19702.18
547.959	19783.53
548.324	19801.61
548.688	19879.12
549.052	19974.94
549.416	20125.45
549.779	20019.46
550.143	20052.23
550.507	20406.12
550.871	20374.48
551.235	20326.34
551.599	20557.52
551.962	20574.47
552.326	20608.14
552.689	20808.37
553.053	20631.42
553.417	20762.94
553.78	20984.18
554.143	21059.43
554.507	21132.42
554.87	21222.37
555.234	21310.05
555.597	21297.17
555.96	21354.11
556.323	21470.95
556.686	21577.84
557.05	21743.26
557.413	21750.49
557.776	21794.33
558.139	21903.93
558.502	21999.75
558.865	22015.34
559.228	22361.54
559.59	22425.5
559.953	22463.69
560.316	22685.6
560.679	22748.65
561.041	22739.16
561.404	22894.41
561.767	22982.77
562.129	23013.51
562.492	23278.13
562.854	23298.24
563.217	23369.43
563.579	23378.92
563.941	23571.46
564.304	23649.87
564.666	23784.11
565.028	23835.18
565.39	23962.86
565.753	24067.04
566.115	24122.4
566.477	24172.57
566.839	24343.19
567.201	24437.42
567.563	24429.06
567.925	24702.05
568.287	24756.28
568.648	24725.1
569.01	25003.28
569.372	25078.99
569.734	25102.94
570.095	25263.84
570.457	25349.71
570.819	25307.23
571.18	25453.44
571.542	25534.57
571.903	25610.72
572.265	25751.74
572.626	25786.09
572.987	25822.7
573.349	25880.55
573.71	26063.82
574.071	26015.23
574.432	26112.63
574.794	26382.46
575.155	26320.08
575.516	26263.82
575.877	26390.59
576.238	26414.32
576.599	26519.4
576.96	26649.34
577.32	26645.05
577.681	26730.92
578.042	26800.75
578.403	26756.23
578.763	26836.68
579.124	26849.56
579.485	26998.49
579.845	27013.17
580.206	26980.86
580.566	26970.69
580.927	27064.02
581.287	27097.01
581.648	27094.53
582.008	27333.84
582.368	27221.08
582.728	27216.33
583.089	27194.86
583.449	27223.79
583.809	27256.56
584.169	27241.42
584.529	27167.75
584.889	27471.47
585.249	27330.45
585.609	27269.66
585.969	27337.46
586.329	27391.24
586.688	27348.76
587.048	27308.08
587.408	27379.49
587.768	27406.84
588.127	27362.54
588.487	27324.58
588.846	27657.68
589.206	27355.99
589.565	27561.63
589.925	27429.66
590.284	27488.19
590.643	27502.2
591.003	27582.65
591.362	27638.92
591.721	27556.66
592.08	27546.72
592.44	27668.75
592.799	27622.42
593.158	27637.56
593.517	27672.59
593.876	27696.55
594.235	27621.97
594.593	27730.22
594.952	27706.71
595.311	27691.35
595.67	27800.5
596.029	27930.21
596.387	27808.63
596.746	27890.21
597.104	27801.4
597.463	27762.08
597.822	27873.72
598.18	27743.55
598.538	27760.72
598.897	28068.97
599.255	27813.6
599.613	28073.03
599.972	27891.34
600.33	28143.77
600.688	27915.3
601.046	28106.25
601.404	28097.44
601.762	28030.32
602.12	28268.73
602.478	28336.53
602.836	28281.84
603.194	28139.47
603.552	28273.71
603.91	28234.38
604.268	28329.3
604.625	28271.9
604.983	28393.25
605.341	28274.84
605.698	28465.79
606.056	28512.57
606.413	28391.44
606.771	28519.8
607.128	28616.07
607.485	28502.17
607.843	28579.01
608.2	28764.09
608.557	28752.11
608.914	28674.15
609.272	28838.66
609.629	28891.09
609.986	28960.24
610.343	28837.98
610.7	29052.89
611.057	28941.03
611.414	28897.19
611.771	29073.01
612.127	29007.92
612.484	29120.46
612.841	29127.47
613.198	29158.2
613.554	29084.76
613.911	29282.72
614.267	29270.52
614.624	29270.74
614.98	29384.41
615.337	29406.11
615.693	29440.91
616.05	29374.24
616.406	29476.16
616.762	29367.01
617.118	29452.21
617.475	29438.87
617.831	29563.84
618.187	29548.7
618.543	29597.74
618.899	29696.49
619.255	29781.24
619.611	29671.64
619.967	29715.25
620.323	29788.92
620.678	29705.98
621.034	29725.87
621.39	29804.74
621.746	29688.81
622.101	29951.85
622.457	29652.65
622.812	29794.8
623.168	29891.06
623.523	29796.83
623.879	29943.27
624.234	29860.33
624.589	29869.14
624.945	29848.35
625.3	30019.65
625.655	29869.6
626.01	29793.67
626.365	29931.97
626.72	29788.24
627.075	29840.67
627.43	29762.48
627.785	29715.93
628.14	29827.79
628.495	29874.34
628.85	29821.69
629.205	29731.52
629.559	29863.49
629.914	29788.47
630.269	29825.3
630.623	29696.95
630.978	29682.48
631.332	29764.51
631.687	29769.26
632.041	29601.81
632.396	29732.88
632.75	29619.43
633.104	29669.38
633.459	29556.61
633.813	29545.31
634.167	29502.37
634.521	29407.46
634.875	29527.23
635.229	29341.93
635.583	29265.09
635.937	29273.45
636.291	29430.74
636.645	29265.54
636.999	29191.87
637.352	29303.06
637.706	29070.97
638.06	29268.93
638.413	29286.56
638.767	29281.59
639.121	29229.16
639.474	29060.8
639.828	29028.94
640.181	29039.56
640.534	29065.1
640.888	28802.51
641.241	28840.24
641.594	28847.02
641.947	28987.81
642.301	28905.33
642.654	28862.39
643.007	28761.6
643.36	28687.03
643.713	28675.05
644.066	28835.05
644.419	28674.83
644.771	28591.89
645.124	28283.65
645.477	28253.37
645.83	28126.36
646.182	27881.4
646.535	27723.89
646.888	27871.68
647.24	27662.2
647.593	27807.96
647.945	27749.88
648.298	27570
648.65	27479.38
649.002	27462.2
649.355	27669.88
649.707	27487.51
650.059	27675.53
650.411	27968.4
650.763	28047.72
651.115	28240.03
651.467	28226.25
651.819	28288.17
652.171	28055.63
652.523	28006.82
652.875	28045.24
653.227	27938.8
653.578	28085.46
653.93	28012.24
654.282	27826.26
654.633	27973.15
654.985	27963.88
655.337	27873.49
655.688	27922.53
656.039	27976.09
656.391	27693.61
656.742	27826.71
657.094	27827.84
657.445	27908.74
657.796	27799.37
658.147	27749.88
658.498	27707.39
658.849	27740.16
659.2	27805.92
659.551	27661.07
659.902	27703.55
660.253	27653.16
660.604	27735.41
660.955	27549.21
661.306	27621.75
661.656	27559.83
662.007	27645.7
662.358	27532.03
662.708	27544.01
663.059	27435.31
663.409	27450.45
663.76	27680.5
664.11	27550.33
664.461	27636.21
664.811	27630.78
665.161	27624.01
665.511	27457.46
665.862	27505.82
666.212	27531.58
666.562	27551.24
666.912	27435.54
667.262	27272.6
667.612	27427.85
667.962	27421.52
668.312	27490.9
668.662	27548.3
669.011	27420.85
669.361	27419.94
669.711	27500.84
670.06	27318.25
670.41	27335.65
670.76	27313.28
671.109	27391.92
671.459	27260.17
671.808	27253.62
672.157	27277.35
672.507	27203.68
672.856	27078.93
673.205	27237.35
673.554	27290.23
673.904	27202.55
674.253	27410.45
674.602	27244.58
674.951	26715.55
675.3	26670.81
675.649	27196.45
675.998	27037.35
676.346	27002.33
676.695	27126.62
677.044	26826.74
677.393	26981.31
677.741	27093.85
678.09	27012.27
678.438	26813.63
678.787	26918.94
679.135	26945.15
679.484	26725.95
679.832	26829.68
680.181	26668.55
680.529	26796.23
680.877	26744.71
681.225	26590.13
681.573	26766.4
681.922	26557.37
682.27	26533.41
682.618	26497.48
682.966	26392.17
683.314	26548.1
683.661	26534.32
684.009	26316.7
684.357	26263.36
684.705	26303.36
685.053	26294.1
685.4	26297.71
685.748	26099.3
686.095	26059.3
686.443	25973.88
686.79	25915.8
687.138	25967.1
687.485	26064.95
687.832	25855.46
688.18	25824.5
688.527	25729.37
688.874	25702.93
689.221	25586.54
689.568	25526.21
689.915	25650.5
690.262	25474.46
690.609	25387.91
690.956	25383.39
691.303	25443.95
691.65	25211.87
691.997	25214.13
692.344	25086.67
692.69	25141.81
693.037	25115.14
693.383	24921.03
693.73	25036.28
694.077	24787.7
694.423	24736.4
694.769	24730.52
695.116	24560.36
695.462	24590.19
695.808	24538.21
696.155	24543.63
696.501	24406.69
696.847	24385.9
697.193	24137.32
697.539	24249.18
697.885	24176.86
698.231	23954.05
698.577	24044.44
698.923	23959.24
699.269	23918.57
699.614	23848.96
699.96	23782.98
700.306	23773.26
700.651	23638.57
700.997	23566.48
701.342	23520.38
701.688	23531.68
702.033	23438.13
702.379	23454.4
702.724	23328.53
703.069	23520.84
703.415	23079.72
703.76	23030.68
704.105	23118.36
704.45	23102.09
704.795	22938.93
705.14	22902.1
705.485	22874.98
705.83	22769.22
706.175	22781.65
706.52	22691.48
706.865	22571.26
707.209	22742.55
707.554	22600.41
707.899	22506.63
708.243	22371.94
708.588	22410.58
708.932	22298.27
709.277	22205.16
709.621	22352.73
709.966	22105.05
710.31	22168.56
710.654	22006.07
710.998	22117.71
711.342	22074.77
711.687	21929.92
712.031	21884.72
712.375	21825.74
712.719	21941.22
713.063	21844.5
713.407	21941.22
713.75	21751.84
714.094	21650.38
714.438	21692.41
714.782	21606.76
715.125	21423.26
715.469	21624.16
715.812	21421.68
716.156	21296.04
716.499	21326.77
716.843	21293.78
717.186	21232.31
717.53	21303.04
717.873	21299.65
718.216	21216.04
718.559	21069.6
718.902	21029.15
719.246	21102.82
719.589	20953.22
719.932	20868.93
720.275	20840
720.617	20862.15
720.96	20786.44
721.303	20772.21
721.646	20854.69
721.989	20760.68
722.331	20705.77
722.674	20647.69
723.016	20660.12
723.359	20598.43
723.701	20660.35
724.044	20451.31
724.386	20401.6
724.729	20457.64
725.071	20388.72
725.413	20398.43
725.755	20347.81
726.097	20336.74
726.439	20276.63
726.782	20176.74
727.124	20228.72
727.465	20226.91
727.807	20166.35
728.149	20058.33
728.491	20014.04
728.833	20101.94
729.175	19971.55
729.516	20009.29
729.858	19975.84
730.199	20010.19
730.541	19862.63
730.882	19886.13
731.224	20016.52
731.565	19749.86
731.906	19793.93
732.248	19847.26
732.589	19682.29
732.93	19739.92
733.271	19754.38
733.612	19711.9
733.953	19665.57
734.294	19664.21
734.635	19541.05
734.976	19582.63
735.317	19494.05
735.658	19593.48
735.999	19433.03
736.339	19391.68
736.68	19513.03
737.021	19425.58
737.361	19329.08
737.702	19332.92
738.042	19291.34
738.383	19228.07
738.723	19311.46
739.063	19263.32
739.404	19302.42
739.744	19069.43
740.084	19094.29
740.424	19144
740.764	19134.06
741.104	19131.8
741.444	18996.21
741.784	18881.86
742.124	19010.9
742.464	18965.93
742.804	18977.23
743.143	18882.09
743.483	18995.08
743.823	18763
744.162	18809.32
744.502	18767.97
744.841	18681.64
745.181	18745.82
745.52	18681.42
745.86	18744.46
746.199	18672.15
746.538	18588.76
746.877	18632.38
747.216	18742.66
747.556	18543.57
747.895	18572.27
748.234	18534.07
748.573	18422.44
748.911	18398.49
749.25	18417.02
749.589	18310.58
749.928	18277.81
750.267	18311.71
750.605	18220.41
750.944	18203.01
751.283	18148.1
751.621	18164.82
751.96	18078.27
752.298	18073.07
752.636	17993.3
752.975	18029
753.313	17829.46
753.651	18032.85
753.989	17856.13
754.327	17845.28
754.666	17773.87
755.004	17715.11
755.342	17666.75
755.679	17724.38
756.017	17620.2
756.355	17676.47
756.693	17471.96
757.031	17566.19
757.368	17400.55
757.706	17495.91
758.044	17346.99
758.381	17381.34
758.719	17285.29
759.056	17343.15
759.394	17317.84
759.731	17137.5
760.068	17208.69
760.405	17137.95
760.743	17120.33
761.08	17078.97
761.417	17032.42
761.754	16909.71
762.091	16911.52
762.428	16784.97
762.765	16758.3
763.102	16768.02
763.438	16663.84
763.775	16680.34
764.112	16608.02
764.449	16543.84
764.785	16520.79
765.122	16385.88
765.458	16360.12
765.795	16291.65
766.131	16297.75
766.467	16264.53
766.804	16218.43
767.14	16104.31
767.476	16147.92
767.812	16052.33
768.148	16067.25
768.485	15960.58
768.821	15761.49
769.157	15804.2
769.492	15752.45
769.828	15784.54
770.164	15566.47
770.5	15595.62
770.836	15498.22
771.171	15492.12
771.507	15348.62
771.842	15352.46
772.178	15367.6
772.513	15234.05
772.849	15202.86
773.184	15095.52
773.519	15210.32
773.855	15072.24
774.19	15013.26
774.525	14987.5
774.86	14963.1
775.195	14918.12
775.53	14851.91
775.865	14789.31
776.2	14670.45
776.535	14567.17
776.87	14576.89
777.205	14477.23
777.539	14394.97
777.874	14491.7
778.209	14394.75
778.543	14240.18
778.878	14245.15
779.212	14194.53
779.547	14110.46
779.881	14111.37
780.215	14108.88
780.55	14181.19
780.884	14015.1
781.218	13924.03
781.552	13969.22
781.886	13808.32
782.22	13747.53
782.554	13653.07
782.888	13664.15
783.222	13675.67
783.556	13578.72
783.889	13484.72
784.223	13443.59
784.557	13433.87
784.89	13523.59
785.224	13361.1
785.557	13214.21
785.891	13200.66
786.224	13190.71
786.558	13179.19
786.891	13123.14
787.224	13049.02
787.557	12990.04
787.891	12941.23
788.224	12986.65
788.557	12851.51
788.89	12860.55
789.223	12873.88
789.556	12775.81
789.888	12767.22
790.221	12728.58
790.554	12688.35
790.887	12676.38
791.219	12536.49
791.552	12530.84
791.884	12496.95
792.217	12498.98
792.549	12437.29
792.882	12391.86
793.214	12213.11
793.546	12287.01
793.879	12237.52
794.211	12140.8
794.543	12224.41
794.875	12124.07
795.207	12174.24
795.539	12055.15
795.871	12039.1
796.203	11985.77
796.535	11882.72
796.867	11940.58
797.198	11815.83
797.53	11765.21
797.862	11809.05
798.193	11797.53
798.525	11764.54
798.856	11756.17
799.188	11599.12
799.519	11587.82
799.85	11484.32
800.182	11551.43
800.513	11573.58
800.844	11479.12
801.175	11524.32
801.506	11443.19
801.837	11379.69
802.168	11272.34
802.499	11277.32
802.83	11167.26
803.161	11172.01
803.491	11208.17
803.822	11168.17
804.153	11097.89
804.483	11056.31
804.814	11062.63
805.145	11055.85
805.475	11097.21
805.805	11010.88
806.136	10989.41
806.466	10906.25
806.796	10921.17
807.126	10827.84
807.457	10816.99
807.787	10802.53
808.117	10772.7
808.447	10750.32
808.777	10703.09
809.107	10733.6
809.436	10661.06
809.766	10642.76
810.096	10566.83
810.426	10578.58
810.755	10624.23
811.085	10541.52
811.414	10511.69
811.744	10438.47
812.073	10412.03
812.403	10501.74
812.732	10387.17
813.061	10392.59
813.39	10280.28
813.719	10294.07
814.049	10321.18
814.378	10292.71
814.707	10267.4
815.036	10254.29
815.365	10125.71
815.693	10094.75
816.022	10099.95
816.351	10057.69
816.68	10058.14
817.008	10065.82
817.337	10011.81
817.665	9948.76
817.994	9992.83
818.322	9987.86
818.651	9984.24
818.979	9865.38
819.307	9826.28
819.636	9888.43
819.964	9887.75
820.292	9849.11
820.62	9908.76
820.948	9822.44
821.276	9888.43
821.604	9771.59
821.932	9804.81
822.259	9805.72
822.587	9781.08
822.915	9838.26
823.243	9796.9
823.57	9758.49
823.898	9831.48
824.225	9781.08
824.553	9700.18
824.88	9736.11
825.207	9756.23
825.535	9739.28
825.862	9776.11
826.189	9735.21
826.516	9817.69
826.843	9827.86
827.17	9816.79
827.497	9818.6
827.824	9850.46
828.151	9739.5
828.478	9737.02
828.805	9833.51
829.131	9833.29
829.458	9788.09
829.785	9693.18
830.111	9694.53
830.438	9769.33
830.764	9734.31
831.09	9749.22
831.417	9690.01
831.743	9792.16
832.069	9709.9
832.395	9666.51
832.722	9688.88
833.048	9681.2
833.374	9697.92
833.7	9609.34
834.026	9693.4
834.351	9663.12
834.677	9673.74
835.003	9648.43
835.329	9688.21
835.654	9649.11
835.98	9611.6
836.306	9612.05
836.631	9604.59
836.956	9636.91
837.282	9621.77
837.607	9570.92
837.932	9537.25
838.258	9525.05
838.583	9467.42
838.908	9457.7
839.233	9534.99
839.558	9418.83
839.883	9429
840.208	9366.18
840.533	9468.32
840.858	9363.24
841.182	9332.51
841.507	9362.79
841.832	9346.75
842.156	9253.64
842.481	9372.06
842.805	9292.06
843.13	9250.03
843.454	9246.41
843.778	9234.66
844.103	9242.57
844.427	9271.72
844.751	9191.72
845.075	9189.01
845.399	9110.14
845.723	9108.79
846.047	9049.58
846.371	9001.22
846.695	9023.59
847.019	8963.03
847.343	8963.03
847.666	8847.32
847.99	8859.98
848.313	8825.63
848.637	8759.19
848.96	8767.78
849.284	8695.01
849.607	8614.11
849.931	8693.43
850.254	8634.67
850.577	8664.5
850.9	8515.81
851.223	8493.89
851.546	8436.71
851.869	8373.44
852.192	8417.96
852.515	8358.75
852.838	8362.82
853.161	8385.87
853.483	8294.8
853.806	8285.53
854.129	8209.6
854.451	8205.98
854.774	8193.1
855.096	8137.06
855.419	8189.04
855.741	8138.87
856.063	8104.97
856.385	8054.35
856.708	8077.4
857.03	8007.57
857.352	8031.98
857.674	7960.12
857.996	7976.16
858.318	7895.48
858.64	7924.64
858.961	7808.48
859.283	7895.26
859.605	7887.8
859.926	7896.39
860.248	7826.11
860.57	7834.02
860.891	7820.23
861.212	7770.97
861.534	7762.61
861.855	7717.86
862.176	7719.67
862.498	7663.63
862.819	7640.35
863.14	7640.35
863.461	7668.82
863.782	7623.63
864.103	7653.23
864.424	7634.7
864.745	7636.06
865.065	7594.02
865.386	7507.47
865.707	7602.16
866.027	7602.38
866.348	7569.17
866.668	7555.61
866.989	7466.12
867.309	7540.47
867.63	7436.06
867.95	7404.2
868.27	7421.6
868.59	7368.27
868.91	7433.58
869.23	7366.68
869.55	7339.34
869.87	7381.15
870.19	7329.62
870.51	7352.22
870.83	7371.88
871.15	7374.37
871.469	7335.95
871.789	7344.09
872.109	7295.05
872.428	7264.54
872.748	7267.03
873.067	7335.5
873.386	7274.94
873.706	7275.16
874.025	7211.66
874.344	7248.72
874.663	7233.81
874.982	7234.48
875.301	7223.19
875.62	7096.18
875.939	7078.1
876.258	7147.93
876.577	7105.67
876.896	7154.04
877.214	7106.58
877.533	7090.08
877.852	7105.9
878.17	7064.09
878.489	7110.19
878.807	7167.82
879.125	7104.09
879.444	7079.46
879.762	7020.03
880.08	7027.26
880.398	6970.99
880.716	6985.9
881.034	6963.31
881.352	7034.72
881.67	6943.19
881.988	7005.56
882.306	6923.76
882.624	6915.62
882.941	6969.18
883.259	6861.84
883.577	6861.16
883.894	6817.32
884.212	6882.18
884.529	6838.79
884.846	6789.07
885.164	6771.67
885.481	6789.07
885.798	6859.81
886.115	6738.9
886.432	6724.67
886.75	6770.77
887.067	6737.77
887.383	6716.53
887.7	6731.22
888.017	6662.07
888.334	6645.12
888.651	6675.63
888.967	6652.13
889.284	6614.61
889.6	6554.28
889.917	6562.19
890.233	6552.02
890.55	6519.25
890.866	6575.52
891.182	6507.27
891.498	6493.94
891.815	6414.85
892.131	6448.29
892.447	6407.84
892.763	6415.3
893.079	6390.44
893.395	6397.22
893.71	6362.19
894.026	6343.43
894.342	6294.85
894.657	6333.49
894.973	6271.12
895.289	6299.82
895.604	6232.93
895.92	6187.28
896.235	6196.55
896.55	6192.03
896.865	6205.81
897.181	6203.33
897.496	6185.7
897.811	6141.86
898.126	6151.12
898.441	6012.82
898.756	6050.11
899.071	6051.01
899.386	6079.04
899.7	5995.65
900.015	6023.22
900.33	5911.81
900.644	5943.45
900.959	5933.73
901.273	5873.39
901.588	5914.07
901.902	5844.69
902.216	5827.97
902.531	5818.7
902.845	5857.12
903.159	5755.88
903.473	5723.79
903.787	5745.26
904.101	5700.06
904.415	5709.55
904.729	5671.81
905.042	5636.56
905.356	5688.08
905.67	5612.38
905.984	5604.92
906.297	5608.09
906.611	5548.88
906.924	5597.24
907.237	5507.98
907.551	5494.19
907.864	5485.38
908.177	5469.56
908.491	5495.32
908.804	5414.42
909.117	5422.78
909.43	5314.54
909.743	5363.57
910.056	5360.86
910.368	5347.08
910.681	5218.49
910.994	5228.44
911.307	5187.76
911.619	5184.14
911.932	5223.92
912.244	5169.68
912.557	5181.43
912.869	5146.4
913.181	5166.74
913.494	5112.73
913.806	5098.04
914.118	5079.74
914.43	5041.1
914.742	5058.5
915.054	4998.61
915.366	4988.89
915.678	4981.89
915.99	4986.18
916.302	4912.29
916.613	4912.06
916.925	4910.48
917.236	4866.19
917.548	4858.05
917.859	4903.25
918.171	4836.13
918.482	4812.85
918.794	4776.24
919.105	4764.04
919.416	4742.35
919.727	4727.66
920.038	4709.13
920.349	4724.72
920.66	4675.46
920.971	4697.83
921.282	4660.32
921.593	4578.96
921.903	4590.26
922.214	4594.78
922.525	4522.01
922.835	4567.21
923.146	4536.93
923.456	4454.22
923.767	4496.25
924.077	4487.44
924.387	4444.73
924.697	4398.4
925.008	4414.45
925.318	4440.43
925.628	4411.51
925.938	4359.76
926.248	4331.51
926.558	4302.81
926.867	4294.22
927.177	4310.27
927.487	4320.89
927.796	4238.86
928.106	4253.09
928.416	4231.4
928.725	4259.65
929.034	4192.31
929.344	4184.17
929.653	4177.84
929.962	4119.09
930.271	4110.05
930.581	4095.13
930.89	4082.25
931.199	4068.92
931.508	4090.39
931.817	4037.05
932.125	4033.89
932.434	4029.6
932.743	3992.08
933.051	3957.28
933.36	3943.95
933.669	3951.86
933.977	3946.89
934.286	3899.88
934.594	3876.61
934.902	3880.22
935.21	3855.59
935.519	3858.3
935.827	3857.17
936.135	3819.21
936.443	3770.62
936.751	3796.38
937.059	3801.35
937.367	3775.14
937.674	3772.66
937.982	3734.01
938.29	3693.11
938.597	3700.11
938.905	3665.09
939.213	3695.37
939.52	3622.15
939.827	3647.46
940.135	3617.63
940.442	3611.08
940.749	3568.59
941.056	3599.1
941.363	3562.49
941.67	3563.4
941.977	3555.94
942.284	3506
942.591	3524.3
942.898	3507.8
943.205	3478.2
943.511	3483.4
943.818	3441.82
944.125	3451.08
944.431	3415.6
944.738	3384.64
945.044	3410.18
945.35	3383.06
945.657	3358.2
945.963	3362.04
946.269	3356.39
946.575	3328.6
946.881	3320.46
947.187	3331.08
947.493	3296.74
947.799	3271.65
948.105	3248.83
948.41	3259.67
948.716	3241.14
949.022	3201.14
949.327	3208.15
949.633	3183.74
949.938	3209.05
950.244	3194.59
950.549	3182.61
950.854	3136.97
951.16	3111.2
951.465	3133.12
951.77	3101.49
952.075	3112.56
952.38	3088.38
952.685	3043.63
952.99	3009.06
953.294	3039.57
953.599	3035.73
953.904	3019.91
954.209	3000.25
954.513	2989.17
954.818	3008.16
955.122	2988.27
955.426	2997.53
955.731	2927.48
956.035	2944.88
956.339	2952.11
956.643	2896.29
956.948	2923.64
957.252	2884.54
957.556	2912.11
957.86	2886.8
958.163	2832.11
958.467	2819.91
958.771	2845.9
959.075	2814.71
959.378	2797.99
959.682	2799.35
959.985	2775.39
960.289	2776.98
960.592	2746.47
960.896	2727.03
961.199	2730.65
961.502	2726.58
961.805	2718.22
962.108	2706.47
962.411	2672.57
962.714	2649.29
963.017	2683.42
963.32	2674.6
963.623	2608.62
963.926	2628.28
964.228	2617.66
964.531	2600.71
964.833	2604.55
965.136	2598.22
965.438	2579.01
965.741	2575.85
966.043	2579.92
966.345	2565.68
966.648	2521.39
966.95	2532.46
967.252	2511.45
967.554	2508.28
967.856	2520.71
968.158	2496.98
968.46	2479.13
968.761	2447.04
969.063	2467.38
969.365	2440.26
969.666	2425.12
969.968	2441.62
970.269	2410.66
970.571	2452.24
970.872	2428.74
971.174	2384.67
971.475	2390.54
971.776	2352.35
972.077	2344.67
972.378	2352.13
972.679	2350.77
972.98	2358
973.281	2357.1
973.582	2319.81
973.883	2333.37
974.183	2265.12
974.484	2272.81
974.785	2282.3
975.085	2265.35
975.386	2251.57
975.686	2251.34
975.986	2214.05
976.287	2248.18
976.587	2217.22
976.887	2229.19
977.187	2199.59
977.487	2210.21
977.787	2219.7
978.087	2163.66
978.387	2174.28
978.687	2155.07
978.987	2179.7
979.286	2177.67
979.586	2136.09
979.885	2132.7
980.185	2150.55
980.484	2114.39
980.784	2127.05
981.083	2098.35
981.382	2083.89
981.682	2086.37
981.981	2061.74
982.28	2073.26
982.579	2071
982.878	2052.93
983.177	2046.15
983.475	2038.46
983.774	2004.11
984.073	2041.63
984.372	2013.83
984.67	2000.5
984.969	1993.27
985.267	2016.99
985.566	1962.53
985.864	1958.92
986.162	1968.63
986.461	1914.4
986.759	1933.83
987.057	1896.77
987.355	1895.19
987.653	1904.23
987.951	1904.68
988.249	1885.02
988.547	1893.16
988.844	1904.68
989.142	1852.93
989.44	1861.74
989.737	1845.25
990.035	1872.82
990.332	1866.49
990.63	1850.22
990.927	1842.76
991.224	1838.92
991.521	1830.79
991.819	1807.73
992.116	1795.08
992.413	1763.89
992.71	1763.44
993.006	1761.86
993.303	1778.58
993.6	1762.09
993.897	1772.71
994.193	1755.53
994.49	1712.6
994.787	1733.39
995.083	1714.86
995.379	1719.15
995.676	1714.18
995.972	1707.17
996.268	1679.6
996.565	1715.99
996.861	1711.69
997.157	1655.87
997.453	1634.86
997.749	1619.72
998.044	1636.89
998.34	1653.84
998.636	1645.93
998.932	1628.76
999.227	1617.01
999.523	1611.36
999.818	1548.08
1000.114	1566.84
1000.409	1573.62
1000.704	1602.54
1001	1575.2
1001.295	1560.51
1001.59	1560.06
1001.885	1543.56
1002.18	1512.83
1002.475	1526.16
1002.77	1523.67
1003.065	1507.63
1003.359	1527.97
1003.654	1509.21
1003.949	1486.61
1004.243	1502.88
1004.538	1444.81
1004.832	1475.54
1005.127	1472.38
1005.421	1461.53
1005.715	1438.25
1006.009	1472.6
1006.304	1437.35
1006.598	1428.54
1006.892	1412.49
1007.186	1420.17
1007.48	1412.94
1007.773	1370.23
1008.067	1400.97
1008.361	1356.22
1008.655	1376.79
1008.948	1345.83
1009.242	1384.7
1009.535	1370.01
1009.829	1353.51
1010.122	1355.32
1010.415	1310.8
1010.708	1321.65
1011.001	1321.19
1011.295	1302.21
1011.588	1299.5
1011.881	1289.78
1012.173	1274.64
1012.466	1270.57
1012.759	1291.36
1013.052	1302.21
1013.344	1276.22
1013.637	1276.22
1013.93	1257.47
1014.222	1226.28
1014.514	1240.29
1014.807	1212.72
1015.099	1229.45
1015.391	1204.81
1015.683	1229.67
1015.976	1226.06
1016.268	1225.6
1016.56	1204.36
1016.851	1193.51
1017.143	1160.29
1017.435	1170.69
1017.727	1157.36
1018.018	1129.33
1018.31	1150.8
1018.602	1174.08
1018.893	1144.25
1019.185	1124.59
1019.476	1140.63
1019.767	1113.29
1020.058	1117.81
1020.35	1085.04
1020.641	1115.1
1020.932	1077.13
1021.223	1066.06
1021.514	1081.43
1021.804	1071.26
1022.095	1067.64
1022.386	1086.62
1022.677	1080.07
1022.967	1039.85
1023.258	1027.64
1023.548	1054.08
1023.839	1024.25
1024.129	1036.68
1024.419	1021.54
1024.709	1010.92
1025	1014.54
1025.29	1003.69
1025.58	1012.73
1025.87	997.81
1026.16	1005.72
1026.449	984.25
1026.739	972.5
1027.029	953.97
1027.319	972.95
1027.608	943.58
1027.898	984.93
1028.187	946.29
1028.477	937.48
1028.766	945.61
1029.055	936.57
1029.344	919.4
1029.634	908.1
1029.923	934.31
1030.212	928.44
1030.501	939.96
1030.79	908.78
1031.078	879.17
1031.367	882.56
1031.656	872.39
1031.945	882.11
1032.233	892.5
1032.522	858.83
1032.81	850.92
1033.099	860.87
1033.387	863.35
1033.675	848.21
1033.963	835.56
1034.251	852.96
1034.54	830.13
1034.828	826.74
1035.116	836.91
1035.403	836.24
1035.691	836.46
1035.979	836.91
1036.267	809.8
1036.554	779.97
1036.842	801.89
1037.129	800.08
1037.417	790.36
1037.704	778.61
1037.992	771.15
1038.279	781.1
1038.566	779.97
1038.853	779.97
1039.14	779.97
