Data from breadboard_black_back_FLMS001491_00100.txt Node
Date: Wed Feb 08 10:51:12 GMT 2017
User: dcchb
Spectrometer: FLMS00149
Trigger mode: 0
Integration Time (sec): 2.000000E-2
Scans to average: 10
Electric dark correction enabled: true
Nonlinearity correction enabled: false
Boxcar width: 0
XAxis mode: Wavelengths
Number of Pixels in Spectrum: 2048
>>>>>Begin Spectral Data<<<<<
341.393	-22.33
341.776	-22.33
342.16	-22.33
342.543	-68.66
342.927	-70.92
343.31	-75.66
343.693	-63.46
344.077	-49.9
344.46	-46.28
344.843	-67.3
345.226	-41.99
345.61	-30.47
345.993	-10.13
346.376	-13.29
346.759	10.89
347.142	12.47
347.525	52.92
347.908	40.95
348.291	63.54
348.674	113.03
349.057	104.67
349.44	122.53
349.823	150.09
350.206	165.46
350.588	192.13
350.971	208.4
351.354	237.55
351.737	233.26
352.119	252.69
352.502	255.85
352.884	247.04
353.267	260.83
353.65	288.85
354.032	308.51
354.414	301.05
354.797	306.93
355.179	311.9
355.562	317.1
355.944	326.36
356.326	321.84
356.709	350.99
357.091	359.13
357.473	333.37
357.855	343.08
358.238	341.5
358.62	334.5
359.002	341.95
359.384	328.85
359.766	330.88
360.148	356.42
360.53	340.15
360.912	325.91
361.294	325.46
361.676	339.69
362.057	348.73
362.439	327.04
362.821	327.49
363.203	331.56
363.584	325.01
363.966	322.75
364.348	333.82
364.729	330.66
365.111	338.34
365.493	333.14
365.874	301.05
366.256	344.44
366.637	338.34
367.019	328.17
367.4	317.32
367.781	329.3
368.163	320.26
368.544	334.72
368.925	337.43
369.306	338.79
369.688	331.79
370.069	329.3
370.45	326.36
370.831	323.65
371.212	308.06
371.593	327.04
371.974	337.21
372.355	331.79
372.736	332.91
373.117	338.56
373.498	348.51
373.879	344.89
374.26	329.98
374.641	330.43
375.021	345.34
375.402	361.84
375.783	337.89
376.163	369.07
376.544	366.59
376.925	353.93
377.305	338.79
377.686	358.23
378.066	364.33
378.447	350.99
378.827	362.07
379.208	371.78
379.588	363.65
379.968	366.59
380.349	383.54
380.729	362.52
381.109	374.95
381.489	369.52
381.87	385.79
382.25	367.94
382.63	383.54
383.01	392.57
383.39	401.61
383.77	384.67
384.15	413.59
384.53	391.44
384.91	401.39
385.29	395.51
385.67	399.81
386.049	395.06
386.429	415.62
386.809	399.81
387.189	409.98
387.568	426.7
387.948	418.79
388.328	412.91
388.707	423.76
389.087	413.59
389.466	429.41
389.846	423.76
390.225	424.89
390.605	437.09
390.984	453.59
391.363	459.47
391.743	453.82
392.122	467.83
392.501	455.17
392.881	470.54
393.26	460.82
393.639	465.34
394.018	468.28
394.397	478
394.776	465.57
395.155	458.56
395.534	468.96
395.913	466.47
396.292	498.33
396.671	485.45
397.05	514.38
397.429	497.66
397.808	489.52
398.186	506.92
398.565	503.31
398.944	525.9
399.323	515.06
399.701	521.61
400.08	515.51
400.458	523.42
400.837	540.14
401.215	522.74
401.594	522.51
401.972	528.39
402.351	546.69
402.729	568.39
403.107	543.76
403.486	579.91
403.864	541.27
404.242	587.37
404.62	577.88
404.999	585.34
405.377	573.36
405.755	597.54
406.133	586.92
406.511	620.59
406.889	595.73
407.267	608.39
407.645	597.31
408.023	612.46
408.401	619.91
408.779	635.96
409.156	644.77
409.534	635.73
409.912	649.29
410.29	661.95
410.667	690.42
411.045	682.06
411.422	700.36
411.8	683.87
412.178	708.5
412.555	701.94
412.933	711.44
413.31	729.06
413.687	760.02
414.065	723.64
414.442	716.86
414.819	737.2
415.197	745.56
415.574	767.93
415.951	779.68
416.328	797.54
416.705	782.39
417.082	801.38
417.46	777.88
417.837	821.94
418.214	788.72
418.591	842.73
418.967	815.61
419.344	832.56
419.721	846.35
420.098	837.08
420.475	841.15
420.852	876.4
421.228	863.07
421.605	894.48
421.982	876.4
422.358	894.26
422.735	901.04
423.111	908.04
423.488	921.15
423.864	924.09
424.241	928.15
424.617	897.87
424.994	944.88
425.37	927.7
425.746	957.31
426.123	949.62
426.499	967.93
426.875	991.65
427.251	1002.73
427.627	1018.09
428.003	1046.57
428.379	1038.66
428.756	1045.66
429.132	1060.35
429.507	1085.21
429.883	1087.25
430.259	1119.33
430.635	1119.79
431.011	1082.5
431.387	1146.45
431.763	1171.09
432.138	1166.79
432.514	1188.26
432.89	1202.27
433.265	1234.13
433.641	1226.45
434.016	1244.3
434.392	1265.55
434.767	1262.16
435.143	1251.76
435.518	1285.88
435.894	1301.48
436.269	1329.72
436.644	1334.24
437.02	1342.61
437.395	1355.03
437.77	1388.71
438.145	1390.06
438.52	1403.4
438.895	1407.01
439.271	1419.21
439.646	1438.87
440.021	1454.47
440.395	1466.22
440.77	1487.01
441.145	1481.81
441.52	1514.35
441.895	1504.18
442.27	1520.68
442.645	1490.62
443.019	1555.03
443.394	1545.31
443.769	1561.81
444.143	1571.75
444.518	1580.57
444.892	1592.09
445.267	1578.53
445.641	1595.25
446.016	1623.05
446.39	1647.23
446.764	1638.64
447.139	1628.47
447.513	1701.24
447.887	1675.03
448.262	1699.66
448.636	1698.3
449.01	1713.9
449.384	1725.19
449.758	1732.43
450.132	1767.45
450.506	1749.37
450.88	1800.67
451.254	1819.2
451.628	1820.11
452.002	1825.08
452.376	1837.96
452.75	1861.91
453.123	1897.62
453.497	1920.22
453.871	1922.25
454.244	1967.45
454.618	1988.01
454.992	2007.9
455.365	2008.35
455.739	2062.36
456.112	2085.86
456.486	2091.29
456.859	2123.83
457.232	2148.46
457.606	2178.97
457.979	2191.62
458.352	2227.78
458.725	2229.14
459.099	2288.12
459.472	2301.9
459.845	2315.46
460.218	2337.38
460.591	2399.08
460.964	2419.87
461.337	2479.98
461.71	2497.38
462.083	2512.07
462.456	2512.07
462.829	2527.21
463.201	2582.12
463.574	2607.88
463.947	2620.09
464.32	2673.42
464.692	2694.66
465.065	2706.19
465.438	2769.24
465.81	2793.42
466.183	2839.97
466.555	2909.8
466.928	2915.45
467.3	2903.92
467.672	2967.87
468.045	3017.14
468.417	3076.35
468.789	3100.75
469.161	3087.19
469.534	3135.78
469.906	3232.05
470.278	3268.43
470.65	3288.32
471.022	3329.9
471.394	3413.51
471.766	3457.35
472.138	3479.72
472.51	3534.19
472.882	3586.16
473.253	3617.12
473.625	3698.25
473.997	3797.91
474.369	3820.73
474.74	3822.54
475.112	3934.63
475.484	3968.3
475.855	4050.11
476.227	4063.89
476.598	4222.76
476.97	4214.39
477.341	4312.02
477.713	4356.99
478.084	4398.57
478.455	4515.86
478.827	4573.93
479.198	4658.9
479.569	4674.04
479.94	4832.23
480.311	4846.02
480.682	5007.14
481.053	5069.51
481.424	5205.1
481.795	5212.79
482.166	5314.7
482.537	5355.83
482.908	5510.63
483.279	5505.89
483.65	5632.89
484.021	5712.89
484.391	5807.57
484.762	5849.61
485.133	5876.95
485.503	6018.64
485.874	6056.61
486.244	6191.07
486.615	6316.49
486.985	6367.56
487.356	6493.66
487.726	6542.47
488.097	6639.42
488.467	6687.1
488.837	6843.03
489.207	6875.12
489.578	6999.18
489.948	7112.4
490.318	7148.78
490.688	7240.98
491.058	7368.21
491.428	7416.12
491.798	7523.69
492.168	7650.91
492.538	7694.3
492.908	7813.62
493.278	7904.24
493.648	7866.28
494.017	8010
494.387	8089.1
494.757	8152.82
495.126	8274.85
495.496	8313.95
495.866	8410.44
496.235	8465.36
496.605	8537.45
496.974	8572.7
497.344	8674.16
497.713	8710.77
498.082	8874.16
498.452	8896.98
498.821	8936.53
499.19	8991.22
499.559	9023.99
499.928	9211.1
500.298	9203.87
500.667	9301.49
501.036	9334.49
501.405	9410.87
501.774	9404.99
502.143	9489.51
502.512	9655.61
502.88	9646.57
503.249	9687.7
503.618	9762.95
503.987	9875.26
504.356	9842.04
504.724	9954.13
505.093	10024.86
505.462	10082.26
505.83	10204.07
506.199	10218.3
506.567	10336.72
506.936	10347.34
507.304	10444.29
507.672	10565.41
508.041	10599.54
508.409	10629.82
508.777	10791.85
509.145	10834.33
509.514	10902.58
509.882	10966.31
510.25	11087.43
510.618	11125.17
510.986	11131.5
511.354	11271.61
511.722	11415.79
512.09	11506.41
512.458	11520.19
512.826	11642.9
513.193	11751.37
513.561	11718.6
513.929	11900.97
514.297	11966.06
514.664	11985.94
515.032	12142.32
515.4	12271.13
515.767	12282.88
516.135	12399.49
516.502	12321.53
516.869	12549.54
517.237	12650.11
517.604	12572.37
517.972	12794.96
518.339	12843.77
518.706	12881.51
519.073	13005.35
519.44	13131.9
519.808	13196.76
520.175	13216.42
520.542	13495.51
520.909	13520.59
521.276	13614.37
521.643	13668.61
522.009	13801.49
522.376	13927.13
522.743	13983.86
523.11	14181.59
523.477	14361.47
523.843	14464.52
524.21	14560.79
524.577	14734.12
524.943	14727.56
525.31	14838.52
525.676	14934.11
526.043	15111.28
526.409	15121.9
526.776	15253.2
527.142	15319.87
527.508	15478.96
527.874	15500.65
528.241	15644.6
528.607	15800.76
528.973	15950.81
529.339	15925.95
529.705	16143.12
530.071	16192.61
530.437	16268.77
530.803	16386.5
531.169	16478.93
531.535	16564.8
531.901	16560.06
532.267	16715.31
532.632	16861.07
532.998	16904.68
533.364	16944.23
533.73	16963.21
534.095	17182.19
534.461	17221.96
534.826	17335.86
535.192	17423.77
535.557	17548.28
535.923	17466.25
536.288	17584.66
536.653	17717.32
537.019	17678
537.384	17817.43
537.749	17939.01
538.114	17894.04
538.479	17982.85
538.845	18127.93
539.21	18073.69
539.575	18232.11
539.94	18149.4
540.305	18348.26
540.67	18331.76
541.034	18571.76
541.399	18566.33
541.764	18677.74
542.129	18594.58
542.494	18842.48
542.858	18894.46
543.223	18748.02
543.587	19059.2
543.952	19002.03
544.316	19130.16
544.681	18971.97
545.045	19132.19
545.41	19335.81
545.774	19371.74
546.138	19388.23
546.503	19488.12
546.867	19430.27
547.231	19719.3
547.595	19735.57
547.959	19772.63
548.324	19737.38
548.688	19740.99
549.052	19885.17
549.416	20081.32
549.779	19997.71
550.143	20079.06
550.507	20236.57
550.871	20282.45
551.235	20251.71
551.599	20621.42
551.962	20581.42
552.326	20634.08
552.689	20739.16
553.053	20656
553.417	20774.86
553.78	21025.93
554.143	20940.06
554.507	21138.7
554.87	21155.19
555.234	21436.77
555.597	21275.87
555.96	21419.14
556.323	21577.55
556.686	21540.49
557.05	21705.01
557.413	21714.95
557.776	21860.48
558.139	21970.31
558.502	21966.92
558.865	22093.25
559.228	22285.78
559.59	22470.41
559.953	22431.99
560.316	22596.74
560.679	22654.36
561.041	22766.68
561.404	22838.31
561.767	23046.22
562.129	22971.64
562.492	23198.3
562.854	23221.35
563.217	23084.41
563.579	23400.56
563.941	23527.33
564.304	23541.57
564.666	23785.18
565.028	23703.83
565.39	23873.09
565.753	24023.14
566.115	24147.88
566.477	24157.15
566.839	24371.15
567.201	24411.83
567.563	24496.35
567.925	24697.7
568.287	24663.57
568.648	24793.29
569.01	24940.86
569.372	25033.51
569.734	25009.33
570.095	25251.81
570.457	25324.12
570.819	25365.7
571.18	25313.28
571.542	25566.38
571.903	25582.42
572.265	25665.81
572.626	25791.68
572.987	25794.17
573.349	25927.04
573.71	26049.53
574.071	26129.98
574.432	26209.07
574.794	26369.29
575.155	26343.08
575.516	26217.66
575.877	26463.53
576.238	26520.25
576.599	26544.66
576.96	26657.65
577.32	26540.36
577.681	26724.99
578.042	26774.25
578.403	26813.57
578.763	26766.8
579.124	26833.46
579.485	27039.56
579.845	27009.95
580.206	27011.08
580.566	27038.43
580.927	26931.76
581.287	27230.74
581.648	27075.04
582.008	27219.44
582.368	27240.68
582.728	27307.35
583.089	27146.45
583.449	27294.92
583.809	27252.21
584.169	27286.78
584.529	27227.35
584.889	27373.33
585.249	27270.74
585.609	27317.52
585.969	27393.9
586.329	27330.85
586.688	27371.53
587.048	27291.75
587.408	27344.18
587.768	27358.19
588.127	27369.49
588.487	27255.82
588.846	27520.45
589.206	27323.39
589.565	27417.4
589.925	27527.45
590.284	27382.15
590.643	27461.69
591.003	27551.41
591.362	27552.09
591.721	27516.83
592.08	27622.37
592.44	27635.02
592.799	27714.34
593.158	27652.65
593.517	27546.44
593.876	27710.5
594.235	27682.7
594.593	27697.85
594.952	27723.38
595.311	27591.63
595.67	27784.62
596.029	27806.99
596.387	27871.85
596.746	27829.14
597.104	27890.16
597.463	27795.02
597.822	27982.13
598.18	27830.95
598.538	27841.34
598.897	27943.04
599.255	27880.67
599.613	28223.26
599.972	28000.89
600.33	28104.61
600.688	27957.5
601.046	28269.36
601.404	28235.01
601.762	28132.64
602.12	28242.01
602.478	28298.73
602.836	28222.58
603.194	28218.51
603.552	28325.4
603.91	28080.43
604.268	28355.68
604.625	28348.22
604.983	28466.41
605.341	28294.21
605.698	28443.14
606.056	28496.69
606.413	28494.66
606.771	28541.21
607.128	28597.93
607.485	28379.18
607.843	28458.73
608.2	28740.98
608.557	28814.88
608.914	28649.46
609.272	28827.76
609.629	28915.89
609.986	28990.92
610.343	28832.5
610.7	29067.07
611.057	29066.17
611.414	28997.92
611.771	29034.76
612.127	29041.09
612.484	29036.57
612.841	29124.47
613.198	29081.54
613.554	29083.35
613.911	29272.27
614.267	29290.57
614.624	29259.61
614.98	29337.8
615.337	29507.97
615.693	29300.97
616.05	29460.51
616.406	29586.84
616.762	29429.1
617.118	29474.75
617.475	29594.74
617.831	29538.25
618.187	29553.62
618.543	29657.12
618.899	29728.53
619.255	29659.6
619.611	29606.04
619.967	29731.69
620.323	29916.09
620.678	29734.4
621.034	29711.35
621.39	29678.36
621.746	29641.07
622.101	30026.37
622.457	29688.53
622.812	29757.68
623.168	29905.02
623.523	29869.99
623.879	30056.65
624.234	29662.54
624.589	29789.54
624.945	29718.58
625.3	29949.99
625.655	29802.65
626.01	29770.56
626.365	29744.12
626.72	29731.92
627.075	29866.83
627.43	29896.88
627.785	29743.22
628.14	29955.86
628.495	29850.33
628.85	29866.6
629.205	29713.39
629.559	29998.8
629.914	29709.77
630.269	29769.66
630.623	29744.12
630.978	29714.52
631.332	29833.83
631.687	29840.16
632.041	29688.75
632.396	29719.26
632.75	29606.72
633.104	29708.41
633.459	29606.27
633.813	29479.72
634.167	29564.46
634.521	29426.61
634.875	29520.85
635.229	29450.79
635.583	29379.83
635.937	29303.45
636.291	29303
636.645	29310.68
636.999	29198.37
637.352	29341.64
637.706	29179.16
638.06	29248.09
638.413	29235.88
638.767	29149.11
639.121	29218.03
639.474	28972.84
639.828	29018.71
640.181	29061.43
640.534	29103.46
640.888	28886.51
641.241	28810.36
641.594	28874.99
641.947	28972.84
642.301	28924.48
642.654	28845.16
643.007	28773.07
643.36	28740.98
643.713	28820.75
644.066	28830.24
644.419	28667.54
644.771	28570.59
645.124	28270.94
645.477	28287.89
645.83	27983.26
646.182	27741.91
646.535	27786.43
646.888	27877.28
647.24	27619.88
647.593	27716.83
647.945	27683.83
648.298	27506.44
648.65	27431.64
649.002	27479.09
649.355	27627.79
649.707	27588.7
650.059	27686.55
650.411	28181.67
650.763	28074.11
651.115	28240.43
651.467	28164.5
651.819	28182.8
652.171	28121.34
652.523	28000.21
652.875	27944.17
653.227	27826.88
653.578	28069.36
653.93	27929.25
654.282	27872.76
654.633	27836.6
654.985	27865.75
655.337	27857.16
655.688	27797.5
656.039	27974.67
656.391	27759.54
656.742	27786.66
657.094	27813.55
657.445	27968.57
657.796	27856.71
658.147	27700.56
658.498	27641.58
658.849	27837.95
659.2	27629.37
659.551	27618.75
659.902	27769.26
660.253	27719.99
660.604	27771.29
660.955	27619.2
661.306	27682.25
661.656	27729.26
662.007	27665.76
662.358	27631.18
662.708	27611.07
663.059	27535.59
663.409	27471.41
663.76	27637.06
664.11	27548.92
664.461	27524.06
664.811	27598.86
665.161	27611.07
665.511	27450.39
665.862	27529.04
666.212	27452.88
666.562	27710.95
666.912	27438.42
667.262	27456.04
667.612	27521.8
667.962	27447.46
668.312	27568.58
668.662	27618.98
669.011	27377.4
669.361	27400.68
669.711	27405.65
670.06	27353.22
670.41	27326.78
670.76	27248.82
671.109	27353
671.459	27220.12
671.808	27310.06
672.157	27351.19
672.507	27204.3
672.856	27196.16
673.205	27106
673.554	27293.34
673.904	27174.24
674.253	27197.07
674.602	27138.31
674.951	26900.8
675.3	26722.5
675.649	27103.28
675.998	26996.62
676.346	26997.07
676.695	27151.19
677.044	26816.51
677.393	27016.96
677.741	26979.67
678.09	26901.03
678.438	26830.3
678.787	26964.76
679.135	26929.73
679.484	26686.35
679.832	26786.46
680.181	26662.62
680.529	26683.86
680.877	26626.69
681.225	26720.02
681.573	26777.64
681.922	26640.7
682.27	26537.88
682.618	26609.29
682.966	26653.13
683.314	26459.91
683.661	26507.14
684.009	26379.01
684.357	26290.65
684.705	26248.39
685.053	26234.15
685.4	26163.87
685.748	26094.05
686.095	26029.41
686.443	26011.79
686.79	25823.54
687.138	25969.98
687.485	25980.83
687.832	25930.43
688.18	25816.76
688.527	25692.47
688.874	25763.66
689.221	25727.28
689.568	25703.55
689.915	25415.19
690.262	25569.99
690.609	25498.13
690.956	25520.73
691.303	25328.42
691.65	25253.16
691.997	25137.46
692.344	25176.33
692.69	25004.13
693.037	25115.77
693.383	24934.53
693.73	24968.65
694.077	24820.18
694.423	24756
694.769	24676.46
695.116	24566.18
695.462	24652.05
695.808	24536.12
696.155	24645.04
696.501	24441.21
696.847	24441.21
697.193	24214.09
697.539	24257.26
697.885	23988.79
698.231	24073.08
698.577	24037.83
698.923	24015.68
699.269	23925.97
699.614	23832.86
699.96	23789.7
700.306	23800.32
700.651	23629.03
700.997	23635.35
701.342	23426.32
701.688	23469.03
702.033	23447.34
702.379	23402.82
702.724	23382.7
703.069	23349.71
703.415	23087.34
703.76	23192.65
704.105	23176.38
704.45	23141.35
704.795	22958.08
705.14	22873.79
705.485	22909.95
705.83	22758.54
706.175	22855.94
706.52	22686.45
706.865	22655.72
707.209	22585.21
707.554	22466.12
707.899	22507.25
708.243	22484.2
708.588	22406.68
708.932	22322.17
709.277	22250.08
709.621	22331.43
709.966	22225.67
710.31	22237.42
710.654	21995.62
710.998	22065.22
711.342	22088.95
711.687	21965.57
712.031	21852.12
712.375	21767.38
712.719	21792.92
713.063	21762.86
713.407	21855.29
713.75	21709.75
714.094	21713.82
714.438	21655.07
714.782	21510.66
715.125	21513.15
715.469	21566.48
715.812	21359.03
716.156	21286.26
716.499	21340.95
716.843	21368.29
717.186	21125.81
717.53	21402.42
717.873	21349.76
718.216	21200.16
718.559	21116.55
718.902	21006.04
719.246	21028.64
719.589	20855.54
719.932	20835.2
720.275	20904.13
720.617	20954.52
720.96	20861.87
721.303	20831.36
721.646	20826.16
721.989	20722.89
722.331	20677.46
722.674	20721.53
723.016	20653.74
723.359	20592.95
723.701	20597.24
724.044	20424.59
724.386	20347.08
724.729	20448.09
725.071	20434.99
725.413	20379.39
725.755	20387.3
726.097	20425.27
726.439	20286.06
726.782	20346.63
727.124	20286.06
727.465	20124.03
727.807	20237.7
728.149	20096.01
728.491	20081.55
728.833	20059.85
729.175	20117.25
729.516	19988.22
729.858	19949.8
730.199	20024.83
730.541	19850.59
730.882	19897.15
731.224	19876.81
731.565	19754.33
731.906	19829.8
732.248	19834.32
732.589	19757.49
732.93	19678.62
733.271	19688.56
733.612	19617.61
733.953	19731.95
734.294	19670.71
734.635	19484.95
734.976	19600.43
735.317	19508
735.658	19489.25
735.999	19461.45
736.339	19437.27
736.68	19414.9
737.021	19376.71
737.361	19234.79
737.702	19429.59
738.042	19324.28
738.383	19329.25
738.723	19296.71
739.063	19185.3
739.404	19243.6
739.744	19182.59
740.084	19159.54
740.424	19124.51
740.764	19054
741.104	19096.04
741.444	19053.78
741.784	19058.07
742.124	18968.58
742.464	18951.63
742.804	19010.39
743.143	18926.1
743.483	18955.93
743.823	18730.4
744.162	18713.67
744.502	18861.92
744.841	18628.48
745.181	18794.58
745.52	18652.43
745.86	18767.68
746.199	18611.3
746.538	18542.83
746.877	18682.49
747.216	18670.29
747.556	18532.66
747.895	18572.21
748.234	18537.86
748.573	18518.43
748.911	18476.39
749.25	18328.37
749.589	18221.71
749.928	18395.26
750.267	18300.13
750.605	18223.97
750.944	18155.05
751.283	18189.85
751.621	18140.81
751.96	18016.97
752.298	18016.29
752.636	18002.96
752.975	17926.35
753.313	17828.95
753.651	17864.43
753.989	17859.91
754.327	17771.33
754.666	17785.34
755.004	17795.73
755.342	17712.8
755.679	17793.25
756.017	17533.14
756.355	17641.39
756.693	17456.76
757.031	17624.89
757.368	17473.03
757.706	17526.81
758.044	17372.47
758.381	17354.16
758.719	17340.38
759.056	17300.15
759.394	17362.3
759.731	17177.67
760.068	17102.64
760.405	17174.28
760.743	17014.74
761.08	17072.14
761.417	16945.81
761.754	16857.9
762.091	16838.7
762.428	16834.63
762.765	16767.96
763.102	16808.64
763.438	16555.77
763.775	16615.42
764.112	16590.79
764.449	16657.91
764.785	16491.81
765.122	16377.69
765.458	16309.22
765.795	16257.92
766.131	16230.58
766.467	16203.23
766.804	16140.41
767.14	16038.26
767.476	16097.92
767.812	16012.05
768.148	16049.34
768.485	15899.74
768.821	15838.72
769.157	15828.1
769.492	15748.33
769.828	15791.49
770.164	15596.24
770.5	15668.78
770.836	15562.8
771.171	15450.03
771.507	15357.15
771.842	15274.89
772.178	15350.6
772.513	15284.16
772.849	15271.05
773.184	15145.86
773.519	15158.06
773.855	15073.54
774.19	14997.39
774.525	14960.55
774.86	15037.16
775.195	14860.44
775.53	14951.06
775.865	14690.28
776.2	14710.16
776.535	14538.42
776.87	14552.65
777.205	14480.11
777.539	14472.66
777.874	14455.48
778.209	14304.07
778.543	14232.89
778.878	14219.33
779.212	14178.43
779.547	14148.6
779.881	14224.75
780.215	14092.33
780.55	14114.25
780.884	14028.83
781.218	13974.59
781.552	14010.07
781.886	13838.55
782.22	13846.01
782.554	13721.49
782.888	13592.23
783.222	13592
783.556	13545.9
783.889	13533.02
784.223	13386.81
784.557	13505
784.89	13462.29
785.224	13264.55
785.557	13259.35
785.891	13274.72
786.224	13214.61
786.558	13148.4
786.891	13054.16
787.224	13102.75
787.557	13049.19
787.891	13044.45
788.224	12944.33
788.557	12948.85
788.89	12876.54
789.223	12898.46
789.556	12730.1
789.888	12758.58
790.221	12734.85
790.554	12624.57
790.887	12658.24
791.219	12582.99
791.552	12559.49
791.884	12464.35
792.217	12400.62
792.549	12386.61
792.882	12368.53
793.214	12269.78
793.546	12301.19
793.879	12225.71
794.211	12153.62
794.543	12248.76
794.875	12117.69
795.207	12134.41
795.539	12051.25
795.871	12019.84
796.203	11941.42
796.535	11889
796.867	11859.39
797.198	11863.46
797.53	11820.52
797.862	11841.99
798.193	11745.95
798.525	11723.35
798.856	11628.89
799.188	11618.95
799.519	11575.78
799.85	11464.6
800.182	11527.2
800.513	11550.93
800.844	11467.09
801.175	11529
801.506	11338.73
801.837	11375.34
802.168	11308.45
802.499	11289.24
802.83	11285.85
803.161	11168.11
803.491	11176.02
803.822	11152.07
804.153	11044.95
804.483	11071.39
804.814	11032.52
805.145	11077.27
805.475	11021.9
805.805	10938.74
806.136	11001.79
806.466	10905.29
806.796	10917.72
807.126	10868.01
807.457	10857.38
807.787	10815.35
808.117	10761.34
808.447	10697.84
808.777	10725.18
809.107	10677.05
809.436	10656.26
809.766	10637.95
810.096	10624.62
810.426	10602.7
810.755	10547.56
811.085	10588.46
811.414	10516.83
811.744	10476.6
812.073	10491.07
812.403	10480.67
812.732	10348.7
813.061	10395.25
813.39	10292.88
813.719	10272.09
814.049	10327.91
814.378	10309.6
814.707	10264.41
815.036	10249.72
815.365	10152.77
815.693	10094.92
816.022	10078.42
816.351	10058.08
816.68	10033
817.008	9981.02
817.337	9929.05
817.665	9951.87
817.994	10013.11
818.322	9998.65
818.651	9934.47
818.979	9825.09
819.307	9862.38
819.636	9863.96
819.964	9771.76
820.292	9834.13
820.62	9839.78
820.948	9792.33
821.276	9815.15
821.604	9795.27
821.932	9840.91
822.259	9823.29
822.587	9824.19
822.915	9739.67
823.243	9840.01
823.57	9781.93
823.898	9741.03
824.225	9739.45
824.553	9738.54
824.88	9785.1
825.207	9824.19
825.535	9747.36
825.862	9795.04
826.189	9687.7
826.516	9735.83
826.843	9802.5
827.17	9757.3
827.497	9827.58
827.824	9767.47
828.151	9831.65
828.478	9757.75
828.805	9823.96
829.131	9736.28
829.458	9696.74
829.785	9713.91
830.111	9735.15
830.438	9778.09
830.764	9682.95
831.09	9759.11
831.417	9647.7
831.743	9743.74
832.069	9781.48
832.395	9741.26
832.722	9710.97
833.048	9699.9
833.374	9708.94
833.7	9697.41
834.026	9649.51
834.351	9680.47
834.677	9642.05
835.003	9673.01
835.329	9623.29
835.654	9623.29
835.98	9532.22
836.306	9649.28
836.631	9647.02
836.956	9600.69
837.282	9568.6
837.607	9493.8
837.932	9510.75
838.258	9531.77
838.583	9499
838.908	9451.09
839.233	9435.27
839.558	9464.43
839.883	9423.52
840.208	9429.85
840.533	9401.38
840.858	9367.25
841.182	9362.06
841.507	9420.13
841.832	9293.81
842.156	9288.61
842.481	9309.63
842.805	9260.36
843.13	9250.42
843.454	9266.69
843.778	9174.04
844.103	9243.19
844.427	9178.56
844.751	9151.67
845.075	9088.39
845.399	9090.42
845.723	9066.02
846.047	9057.66
846.371	9004.1
846.695	8994.16
847.019	8985.34
847.343	8826.25
847.666	8907.38
847.99	8837.32
848.313	8839.36
848.637	8778.12
848.96	8777.66
849.284	8652.47
849.607	8700.38
849.931	8653.6
850.254	8623.54
850.577	8586.26
850.9	8524.34
851.223	8494.96
851.546	8431.69
851.869	8415.19
852.192	8467.16
852.515	8368.41
852.838	8369.99
853.161	8376.55
853.483	8284.8
853.806	8219.26
854.129	8253.61
854.451	8214.97
854.774	8183.56
855.096	8219.49
855.419	8136.1
855.741	8151.01
856.063	8069.21
856.385	8035.54
856.708	8011.81
857.03	8017.01
857.352	8010.91
857.674	7979.04
857.996	7941.3
858.318	7902.21
858.64	7845.49
858.961	7938.82
859.283	7908.99
859.605	7831.93
859.926	7897.01
860.248	7834.41
860.57	7806.62
860.891	7809.55
861.212	7702.66
861.534	7723.23
861.855	7737.47
862.176	7683.91
862.498	7654.53
862.819	7687.3
863.14	7616.57
863.461	7684.36
863.782	7614.53
864.103	7595.77
864.424	7615.66
864.745	7683
865.065	7566.85
865.386	7556.91
865.707	7485.95
866.027	7558.26
866.348	7525.95
866.668	7511.94
866.989	7507.19
867.309	7449.56
867.63	7481.2
867.95	7462.9
868.27	7394.2
868.59	7453.86
868.91	7427.19
869.23	7338.15
869.55	7392.62
869.87	7403.01
870.19	7356.91
870.51	7426.06
870.83	7372.28
871.15	7315.33
871.469	7341.09
871.789	7313.3
872.109	7306.29
872.428	7227.2
872.748	7254.31
873.067	7253.41
873.386	7269
873.706	7287.08
874.025	7189.23
874.344	7236.24
874.663	7249.34
874.982	7138.16
875.301	7199.85
875.62	7097.71
875.939	7130.48
876.258	7232.62
876.577	7162.34
876.896	7154.2
877.214	7084.6
877.533	7141.32
877.852	7155.79
878.17	7099.29
878.489	7083.92
878.807	7099.06
879.125	7111.49
879.444	7044.6
879.762	7077.37
880.08	7057.71
880.398	6970.25
880.716	7042.12
881.034	7009.8
881.352	7024.94
881.67	6952.18
881.988	6971.84
882.306	6967.54
882.624	6918.28
882.941	6892.74
883.259	6893.87
883.577	6871.95
883.894	6874.89
884.212	6866.3
884.529	6788.11
884.846	6793.54
885.164	6778.62
885.481	6816.81
885.798	6759.19
886.115	6766.64
886.432	6717.83
886.75	6734.1
887.067	6707.44
887.383	6702.24
887.7	6761.67
888.017	6694.33
888.334	6673.99
888.651	6684.39
888.967	6624.27
889.284	6541.11
889.6	6574.11
889.917	6475.13
890.233	6537.95
890.55	6506.09
890.866	6485.75
891.182	6480.55
891.498	6476.71
891.815	6524.39
892.131	6436.71
892.447	6433.32
892.763	6418.18
893.079	6381.34
893.395	6361.68
893.71	6363.72
894.026	6375.69
894.342	6322.14
894.657	6324.62
894.973	6300.22
895.289	6292.31
895.604	6251.4
895.92	6235.58
896.235	6245.08
896.55	6251.86
896.865	6182.7
897.181	6225.19
897.496	6199.65
897.811	6107.45
898.126	6132.08
898.441	6083.72
898.756	6025.65
899.071	6058.41
899.386	6043.95
899.7	6037.17
900.015	6003.95
900.33	5977.74
900.644	5874.69
900.959	5934.35
901.273	5912.2
901.588	5889.61
901.902	5876.72
902.216	5839.21
902.531	5822.94
902.845	5772.77
903.159	5764.41
903.473	5712.21
903.787	5722.6
904.101	5674.24
904.415	5695.71
904.729	5672.66
905.042	5661.14
905.356	5586.79
905.67	5606.9
905.984	5596.05
906.297	5556.73
906.611	5517.64
906.924	5500.46
907.237	5529.84
907.551	5503.63
907.864	5495.72
908.177	5455.49
908.491	5422.05
908.804	5400.58
909.117	5368.04
909.43	5423.63
909.743	5381.37
910.056	5371.2
910.368	5310.86
910.681	5291.88
910.994	5293.46
911.307	5259.57
911.619	5214.37
911.932	5236.29
912.244	5175.73
912.557	5189.51
912.869	5151.32
913.181	5161.04
913.494	5091.43
913.806	5062.51
914.118	5118.55
914.43	5044.66
914.742	5087.82
915.054	5013.24
915.366	5040.36
915.678	5000.14
915.99	4941.38
916.302	4914.72
916.613	4916.07
916.925	4938.44
917.236	4886.24
917.548	4851.67
917.859	4875.17
918.171	4855.06
918.482	4799.01
918.794	4784.1
919.105	4780.93
919.416	4727.38
919.727	4740.93
920.038	4701.39
920.349	4668.17
920.66	4674.72
920.971	4676.3
921.282	4662.97
921.593	4645.12
921.903	4593.59
922.214	4592.01
922.525	4570.09
922.835	4516.76
923.146	4519.47
923.456	4475.63
923.767	4500.71
924.077	4464.78
924.387	4482.64
924.697	4451.68
925.008	4417.33
925.318	4378.23
925.628	4360.15
925.938	4425.01
926.248	4310.44
926.558	4319.02
926.867	4322.87
927.177	4342.75
927.487	4303.66
927.796	4194.28
928.106	4220.04
928.416	4227.28
928.725	4229.76
929.034	4198.58
929.344	4180.5
929.653	4167.39
929.962	4168.52
930.271	4150.67
930.581	4093.04
930.89	4084.68
931.199	4046.04
931.508	4048.3
931.817	4071.12
932.125	4011.91
932.434	4005.81
932.743	3975.31
933.051	3994.74
933.36	3966.27
933.669	3941.86
933.977	3913.16
934.286	3890.79
934.594	3911.35
934.902	3844.46
935.21	3822.54
935.519	3851.69
935.827	3892.37
936.135	3824.57
936.443	3790.9
936.751	3784.35
937.059	3778.7
937.367	3759.04
937.674	3753.16
937.982	3691.7
938.29	3717.23
938.597	3691.47
938.905	3690.34
939.213	3670.68
939.52	3641.75
939.827	3662.54
940.135	3627.07
940.442	3617.8
940.749	3599.5
941.056	3612.83
941.363	3571.93
941.67	3545.94
941.977	3526.05
942.284	3531.47
942.591	3467.75
942.898	3491.93
943.205	3470.23
943.511	3472.27
943.818	3458.93
944.125	3434.98
944.431	3403.12
944.738	3409.67
945.044	3370.35
945.35	3363.12
945.657	3363.34
945.963	3326.28
946.269	3368.77
946.575	3327.86
946.881	3309.33
947.187	3338.03
947.493	3275.89
947.799	3303.91
948.105	3228.43
948.41	3241.54
948.716	3232.27
949.022	3204.93
949.327	3214.2
949.633	3215.78
949.938	3173.74
950.244	3174.42
950.549	3174.87
950.854	3162.67
951.16	3154.54
951.465	3117.02
951.77	3117.93
952.075	3066.63
952.38	3105.5
952.685	3069.79
952.99	3037.7
953.294	3034.99
953.599	3023.24
953.904	2999.51
954.209	2980.53
954.513	2991.38
954.818	2992.51
955.122	2988.21
955.426	2929.23
955.731	2925.84
956.035	2915.22
956.339	2926.07
956.643	2904.6
956.948	2876.12
957.252	2897.14
957.556	2908.89
957.86	2876.12
958.163	2858.5
958.467	2839.97
958.771	2855.56
959.075	2804.49
959.378	2821.21
959.682	2785.73
959.985	2786.64
960.289	2762.68
960.592	2768.33
960.896	2730.37
961.199	2766.07
961.502	2733.98
961.805	2736.47
962.108	2675.23
962.411	2660.31
962.714	2673.42
963.017	2667.77
963.32	2669.58
963.623	2660.31
963.926	2658.28
964.228	2623.7
964.531	2621.67
964.833	2615.11
965.136	2614.21
965.438	2572.18
965.741	2559.52
966.043	2595.23
966.345	2528.79
966.648	2564.49
966.95	2555.91
967.252	2498.51
967.554	2512.52
967.856	2459.19
968.158	2460.32
968.46	2458.73
968.761	2481.11
969.063	2507.77
969.365	2441.56
969.666	2476.81
969.968	2424.84
970.269	2436.36
970.571	2442.69
970.872	2402.69
971.174	2405.4
971.475	2365.63
971.776	2350.49
972.077	2366.53
972.378	2351.84
972.679	2331.05
972.98	2343.26
973.281	2303.03
973.582	2302.13
973.883	2282.24
974.183	2280.43
974.484	2261.45
974.785	2277.5
975.085	2294.9
975.386	2259.42
975.686	2217.61
975.986	2257.84
976.287	2256.71
976.587	2216.03
976.887	2229.59
977.187	2229.14
977.487	2195.46
977.787	2215.13
978.087	2182.13
978.387	2182.13
978.687	2220.32
978.987	2114.34
979.286	2158.86
979.586	2133.77
979.885	2098.29
980.185	2096.48
980.484	2117.73
980.784	2086.99
981.083	2097.39
981.382	2087.22
981.682	2078.41
981.981	2060.1
982.28	2038.86
982.579	2040.44
982.878	2054.9
983.177	2013.1
983.475	1999.99
983.774	2021.01
984.073	2023.04
984.372	1990.27
984.67	2007
984.969	2004.96
985.267	1992.31
985.566	1970.84
985.864	1968.35
986.162	1933.55
986.461	1962.02
986.759	1934.68
987.057	1951.18
987.355	1912.99
987.653	1912.53
987.951	1911.86
988.249	1897.62
988.547	1896.49
988.844	1877.73
989.142	1868.69
989.44	1848.13
989.737	1839.32
990.035	1828.69
990.332	1847
990.63	1848.81
990.927	1847.68
991.224	1821.69
991.521	1822.59
991.819	1830.95
992.116	1790.96
992.413	1778.75
992.71	1774.68
993.006	1764.06
993.303	1775.36
993.6	1746.66
993.897	1729.26
994.193	1715.48
994.49	1750.28
994.787	1710.51
995.083	1723.39
995.379	1698.08
995.676	1706.44
995.972	1698.75
996.268	1718.19
996.565	1682.26
996.861	1646.1
997.157	1657.63
997.453	1649.94
997.749	1615.14
998.044	1633.22
998.34	1609.27
998.636	1658.08
998.932	1611.53
999.227	1606.78
999.523	1600.9
999.818	1594.58
1000.114	1585.31
1000.409	1575.37
1000.704	1575.59
1001	1586.22
1001.295	1543.05
1001.59	1543.05
1001.885	1535.82
1002.18	1533.34
1002.475	1529.49
1002.77	1524.52
1003.065	1501.92
1003.359	1509.16
1003.654	1512.09
1003.949	1483.39
1004.243	1497.4
1004.538	1478.65
1004.832	1466.44
1005.127	1472.77
1005.421	1446.11
1005.715	1416.5
1006.009	1449.04
1006.304	1444.98
1006.598	1437.74
1006.892	1429.61
1007.186	1404.07
1007.48	1400.01
1007.773	1419.21
1008.067	1365.66
1008.361	1372.21
1008.655	1363.62
1008.948	1354.36
1009.242	1353.45
1009.535	1344.64
1009.829	1339.44
1010.122	1327.01
1010.415	1343.51
1010.708	1319.56
1011.001	1316.39
1011.295	1322.95
1011.588	1306.67
1011.881	1331.31
1012.173	1270.07
1012.466	1260.12
1012.759	1278.65
1013.052	1279.33
1013.344	1267.13
1013.637	1243.85
1013.93	1238.43
1014.222	1237.75
1014.514	1224.19
1014.807	1224.42
1015.099	1202.95
1015.391	1227.35
1015.683	1222.16
1015.976	1192.55
1016.268	1196.62
1016.56	1202.72
1016.851	1186.45
1017.143	1155.49
1017.435	1176.51
1017.727	1157.53
1018.018	1157.53
1018.31	1159.11
1018.602	1106.68
1018.893	1129.28
1019.185	1120.01
1019.476	1091.09
1019.767	1129.96
1020.058	1115.27
1020.35	1101.03
1020.641	1089.05
1020.932	1102.84
1021.223	1086.34
1021.514	1062.39
1021.804	1054.25
1022.095	1080.92
1022.386	1077.3
1022.677	1061.03
1022.967	1046.12
1023.258	1036.4
1023.548	1069.62
1023.839	1026.68
1024.129	1030.75
1024.419	1023.74
1024.709	1042.27
1025	992.11
1025.29	997.98
1025.58	1002.95
1025.87	1001.15
1026.16	1000.24
1026.449	984.88
1026.739	977.42
1027.029	992.11
1027.319	963.18
1027.608	936.06
1027.898	969.73
1028.187	955.5
1028.477	951.66
1028.766	929.06
1029.055	934.03
1029.344	937.64
1029.634	920.24
1029.923	912.33
1030.212	896.06
1030.501	893.58
1030.79	893.13
1031.078	909.85
1031.367	884.99
1031.656	877.99
1031.945	849.96
1032.233	868.95
1032.522	871.21
1032.81	874.37
1033.099	850.19
1033.387	881.15
1033.675	842.73
1033.963	860.13
1034.251	874.6
1034.54	833.69
1034.828	826.24
1035.116	844.99
1035.403	823.52
1035.691	842.28
1035.979	796.41
1036.267	784.43
1036.554	791.21
1036.842	796.63
1037.129	776.97
1037.417	772.9
1037.704	775.84
1037.992	776.97
1038.279	776.07
1038.566	751.21
1038.853	751.21
1039.14	751.21
