Data from breadboard_black_back_FLMS001491_00006.txt Node
Date: Wed Feb 08 10:49:52 GMT 2017
User: dcchb
Spectrometer: FLMS00149
Trigger mode: 0
Integration Time (sec): 2.000000E-2
Scans to average: 10
Electric dark correction enabled: true
Nonlinearity correction enabled: false
Boxcar width: 0
XAxis mode: Wavelengths
Number of Pixels in Spectrum: 2048
>>>>>Begin Spectral Data<<<<<
341.393	-12.54
341.776	-12.54
342.16	-12.54
342.543	-62.94
342.927	-63.61
343.31	-60.22
343.693	-89.38
344.077	-35.37
344.46	-66.1
344.843	-43.28
345.226	-44.41
345.61	-49.6
345.993	-13.67
346.376	-16.38
346.759	15.03
347.142	21.58
347.525	53.44
347.908	44.86
348.291	87.12
348.674	94.35
349.057	102.03
349.44	122.37
349.823	142.71
350.206	189.03
350.588	191.75
350.971	211.86
351.354	234.91
351.737	260.45
352.119	247.11
352.502	256.15
352.884	282.14
353.267	283.95
353.65	306.09
354.032	315.36
354.414	320.33
354.797	334.12
355.179	309.71
355.562	316.04
355.944	344.74
356.326	337.28
356.709	321.01
357.091	316.26
357.473	340.67
357.855	352.19
358.238	360.33
358.62	343.83
359.002	360.1
359.384	357.17
359.766	372.31
360.148	353.55
360.53	373.44
360.912	347.22
361.294	351.29
361.676	340.22
362.057	351.52
362.439	343.83
362.821	354.68
363.203	338.18
363.584	361.46
363.966	321.69
364.348	347.9
364.729	342.7
365.111	334.12
365.493	333.66
365.874	318.07
366.256	360.78
366.637	328.01
367.019	349.93
367.4	351.06
367.781	335.47
368.163	336.38
368.544	323.04
368.925	328.69
369.306	322.14
369.688	324.17
370.069	330.73
370.45	349.26
370.831	339.77
371.212	373.44
371.593	349.26
371.974	350.84
372.355	344.96
372.736	359.2
373.117	347.9
373.498	367.33
373.879	363.27
374.26	343.38
374.641	354.91
375.021	343.83
375.402	355.58
375.783	356.94
376.163	383.61
376.544	388.35
376.925	373.44
377.305	382.02
377.686	365.53
378.066	375.02
378.447	384.06
378.827	377.5
379.208	388.13
379.588	382.7
379.968	400.55
380.349	390.84
380.729	401.01
381.109	394.68
381.489	419.76
381.87	397.16
382.25	384.74
382.63	408.24
383.01	416.6
383.39	408.69
383.77	419.09
384.15	417.5
384.53	424.06
384.91	415.7
385.29	443.27
385.67	429.71
386.049	446.43
386.429	453.21
386.809	452.3
387.189	445.98
387.568	433.55
387.948	460.67
388.328	456.6
388.707	443.04
389.087	473.09
389.466	500.44
389.846	465.64
390.225	466.32
390.605	462.02
390.984	486.65
391.363	498.18
391.743	472.87
392.122	485.98
392.501	496.82
392.881	495.92
393.26	530.95
393.639	486.43
394.018	505.18
394.397	503.6
394.776	525.75
395.155	530.27
395.534	515.81
395.913	521
396.292	518.29
396.671	522.36
397.05	530.72
397.429	541.79
397.808	569.59
398.186	543.83
398.565	571.85
398.944	577.27
399.323	555.35
399.701	585.63
400.08	580.89
400.458	571.17
400.837	593.09
401.215	581.34
401.594	589.25
401.972	582.24
402.351	602.36
402.729	594.22
403.107	607.1
403.486	616.82
403.864	601.23
404.242	606.88
404.62	639.87
404.999	647.1
405.377	617.72
405.755	640.55
406.133	668.34
406.511	657.72
406.889	680.55
407.267	677.16
407.645	678.29
408.023	679.19
408.401	721.45
408.779	733.2
409.156	726.2
409.534	699.3
409.912	720.55
410.29	730.04
410.667	743.37
411.045	759.87
411.422	768.45
411.8	766.19
412.178	772.75
412.555	771.39
412.933	781.56
413.31	804.84
413.687	794.67
414.065	810.71
414.442	810.49
414.819	835.12
415.197	835.12
415.574	864.5
415.951	872.18
416.328	854.33
416.705	872.41
417.082	868.11
417.46	908.56
417.837	895.91
418.214	918.51
418.591	909.69
418.967	936.81
419.344	962.35
419.721	936.13
420.098	968
420.475	929.58
420.852	960.31
421.228	997.6
421.605	987.21
421.982	1013.19
422.358	981.56
422.735	1033.08
423.111	1028.11
423.488	1046.41
423.864	1030.37
424.241	1062.23
424.617	1057.94
424.994	1072.4
425.37	1086.19
425.746	1094.32
426.123	1110.14
426.499	1118.05
426.875	1152.4
427.251	1134.77
427.627	1177.03
428.003	1180.42
428.379	1206.86
428.756	1202.57
429.132	1203.92
429.507	1237.37
429.883	1239.63
430.259	1275.11
430.635	1283.02
431.011	1280.31
431.387	1310.36
431.763	1328.21
432.138	1335.67
432.514	1355.33
432.89	1374.77
433.265	1394.43
433.641	1380.42
434.016	1411.83
434.392	1448.89
434.767	1453.86
435.143	1501.77
435.518	1520.3
435.894	1493.63
436.269	1510.13
436.644	1547.42
437.02	1531.6
437.395	1557.13
437.77	1574.99
438.145	1597.81
438.52	1633.29
438.895	1656.57
439.271	1643.01
439.646	1661.09
440.021	1670.58
440.395	1666.74
440.77	1665.83
441.145	1709.9
441.52	1723.91
441.895	1748.54
442.27	1761.87
442.645	1773.85
443.019	1730.01
443.394	1774.98
443.769	1772.72
444.143	1774.98
444.518	1825.38
444.892	1815.66
445.267	1836.45
445.641	1849.1
446.016	1850.46
446.39	1900.4
446.764	1907.63
447.139	1907.18
447.513	1919.16
447.887	1908.09
448.262	1945.37
448.636	1956.9
449.01	1988.99
449.384	2000.96
449.758	2017.91
450.132	2027.63
450.506	2039.83
450.88	2062.66
451.254	2062.43
451.628	2078.7
452.002	2121.87
452.376	2154.86
452.75	2133.16
453.123	2195.31
453.497	2187.63
453.871	2234.86
454.244	2272.14
454.618	2285.48
454.992	2351.46
455.365	2322.09
455.739	2374.51
456.112	2386.49
456.486	2402.99
456.859	2462.2
457.232	2452.93
457.606	2501.29
457.979	2546.03
458.352	2581.06
458.725	2594.4
459.099	2611.57
459.472	2646.82
459.845	2715.52
460.218	2717.78
460.591	2739.25
460.964	2765.92
461.337	2862.64
461.71	2858.57
462.083	2899.02
462.456	2897.21
462.829	2951.22
463.201	2989.41
463.574	3010.43
463.947	3059.02
464.32	3105.34
464.692	3135.85
465.065	3141.27
465.438	3203.19
465.81	3230.54
466.183	3277.09
466.555	3315.96
466.928	3332.91
467.3	3357.31
467.672	3425.33
468.045	3488.83
468.417	3523.18
468.789	3580.36
469.161	3584.88
469.534	3653.12
469.906	3733.35
470.278	3739.45
470.65	3809.96
471.022	3874.81
471.394	3948.94
471.766	3955.49
472.138	3997.97
472.51	4120.46
472.882	4159.78
473.253	4167.69
473.625	4279.1
473.997	4373.56
474.369	4360.45
474.74	4469.37
475.112	4563.38
475.484	4575.13
475.855	4685.64
476.227	4727.22
476.598	4857.84
476.97	4852.41
477.341	5008.57
477.713	5012.64
478.084	5084.95
478.455	5226.19
478.827	5244.72
479.198	5398.39
479.569	5411.27
479.94	5534.43
480.311	5596.12
480.682	5781.88
481.053	5911.37
481.424	5997.47
481.795	6061.42
482.166	6121.99
482.537	6192.72
482.908	6352.04
483.279	6407.18
483.65	6592.03
484.021	6591.8
484.391	6721.97
484.762	6744.57
485.133	6849.2
485.503	6937.11
485.874	7123.77
486.244	7166.25
486.615	7278.34
486.985	7387.72
487.356	7536.86
487.726	7607.37
488.097	7743.19
488.467	7740.7
488.837	7972.78
489.207	7999.45
489.578	8131.88
489.948	8199.45
490.318	8326.22
490.688	8394.02
491.058	8552.2
491.428	8614.58
491.798	8684.4
492.168	8867.9
492.538	8914
492.908	9080.78
493.278	9158.06
493.648	9127.56
494.017	9248.23
494.387	9375.46
494.757	9485.97
495.126	9604.38
495.496	9548.34
495.866	9661.33
496.235	9730.25
496.605	9843.92
496.974	9915.56
497.344	10066.29
497.713	10077.36
498.082	10222.44
498.452	10291.37
498.821	10313.06
499.19	10345.83
499.559	10496.56
499.928	10554.64
500.298	10588.99
500.667	10720.51
501.036	10742.43
501.405	10816.55
501.774	10845.7
502.143	11004.8
502.512	11099.48
502.88	11257.67
503.249	11082.31
503.618	11294.51
503.987	11315.52
504.356	11389.87
504.724	11433.48
505.093	11445.91
505.462	11564.78
505.83	11731.1
506.199	11778.79
506.567	11930.65
506.936	11888.39
507.304	12147.14
507.672	12118.66
508.041	12244.08
508.409	12303.07
508.777	12376.96
509.145	12522.95
509.514	12475.49
509.882	12594.13
510.25	12699.21
510.618	12826.44
510.986	12829.83
511.354	12986.66
511.722	13039.54
512.09	13223.27
512.458	13205.42
512.826	13311.63
513.193	13380.33
513.561	13507.1
513.929	13618.51
514.297	13712.52
514.664	13940.31
515.032	13884.49
515.4	13967.66
515.767	14113.19
516.135	14152.06
516.502	14090.59
516.869	14379.17
517.237	14407.87
517.604	14451.03
517.972	14669.33
518.339	14774.41
518.706	14848.31
519.073	14921.98
519.44	14911.36
519.808	15197.68
520.175	15248.3
520.542	15401.29
520.909	15473.6
521.276	15590.89
521.643	15731.9
522.009	15830.66
522.376	15938.68
522.743	16073.59
523.11	16183.42
523.477	16412.56
523.843	16442.84
524.21	16593.57
524.577	16813.68
524.943	16798.54
525.31	17001.7
525.676	17125.31
526.043	17236.72
526.409	17272.43
526.776	17547.67
527.142	17472.2
527.508	17683.26
527.874	17767.33
528.241	17810.27
528.607	17949.92
528.973	18175.23
529.339	18165.51
529.705	18415.22
530.071	18551.04
530.437	18593.3
530.803	18725.04
531.169	18785.83
531.535	18833.74
531.901	18990.8
532.267	19091.81
532.632	19233.73
532.998	19185.15
533.364	19386.72
533.73	19390.11
534.095	19610.67
534.461	19619.48
534.826	19784.68
535.192	19876.65
535.557	19964.33
535.923	19946.71
536.288	20103.09
536.653	20212.91
537.019	20157.1
537.384	20260.37
537.749	20326.13
538.114	20461.27
538.479	20534.04
538.845	20635.28
539.21	20576.97
539.575	20660.81
539.94	20767.48
540.305	20977.64
540.67	20881.37
541.034	21066.23
541.399	21102.16
541.764	21115.94
542.129	21313.68
542.494	21263.28
542.858	21428.7
543.223	21386.44
543.587	21559.32
543.952	21545.54
544.316	21639.32
544.681	21684.97
545.045	21886.32
545.41	21947.56
545.774	21947.33
546.138	22040.21
546.503	22091.51
546.867	22110.27
547.231	22360.2
547.595	22435.91
547.959	22445.4
548.324	22398.39
548.688	22552.29
549.052	22675.22
549.416	22787.54
549.779	22731.27
550.143	22829.12
550.507	23021.65
550.871	23061.2
551.235	23086.51
551.599	23280.4
551.962	23305.94
552.326	23470.91
552.689	23538.48
553.053	23481.98
553.417	23526.73
553.78	23882.65
554.143	23730.34
554.507	23941.86
554.87	24042.19
555.234	24215.07
555.597	24038.35
555.96	24195.86
556.323	24292.58
556.686	24428.17
557.05	24524.44
557.413	24642.63
557.776	24697.77
558.139	24866.13
558.502	24969.4
558.865	24973.92
559.228	25185.67
559.59	25241.71
559.953	25355.6
560.316	25523.74
560.679	25574.58
561.041	25679.66
561.404	25801.24
561.767	25866.33
562.129	25826.1
562.492	26242.36
562.854	26267.44
563.217	26387.89
563.579	26365.75
563.941	26568.45
564.304	26663.59
564.666	26810.03
565.028	26934.55
565.39	26876.92
565.753	27180.64
566.115	27308.32
566.477	27406.4
566.839	27438.49
567.201	27622.89
567.563	27684.58
567.925	27809.78
568.287	27867.85
568.648	27959.38
569.01	28195.08
569.372	28268.3
569.734	28224.23
570.095	28286.37
570.457	28552.58
570.819	28475.97
571.18	28688.62
571.542	28647.04
571.903	28827.83
572.265	28820.6
572.626	29024.89
572.987	29047.94
573.349	29080.03
573.71	29244.54
574.071	29361.15
574.432	29349.17
574.794	29644.76
575.155	29568.15
575.516	29483.86
575.877	29669.62
576.238	29717.75
576.599	29923.85
576.96	29810.63
577.32	29988.48
577.681	30009.72
578.042	30136.27
578.403	30105.08
578.763	30135.37
579.124	30115.48
579.485	30245.19
579.845	30444.28
580.206	30302.59
580.566	30181.92
580.927	30410.61
581.287	30463.49
581.648	30382.59
582.008	30563.38
582.368	30417.62
582.728	30613.77
583.089	30593.66
583.449	30463.94
583.809	30570.61
584.169	30652.87
584.529	30571.74
584.889	30754.11
585.249	30538.07
585.609	30494.23
585.969	30824.39
586.329	30569.7
586.688	30656.48
587.048	30686.76
587.408	30537.62
587.768	30647.67
588.127	30632.98
588.487	30567.44
588.846	30818.51
589.206	30675.46
589.565	30646.09
589.925	30888.34
590.284	30837.49
590.643	30745.75
591.003	30816.48
591.362	30953.2
591.721	30727.67
592.08	30831.39
592.44	30969.92
592.799	30843.14
593.158	30825.97
593.517	30846.99
593.876	30851.51
594.235	30843.6
594.593	30867.55
594.952	30861.45
595.311	30915.46
595.67	30996.13
596.029	31207.88
596.387	31089.92
596.746	31300.53
597.104	31044.72
597.463	31002.24
597.822	31200.42
598.18	31114.1
598.538	31138.05
598.897	31282.91
599.255	30978.28
599.613	31407.2
599.972	31169.46
600.33	31276.58
600.688	31208.11
601.046	31371.04
601.404	31446.52
601.762	31428.21
602.12	31456.46
602.478	31439.96
602.836	31554.54
603.194	31338.5
603.552	31388.44
603.91	31290.82
604.268	31517.02
604.625	31576.01
604.983	31565.38
605.341	31446.07
605.698	31684.93
606.056	31696.23
606.413	31556.57
606.771	31706.17
607.128	31850.8
607.485	31705.27
607.843	31737.58
608.2	31936.9
608.557	31944.36
608.914	31831.14
609.272	32100.51
609.629	32089.21
609.986	32259.15
610.343	31992.27
610.7	32351.13
611.057	32246.95
611.414	32170.57
611.771	32229.55
612.127	32328.75
612.484	32302.09
612.841	32425.7
613.198	32332.37
613.554	32361.3
613.911	32529.2
614.267	32513.83
614.624	32495.08
614.98	32609.88
615.337	32712.93
615.693	32581.63
616.05	32593.83
616.406	32927.61
616.762	32744.11
617.118	32689.87
617.475	32639.03
617.831	32731
618.187	32888.06
618.543	32866.37
618.899	32976.87
619.255	32992.01
619.611	32985.01
619.967	33059.58
620.323	33055.52
620.678	33043.31
621.034	32875.63
621.39	32846.25
621.746	32892.36
622.101	33215.74
622.457	32904.11
622.812	33077.89
623.168	33088.28
623.523	33108.62
623.879	33034.05
624.234	32829.53
624.589	33077.44
624.945	32983.88
625.3	33168.73
625.655	33053.26
626.01	33083.76
626.365	33147.72
626.72	33052.8
627.075	33135.51
627.43	33081.96
627.785	33024.33
628.14	33035.4
628.495	33035.18
628.85	32929.87
629.205	32800.15
629.559	33061.84
629.914	32910.66
630.269	32933.03
630.623	32844.22
630.978	32797.89
631.332	33026.36
631.687	32894.62
632.041	32800.38
632.396	32958.79
632.75	32813.26
633.104	32835.18
633.459	32619.14
633.813	32579.6
634.167	32499.82
634.521	32588.63
634.875	32694.62
635.229	32481.74
635.583	32421.86
635.937	32595.64
636.291	32380.5
636.645	32476.1
636.999	32310.45
637.352	32387.06
637.706	32220.96
638.06	32416.89
638.413	32262.99
638.767	32232.26
639.121	32154.52
639.474	31910.46
639.828	32017.12
640.181	32090.79
640.534	32026.84
640.888	31811.25
641.241	31759.5
641.594	31892.16
641.947	31952.72
642.301	31786.62
642.654	31900.07
643.007	31845.15
643.36	31763.8
643.713	31532.39
644.066	31827.98
644.419	31610.13
644.771	31429.34
645.124	31184.6
645.477	31129.01
645.83	30964.95
646.182	30850.6
646.535	30571.06
646.888	30625.52
647.24	30420.1
647.593	30555.69
647.945	30496.03
648.298	30287
648.65	30293.78
649.002	30300.33
649.355	30385.3
649.707	30546.65
650.059	30505.07
650.411	30806.31
650.763	30842.69
651.115	31017.83
651.467	30975.8
651.819	31032.07
652.171	30929.47
652.523	30871.62
652.875	30895.8
653.227	30685.63
653.578	30879.53
653.93	30803.82
654.282	30715.46
654.633	30660.1
654.985	30678.4
655.337	30667.78
655.688	30583.49
656.039	30767.89
656.391	30512.08
656.742	30594.56
657.094	30539.2
657.445	30776.03
657.796	30549.37
658.147	30456.49
658.498	30471.63
658.849	30450.16
659.2	30432.31
659.551	30265.98
659.902	30515.24
660.253	30399.09
660.604	30287
660.955	30204.74
661.306	30472.31
661.656	30272.54
662.007	30393.89
662.358	30250.84
662.708	30349.37
663.059	30294.23
663.409	30082.26
663.76	30287.23
664.11	30261.69
664.461	30228.24
664.811	30245.19
665.161	30157.51
665.511	30173.33
665.862	30201.8
666.212	30152.77
666.562	30212.43
666.912	30076.84
667.262	30120
667.612	30134.91
667.962	30151.41
668.312	30090.85
668.662	30290.39
669.011	30186.89
669.361	29891.76
669.711	30094.91
670.06	29961.81
670.41	29983.05
670.76	29994.13
671.109	29938.76
671.459	29877.97
671.808	29818.54
672.157	29955.48
672.507	29717.3
672.856	29707.13
673.205	29729.27
673.554	29998.42
673.904	29720.69
674.253	29732.44
674.602	29699.9
674.951	29399.34
675.3	29293.13
675.649	29524.31
675.998	29630.75
676.346	29643.18
676.695	29671.88
677.044	29482.05
677.393	29507.81
677.741	29545.55
678.09	29509.39
678.438	29318.66
678.787	29428.04
679.135	29518.66
679.484	29205.45
679.832	29388.72
680.181	29118.22
680.529	29270.53
680.877	29261.49
681.225	29206.58
681.573	29322.73
681.922	29168.16
682.27	28965.91
682.618	29036.19
682.966	28980.59
683.314	28991.22
683.661	28990.54
684.009	28753.93
684.357	28768.4
684.705	28598.23
685.053	28797.77
685.4	28687.49
685.748	28498.12
686.095	28585.35
686.443	28277.34
686.79	28374.28
687.138	28484.11
687.485	28413.83
687.832	28377.22
688.18	28285.92
688.527	28125.25
688.874	28202.08
689.221	28162.31
689.568	27941.3
689.915	27906.05
690.262	27976.33
690.609	27857.46
690.956	27739.5
691.303	27770.23
691.65	27502.89
691.997	27550.58
692.344	27582.66
692.69	27394.65
693.037	27367.53
693.383	27181.55
693.73	27232.84
694.077	27156.24
694.423	27067.42
694.769	27042.57
695.116	26927.77
695.462	26883.25
695.808	26808.22
696.155	26875.11
696.501	26611.16
696.847	26511.28
697.193	26415.24
697.539	26549.47
697.885	26347.67
698.231	26296.14
698.577	26259.99
698.923	26294.56
699.269	26037.17
699.614	25896.38
699.96	25942.93
700.306	25958.98
700.651	25862.94
700.997	25739.78
701.342	25802.82
701.688	25602.38
702.033	25675.6
702.379	25645.54
702.724	25535.03
703.069	25437.41
703.415	25237.19
703.76	25226.34
704.105	25255.04
704.45	25187.25
704.795	25075.84
705.14	25074.48
705.485	24991.55
705.83	24942.06
706.175	24851.66
706.52	24795.17
706.865	24701.38
707.209	24653.25
707.554	24536.87
707.899	24684.66
708.243	24388.62
708.588	24425.46
708.932	24300.72
709.277	24353.14
709.621	24280.6
709.966	24150.44
710.31	24186.14
710.654	24018.46
710.998	23988.41
711.342	23983.66
711.687	23938.24
712.031	23812.59
712.375	23852.14
712.719	23826.15
713.063	23755.42
713.407	23752.26
713.75	23694.86
714.094	23592.49
714.438	23568.53
714.782	23549.78
715.125	23429.33
715.469	23580.96
715.812	23287.86
716.156	23205.15
716.499	23192.05
716.843	23214.64
717.186	23074.99
717.53	23277.02
717.873	23225.94
718.216	23166.51
718.559	23115.21
718.902	22864.6
719.246	22859.4
719.589	22805.84
719.932	22714.54
720.275	22742.11
720.617	22746.41
720.96	22780.53
721.303	22775.33
721.646	22759.51
721.989	22523.14
722.331	22547.77
722.674	22548.67
723.016	22563.36
723.359	22473.87
723.701	22547.77
724.044	22384.38
724.386	22153.2
724.729	22262.58
725.071	22178.96
725.413	22277.95
725.755	22195.91
726.097	22096.71
726.439	21952.3
726.782	22009.25
727.124	22180.09
727.465	21901.01
727.807	22021.91
728.149	21924.73
728.491	21879.76
728.833	21851.97
729.175	21760.44
729.516	21745.76
729.858	21672.09
730.199	21756.15
730.541	21720.22
730.882	21691.52
731.224	21663.72
731.565	21513.22
731.906	21512.09
732.248	21527.68
732.589	21377.4
732.93	21481.58
733.271	21330.85
733.612	21458.98
733.953	21395.48
734.294	21344.18
734.635	21299.21
734.976	21314.13
735.317	21129.5
735.658	21171.99
735.999	21259.67
736.339	21063.97
736.68	21212.89
737.021	20996.85
737.361	20840.69
737.702	21018.54
738.042	21055.15
738.383	20973.57
738.723	20946.68
739.063	20873.24
739.404	20795.95
739.744	20744.88
740.084	20762.73
740.424	20774.48
740.764	20696.74
741.104	20737.87
741.444	20589.63
741.784	20607.25
742.124	20605.9
742.464	20593.47
742.804	20550.99
743.143	20526.35
743.483	20450.42
743.823	20340.37
744.162	20295.85
744.502	20374.49
744.841	20244.55
745.181	20380.14
745.52	20254.5
745.86	20263.08
746.199	20144.67
746.538	20131.34
746.877	20291.56
747.216	20112.35
747.556	20050.43
747.895	20135.85
748.234	19973.6
748.573	20009.08
748.911	19877.56
749.25	19880.72
749.589	19836.43
749.928	19883.66
750.267	19775.19
750.605	19730.67
750.944	19619.71
751.283	19663.32
751.621	19593.27
751.96	19619.94
752.298	19536.77
752.636	19490
752.975	19372.03
753.313	19331.58
753.651	19515.53
753.989	19366.16
754.327	19296.33
754.666	19175.43
755.004	19180.63
755.342	19190.34
755.679	19193.28
756.017	19071.48
756.355	19050.69
756.693	18926.85
757.031	19002.1
757.368	18892.95
757.706	18873.97
758.044	18890.92
758.381	18794.2
758.719	18774.53
759.056	18725.95
759.394	18654.31
759.731	18513.07
760.068	18550.81
760.405	18486.63
760.743	18433.07
761.08	18338.39
761.417	18306.07
761.754	18297.48
762.091	18211.84
762.428	18184.27
762.765	18066.76
763.102	18182.01
763.438	17948.79
763.775	17889.81
764.112	17946.53
764.449	17917.16
764.785	17822.02
765.122	17712.19
765.458	17683.72
765.795	17621.57
766.131	17521.01
766.467	17518.75
766.804	17427.68
767.14	17429.49
767.476	17306.1
767.812	17295.48
768.148	17357.4
768.485	17145.88
768.821	17129.83
769.157	17061.36
769.492	17019.78
769.828	17009.61
770.164	16791.31
770.5	16909.5
770.836	16840.8
771.171	16634.03
771.507	16683.06
771.842	16617.98
772.178	16485.1
772.513	16505.67
772.849	16472.67
773.184	16345.67
773.519	16285.79
773.855	16242.4
774.19	16272.68
774.525	16167.6
774.86	16147.26
775.195	16126.02
775.53	16074.94
775.865	15954.72
776.2	15792.01
776.535	15771.9
776.87	15750.21
777.205	15622.75
777.539	15565.58
777.874	15606.93
778.209	15425.92
778.543	15447.39
778.878	15378.69
779.212	15335.3
779.547	15274.51
779.881	15317.9
780.215	15226.15
780.55	15251.92
780.884	15112.26
781.218	15059.83
781.552	15055.31
781.886	14952.26
782.22	14880.85
782.554	14842.43
782.888	14703.46
783.222	14649.22
783.556	14613.06
783.889	14560.41
784.223	14495.33
784.557	14454.2
784.89	14404.48
785.224	14399.28
785.557	14340.3
785.891	14311.38
786.224	14236.12
786.558	14231.83
786.891	14129.23
787.224	14052.85
787.557	14020.76
787.891	13964.94
788.224	13965.4
788.557	13877.71
788.89	13893.53
789.223	13933.76
789.556	13827.09
789.888	13771.05
790.221	13658.28
790.554	13566.54
790.887	13644.27
791.219	13554.33
791.552	13480.66
791.884	13496.48
792.217	13454.22
792.549	13439.99
792.882	13265.75
793.214	13185.3
793.546	13263.95
793.879	13121.12
794.211	13012.2
794.543	13101.46
794.875	13064.63
795.207	13041.35
795.539	13008.36
795.871	12882.71
796.203	12852.66
796.535	12763.62
796.867	12766.78
797.198	12736.95
797.53	12724.07
797.862	12646.79
798.193	12683.4
798.525	12586.9
798.856	12641.59
799.188	12440.46
799.519	12500.8
799.85	12454.02
800.182	12330.41
800.513	12473.91
800.844	12230.07
801.175	12302.61
801.506	12316.63
801.837	12202.5
802.168	12184.2
802.499	12117.53
802.83	12063.52
803.161	12021.27
803.491	12088.16
803.822	12042.51
804.153	11965.67
804.483	11850.65
804.814	11827.37
805.145	11850.87
805.475	11752.8
805.805	11772.23
806.136	11812.01
806.466	11817.43
806.796	11696.75
807.126	11580.37
807.457	11575.63
807.787	11595.97
808.117	11472.58
808.447	11552.13
808.777	11581.73
809.107	11468.29
809.436	11395.07
809.766	11427.84
810.096	11395.29
810.426	11305.8
810.755	11349.42
811.085	11227.61
811.414	11331.79
811.744	11197.33
812.073	11194.85
812.403	11231
812.732	11038.24
813.061	11142.42
813.39	11160.95
813.719	10973.38
814.049	11072.36
814.378	11008.41
814.707	10963.89
815.036	10948.53
815.365	10892.71
815.693	10856.78
816.022	10894.06
816.351	10799.6
816.68	10696.55
817.008	10811.35
817.337	10630.57
817.665	10662.21
817.994	10682.09
818.322	10666.95
818.651	10657.23
818.979	10614.75
819.307	10580.85
819.636	10537.69
819.964	10566.61
820.292	10610.91
820.62	10543.56
820.948	10500.4
821.276	10541.3
821.604	10476
821.932	10525.03
822.259	10534.53
822.587	10486.62
822.915	10469.89
823.243	10484.58
823.57	10426.51
823.898	10482.78
824.225	10458.14
824.553	10352.84
824.88	10438.71
825.207	10457.24
825.535	10470.57
825.862	10426.96
826.189	10438.71
826.516	10466.05
826.843	10551.02
827.17	10511.25
827.497	10505.83
827.824	10465.37
828.151	10480.52
828.478	10462.21
828.805	10521.64
829.131	10447.52
829.458	10454.98
829.785	10363
830.111	10416.56
830.438	10413.17
830.764	10373.17
831.09	10464.24
831.417	10352.16
831.743	10432.83
832.069	10391.93
832.395	10317.13
832.722	10425.38
833.048	10380.86
833.374	10358.71
833.7	10381.31
834.026	10358.48
834.351	10393.29
834.677	10318.03
835.003	10377.47
835.329	10316.68
835.654	10317.81
835.98	10239.17
836.306	10276
836.631	10246.17
836.956	10303.57
837.282	10235.55
837.607	10218.38
837.932	10121.65
838.258	10157.36
838.583	10158.94
838.908	10126.85
839.233	10207.75
839.558	10047.53
839.883	10089.11
840.208	10066.97
840.533	10034.2
840.858	10071.49
841.182	9995.56
841.507	9971.6
841.832	9942
842.156	9938.38
842.481	9967.99
842.805	9917.82
843.13	9922.11
843.454	9830.81
843.778	9870.36
844.103	9792.17
844.427	9797.14
844.751	9848.22
845.075	9769.12
845.399	9688.45
845.723	9671.05
846.047	9657.94
846.371	9612.29
846.695	9607.77
847.019	9565.29
847.343	9536.81
847.666	9488.9
847.99	9412.75
848.313	9383.82
848.637	9340.66
848.96	9329.81
849.284	9269.25
849.607	9220.21
849.931	9266.08
850.254	9186.76
850.577	9111.51
850.9	9095.92
851.223	9015.7
851.546	9022.47
851.869	8944.96
852.192	9017.28
852.515	8936.6
852.838	8883.04
853.161	8892.99
853.483	8872.42
853.806	8789.49
854.129	8793.55
854.451	8758.3
854.774	8684.63
855.096	8641.92
855.419	8704.29
855.741	8672.43
856.063	8660
856.385	8598.08
856.708	8549.72
857.03	8516.5
857.352	8538.42
857.674	8459.78
857.996	8516.27
858.318	8404.64
858.64	8451.87
858.961	8360.12
859.283	8345.43
859.605	8366.45
859.926	8355.6
860.248	8304.53
860.57	8323.96
860.891	8283.29
861.212	8243.51
861.534	8189.5
861.855	8187.47
862.176	8165.55
862.498	8183.63
862.819	8184.3
863.14	8120.58
863.461	8122.39
863.782	8122.61
864.103	8089.62
864.424	8054.59
864.745	8147.7
865.065	8004.65
865.386	8098.43
865.707	7995.61
866.027	8057.98
866.348	7969.17
866.668	7989.51
866.989	7933.92
867.309	7915.61
867.63	7942.5
867.95	7951.99
868.27	7909.96
868.59	7885.33
868.91	7950.64
869.23	7853.24
869.55	7861.15
869.87	7905.44
870.19	7782.73
870.51	7850.53
870.83	7862.73
871.15	7741.6
871.469	7830.87
871.789	7796.29
872.109	7740.47
872.428	7735.5
872.748	7778.67
873.067	7754.49
873.386	7698.89
873.706	7648.95
874.025	7640.36
874.344	7678.33
874.663	7699.8
874.982	7643.75
875.301	7703.19
875.62	7629.52
875.939	7575.06
876.258	7544.55
876.577	7531.89
876.896	7602.17
877.214	7497.32
877.533	7583.42
877.852	7532.8
878.17	7613.47
878.489	7571.67
878.807	7481.95
879.125	7516.07
879.444	7491.89
879.762	7494.15
880.08	7437.66
880.398	7450.31
880.716	7406.92
881.034	7362.41
881.352	7465
881.67	7394.95
881.988	7384.55
882.306	7342.29
882.624	7317.66
882.941	7260.04
883.259	7297.55
883.577	7355.4
883.894	7245.12
884.212	7206.03
884.529	7252.8
884.846	7253.93
885.164	7230.66
885.481	7165.57
885.798	7238.11
886.115	7198.34
886.432	7091.23
886.75	7140.26
887.067	7160.38
887.383	7100.04
887.7	7075.18
888.017	7071.34
888.334	7049.65
888.651	7091.68
888.967	6978.46
889.284	6971.91
889.6	6982.98
889.917	6875.64
890.233	6967.61
890.55	6857.11
890.866	6906.6
891.182	6915.86
891.498	6844.23
891.815	6856.2
892.131	6865.7
892.447	6801.29
892.763	6787.73
893.079	6775.75
893.395	6688.52
893.71	6724.23
894.026	6725.36
894.342	6665.47
894.657	6627.28
894.973	6647.62
895.289	6618.92
895.604	6676.77
895.92	6602.65
896.235	6526.95
896.55	6574.63
896.865	6516.78
897.181	6516.78
897.496	6557.45
897.811	6474.75
898.126	6434.52
898.441	6440.4
898.756	6435.42
899.071	6348.87
899.386	6349.32
899.7	6288.54
900.015	6313.62
900.33	6275.43
900.644	6266.84
900.959	6247.86
901.273	6240.4
901.588	6186.84
901.902	6196.11
902.216	6197.01
902.531	6146.17
902.845	6104.59
903.159	6139.39
903.473	6006.73
903.787	6023.01
904.101	6023.68
904.415	6032.04
904.729	5995.44
905.042	5945.27
905.356	5944.36
905.67	5951.14
905.984	5925.61
906.297	5945.04
906.611	5840.86
906.924	5834.99
907.237	5844.25
907.551	5789.79
907.864	5792.28
908.177	5780.07
908.491	5773.07
908.804	5707.76
909.117	5728.78
909.43	5675.44
909.743	5610.13
910.056	5615.56
910.368	5588.44
910.681	5586.63
910.994	5609.01
911.307	5564.26
911.619	5514.09
911.932	5494.43
912.244	5532.17
912.557	5445.39
912.869	5460.53
913.181	5421.67
913.494	5431.83
913.806	5389.58
914.118	5359.97
914.43	5334.21
914.742	5334.44
915.054	5307.54
915.366	5249.24
915.678	5271.39
915.99	5239.07
916.302	5195
916.613	5173.76
916.925	5179.41
917.236	5132.86
917.548	5119.98
917.859	5145.06
918.171	5092.18
918.482	5075.46
918.794	5075.91
919.105	5029.13
919.416	5018.29
919.727	4962.69
920.038	4970.15
920.349	4955.46
920.66	4959.08
920.971	4929.02
921.282	4880.89
921.593	4896.71
921.903	4837.5
922.214	4873.66
922.525	4811.51
922.835	4774
923.146	4752.53
923.456	4733.1
923.767	4744.4
924.077	4723.83
924.387	4696.49
924.697	4643.61
925.008	4695.13
925.318	4636.6
925.628	4629.14
925.938	4617.17
926.248	4529.49
926.558	4565.64
926.867	4539.88
927.177	4500.79
927.487	4498.07
927.796	4456.04
928.106	4476.38
928.416	4452.43
928.725	4439.54
929.034	4417.62
929.344	4442.26
929.653	4411.97
929.962	4343.5
930.271	4342.37
930.581	4383.95
930.89	4295.82
931.199	4277.51
931.508	4260.79
931.817	4277.29
932.125	4242.94
932.434	4226.89
932.743	4228.02
933.051	4133.34
933.36	4181.02
933.669	4202.49
933.977	4153
934.286	4098.76
934.594	4057.63
934.902	4089.05
935.21	4082.27
935.519	4019.22
935.827	4024.87
936.135	4030.97
936.443	3999.56
936.751	4000.46
937.059	3962.04
937.367	3943.06
937.674	3909.84
937.982	3915.26
938.29	3880.46
938.597	3920.91
938.905	3853.8
939.213	3854.47
939.52	3877.53
939.827	3843.4
940.135	3790.97
940.442	3803.63
940.749	3759.34
941.056	3788.04
941.363	3723.18
941.67	3730.41
941.977	3737.64
942.284	3726.57
942.591	3692.67
942.898	3656.74
943.205	3673.46
943.511	3698.55
943.818	3619.23
944.125	3611.77
944.431	3631.43
944.738	3577.19
945.044	3586.23
945.35	3555.95
945.657	3557.08
945.963	3537.87
946.269	3492.9
946.575	3483.86
946.881	3484.99
947.187	3477.76
947.493	3476.63
947.799	3436.63
948.105	3475.73
948.41	3446.35
948.716	3410.42
949.022	3343.08
949.327	3392.34
949.633	3346.01
949.938	3341.27
950.244	3349.63
950.549	3343.3
950.854	3328.61
951.16	3268.95
951.465	3249.29
951.77	3245
952.075	3238.9
952.38	3241.84
952.685	3206.81
952.99	3183.53
953.294	3170.2
953.599	3200.48
953.904	3163.65
954.209	3148.5
954.513	3164.78
954.818	3149.63
955.122	3120.03
955.426	3081.61
955.731	3065.57
956.035	3052.46
956.339	3078.68
956.643	3056.76
956.948	3047.94
957.252	3045
957.556	2990.32
957.86	2983.31
958.163	2983.99
958.467	2946.93
958.771	2936.31
959.075	2995.97
959.378	2893.82
959.682	2933.14
959.985	2921.39
960.289	2887.72
960.592	2905.8
960.896	2869.64
961.199	2813.15
961.502	2862.86
961.805	2847.04
962.108	2822.64
962.411	2833.03
962.714	2793.94
963.017	2813.37
963.32	2799.36
963.623	2779.25
963.926	2736.54
964.228	2742.64
964.531	2744.45
964.833	2726.37
965.136	2706.03
965.438	2724.56
965.741	2711.68
966.043	2676.88
966.345	2657.67
966.648	2654.05
966.95	2652.92
967.252	2631.23
967.554	2600.95
967.856	2629.2
968.158	2612.47
968.46	2614.73
968.761	2584
969.063	2556.43
969.365	2597.33
969.666	2528.18
969.968	2528.18
970.269	2516.88
970.571	2517.11
970.872	2482.08
971.174	2518.92
971.475	2511.91
971.776	2519.82
972.077	2477.34
972.378	2435.08
972.679	2466.26
972.98	2449.77
973.281	2412.93
973.582	2447.51
973.883	2391.24
974.183	2387.17
974.484	2419.26
974.785	2384.91
975.085	2365.93
975.386	2362.99
975.686	2328.64
975.986	2350.11
976.287	2346.94
976.587	2326.15
976.887	2281.18
977.187	2333.84
977.487	2315.08
977.787	2299.04
978.087	2260.62
978.387	2282.31
978.687	2244.12
978.987	2232.82
979.286	2239.38
979.586	2218.36
979.885	2240.51
980.185	2202.77
980.484	2243.9
980.784	2179.94
981.083	2194.18
981.382	2179.94
981.682	2162.77
981.981	2151.24
982.28	2151.24
982.579	2123.9
982.878	2155.76
983.177	2154.86
983.475	2114.18
983.774	2087.74
984.073	2092.94
984.372	2079.83
984.67	2086.84
984.969	2063.11
985.267	2087.97
985.566	2069.44
985.864	2039.38
986.162	2013.62
986.461	1997.8
986.759	2027.18
987.057	2056.78
987.355	2019.04
987.653	1978.82
987.951	1994.86
988.249	1983.79
988.547	1991.93
988.844	1933.4
989.142	1953.06
989.44	1953.51
989.737	1953.96
990.035	1926.16
990.332	1941.98
990.63	1880.29
990.927	1901.08
991.224	1912.83
991.521	1891.14
991.819	1868.99
992.116	1886.84
992.413	1861.98
992.71	1836.67
993.006	1873.74
993.303	1864.02
993.6	1867.41
993.897	1840.97
994.193	1825.6
994.49	1812.95
994.787	1821.53
995.083	1809.78
995.379	1798.48
995.676	1802.55
995.972	1777.69
996.268	1749.9
996.565	1708.77
996.861	1724.59
997.157	1747.41
997.453	1730.91
997.749	1729.56
998.044	1687.75
998.34	1684.14
998.636	1693.4
998.932	1692.05
999.227	1685.72
999.523	1706.73
999.818	1654.98
1000.114	1642.56
1000.409	1632.84
1000.704	1635.32
1001	1635.55
1001.295	1612.73
1001.59	1618.6
1001.885	1626.28
1002.18	1590.13
1002.475	1617.7
1002.77	1586.74
1003.065	1555.55
1003.359	1592.16
1003.654	1579.05
1003.949	1547.19
1004.243	1565.72
1004.538	1536.8
1004.832	1511.71
1005.127	1526.4
1005.421	1525.72
1005.715	1510.36
1006.009	1503.12
1006.304	1474.88
1006.598	1490.92
1006.892	1454.31
1007.186	1491.37
1007.48	1476.01
1007.773	1422.22
1008.067	1419.28
1008.361	1429
1008.655	1420.19
1008.948	1407.08
1009.242	1414.99
1009.535	1416.8
1009.829	1391.04
1010.122	1369.57
1010.415	1369.79
1010.708	1376.57
1011.001	1339.06
1011.295	1375.22
1011.588	1335.67
1011.881	1352.62
1012.173	1355.11
1012.466	1325.05
1012.759	1324.6
1013.052	1329.8
1013.344	1280.53
1013.637	1320.08
1013.93	1304.49
1014.222	1291.83
1014.514	1260.87
1014.807	1294.99
1015.099	1291.15
1015.391	1252.06
1015.683	1253.41
1015.976	1252.28
1016.268	1244.6
1016.56	1233.75
1016.851	1223.13
1017.143	1229.46
1017.435	1237.37
1017.727	1202.34
1018.018	1203.02
1018.31	1215
1018.602	1195.34
1018.893	1190.36
1019.185	1193.75
1019.476	1176.58
1019.767	1167.77
1020.058	1144.94
1020.35	1157.6
1020.641	1163.02
1020.932	1149.01
1021.223	1117.82
1021.514	1120.76
1021.804	1108.56
1022.095	1104.72
1022.386	1102.91
1022.677	1088.22
1022.967	1075.56
1023.258	1099.52
1023.548	1080.54
1023.839	1054.1
1024.129	1069.46
1024.419	1048.9
1024.709	1049.35
1025	1064.27
1025.29	1036.92
1025.58	1044.61
1025.87	1041.22
1026.16	1010.26
1026.449	1012.52
1026.739	1007.54
1027.029	1005.96
1027.319	973.19
1027.608	970.48
1027.898	967.55
1028.187	980.2
1028.477	984.95
1028.766	960.31
1029.055	931.16
1029.344	945.85
1029.634	944.04
1029.923	939.3
1030.212	933.2
1030.501	952.63
1030.79	918.51
1031.078	929.13
1031.367	901.56
1031.656	898.85
1031.945	894.78
1032.233	893.65
1032.522	903.59
1032.81	910.82
1033.099	926.87
1033.387	889.81
1033.675	889.13
1033.963	864.27
1034.251	865.63
1034.54	863.14
1034.828	854.78
1035.116	842.58
1035.403	820.2
1035.691	853.2
1035.979	846.64
1036.267	839.86
1036.554	829.92
1036.842	805.52
1037.129	798.28
1037.417	812.3
1037.704	804.16
1037.992	791.73
1038.279	787.44
1038.566	777.27
1038.853	777.27
1039.14	777.27
