Data from breadboard_black_back_FLMS001491_00058.txt Node
Date: Wed Feb 08 10:50:35 GMT 2017
User: dcchb
Spectrometer: FLMS00149
Trigger mode: 0
Integration Time (sec): 2.000000E-2
Scans to average: 10
Electric dark correction enabled: true
Nonlinearity correction enabled: false
Boxcar width: 0
XAxis mode: Wavelengths
Number of Pixels in Spectrum: 2048
>>>>>Begin Spectral Data<<<<<
341.393	-12.37
341.776	-12.37
342.16	-12.37
342.543	-73.84
342.927	-44.91
343.31	-63.67
343.693	-68.87
344.077	-73.84
344.46	-57.57
344.843	-56.21
345.226	-46.04
345.61	-43.33
345.993	-8.98
346.376	-1.3
346.759	17.68
347.142	12.26
347.525	43.45
347.908	56.55
348.291	71.69
348.674	105.59
349.057	112.6
349.44	129.54
349.823	122.99
350.206	163.44
350.588	182.65
350.971	200.05
351.354	227.85
351.737	236.89
352.119	241.63
352.502	275.53
352.884	259.48
353.267	285.92
353.65	300.61
354.032	298.35
354.414	315.98
354.797	317.11
355.179	337.45
355.562	325.7
355.944	337.45
356.326	337.45
356.709	345.36
357.091	329.99
357.473	356.43
357.855	332.48
358.238	357.56
358.62	358.01
359.002	340.39
359.384	347.62
359.766	344.45
360.148	341.97
360.53	329.77
360.912	346.71
361.294	360.05
361.676	359.6
362.057	339.03
362.439	339.26
362.821	329.99
363.203	349.43
363.584	332.25
363.966	341.74
364.348	339.26
364.729	322.99
365.111	341.29
365.493	332.25
365.874	336.54
366.256	334.06
366.637	343.78
367.019	325.47
367.4	334.96
367.781	312.59
368.163	318.92
368.544	350.33
368.925	334.06
369.306	323.44
369.688	348.3
370.069	326.15
370.45	349.65
370.831	341.52
371.212	356.21
371.593	356.88
371.974	337.67
372.355	341.52
372.736	367.96
373.117	342.65
373.498	340.16
373.879	356.66
374.26	333.38
374.641	347.84
375.021	369.76
375.402	346.71
375.783	370.89
376.163	369.54
376.544	370.22
376.925	371.35
377.305	366.6
377.686	359.14
378.066	382.42
378.447	380.16
378.827	375.41
379.208	384.91
379.588	370.67
379.968	370.44
380.349	386.49
380.729	386.04
381.109	401.85
381.489	373.15
381.87	391.23
382.25	388.07
382.63	400.5
383.01	388.97
383.39	396.2
383.77	392.81
384.15	434.62
384.53	423.1
384.91	414.73
385.29	398.46
385.67	407.73
386.049	436.66
386.429	398.24
386.809	424.68
387.189	427.39
387.568	435.75
387.948	446.82
388.328	440.5
388.707	436.66
389.087	432.36
389.466	472.81
389.846	447.95
390.225	448.86
390.605	458.35
390.984	475.52
391.363	457.67
391.743	477.11
392.122	476.2
392.501	485.69
392.881	501.74
393.26	482.3
393.639	498.35
394.018	494.28
394.397	504.45
394.776	509.42
395.155	508.97
395.534	522.98
395.913	500.16
396.292	524.11
396.671	506.03
397.05	520.95
397.429	517.78
397.808	526.14
398.186	525.47
398.565	556.88
398.944	542.64
399.323	546.26
399.701	553.26
400.08	555.97
400.458	546.93
400.837	571.57
401.215	579.48
401.594	570.89
401.972	562.98
402.351	574.05
402.729	576.54
403.107	584
403.486	573.6
403.864	603.2
404.242	599.81
404.62	606.14
404.999	611.11
405.377	616.76
405.755	642.53
406.133	640.94
406.511	646.14
406.889	654.95
407.267	669.87
407.645	668.74
408.023	667.84
408.401	676.2
408.779	669.87
409.156	676.2
409.534	703.99
409.912	696.76
410.29	690.89
410.667	699.47
411.045	708.29
411.422	714.16
411.8	702.18
412.178	745.12
412.555	777.66
412.933	750.09
413.31	767.95
413.687	769.75
414.065	794.61
414.442	784.44
414.819	785.8
415.197	819.02
415.574	804.78
415.951	816.53
416.328	832.58
416.705	830.09
417.082	860.15
417.46	829.87
417.837	877.32
418.214	831.67
418.591	890.88
418.967	877.55
419.344	883.2
419.721	895.85
420.098	888.85
420.475	922.52
420.852	912.12
421.228	919.13
421.605	936.08
421.982	938.34
422.358	923.87
422.735	972.69
423.111	970.88
423.488	973.82
423.864	993.7
424.241	1009.52
424.617	1023.53
424.994	1007.71
425.37	1023.31
425.746	1045.23
426.123	1034.15
426.499	1066.47
426.875	1077.77
427.251	1087.03
427.627	1098.11
428.003	1091.33
428.379	1117.09
428.756	1118.9
429.132	1141.95
429.507	1162.74
429.883	1173.13
430.259	1175.39
430.635	1197.31
431.011	1220.14
431.387	1240.02
431.763	1256.52
432.138	1263.3
432.514	1284.54
432.89	1279.34
433.265	1307.82
433.641	1331.09
434.016	1334.94
434.392	1365.9
434.767	1356.86
435.143	1355.28
435.518	1369.74
435.894	1395.5
436.269	1404.99
436.644	1426.91
437.02	1461.94
437.395	1457.87
437.77	1499
438.145	1521.6
438.52	1498.55
438.895	1512.33
439.271	1502.62
439.646	1579.45
440.021	1571.77
440.395	1587.81
440.77	1577.87
441.145	1587.36
441.52	1626.68
441.895	1611.99
442.27	1616.51
442.645	1664.19
443.019	1655.83
443.394	1680.69
443.769	1680.46
444.143	1661.48
444.518	1719.56
444.892	1678.66
445.267	1738.09
445.641	1702.84
446.016	1741.48
446.39	1765.21
446.764	1780.57
447.139	1792.55
447.513	1820.8
447.887	1792.33
448.262	1810.63
448.636	1844.53
449.01	1845.88
449.384	1871.19
449.758	1889.95
450.132	1891.08
450.506	1926.33
450.88	1914.81
451.254	1955.03
451.628	1944.64
452.002	1992.55
452.376	2012.66
452.75	1991.19
453.123	2063.05
453.497	2078.19
453.871	2079.32
454.244	2100.11
454.618	2150.28
454.992	2167.46
455.365	2166.55
455.739	2235.25
456.112	2258.3
456.486	2279.54
456.859	2283.84
457.232	2322.71
457.606	2308.02
457.979	2346.66
458.352	2404.29
458.725	2428.24
459.099	2428.24
459.472	2502.59
459.845	2503.95
460.218	2563.38
460.591	2536.94
460.964	2585.53
461.337	2624.39
461.71	2700.78
462.083	2712.98
462.456	2705.3
462.829	2746.2
463.201	2836.37
463.574	2806.99
463.947	2836.82
464.32	2865.74
464.692	2952.07
465.065	2934.22
465.438	2975.8
465.81	3043.37
466.183	3067.77
466.555	3142.57
466.928	3165.85
467.3	3133.99
467.672	3198.16
468.045	3273.19
468.417	3305.51
468.789	3296.92
469.161	3389.35
469.534	3380.08
469.906	3483.35
470.278	3556.35
470.65	3550.92
471.022	3633.41
471.394	3688.32
471.766	3729.45
472.138	3747.3
472.51	3816.23
472.882	3867.3
473.253	3896.9
473.625	4019.84
473.997	4088.31
474.369	4104.81
474.74	4146.61
475.112	4244.69
475.484	4294.18
475.855	4352.26
476.227	4384.12
476.598	4546.83
476.97	4518.81
477.341	4648.75
477.713	4728.29
478.084	4774.62
478.455	4885.8
478.827	4918.12
479.198	5043.31
479.569	5059.13
479.94	5221.39
480.311	5300.48
480.682	5363.76
481.053	5479.46
481.424	5564.43
481.795	5641.94
482.166	5748.38
482.537	5783.63
482.908	5939.79
483.279	5948.15
483.65	6074.25
484.021	6182.72
484.391	6254.81
484.762	6327.8
485.133	6417.97
485.503	6434.24
485.874	6656.6
486.244	6707
486.615	6751.07
486.985	6887.33
487.356	7040.78
487.726	7082.36
488.097	7255.23
488.467	7332.07
488.837	7406.64
489.207	7488.9
489.578	7564.38
489.948	7684.37
490.318	7752.85
490.688	7843.69
491.058	7930.92
491.428	8079.62
491.798	8081.88
492.168	8276.9
492.538	8302.66
492.908	8409.55
493.278	8562.54
493.648	8559.15
494.017	8649.77
494.387	8707.62
494.757	8838.47
495.126	8935.41
495.496	8968.86
495.866	9028.29
496.235	9182.87
496.605	9198.91
496.974	9237.78
497.344	9361.84
497.713	9445.01
498.082	9510.31
498.452	9654.72
498.821	9687.71
499.19	9668.05
499.559	9860.81
499.928	9881.15
500.298	9934.71
500.667	10006.57
501.036	10011.77
501.405	10133.8
501.774	10182.39
502.143	10259.22
502.512	10386
502.88	10429.84
503.249	10453.79
503.618	10580.34
503.987	10658.08
504.356	10680.45
504.724	10769.72
505.093	10754.58
505.462	10869.6
505.83	10937.17
506.199	11038.18
506.567	11158.41
506.936	11150.72
507.304	11366.76
507.672	11348.68
508.041	11463.03
508.409	11547.55
508.777	11561.79
509.145	11678.17
509.514	11731.73
509.882	11792.06
510.25	11877.71
510.618	12027.54
510.986	12040.42
511.354	12157.02
511.722	12286.51
512.09	12381.88
512.458	12324.25
512.826	12467.3
513.193	12632.94
513.561	12655.54
513.929	12839.94
514.297	12873.84
514.664	12935.08
515.032	13074.97
515.4	13162.87
515.767	13222.53
516.135	13275.87
516.502	13315.19
516.869	13518.8
517.237	13544.79
517.604	13602.86
517.972	13751.11
518.339	13882.63
518.706	13865.45
519.073	14028.16
519.44	14102.06
519.808	14226.8
520.175	14285.78
520.542	14485.33
520.909	14550.86
521.276	14643.74
521.643	14737.52
522.009	14865.65
522.376	14923.28
522.743	15071.3
523.11	15199.88
523.477	15311.29
523.843	15481.91
524.21	15614.11
524.577	15738.17
524.943	15818.4
525.31	15941.56
525.676	16109.46
526.043	16133.19
526.409	16243.25
526.776	16427.87
527.142	16562.11
527.508	16584.03
527.874	16755.32
528.241	16878.48
528.607	16978.37
528.973	17104.92
529.339	17149.66
529.705	17382.88
530.071	17453.61
530.437	17478.92
530.803	17653.38
531.169	17764.11
531.535	17659.25
531.901	17835.97
532.267	17925.91
532.632	18005.91
532.998	18128.85
533.364	18170.43
533.73	18339.01
534.095	18450.64
534.461	18541.94
534.826	18573.58
535.192	18671.43
535.557	18844.08
535.923	18795.95
536.288	18829.62
536.653	19027.8
537.019	19021.93
537.384	19146.9
537.749	19139.67
538.114	19182.83
538.479	19327.91
538.845	19538.98
539.21	19453.78
539.575	19526.55
539.94	19577.17
540.305	19723.15
540.67	19720.44
541.034	19898.52
541.399	19912.98
541.764	19962.24
542.129	20079.75
542.494	20069.36
542.858	20196.36
543.223	20259.86
543.587	20421.67
543.952	20338.28
544.316	20464.38
544.681	20498.5
545.045	20563.36
545.41	20776.69
545.774	20799.06
546.138	20770.81
546.503	20874.99
546.867	20876.34
547.231	21090.12
547.595	21119.05
547.959	21229.78
548.324	21261.19
548.688	21286.05
549.052	21390.91
549.416	21493.95
549.779	21465.93
550.143	21488.98
550.507	21722.65
550.871	21864.57
551.235	21697.11
551.599	22032.92
551.962	22073.83
552.326	22165.35
552.689	22203.09
553.053	22184.11
553.417	22251.45
553.78	22484.66
554.143	22565.56
554.507	22551.33
554.87	22685.79
555.234	22897.99
555.597	22777.08
555.96	22901.83
556.323	23065.66
556.686	23035.83
557.05	23236.06
557.413	23248.03
557.776	23477.63
558.139	23567.57
558.502	23580.68
558.865	23706.78
559.228	23847.57
559.59	23958.3
559.953	24113.09
560.316	24223.37
560.679	24193.77
561.041	24371.17
561.404	24604.61
561.767	24601.22
562.129	24557.38
562.492	24906.52
562.854	24805.05
563.217	24965.28
563.579	24982
563.941	25151.26
564.304	25312.61
564.666	25398.26
565.028	25409.56
565.39	25494.53
565.753	25645.48
566.115	25817.23
566.477	25817.91
566.839	25935.42
567.201	26255.64
567.563	26306.71
567.925	26320.49
568.287	26368.18
568.648	26432.13
569.01	26723.65
569.372	26857.66
569.734	26669.64
570.095	27015.17
570.457	26866.47
570.819	27113.69
571.18	27033.02
571.542	27397.53
571.903	27266.46
572.265	27401.37
572.626	27536.28
572.987	27542.38
573.349	27586.22
573.71	27807.91
574.071	27887.01
574.432	27943.28
574.794	28036.83
575.155	28122.48
575.516	28109.15
575.877	28185.76
576.238	28287.9
576.599	28326.54
576.96	28367.45
577.32	28394.56
577.681	28517.27
578.042	28518.85
578.403	28602.69
578.763	28423.26
579.124	28602.24
579.485	28761.56
579.845	28802.24
580.206	28737.15
580.566	28798.17
580.927	28909.13
581.287	29101.89
581.648	28917.49
582.008	29093.08
582.368	28944.15
582.728	28897.83
583.089	28908.9
583.449	29025.96
583.809	29146.41
584.169	29153.41
584.529	29199.06
584.889	29369.91
585.249	29108.22
585.609	29032.74
585.969	29310.25
586.329	29113.42
586.688	29139.86
587.048	29071.83
587.408	29132.85
587.768	29250.81
588.127	29040.65
588.487	29055.79
588.846	29397.25
589.206	29113.19
589.565	29191.38
589.925	29343.24
590.284	29267.76
590.643	29272.51
591.003	29395.44
591.362	29352.28
591.721	29287.65
592.08	29354.09
592.44	29435.89
592.799	29416.68
593.158	29458.94
593.517	29492.84
593.876	29388.44
594.235	29388.21
594.593	29371.26
594.952	29529.68
595.311	29432.73
595.67	29397.7
596.029	29583.69
596.387	29654.87
596.746	29740.07
597.104	29528.77
597.463	29484.7
597.822	29649.9
598.18	29584.14
598.538	29663.46
598.897	29757.01
599.255	29594.53
599.613	30035.88
599.972	29695.55
600.33	29786.17
600.688	29735.77
601.046	29815.09
601.404	29985.48
601.762	29876.33
602.12	30042.2
602.478	30055.09
602.836	30089.66
603.194	29992.04
603.552	30024.13
603.91	29902.55
604.268	30113.61
604.625	30033.62
604.983	30140.28
605.341	30034.52
605.698	30281.29
606.056	30191.81
606.413	30097.8
606.771	30358.81
607.128	30356.55
607.485	30261.18
607.843	30291.92
608.2	30458.24
608.557	30692.81
608.914	30483.32
609.272	30553.15
609.629	30624.11
609.986	30664.56
610.343	30642.64
610.7	30827.49
611.057	30720.83
611.414	30768.96
611.771	30917.89
612.127	30952.69
612.484	30811.22
612.841	30955.4
613.198	30826.59
613.554	30854.61
613.911	31095.51
614.267	31046.25
614.624	31057.32
614.98	31085.79
615.337	31137.32
615.693	31191.33
616.05	31152.91
616.406	31282.62
616.762	31168.5
617.118	31320.59
617.475	31299.35
617.831	31468.38
618.187	31469.29
618.543	31463.86
618.899	31666.12
619.255	31472.68
619.611	31511.32
619.967	31590.86
620.323	31586.12
620.678	31499.57
621.034	31461.6
621.39	31493.69
621.746	31493.69
622.101	31829.5
622.457	31593.35
622.812	31677.42
623.168	31646.23
623.523	31790.86
623.879	31725.78
624.234	31615.5
624.589	31649.39
624.945	31803.29
625.3	31729.62
625.655	31682.84
626.01	31924.41
626.365	31749.5
626.72	31696.4
627.075	31590.64
627.43	31660.47
627.785	31629.96
628.14	31608.94
628.495	31667.7
628.85	31699.79
629.205	31591.99
629.559	31765.77
629.914	31559.68
630.269	31633.58
630.623	31528.27
630.978	31499.79
631.332	31616.17
631.687	31701.6
632.041	31401.49
632.396	31450.75
632.75	31449.17
633.104	31587.47
633.459	31339.57
633.813	31326.46
634.167	31371.21
634.521	31210.31
634.875	31253.92
635.229	31153.36
635.583	30964.44
635.937	31096.64
636.291	31087.83
636.645	31083.53
636.999	30891.9
637.352	31131.67
637.706	30916.53
638.06	31058.9
638.413	30940.26
638.767	30906.81
639.121	31013.03
639.474	30806.93
639.828	30737.78
640.181	30826.59
640.534	30621.17
640.888	30605.81
641.241	30561.29
641.594	30504.57
641.947	30579.59
642.301	30605.58
642.654	30574.62
643.007	30452.82
643.36	30447.39
643.713	30375.53
644.066	30456.43
644.419	30265.02
644.771	30141.86
645.124	29956.56
645.477	29907.52
645.83	29658.03
646.182	29418.49
646.535	29394.09
646.888	29464.59
647.24	29123.58
647.593	29392.5
647.945	29365.16
648.298	29168.78
648.65	29118.61
649.002	29025.06
649.355	29230.25
649.707	29067.99
650.059	29249.68
650.411	29602.67
650.763	29651.71
651.115	29955.2
651.467	29804.02
651.819	29614.87
652.171	29825.26
652.523	29652.38
652.875	29667.3
653.227	29552.05
653.578	29787.3
653.93	29647.19
654.282	29407.87
654.633	29401.09
654.985	29435.67
655.337	29489.9
655.688	29458.94
656.039	29625.72
656.391	29336.46
656.742	29371.49
657.094	29464.82
657.445	29491.94
657.796	29470.24
658.147	29311.15
658.498	29330.81
658.849	29413.29
659.2	29220.98
659.551	29221.44
659.902	29367.42
660.253	29255.33
660.604	29263.69
660.955	29138.27
661.306	29263.02
661.656	29183.92
662.007	29231.15
662.358	29097.6
662.708	29133.53
663.059	29065.05
663.409	28904.38
663.76	29258.5
664.11	29130.14
664.461	28944.38
664.811	29133.98
665.161	29063.47
665.511	28932.18
665.862	28894.89
666.212	29097.14
666.562	29027.32
666.912	29080.87
667.262	28869.58
667.612	28990.48
667.962	29069.35
668.312	28962.46
668.662	28996.58
669.011	28937.37
669.361	28882.91
669.711	28903.7
670.06	28853.31
670.41	28783.03
670.76	28712.07
671.109	28778.96
671.459	28833.65
671.808	28739.41
672.157	28853.08
672.507	28613.54
672.856	28646.53
673.205	28528.8
673.554	28710.04
673.904	28512.3
674.253	28784.84
674.602	28607.21
674.951	28287.67
675.3	28064.4
675.649	28518.63
675.998	28513.66
676.346	28482.92
676.695	28524.28
677.044	28268.01
677.393	28339.2
677.741	28466.43
678.09	28304.17
678.438	28211.97
678.787	28309.37
679.135	28348.92
679.484	28156.15
679.832	28201.57
680.181	28112.09
680.529	28208.58
680.877	28138.98
681.225	28035.48
681.573	28297.84
681.922	28033.22
682.27	28000.22
682.618	27909.15
682.966	27835.93
683.314	28044.29
683.661	27778.99
684.009	27675.04
684.357	27608.37
684.705	27588.94
685.053	27554.81
685.4	27614.02
685.748	27308.94
686.095	27477.75
686.443	27372.44
686.79	27283.63
687.138	27246.8
687.485	27335.38
687.832	27157.53
688.18	27253.35
688.527	26938.11
688.874	27055.62
689.221	27037.99
689.568	26958.22
689.915	26838.9
690.262	26852.01
690.609	26777.66
690.956	26720.71
691.303	26652.69
691.65	26503.99
691.997	26553.48
692.344	26443.65
692.69	26392.81
693.037	26258.35
693.383	26203.21
693.73	26338.8
694.077	26106.49
694.423	26121.18
694.769	25888.42
695.116	26003.67
695.462	25798.47
695.808	25855.65
696.155	25883.44
696.501	25721.87
696.847	25754.86
697.193	25397.35
697.539	25571.36
697.885	25450.23
698.231	25305.61
698.577	25313.29
698.923	25313.97
699.269	25184.48
699.614	25017.48
699.96	25047.08
700.306	24935.67
700.651	24952.85
700.997	24840.76
701.342	24810.7
701.688	24722.8
702.033	24633.99
702.379	24659.3
702.724	24608.67
703.069	24677.6
703.415	24321.68
703.76	24403.26
704.105	24389.92
704.45	24268.57
704.795	24118.74
705.14	24013.21
705.485	24092.3
705.83	23972.08
706.175	23987
706.52	23838.07
706.865	23792.65
707.209	23814.57
707.554	23716.5
707.899	23776.15
708.243	23554.01
708.588	23516.73
708.932	23362.61
709.277	23357.41
709.621	23421.36
709.966	23199.67
710.31	23382.04
710.654	23190.86
710.998	23327.58
711.342	23241.93
711.687	23083.29
712.031	23009.17
712.375	22876.29
712.719	22997.42
713.063	22841.26
713.407	22974.37
713.75	22766.69
714.094	22856.86
714.438	22596.75
714.782	22686.92
715.125	22621.16
715.469	22774.6
715.812	22436.08
716.156	22434.49
716.499	22548.84
716.843	22475.17
717.186	22340.94
717.53	22398.56
717.873	22461.84
718.216	22350.43
718.559	22159.25
718.902	22010.1
719.246	22103.66
719.589	22017.56
719.932	21984.34
720.275	21980.72
720.617	21889.2
720.96	21905.7
721.303	22022.08
721.646	21839.48
721.989	21803.33
722.331	21860.72
722.674	21776.66
723.016	21778.47
723.359	21742.54
723.701	21716.32
724.044	21561.07
724.386	21415.99
724.729	21460.96
725.071	21484.69
725.413	21480.62
725.755	21408.99
726.097	21308.87
726.439	21273.62
726.782	21197.92
727.124	21332.38
727.465	21175.32
727.807	21070.46
728.149	21089.9
728.491	21145.94
728.833	21125.38
729.175	21100.74
729.516	20973.06
729.858	21025.72
730.199	20966.96
730.541	20882.45
730.882	20907.53
731.224	20879.96
731.565	20753.18
731.906	20796.8
732.248	20803.8
732.589	20630.7
732.93	20647.42
733.271	20645.62
733.612	20588.67
733.953	20707.99
734.294	20532.62
734.635	20519.97
734.976	20580.76
735.317	20449.46
735.658	20479.07
735.999	20476.13
736.339	20374.21
736.68	20385.74
737.021	20318.62
737.361	20262.57
737.702	20360.43
738.042	20288.34
738.383	20214.67
738.723	20246.76
739.063	20215.8
739.404	20142.58
739.744	20192.97
740.084	20096.48
740.424	20010.38
740.764	19996.59
741.104	20057.16
741.444	19977.16
741.784	19859.65
742.124	19918.85
742.464	19954.33
742.804	19811.74
743.143	19811.96
743.483	19706.21
743.823	19709.82
744.162	19599.99
744.502	19612.2
744.841	19582.14
745.181	19700.56
745.52	19498.98
745.86	19469.6
746.199	19509.15
746.538	19457.17
746.877	19481.58
747.216	19424.4
747.556	19515.25
747.895	19367.23
748.234	19309.83
748.573	19202.94
748.911	19276.39
749.25	19204.75
749.589	19166.33
749.928	19185.09
750.267	19190.74
750.605	18923.85
750.944	19029.84
751.283	18960.91
751.621	19040.23
751.96	18911.42
752.298	18880.01
752.636	18882.72
752.975	18754.37
753.313	18696.29
753.651	18740.81
753.989	18683.86
754.327	18682.05
754.666	18521.6
755.004	18548.72
755.342	18621.26
755.679	18501.26
756.017	18457.2
756.355	18462.17
756.693	18366.13
757.031	18444.09
757.368	18230.31
757.706	18265.56
758.044	18148.73
758.381	18183.53
758.719	18139.24
759.056	18103.54
759.394	18162.06
759.731	18051.79
760.068	17896.99
760.405	17748.74
760.743	17807.5
761.08	17854.28
761.417	17720.04
761.754	17764.56
762.091	17665.35
762.428	17569.09
762.765	17620.38
763.102	17634.17
763.438	17502.42
763.775	17416.32
764.112	17243.22
764.449	17353.5
764.785	17172.71
765.122	17130
765.458	17117.35
765.795	17073.51
766.131	17064.01
766.467	16887.07
766.804	16866.96
767.14	16851.59
767.476	16842.33
767.812	16782.44
768.148	16765.72
768.485	16617.02
768.821	16574.54
769.157	16573.41
769.492	16543.58
769.828	16421.55
770.164	16331.6
770.5	16268.33
770.836	16278.05
771.171	16229.69
771.507	16179.29
771.842	16032.63
772.178	16077.15
772.513	15955.34
772.849	15954.89
773.184	15883.03
773.519	15929.36
773.855	15691.4
774.19	15655.92
774.525	15589.48
774.86	15637.84
775.195	15544.73
775.53	15556.94
775.865	15408.46
776.2	15344.51
776.535	15186.55
776.87	15210.96
777.205	15196.04
777.539	15047.12
777.874	15153.33
778.209	14975.93
778.543	14942.49
778.878	14900.23
779.212	14784.07
779.547	14697.98
779.881	14775.71
780.215	14727.13
780.55	14670.86
780.884	14671.31
781.218	14560.8
781.552	14514.48
781.886	14524.19
782.22	14436.29
782.554	14332.11
782.888	14234.03
783.222	14242.39
783.556	14120.14
783.889	14135.28
784.223	14008.5
784.557	14044.88
784.89	14061.61
785.224	13920.59
785.557	13805.12
785.891	13802.63
786.224	13845.79
786.558	13759.69
786.891	13698
787.224	13625.01
787.557	13593.15
787.891	13557.44
788.224	13495.97
788.557	13504.11
788.89	13412.81
789.223	13425.24
789.556	13291.46
789.888	13238.58
790.221	13243.32
790.554	13152.93
790.887	13190.9
791.219	13074.97
791.552	13057.34
791.884	12963.78
792.217	12914.75
792.549	12872.49
792.882	12877.01
793.214	12744.81
793.546	12824.58
793.879	12701.64
794.211	12685.82
794.543	12749.55
794.875	12696.67
795.207	12662.1
795.539	12591.36
795.871	12616
796.203	12415.32
796.535	12359.96
796.867	12372.16
797.198	12334.2
797.53	12349.56
797.862	12270.02
798.193	12276.8
798.525	12198.61
798.856	12151.15
799.188	12162
799.519	12056.24
799.85	11952.51
800.182	11943.02
800.513	12004.03
800.844	11867.99
801.175	11891.95
801.506	11885.85
801.837	11827.32
802.168	11814.66
802.499	11799.07
802.83	11700.77
803.161	11683.37
803.491	11682.24
803.822	11598.17
804.153	11521.56
804.483	11483.14
804.814	11428.23
805.145	11419.19
805.475	11458.51
805.805	11453.54
806.136	11424.16
806.466	11380.32
806.796	11386.65
807.126	11286.09
807.457	11205.64
807.787	11322.24
808.117	11296.71
808.447	11205.86
808.777	11182.14
809.107	11144.4
809.436	11070.27
809.766	11044.96
810.096	11017.85
810.426	10977.85
810.755	11094
811.085	10956.83
811.414	10930.62
811.744	10868.92
812.073	10822.6
812.403	10868.47
812.732	10769.04
813.061	10812.65
813.39	10684.3
813.719	10676.61
814.049	10775.14
814.378	10724.75
814.707	10590.96
815.036	10668.7
815.365	10574.24
815.693	10459.44
816.022	10570.85
816.351	10462.83
816.68	10469.16
817.008	10473
817.337	10327.24
817.665	10360.01
817.994	10449.05
818.322	10360.69
818.651	10368.15
818.979	10330.86
819.307	10347.58
819.636	10275.49
819.964	10212.9
820.292	10247.7
820.62	10239.34
820.948	10225.78
821.276	10293.35
821.604	10176.06
821.932	10207.25
822.259	10200.47
822.587	10161.37
822.915	10183.97
823.243	10190.07
823.57	10144.87
823.898	10137.19
824.225	10170.18
824.553	10132.45
824.88	10190.07
825.207	10212.9
825.535	10142.39
825.862	10174.03
826.189	10114.14
826.516	10103.97
826.843	10229.62
827.17	10129.28
827.497	10249.5
827.824	10189.39
828.151	10208.6
828.478	10200.24
828.805	10225.1
829.131	10214.25
829.458	10166.12
829.785	10029.17
830.111	10027.36
830.438	10186.68
830.764	10151.65
831.09	10195.95
831.417	10127.02
831.743	10229.39
832.069	10172.22
832.395	10036.85
832.722	10119.34
833.048	10066.68
833.374	10137.64
833.7	10009.51
834.026	10056.52
834.351	10065.78
834.677	10095.38
835.003	10104.42
835.329	9948.72
835.654	10045.67
835.98	9987.36
836.306	10031.43
836.631	9942.85
836.956	9974.48
837.282	9905.78
837.607	9903.07
837.932	9887.48
838.258	9860.36
838.583	9842.28
838.908	9856.29
839.233	9915.73
839.558	9783.3
839.883	9794.6
840.208	9682.06
840.533	9746.47
840.858	9830.08
841.182	9708.73
841.507	9725.22
841.832	9660.59
842.156	9599.58
842.481	9699.01
842.805	9616.3
843.13	9621.72
843.454	9601.39
843.778	9540.6
844.103	9531.11
844.427	9543.99
844.751	9497.43
845.075	9485
845.399	9415.85
845.723	9395.52
846.047	9391.67
846.371	9348.06
846.695	9372.47
847.019	9259.93
847.343	9247.95
847.666	9178.57
847.99	9166.82
848.313	9163.88
848.637	9054.96
848.96	9068.97
849.284	9089.08
849.607	8974.51
849.931	8977.67
850.254	8946.04
850.577	8890.9
850.9	8815.19
851.223	8863.55
851.546	8769.77
851.869	8737.45
852.192	8780.16
852.515	8643.9
852.838	8689.55
853.161	8637.12
853.483	8570
853.806	8524.8
854.129	8509.66
854.451	8519.15
854.774	8463.79
855.096	8501.75
855.419	8440.74
855.741	8410.68
856.063	8421.53
856.385	8327.97
856.708	8297.47
857.03	8280.29
857.352	8342.44
857.674	8254.98
857.996	8234.42
858.318	8134.98
858.64	8207.07
858.961	8141.09
859.283	8143.57
859.605	8177.47
859.926	8162.33
860.248	8091.6
860.57	8069.9
860.891	8045.95
861.212	7968.89
861.534	7993.52
861.855	8007.3
862.176	8018.38
862.498	7956.91
862.819	7977.7
863.14	7894.54
863.461	7952.39
863.782	7919.85
864.103	7921.66
864.424	7962.56
864.745	7862.22
865.065	7892.73
865.386	7774.09
865.707	7789.46
866.027	7897.25
866.348	7812.51
866.668	7791.04
866.989	7808.44
867.309	7737.48
867.63	7704.94
867.95	7685.28
868.27	7664.49
868.59	7693.19
868.91	7647.31
869.23	7669.46
869.55	7584.72
869.87	7629.69
870.19	7578.39
870.51	7624.04
870.83	7651.15
871.15	7555.34
871.469	7513.08
871.789	7563.7
872.109	7594.21
872.428	7550.82
872.748	7463.59
873.067	7574.32
873.386	7545.85
873.706	7532.06
874.025	7492.74
874.344	7438.28
874.663	7475.57
874.982	7393.31
875.301	7500.88
875.62	7466.75
875.939	7449.58
876.258	7398.05
876.577	7428.79
876.896	7374.55
877.214	7382.46
877.533	7355.57
877.852	7333.65
878.17	7375
878.489	7306.08
878.807	7353.08
879.125	7328.9
879.444	7323.25
879.762	7280.32
880.08	7274.22
880.398	7248.45
880.716	7252.3
881.034	7210.26
881.352	7235.35
881.67	7175.24
881.988	7155.8
882.306	7157.38
882.624	7161
882.941	7145.63
883.259	7114.45
883.577	7086.2
883.894	7138.63
884.212	7072.41
884.529	7122.36
884.846	7062.02
885.164	7006.43
885.481	7047.55
885.798	7065.41
886.115	6956.03
886.432	7008.46
886.75	6946.54
887.067	6966.43
887.383	6935.92
887.7	6868.8
888.017	6885.75
888.334	6885.98
888.651	6864.51
888.967	6813.44
889.284	6809.37
889.6	6775.92
889.917	6762.82
890.233	6807.34
890.55	6690.05
890.866	6749.26
891.182	6709.26
891.498	6664.97
891.815	6676.94
892.131	6631.97
892.447	6609.6
892.763	6642.14
893.079	6571.18
893.395	6558.98
893.71	6590.39
894.026	6579.54
894.342	6530.96
894.657	6484.63
894.973	6519.66
895.289	6494.35
895.604	6470.39
895.92	6457.06
896.235	6392.66
896.55	6421.81
896.865	6397.85
897.181	6380
897.496	6370.28
897.811	6364.41
898.126	6298.42
898.441	6224.98
898.756	6228.82
899.071	6233.34
899.386	6239.44
899.7	6232.89
900.015	6181.59
900.33	6128.48
900.644	6119.67
900.959	6121.03
901.273	6089.16
901.588	6016.4
901.902	6036.51
902.216	6062.04
902.531	5970.97
902.845	5993.12
903.159	5989.28
903.473	5922.61
903.787	5932.78
904.101	5881.71
904.415	5943.18
904.729	5852.33
905.042	5839.45
905.356	5795.61
905.67	5808.49
905.984	5791.77
906.297	5704.54
906.611	5685.1
906.924	5700.7
907.237	5664.09
907.551	5717.42
907.864	5604.65
908.177	5620.47
908.491	5638.78
908.804	5584.32
909.117	5580.7
909.43	5557.42
909.743	5516.52
910.056	5509.29
910.368	5435.62
910.681	5449.4
910.994	5422.51
911.307	5423.19
911.619	5382.29
911.932	5381.61
912.244	5315.62
912.557	5361.5
912.869	5302.52
913.181	5307.49
913.494	5313.59
913.806	5255.51
914.118	5260.03
914.43	5211.67
914.742	5250.99
915.054	5131.22
915.366	5175.74
915.678	5156.76
915.99	5181.62
916.302	5106.14
916.613	5077.21
916.925	5027.95
917.236	5060.26
917.548	5045.35
917.859	5035.18
918.171	4999.25
918.482	4922.86
918.794	4967.16
919.105	4938.91
919.416	4908.63
919.727	4892.81
920.038	4875.63
920.349	4808.74
920.66	4853.94
920.971	4764
921.282	4773.26
921.593	4761.29
921.903	4750.44
922.214	4710.44
922.525	4674.28
922.835	4723.1
923.146	4722.42
923.456	4609.88
923.767	4637
924.077	4599.26
924.387	4604.68
924.697	4580.95
925.008	4543.44
925.318	4535.3
925.628	4551.8
925.938	4489.43
926.248	4470
926.558	4497.11
926.867	4462.99
927.177	4439.94
927.487	4430
927.796	4390.22
928.106	4385.03
928.416	4382.54
928.725	4352.26
929.034	4295.31
929.344	4341.64
929.653	4272.03
929.962	4263.45
930.271	4285.14
930.581	4201.98
930.89	4212.83
931.199	4186.61
931.508	4162.88
931.817	4170.79
932.125	4145.03
932.434	4133.73
932.743	4091.7
933.051	4113.85
933.36	4075.66
933.669	4070.01
933.977	4070.01
934.286	4072.27
934.594	4043.57
934.902	3963.79
935.21	3977.58
935.519	3988.43
935.827	3994.53
936.135	3922.67
936.443	3928.09
936.751	3952.95
937.059	3888.09
937.367	3884.02
937.674	3857.36
937.982	3861.42
938.29	3798.83
938.597	3820.75
938.905	3791.82
939.213	3804.25
939.52	3694.2
939.827	3783.23
940.135	3740.52
940.442	3729
940.749	3713.63
941.056	3749.11
941.363	3655.55
941.67	3710.02
941.977	3615.33
942.284	3639.51
942.591	3626.4
942.898	3584.14
943.205	3589.11
943.511	3598.83
943.818	3590.47
944.125	3554.31
944.431	3542.11
944.738	3507.08
945.044	3487.42
945.35	3556.35
945.657	3440.64
945.963	3456.46
946.269	3437.03
946.575	3432.06
946.881	3465.95
947.187	3430.25
947.493	3385.05
947.799	3384.6
948.105	3388.44
948.41	3364.71
948.716	3313.64
949.022	3308.44
949.327	3364.71
949.633	3290.59
949.938	3267.32
950.244	3269.35
950.549	3178.05
950.854	3239.07
951.16	3244.72
951.465	3185.06
951.77	3216.47
952.075	3201.33
952.38	3195.23
952.685	3152.97
952.99	3107.55
953.294	3109.81
953.599	3132.86
953.904	3098.96
954.209	3036.13
954.513	3075
954.818	3085.17
955.122	3059.19
955.426	3078.17
955.731	3033.42
956.035	3023.03
956.339	2994.55
956.643	2990.49
956.948	2999.98
957.252	2967.89
957.556	2982.12
957.86	2952.3
958.163	2940.09
958.467	2911.39
958.771	2943.03
959.075	2883.6
959.378	2900.32
959.682	2903.48
959.985	2870.72
960.289	2841.56
960.592	2822.81
960.896	2806.99
961.199	2824.16
961.502	2800.43
961.805	2803.82
962.108	2776.71
962.411	2757.5
962.714	2776.71
963.017	2694.45
963.32	2737.39
963.623	2753.2
963.926	2699.42
964.228	2711.85
964.531	2658.97
964.833	2710.49
965.136	2688.8
965.438	2693.32
965.741	2633.89
966.043	2639.54
966.345	2644.51
966.648	2622.36
966.95	2608.12
967.252	2589.37
967.554	2595.92
967.856	2548.69
968.158	2565.86
968.46	2546.66
968.761	2529.03
969.063	2537.62
969.365	2523.15
969.666	2501.46
969.968	2508.47
970.269	2508.69
970.571	2504.62
970.872	2451.97
971.174	2462.82
971.475	2454.23
971.776	2433.66
972.077	2448.58
972.378	2442.48
972.679	2443.61
972.98	2420.56
973.281	2404.51
973.582	2374.23
973.883	2325.65
974.183	2361.12
974.484	2338.53
974.785	2341.46
975.085	2340.56
975.386	2319.09
975.686	2318.19
975.986	2327.9
976.287	2313.44
976.587	2312.31
976.887	2320.67
977.187	2282.71
977.487	2263.73
977.787	2238.64
978.087	2224.18
978.387	2222.82
978.687	2225.08
978.987	2238.87
979.286	2176.5
979.586	2204.07
979.885	2160.68
980.185	2162.71
980.484	2153.9
980.784	2163.84
981.083	2187.34
981.382	2152.54
981.682	2135.14
981.981	2115.48
982.28	2137.4
982.579	2104.18
982.878	2117.97
983.177	2120.9
983.475	2100.57
983.774	2043.17
984.073	2037.07
984.372	2055.14
984.67	2031.19
984.969	2024.41
985.267	2029.16
985.566	2036.61
985.864	2009.5
986.162	2013.11
986.461	1993.45
986.759	1990.51
987.057	1974.47
987.355	1966.33
987.653	1969.27
987.951	1979.89
988.249	1988.7
988.547	1960.46
988.844	1915.49
989.142	1948.93
989.44	1905.09
989.737	1878.88
990.035	1882.27
990.332	1869.39
990.63	1853.12
990.927	1844.53
991.224	1858.09
991.521	1862.83
991.819	1846.79
992.116	1867.8
992.413	1826.22
992.71	1826.9
993.006	1825.55
993.303	1805.88
993.6	1834.58
993.897	1792.33
994.193	1827.58
994.49	1802.72
994.787	1769.95
995.083	1766.34
995.379	1764.98
995.676	1739.45
995.972	1733.34
996.268	1718.2
996.565	1725.21
996.861	1727.69
997.157	1701.03
997.453	1698.54
997.749	1672.1
998.044	1635.27
998.34	1648.15
998.636	1647.47
998.932	1644.08
999.227	1649.5
999.523	1628.94
999.818	1645.44
1000.114	1621.03
1000.409	1635.72
1000.704	1609.73
1001	1588.72
1001.295	1573.35
1001.59	1616.74
1001.885	1565.67
1002.18	1579.22
1002.475	1561.37
1002.77	1550.75
1003.065	1544.42
1003.359	1515.95
1003.654	1558.21
1003.949	1545.1
1004.243	1522.95
1004.538	1502.39
1004.832	1509.62
1005.127	1489.73
1005.421	1494.25
1005.715	1485.44
1006.009	1492.67
1006.304	1433.92
1006.598	1424.43
1006.892	1470.98
1007.186	1476.4
1007.48	1427.36
1007.773	1416.29
1008.067	1411.54
1008.361	1414.03
1008.655	1414.48
1008.948	1426.91
1009.242	1396.86
1009.535	1369.29
1009.829	1397.99
1010.122	1374.94
1010.415	1347.82
1010.708	1366.8
1011.001	1354.15
1011.295	1333.81
1011.588	1317.54
1011.881	1324.09
1012.173	1324.77
1012.466	1308.5
1012.759	1311.66
1013.052	1306.01
1013.344	1290.64
1013.637	1302.85
1013.93	1266.46
1014.222	1274.37
1014.514	1260.14
1014.807	1233.92
1015.099	1259.46
1015.391	1240.48
1015.683	1238.67
1015.976	1230.98
1016.268	1205.67
1016.56	1216.3
1016.851	1229.4
1017.143	1203.41
1017.435	1233.24
1017.727	1196.18
1018.018	1173.13
1018.31	1201.83
1018.602	1176.75
1018.893	1188.95
1019.185	1188.27
1019.476	1156.18
1019.767	1152.12
1020.058	1138.11
1020.35	1153.92
1020.641	1145.11
1020.932	1130.87
1021.223	1104.89
1021.514	1117.99
1021.804	1103.3
1022.095	1100.59
1022.386	1087.71
1022.677	1100.82
1022.967	1082.51
1023.258	1032.8
1023.548	1075.51
1023.839	1061.72
1024.129	1058.56
1024.419	1046.13
1024.709	1034.15
1025	1048.84
1025.29	1033.93
1025.58	1016.75
1025.87	1020.14
1026.16	986.7
1026.449	1008.17
1026.739	1009.97
1027.029	982.63
1027.319	1003.65
1027.608	1005.68
1027.898	974.72
1028.187	953.48
1028.477	955.06
1028.766	941.73
1029.055	947.83
1029.344	942.63
1029.634	938.79
1029.923	955.29
1030.212	949.86
1030.501	897.89
1030.79	925.91
1031.078	906.47
1031.367	912.57
1031.656	904.21
1031.945	891.78
1032.233	907.15
1032.522	879.13
1032.81	872.12
1033.099	880.94
1033.387	858.56
1033.675	882.97
1033.963	862.86
1034.251	849.75
1034.54	851.79
1034.828	869.86
1035.116	833.71
1035.403	815.4
1035.691	837.55
1035.979	817.66
1036.267	823.99
1036.554	812.01
1036.842	806.81
1037.129	804.78
1037.417	798.45
1037.704	797.78
1037.992	789.41
1038.279	790.09
1038.566	775.86
1038.853	775.86
1039.14	775.86
