Data from breadboard_black_back_FLMS001491_00088.txt Node
Date: Wed Feb 08 10:51:03 GMT 2017
User: dcchb
Spectrometer: FLMS00149
Trigger mode: 0
Integration Time (sec): 2.000000E-2
Scans to average: 10
Electric dark correction enabled: true
Nonlinearity correction enabled: false
Boxcar width: 0
XAxis mode: Wavelengths
Number of Pixels in Spectrum: 2048
>>>>>Begin Spectral Data<<<<<
341.393	-27.37
341.776	-27.37
342.16	-27.37
342.543	-57.2
342.927	-54.04
343.31	-62.85
343.693	-67.37
344.077	-73.25
344.46	-51.33
344.843	-44.09
345.226	-40.71
345.61	-44.55
345.993	-23.98
346.376	-32.34
346.759	9.01
347.142	16.92
347.525	54.66
347.908	65.28
348.291	67.09
348.674	102.12
349.057	125.39
349.44	120.65
349.823	148.22
350.206	165.62
350.588	188.67
350.971	208.1
351.354	224.15
351.737	234.99
352.119	260.76
352.502	263.92
352.884	256.69
353.267	272.96
353.65	291.26
354.032	297.59
354.414	309.57
354.797	318.16
355.179	326.74
355.562	334.43
355.944	334.88
356.326	331.26
356.709	339.62
357.091	350.02
357.473	354.09
357.855	331.71
358.238	358.15
358.62	344.6
359.002	343.01
359.384	364.71
359.766	360.19
360.148	351.6
360.53	345.27
360.912	348.21
361.294	331.04
361.676	338.72
362.057	338.95
362.439	335.78
362.821	332.39
363.203	312.28
363.584	351.6
363.966	347.31
364.348	326.06
364.729	347.31
365.111	327.65
365.493	320.87
365.874	324.03
366.256	358.38
366.637	339.62
367.019	327.42
367.4	344.6
367.781	328.55
368.163	324.48
368.544	337.82
368.925	346.4
369.306	337.59
369.688	337.14
370.069	349.79
370.45	343.01
370.831	355.67
371.212	364.93
371.593	338.72
371.974	347.76
372.355	369.91
372.736	352.96
373.117	358.83
373.498	355.67
373.879	362.45
374.26	334.88
374.641	347.31
375.021	334.88
375.402	350.7
375.783	374.65
376.163	359.74
376.544	373.3
376.925	353.63
377.305	359.28
377.686	373.52
378.066	368.32
378.447	384.59
378.827	391.15
379.208	383.92
379.588	378.72
379.968	371.49
380.349	390.92
380.729	392.05
381.109	393.18
381.489	377.36
381.87	392.73
382.25	395.22
382.63	409.23
383.01	399.06
383.39	397.93
383.77	404.71
384.15	399.06
384.53	400.64
384.91	403.35
385.29	416.68
385.67	439.06
386.049	423.46
386.429	434.76
386.809	427.31
387.189	447.64
387.568	438.38
387.948	449
388.328	470.92
388.707	436.57
389.087	443.35
389.466	445.84
389.846	471.15
390.225	474.08
390.605	454.2
390.984	459.17
391.363	459.85
391.743	482.9
392.122	517.7
392.501	472.5
392.881	513.63
393.26	513.18
393.639	505.95
394.018	494.65
394.397	515.66
394.776	499.17
395.155	500.98
395.534	529.68
395.913	533.07
396.292	526.74
396.671	535.55
397.05	526.74
397.429	539.62
397.808	534.19
398.186	516.12
398.565	541.2
398.944	521.54
399.323	521.99
399.701	559.05
400.08	539.17
400.458	537.36
400.837	576.91
401.215	564.25
401.594	568.32
401.972	588.2
402.351	584.59
402.729	601.99
403.107	619.84
403.486	602.22
403.864	632.05
404.242	610.35
404.62	629.33
404.999	598.6
405.377	652.84
405.755	653.97
406.133	643.34
406.511	631.37
406.889	673.85
407.267	666.85
407.645	669.56
408.023	673.4
408.401	684.47
408.779	707.98
409.156	712.72
409.534	728.99
409.912	708.2
410.29	740.97
410.667	740.97
411.045	726.73
411.422	757.69
411.8	762.66
412.178	787.75
412.555	785.26
412.933	787.52
413.31	809.22
413.687	809.67
414.065	802.66
414.442	825.94
414.819	838.82
415.197	848.99
415.574	863
415.951	863.23
416.328	864.81
416.705	879.72
417.082	890.57
417.46	881.98
417.837	882.21
418.214	879.04
418.591	908.87
418.967	904.81
419.344	928.53
419.721	924.02
420.098	933.96
420.475	953.84
420.852	957.91
421.228	961.08
421.605	975.31
421.982	990
422.358	1010.11
422.735	1017.57
423.111	1013.73
423.488	1029.55
423.864	1039.72
424.241	1037.46
424.617	1052.83
424.994	1065.48
425.37	1084.24
425.746	1102.09
426.123	1079.27
426.499	1080.17
426.875	1121.3
427.251	1125.59
427.627	1121.3
428.003	1150.68
428.379	1167.85
428.756	1191.58
429.132	1216.44
429.507	1209.66
429.883	1236.55
430.259	1245.36
430.635	1247.85
431.011	1271.8
431.387	1312.03
431.763	1305.02
432.138	1331.24
432.514	1337.34
432.89	1362.2
433.265	1360.61
433.641	1379.37
434.016	1398.58
434.392	1432.25
434.767	1452.36
435.143	1448.07
435.518	1476.09
435.894	1482.19
436.269	1488.07
436.644	1502.76
437.02	1494.17
437.395	1526.71
437.77	1571
438.145	1589.99
438.52	1582.08
438.895	1588.63
439.271	1609.19
439.646	1665.92
440.021	1640.15
440.395	1630.66
440.77	1640.38
441.145	1688.06
441.52	1696.88
441.895	1720.38
442.27	1717.44
442.645	1740.04
443.019	1753.6
443.394	1763.99
443.769	1753.82
444.143	1782.3
444.518	1801.51
444.892	1766.93
445.267	1792.02
445.641	1839.02
446.016	1864.56
446.39	1838.79
446.764	1890.54
447.139	1862.3
447.513	1881.5
447.887	1881.5
448.262	1883.09
448.636	1919.92
449.01	1932.58
449.384	1959.47
449.758	1974.16
450.132	1997.43
450.506	2010.54
450.88	2030.2
451.254	2036.08
451.628	2078.79
452.002	2102.06
452.376	2131.44
452.75	2128.5
453.123	2128.05
453.497	2174.83
453.871	2186.35
454.244	2212.57
454.618	2228.61
454.992	2286.24
455.365	2297.99
455.739	2345.22
456.112	2382.06
456.486	2396.97
456.859	2410.08
457.232	2433.58
457.606	2420.47
457.979	2489.62
458.352	2515.16
458.725	2567.36
459.099	2572.33
459.472	2644.87
459.845	2673.57
460.218	2677.19
460.591	2711.99
460.964	2719.22
461.337	2764.64
461.71	2829.95
462.083	2843.51
462.456	2839.45
462.829	2903.17
463.201	2924.41
463.574	2945.21
463.947	3026.56
464.32	3070.4
464.692	3066.78
465.065	3083.73
465.438	3121.92
465.81	3187.46
466.183	3209.6
466.555	3300.68
466.928	3304.52
467.3	3300.45
467.672	3332.99
468.045	3443.72
468.417	3452.76
468.789	3459.32
469.161	3517.85
469.534	3581.35
469.906	3686.43
470.278	3685.52
470.65	3762.13
471.022	3753.32
471.394	3884.39
471.766	3908.34
472.138	3941.34
472.51	4047.55
472.882	4088.68
473.253	4139.52
473.625	4178.17
473.997	4265.4
474.369	4314.89
474.74	4381.78
475.112	4449.8
475.484	4506.29
475.855	4587.42
476.227	4595.78
476.598	4778.38
476.97	4800.75
477.341	4856.12
477.713	4966.17
478.084	4976.11
478.455	5175.2
478.827	5171.59
479.198	5390.79
479.569	5351.47
479.94	5504.01
480.311	5541.75
480.682	5666.49
481.053	5766.37
481.424	5857.44
481.795	5895.64
482.166	6026.25
482.537	6120.71
482.908	6233.48
483.279	6272.58
483.65	6403.87
484.021	6545.56
484.391	6570.42
484.762	6655.84
485.133	6759.34
485.503	6819.45
485.874	6920.02
486.244	6991.65
486.615	7185.09
486.985	7221.48
487.356	7373.34
487.726	7411.53
488.097	7605.2
488.467	7666.44
488.837	7762.71
489.207	7844.74
489.578	8015.58
489.948	8098.97
490.318	8221
490.688	8250.6
491.058	8338.28
491.428	8416.7
491.798	8500.99
492.168	8684.04
492.538	8756.58
492.908	8889.68
493.278	8942.34
493.648	8938.72
494.017	9192.05
494.387	9156.12
494.757	9317.47
495.126	9354.98
495.496	9434.75
495.866	9535.77
496.235	9553.84
496.605	9687.4
496.974	9690.79
497.344	9792.93
497.713	9845.59
498.082	9898.69
498.452	10053.49
498.821	10123.77
499.19	10255.97
499.559	10285.13
499.928	10413.03
500.298	10415.74
500.667	10469.08
501.036	10506.59
501.405	10627.49
501.774	10694.15
502.143	10797.2
502.512	10879.01
502.88	10970.3
503.249	10980.47
503.618	11068.16
503.987	11125.78
504.356	11217.53
504.724	11280.35
505.093	11326.45
505.462	11415.04
505.83	11533.91
506.199	11512.21
506.567	11764.63
506.936	11786.33
507.304	11845.54
507.672	11976.15
508.041	12014.8
508.409	12134.79
508.777	12193.78
509.145	12248.46
509.514	12316.94
509.882	12399.87
510.25	12473.54
510.618	12621.11
510.986	12660.66
511.354	12766.19
511.722	12876.02
512.09	12957.15
512.458	12986.75
512.826	13132.28
513.193	13165.95
513.561	13327.76
513.929	13402.78
514.297	13576.34
514.664	13546.28
515.032	13666.05
515.4	13793.06
515.767	13880.06
516.135	13978.36
516.502	13908.98
516.869	14133.39
517.237	14229.88
517.604	14208.64
517.972	14396.2
518.339	14515.52
518.706	14511.91
519.073	14575.63
519.44	14673.03
519.808	14973.82
520.175	14906.92
520.542	15163.64
520.909	15240.93
521.276	15265.33
521.643	15408.83
522.009	15431.88
522.376	15653.57
522.743	15755.49
523.11	15948.48
523.477	15991.87
523.843	16183.95
524.21	16278.19
524.577	16373.33
524.943	16582.59
525.31	16721.79
525.676	16792.07
526.043	16775.12
526.409	17046.08
526.776	17147.32
527.142	17290.14
527.508	17285.39
527.874	17474.99
528.241	17614.65
528.607	17674.54
528.973	17747.53
529.339	17887.64
529.705	18037.46
530.071	18197.91
530.437	18225.26
530.803	18374.4
531.169	18494.63
531.535	18504.8
531.901	18598.58
532.267	18780.95
532.632	18778.01
532.998	18992.69
533.364	19020.94
533.73	19082.86
534.095	19267.49
534.461	19277.66
534.826	19441.04
535.192	19494.6
535.557	19657.31
535.923	19600.59
536.288	19751.09
536.653	19834.25
537.019	19805.33
537.384	19877.64
537.749	20057.07
538.114	20186.11
538.479	20200.8
538.845	20255.26
539.21	20279.21
539.575	20450.06
539.94	20443.05
540.305	20544.97
540.67	20623.61
541.034	20688.47
541.399	20779.31
541.764	20784.96
542.129	20779.31
542.494	21120.09
542.858	21075.58
543.223	21032.19
543.587	21244.84
543.952	21250.26
544.316	21296.59
544.681	21273.54
545.045	21430.14
545.41	21581.1
545.774	21469.92
546.138	21625.62
546.503	21753.75
546.867	21759.85
547.231	22027.64
547.595	21937.47
547.959	22029.22
548.324	22108.09
548.688	22165.94
549.052	22217.92
549.416	22209.56
549.779	22316.45
550.143	22415.43
550.507	22682.99
550.871	22791.91
551.235	22636.21
551.599	22826.26
551.962	22930.44
552.326	22949.65
552.689	23100.38
553.053	22993.94
553.417	23137.44
553.78	23390.54
554.143	23297.44
554.507	23537.66
554.87	23625.11
555.234	23812.68
555.597	23710.99
555.96	23781.27
556.323	23935.84
556.686	24056.29
557.05	24136.74
557.413	24214.93
557.776	24303.29
558.139	24487.24
558.502	24480.23
558.865	24547.35
559.228	24750.96
559.59	24784.63
559.953	24921.8
560.316	25181.23
560.679	25222.36
561.041	25348.46
561.404	25452.86
561.767	25522.69
562.129	25460.55
562.492	25777.83
562.854	25802.46
563.217	25821.89
563.579	25991.6
563.941	26152.96
564.304	26261.88
564.666	26390.46
565.028	26459.39
565.39	26604.02
565.753	26750
566.115	26947.51
566.477	26914.74
566.839	27047.17
567.201	27216.43
567.563	27237.67
567.925	27405.35
568.287	27298.91
568.648	27542.3
569.01	27626.59
569.372	27900.48
569.734	27807.6
570.095	27989.07
570.457	28097.09
570.819	28104.32
571.18	28157.42
571.542	28309.96
571.903	28373.46
572.265	28533.91
572.626	28458.43
572.987	28550.41
573.349	28652.1
573.71	28787.46
574.071	28804.41
574.432	28935.26
574.794	29105.2
575.155	29072.43
575.516	29099.77
575.877	29172.09
576.238	29285.08
576.599	29212.54
576.96	29387.22
577.32	29306.55
577.681	29548.8
578.042	29646.88
578.403	29594
578.763	29634.45
579.124	29708.12
579.485	29792.86
579.845	29833.76
580.206	29878.28
580.566	29839.19
580.927	30000.09
581.287	30043.02
581.648	29859.75
582.008	30079.86
582.368	29968.9
582.728	30085.73
583.089	29984.95
583.449	29993.08
583.809	30076.7
584.169	30095
584.529	30066.53
584.889	30252.06
585.249	30226.07
585.609	29998.51
585.969	30332.73
586.329	30297.71
586.688	30198.5
587.048	30231.04
587.408	30198.73
587.768	30106.98
588.127	30275.33
588.487	30122.57
588.846	30374.99
589.206	30181.33
589.565	30198.5
589.925	30226.07
590.284	30196.92
590.643	30304.49
591.003	30305.84
591.362	30369.34
591.721	30349.23
592.08	30377.03
592.44	30469.68
592.799	30472.16
593.158	30376.8
593.517	30334.99
593.876	30558.26
594.235	30299.74
594.593	30355.78
594.952	30495.67
595.311	30333.41
595.67	30484.59
596.029	30671.48
596.387	30680.29
596.746	30704.02
597.104	30556.68
597.463	30661.09
597.822	30689.79
598.18	30664.93
598.538	30683.01
598.897	30759.84
599.255	30482.79
599.613	31051.58
599.972	30704.25
600.33	30894.3
600.688	30676
601.046	30745.83
601.404	31015.88
601.762	30873.28
602.12	30988.54
602.478	31124.35
602.836	31061.3
603.194	31002.55
603.552	31060.17
603.91	30931.36
604.268	31143.11
604.625	30931.59
604.983	31137.01
605.341	31090.23
605.698	31129.55
606.056	31286.83
606.413	31212.26
606.771	31409.09
607.128	31323.22
607.485	31271.47
607.843	31226.04
608.2	31290.9
608.557	31544.23
608.914	31485.02
609.272	31623.77
609.629	31725.24
609.986	31750.32
610.343	31631
610.7	31900.38
611.057	31646.37
611.414	31692.02
611.771	31719.36
612.127	31869.64
612.484	31861.73
612.841	31994.84
613.198	31837.55
613.554	31853.82
613.911	32009.07
614.267	32040.03
614.624	32108.05
614.98	32097.21
615.337	32289.07
615.693	32190.99
616.05	32174.94
616.406	32326.35
616.762	32208.16
617.118	32245.45
617.475	32221.5
617.831	32356.86
618.187	32369.06
618.543	32399.12
618.899	32508.72
619.255	32485.67
619.611	32476.41
619.967	32656.97
620.323	32629.62
620.678	32537.42
621.034	32432.79
621.39	32524.31
621.746	32472.79
622.101	32742.39
622.457	32556.4
622.812	32501.49
623.168	32725.21
623.523	32665.78
623.879	32682.28
624.234	32398.67
624.589	32695.84
624.945	32580.58
625.3	32655.61
625.655	32555.73
626.01	32469.63
626.365	32547.59
626.72	32503.75
627.075	32477.08
627.43	32614.93
627.785	32467.59
628.14	32624.2
628.495	32639.79
628.85	32543.07
629.205	32407.03
629.559	32519.57
629.914	32426.92
630.269	32460.36
630.623	32344.88
630.978	32333.36
631.332	32456.75
631.687	32485.22
632.041	32270.31
632.396	32359.35
632.75	32226.24
633.104	32279.35
633.459	32109.18
633.813	32204.32
634.167	32104.21
634.521	32101.5
634.875	32061.5
635.229	32058.56
635.583	31936.08
635.937	31869.42
636.291	31871.9
636.645	31922.52
636.999	31692.25
637.352	31886.36
637.706	31801.4
638.06	31795.52
638.413	31736.54
638.767	31600.27
639.121	31777.89
639.474	31529.54
639.828	31529.09
640.181	31553.49
640.534	31589.42
640.888	31417.22
641.241	31314.4
641.594	31343.33
641.947	31533.15
642.301	31199.38
642.654	31399.15
643.007	31229.66
643.36	31152.82
643.713	31118.02
644.066	31325.02
644.419	31074.18
644.771	30966.16
645.124	30690.01
645.477	30544.03
645.83	30391.49
646.182	30243.24
646.535	30055
646.888	30114.21
647.24	30036.47
647.593	30091.38
647.945	30083.25
648.298	29853.2
648.65	29819.75
649.002	29647.78
649.355	29953.08
649.707	29783.14
650.059	30022.23
650.411	30410.92
650.763	30481.88
651.115	30692.72
651.467	30560.75
651.819	30525.04
652.171	30488.89
652.523	30320.3
652.875	30422.9
653.227	30159.86
653.578	30427.19
653.93	30435.78
654.282	30313.07
654.633	30215.22
654.985	30205.73
655.337	30172.74
655.688	30205.73
656.039	30266.75
656.391	29986.75
656.742	30136.58
657.094	30101.55
657.445	30286.86
657.796	30057.49
658.147	30029.24
658.498	30097.03
658.849	30055.23
659.2	29947.21
659.551	29955.79
659.902	30057.71
660.253	29970.03
660.604	30040.99
660.955	29890.49
661.306	29931.84
661.656	29926.87
662.007	29869.24
662.358	29892.29
662.708	29846.64
663.059	29709.02
663.409	29576.37
663.76	29969.58
664.11	29787.21
664.461	29690.26
664.811	29740.21
665.161	29825.85
665.511	29671.28
665.862	29648.23
666.212	29782.47
666.562	29701.56
666.912	29704.5
667.262	29649.81
667.612	29530.49
667.962	29619.53
668.312	29625.41
668.662	29725.52
669.011	29498.41
669.361	29543.6
669.711	29531.62
670.06	29564.84
670.41	29509.7
670.76	29527.78
671.109	29559.19
671.459	29453.43
671.808	29382.02
672.157	29442.59
672.507	29345.19
672.856	29327.11
673.205	29325.53
673.554	29384.51
673.904	29280.33
674.253	29473.32
674.602	29412.98
674.951	29046.44
675.3	28866.56
675.649	29160.11
675.998	29139.77
676.346	29154.46
676.695	29222.93
677.044	28941.81
677.393	29161.01
677.741	29016.38
678.09	29022.26
678.438	29033.33
678.787	29085.76
679.135	29039.21
679.484	28900.45
679.832	28867.69
680.181	28705.66
680.529	28811.42
680.877	28821.59
681.225	28805.32
681.573	28862.49
681.922	28533.23
682.27	28577.53
682.618	28634.7
682.966	28541.14
683.314	28550.18
683.661	28540.69
684.009	28337.98
684.357	28295.95
684.705	28233.58
685.053	28203.07
685.4	28230.87
685.748	28094.37
686.095	28072
686.443	27883.98
686.79	27965.34
687.138	28082.62
687.485	27935.96
687.832	27877.88
688.18	27934.83
688.527	27667.72
688.874	27708.17
689.221	27599.92
689.568	27593.6
689.915	27575.97
690.262	27468.85
690.609	27414.84
690.956	27316.32
691.303	27326.03
691.65	27120.16
691.997	27120.61
692.344	27152.25
692.69	26858.47
693.037	26933.73
693.383	26655.32
693.73	26906.16
694.077	26674.98
694.423	26666.39
694.769	26634.3
695.116	26387.3
695.462	26317.92
695.808	26286.96
696.155	26368.54
696.501	26271.37
696.847	26270.69
697.193	26115.22
697.539	26181.88
697.885	25913.64
698.231	25862.34
698.577	25838.39
698.923	25842.23
699.269	25607.66
699.614	25678.62
699.96	25491.28
700.306	25468.91
700.651	25440.21
700.997	25364.28
701.342	25271.62
701.688	25298.29
702.033	25227.33
702.379	25219.65
702.724	25058.75
703.069	25176.48
703.415	24815.14
703.76	24899.2
704.105	24863.72
704.45	24724.07
704.795	24571.98
705.14	24630.96
705.485	24606.56
705.83	24498.31
706.175	24471.42
706.52	24443.4
706.865	24372.66
707.209	24234.81
707.554	24242.5
707.899	24117.98
708.243	24076.17
708.588	24025.33
708.932	23899
709.277	23887.03
709.621	24031.66
709.966	23826.92
710.31	23851.32
710.654	23699.24
710.998	23721.16
711.342	23651.55
711.687	23513.25
712.031	23552.35
712.375	23504.21
712.719	23350.54
713.063	23457.66
713.407	23558.9
713.75	23327.95
714.094	23296.76
714.438	23115.52
714.782	23289.75
715.125	23043.89
715.469	23091.34
715.812	22931.57
716.156	22853.61
716.499	22877.11
716.843	22982.42
717.186	22751.24
717.53	22882.08
717.873	22883.66
718.216	22782.65
718.559	22618.36
718.902	22558.25
719.246	22506.5
719.589	22479.83
719.932	22447.52
720.275	22505.82
720.617	22475.31
720.96	22417.24
721.303	22320.06
721.646	22443.45
721.989	22208.43
722.331	22232.61
722.674	22207.3
723.016	22202.78
723.359	22140.86
723.701	22149.67
724.044	21971.6
724.386	21900.41
724.729	22024.25
725.071	21914.65
725.413	21905.38
725.755	21880.53
726.097	21714.66
726.439	21652.06
726.782	21732.51
727.124	21800.08
727.465	21611.38
727.807	21686.18
728.149	21417.04
728.491	21563.02
728.833	21478.05
729.175	21424.49
729.516	21449.58
729.858	21366.19
730.199	21418.17
730.541	21313.31
730.882	21277.38
731.224	21226.53
731.565	21119.87
731.906	21144.5
732.248	21208.45
732.589	21188.79
732.93	21057.72
733.271	21062.24
733.612	21069.25
733.953	21015.92
734.294	20995.13
734.635	20910.83
734.976	20938.86
735.317	20839.2
735.658	20798.52
735.999	20731.4
736.339	20742.93
736.68	20817.5
737.021	20708.81
737.361	20568.02
737.702	20674.46
738.042	20692.31
738.383	20614.12
738.723	20574.57
739.063	20508.59
739.404	20483.27
739.744	20508.59
740.084	20408.47
740.424	20290.74
740.764	20299.55
741.104	20463.16
741.444	20332.09
741.784	20243.51
742.124	20312.66
742.464	20259.33
742.804	20174.58
743.143	20107.92
743.483	20214.36
743.823	20066.56
744.162	20032.67
744.502	20004.19
744.841	19888.04
745.181	20017.98
745.52	20002.61
745.86	20026.79
746.199	19999.67
746.538	19930.3
746.877	19802.84
747.216	19843.29
747.556	19760.36
747.895	19775.05
748.234	19591.77
748.573	19662.96
748.911	19585.45
749.25	19620.02
749.589	19533.24
749.928	19526.01
750.267	19489.18
750.605	19439.69
750.944	19419.57
751.283	19355.17
751.621	19311.55
751.96	19231.78
752.298	19209.64
752.636	19159.24
752.975	19144.78
753.313	18969.64
753.651	19086.02
753.989	18909.98
754.327	18982.52
754.666	18786.14
755.004	18895.97
755.342	18865.01
755.679	18823.88
756.017	18707.73
756.355	18865.01
756.693	18667.96
757.031	18817.78
757.368	18542.31
757.706	18508.41
758.044	18417.79
758.381	18411.69
758.719	18422.99
759.056	18460.96
759.394	18465.02
759.731	18220.74
760.068	18170.57
760.405	18118.37
760.743	18130.34
761.08	18160.62
761.417	17986.39
761.754	18070.46
762.091	17942.55
762.428	17899.39
762.765	17793.63
763.102	17737.81
763.438	17796.11
763.775	17643.58
764.112	17590.24
764.449	17726.06
764.785	17487.65
765.122	17426.18
765.458	17331.72
765.795	17290.59
766.131	17213.3
766.467	17219.41
766.804	17099.41
767.14	17109.13
767.476	17150.71
767.812	16968.34
768.148	17085.85
768.485	16827.78
768.821	16796.59
769.157	16754.33
769.492	16709.14
769.828	16686.09
770.164	16577.16
770.5	16513.21
770.836	16517.5
771.171	16303.95
771.507	16334.91
771.842	16294.01
772.178	16313.44
772.513	16237.96
772.849	16158.19
773.184	16069.38
773.519	16081.58
773.855	16096.27
774.19	15936.5
774.525	15916.39
774.86	15833.45
775.195	15973.56
775.53	15728.37
775.865	15653.35
776.2	15564.53
776.535	15414.71
776.87	15455.38
777.205	15364.54
777.539	15381.04
777.874	15392.56
778.209	15219.68
778.543	15223.07
778.878	15105.56
779.212	15084.32
779.547	14988.73
779.881	15072.12
780.215	14923.42
780.55	15051.55
780.884	14836.87
781.218	14849.07
781.552	14821.95
781.886	14736.76
782.22	14626.93
782.554	14589.64
782.888	14426.03
783.222	14473.26
783.556	14418.35
783.889	14285.02
784.223	14242.08
784.557	14273.49
784.89	14277.11
785.224	14178.81
785.557	14032.15
785.891	14007.74
786.224	14021.07
786.558	14004.12
786.891	13867.18
787.224	13872.83
787.557	13889.1
787.891	13853.39
788.224	13786.28
788.557	13680.52
788.89	13593.06
789.223	13568.88
789.556	13469.45
789.888	13508.09
790.221	13412.95
790.554	13311.94
790.887	13335.44
791.219	13331.37
791.552	13305.84
791.884	13179.29
792.217	13174.77
792.549	13133.41
792.882	13060.65
793.214	13007.31
793.546	13017.26
793.879	12930.93
794.211	12821.1
794.543	12876.24
794.875	12876.02
795.207	12903.14
795.539	12721.45
795.871	12715.12
796.203	12631.28
796.535	12692.29
796.867	12555.35
797.198	12496.59
797.53	12600.54
797.862	12443.49
798.193	12435.13
798.525	12353.09
798.856	12405.97
799.188	12275.81
799.519	12305.18
799.85	12124.85
800.182	12157.84
800.513	12181.8
800.844	12059.09
801.175	12158.07
801.506	12081.69
801.837	12037.85
802.168	11988.36
802.499	11937.74
802.83	11952.65
803.161	11835.82
803.491	11850.06
803.822	11829.27
804.153	11744.3
804.483	11689.83
804.814	11633.79
805.145	11630.4
805.475	11626.11
805.805	11661.13
806.136	11555.6
806.466	11482.61
806.796	11522.15
807.126	11429.5
807.457	11415.49
807.787	11408.26
808.117	11405.32
808.447	11311.31
808.777	11355.61
809.107	11326.91
809.436	11257.98
809.766	11207.81
810.096	11151.32
810.426	11096.63
810.755	11137.08
811.085	11071.55
811.414	11016.18
811.744	11049.62
812.073	10993.58
812.403	10902.06
812.732	10981.6
813.061	10893.7
813.39	10901.83
813.719	10888.27
814.049	10868.84
814.378	10873.58
814.707	10804.66
815.036	10833.81
815.365	10771.67
815.693	10646.92
816.022	10697.54
816.351	10575.51
816.68	10597.89
817.008	10544.1
817.337	10429.98
817.665	10442.41
817.994	10518.11
818.322	10509.98
818.651	10404.9
818.979	10423.65
819.307	10464.33
819.636	10382.52
819.964	10319.25
820.292	10295.07
820.62	10343.65
820.948	10291.23
821.276	10347.95
821.604	10322.86
821.932	10383.65
822.259	10280.38
822.587	10292.58
822.915	10324.45
823.243	10319.25
823.57	10225.01
823.898	10312.92
824.225	10235.63
824.553	10255.75
824.88	10316.76
825.207	10318.34
825.535	10243.09
825.862	10338.01
826.189	10248.06
826.516	10379.59
826.843	10320.15
827.17	10291.9
827.497	10246.93
827.824	10338.01
828.151	10283.77
828.478	10322.19
828.805	10367.83
829.131	10236.09
829.458	10245.13
829.785	10228.63
830.111	10260.72
830.438	10324.45
830.764	10279.48
831.09	10272.7
831.417	10162.64
831.743	10236.76
832.069	10208.97
832.395	10216.43
832.722	10181.17
833.048	10178.01
833.374	10222.08
833.7	10144.11
834.026	10165.13
834.351	10185.69
834.677	10190.89
835.003	10149.76
835.329	10156.31
835.654	10091.91
835.98	9994.06
836.306	10083.77
836.631	10045.36
836.956	10142.3
837.282	10061.18
837.607	10058.46
837.932	9999.26
838.258	10043.55
838.583	9933.5
838.908	9824.8
839.233	9943.44
839.558	9943.44
839.883	9861.63
840.208	9832.93
840.533	9888.07
840.858	9889.66
841.182	9879.03
841.507	9840.62
841.832	9797.68
842.156	9711.13
842.481	9798.81
842.805	9743.22
843.13	9712.26
843.454	9756.55
843.778	9704.35
844.103	9636.55
844.427	9657.8
844.751	9610.34
845.075	9579.38
845.399	9521.3
845.723	9475.43
846.047	9526.27
846.371	9417.13
846.695	9412.38
847.019	9409.44
847.343	9360.18
847.666	9277.47
847.99	9295.32
848.313	9239.28
848.637	9190.01
848.96	9106.17
849.284	9156.79
849.607	9029.79
849.931	9070.02
850.254	9062.33
850.577	8957.48
850.9	8865.95
851.223	8892.39
851.546	8754.54
851.869	8806.29
852.192	8806.07
852.515	8796.8
852.838	8730.59
853.161	8787.09
853.483	8690.82
853.806	8630.25
854.129	8615.79
854.451	8593.87
854.774	8532.18
855.096	8553.87
855.419	8615.34
855.741	8469.81
856.063	8418.73
856.385	8453.08
856.708	8363.14
857.03	8383.71
857.352	8317.72
857.674	8340.32
857.996	8275.91
858.318	8291.96
858.64	8257.61
858.961	8288.79
859.283	8246.31
859.605	8222.58
859.926	8197.27
860.248	8227.33
860.57	8176.03
860.891	8161.34
861.212	8162.24
861.534	8127.22
861.855	8052.87
862.176	8051.96
862.498	8077.05
862.819	8073.66
863.14	7948.01
863.461	7999.99
863.782	7960.21
864.103	8004.73
864.424	7990.27
864.745	7965.86
865.065	7955.02
865.386	7826.43
865.707	7832.76
866.027	7923.83
866.348	7896.94
866.668	7861.01
866.989	7846.55
867.309	7757.73
867.63	7788.02
867.95	7761.58
868.27	7685.42
868.59	7758.64
868.91	7703.95
869.23	7747.79
869.55	7684.06
869.87	7745.08
870.19	7674.57
870.51	7712.31
870.83	7774.91
871.15	7647.23
871.469	7649.04
871.789	7675.25
872.109	7657.4
872.428	7609.26
872.748	7605.65
873.067	7611.3
873.386	7579.66
873.706	7602.94
874.025	7518.19
874.344	7538.53
874.663	7553.22
874.982	7506.89
875.301	7562.03
875.62	7469.38
875.939	7462.37
876.258	7467.12
876.577	7443.62
876.896	7429.61
877.214	7400.68
877.533	7381.92
877.852	7399.33
878.17	7441.13
878.489	7423.73
878.807	7400.46
879.125	7380.57
879.444	7410.62
879.762	7370.85
880.08	7329.72
880.398	7289.27
880.716	7292.21
881.034	7283.62
881.352	7275.03
881.67	7297.18
881.988	7222.61
882.306	7184.64
882.624	7227.35
882.941	7160.01
883.259	7172.89
883.577	7186
883.894	7122.95
884.212	7141.25
884.529	7091.31
884.846	7122.72
885.164	7094.02
885.481	7044.31
885.798	7074.14
886.115	7042.72
886.432	7005.21
886.75	7008.6
887.067	7012.22
887.383	6987.81
887.7	6994.36
888.017	6945.55
888.334	6995.04
888.651	6934.7
888.967	6948.72
889.284	6871.43
889.6	6849.51
889.917	6825.55
890.233	6814.93
890.55	6795.27
890.866	6724.99
891.182	6752.56
891.498	6775.39
891.815	6710.76
892.131	6669.17
892.447	6675.73
892.763	6667.82
893.079	6632.57
893.395	6630.76
893.71	6598.44
894.026	6619.01
894.342	6615.39
894.657	6562.06
894.973	6522.74
895.289	6564.09
895.604	6526.13
895.92	6475.06
896.235	6430.09
896.55	6478.45
896.865	6419.69
897.181	6438.9
897.496	6390.99
897.811	6396.19
898.126	6358.9
898.441	6361.61
898.756	6314.83
899.071	6267.38
899.386	6227.6
899.7	6244.55
900.015	6160.49
900.33	6172.46
900.644	6167.95
900.959	6208.4
901.273	6148.74
901.588	6088.85
901.902	6083.2
902.216	6072.58
902.531	6069.42
902.845	6027.38
903.159	5964.11
903.473	5978.12
903.787	5920.72
904.101	5904.45
904.415	5905.81
904.729	5831.91
905.042	5849.99
905.356	5820.16
905.67	5842.3
905.984	5828.52
906.297	5781.51
906.611	5805.02
906.924	5744
907.237	5727.5
907.551	5749.43
907.864	5675.98
908.177	5627.39
908.491	5675.98
908.804	5633.04
909.117	5571.35
909.43	5553.95
909.743	5543.33
910.056	5582.88
910.368	5531.35
910.681	5497
910.994	5473.95
911.307	5443.67
911.619	5390.11
911.932	5428.98
912.244	5381.98
912.557	5374.97
912.869	5337.23
913.181	5306.95
913.494	5298.36
913.806	5288.19
914.118	5256.33
914.43	5253.39
914.742	5251.36
915.054	5196.67
915.366	5199.84
915.678	5200.96
915.99	5158.93
916.302	5102.89
916.613	5081.42
916.925	5105.37
917.236	5085.71
917.548	4996.45
917.859	5020.18
918.171	5010.69
918.482	4988.32
918.794	4976.11
919.105	4930.01
919.416	4911.03
919.727	4928.88
920.038	4876
920.349	4865.83
920.66	4859.5
920.971	4809.11
921.282	4804.82
921.593	4767.76
921.903	4781.54
922.214	4727.98
922.525	4736.57
922.835	4772.28
923.146	4689.57
923.456	4666.97
923.767	4645.27
924.077	4640.08
924.387	4623.8
924.697	4596.46
925.008	4597.59
925.318	4606.18
925.628	4528.21
925.938	4506.07
926.248	4500.87
926.558	4492.51
926.867	4450.48
927.177	4521.21
927.487	4402.12
927.796	4372.06
928.106	4365.73
928.416	4343.13
928.725	4358.05
929.034	4330.03
929.344	4344.49
929.653	4340.2
929.962	4292.97
930.271	4286.19
930.581	4238.28
930.89	4239.41
931.199	4168.9
931.508	4227.88
931.817	4187.66
932.125	4219.75
932.434	4174.1
932.743	4141.78
933.051	4079.19
933.36	4066.98
933.669	4029.02
933.977	4086.42
934.286	4052.52
934.594	4070.37
934.902	4021.79
935.21	4007.1
935.519	4010.94
935.827	3995.12
936.135	3944.95
936.443	3913.09
936.751	3947.21
937.059	3909.7
937.367	3909.02
937.674	3917.16
937.982	3847.55
938.29	3880.32
938.597	3854.79
938.905	3794.67
939.213	3775.92
939.52	3791.96
939.827	3784.05
940.135	3759.65
940.442	3749.03
940.749	3686.43
941.056	3728.91
941.363	3674.45
941.67	3612.76
941.977	3636.03
942.284	3670.84
942.591	3618.63
942.898	3614.34
943.205	3593.1
943.511	3561.23
943.818	3537.28
944.125	3563.49
944.431	3509.94
944.738	3524.4
945.044	3526.21
945.35	3478.07
945.657	3481.24
945.963	3502.03
946.269	3454.57
946.575	3459.32
946.881	3425.19
947.187	3403.05
947.493	3380.45
947.799	3389.94
948.105	3340.22
948.41	3320.79
948.716	3334.57
949.022	3322.6
949.327	3328.02
949.633	3280.11
949.938	3287.34
950.244	3298.64
950.549	3275.37
950.854	3253.22
951.16	3197.63
951.465	3214.35
951.77	3199.44
952.075	3220.68
952.38	3208.02
952.685	3181.81
952.99	3139.55
953.294	3139.78
953.599	3150.4
953.904	3088.93
954.209	3092.77
954.513	3084.41
954.818	3053.22
955.122	3053.68
955.426	3067.91
955.731	3049.16
956.035	3004.86
956.339	2984.3
956.643	2997.63
956.948	2959.67
957.252	2969.84
957.556	2961.7
957.86	2930.06
958.163	2950.18
958.467	2939.33
958.771	2921.7
959.075	2932.1
959.378	2892.33
959.682	2845.09
959.985	2842.61
960.289	2856.39
960.592	2824.08
960.896	2793.8
961.199	2815.04
961.502	2836.73
961.805	2763.74
962.108	2779.11
962.411	2761.71
962.714	2759.9
963.017	2770.75
963.32	2736.85
963.623	2717.87
963.926	2720.13
964.228	2695.04
964.531	2693.23
964.833	2700.01
965.136	2671.54
965.438	2680.13
965.741	2650.52
966.043	2621.6
966.345	2662.95
966.648	2608.94
966.95	2593.35
967.252	2597.42
967.554	2573.24
967.856	2559.45
968.158	2604.42
968.46	2548.15
968.761	2570.75
969.063	2527.59
969.365	2519.68
969.666	2516.06
969.968	2502.73
970.269	2495.05
970.571	2466.57
970.872	2488.95
971.174	2442.85
971.475	2449.62
971.776	2454.37
972.077	2419.12
972.378	2407.59
972.679	2415.28
972.98	2420.02
973.281	2397.87
973.582	2390.87
973.883	2369.85
974.183	2355.84
974.484	2342.28
974.785	2336.18
975.085	2366.01
975.386	2354.49
975.686	2320.59
975.986	2327.37
976.287	2324.2
976.587	2276.75
976.887	2314.04
977.187	2290.08
977.487	2284.21
977.787	2269.74
978.087	2254.38
978.387	2255.28
978.687	2226.35
978.987	2213.47
979.286	2225.45
979.586	2217.54
979.885	2186.13
980.185	2152.91
980.484	2141.61
980.784	2157.88
981.083	2147.26
981.382	2164.89
981.682	2133.7
981.981	2135.28
982.28	2102.06
982.579	2124.21
982.878	2105.91
983.177	2074.27
983.475	2058.67
983.774	2054.16
984.073	2074.04
984.372	2053.93
984.67	2030.43
984.969	2018.22
985.267	2027.72
985.566	2047.38
985.864	2004.21
986.162	2021.61
986.461	1995.85
986.759	1982.29
987.057	1998.79
987.355	1946.59
987.653	1944.33
987.951	1966.02
988.249	1940.71
988.547	1949.3
988.844	1912.01
989.142	1900.71
989.44	1926.47
989.737	1907.27
990.035	1926.02
990.332	1893.71
990.63	1864.78
990.927	1876.53
991.224	1867.04
991.521	1864.33
991.819	1856.42
992.116	1843.99
992.413	1850.09
992.71	1786.14
993.006	1806.25
993.303	1819.13
993.6	1805.57
993.897	1803.54
994.193	1790.43
994.49	1799.7
994.787	1768.29
995.083	1761.51
995.379	1756.76
995.676	1728.74
995.972	1731.9
996.268	1759.47
996.565	1726.25
996.861	1723.32
997.157	1699.14
997.453	1681.28
997.749	1693.26
998.044	1682.87
998.34	1662.75
998.636	1648.97
998.932	1651
999.227	1651
999.523	1666.82
999.818	1617.1
1000.114	1597.9
1000.409	1622.75
1000.704	1616.65
1001	1597.9
1001.295	1583.43
1001.59	1625.47
1001.885	1570.78
1002.18	1588.63
1002.475	1583.66
1002.77	1545.02
1003.065	1562.42
1003.359	1540.04
1003.654	1542.98
1003.949	1514.51
1004.243	1535.3
1004.538	1491.68
1004.832	1504.34
1005.127	1459.59
1005.421	1469.76
1005.715	1470.44
1006.009	1480.16
1006.304	1479.93
1006.598	1459.37
1006.892	1453.94
1007.186	1433.83
1007.48	1470.44
1007.773	1436.54
1008.067	1408.3
1008.361	1414.85
1008.655	1406.49
1008.948	1399.26
1009.242	1392.25
1009.535	1368.3
1009.829	1393.38
1010.122	1346.83
1010.415	1352.48
1010.708	1376.66
1011.001	1347.73
1011.295	1330.11
1011.588	1340.5
1011.881	1289.43
1012.173	1303.67
1012.466	1292.59
1012.759	1300.28
1013.052	1307.51
1013.344	1309.09
1013.637	1268.41
1013.93	1266.83
1014.222	1252.82
1014.514	1267.28
1014.807	1266.15
1015.099	1242.42
1015.391	1253.95
1015.683	1211.92
1015.976	1218.47
1016.268	1217.34
1016.56	1198.13
1016.851	1202.88
1017.143	1219.6
1017.435	1225.93
1017.727	1197.68
1018.018	1194.74
1018.31	1164.46
1018.602	1155.2
1018.893	1145.48
1019.185	1155.87
1019.476	1152.48
1019.767	1150.68
1020.058	1129.43
1020.35	1131.02
1020.641	1114.97
1020.932	1116.33
1021.223	1116.78
1021.514	1109.32
1021.804	1076.1
1022.095	1101.64
1022.386	1097.57
1022.677	1078.14
1022.967	1064.35
1023.258	1073.84
1023.548	1068.64
1023.839	1046.72
1024.129	1033.16
1024.419	1047.85
1024.709	1029.32
1025	1030.68
1025.29	1016.22
1025.58	1023.9
1025.87	995.43
1026.16	1028.65
1026.449	1005.6
1026.739	999.27
1027.029	1008.08
1027.319	990.91
1027.608	983.9
1027.898	955.88
1028.187	975.09
1028.477	963.56
1028.766	961.53
1029.055	946.84
1029.344	938.25
1029.634	906.61
1029.923	946.16
1030.212	939.83
1030.501	903.68
1030.79	898.25
1031.078	890.8
1031.367	900.29
1031.656	892.83
1031.945	882.89
1032.233	886.05
1032.522	892.6
1032.81	852.38
1033.099	899.84
1033.387	887.63
1033.675	866.84
1033.963	854.41
1034.251	859.16
1034.54	882.43
1034.828	842.21
1035.116	839.27
1035.403	840.63
1035.691	832.27
1035.979	838.82
1036.267	825.26
1036.554	823
1036.842	821.19
1037.129	811.93
1037.417	808.99
1037.704	804.02
1037.992	799.72
1038.279	775.09
1038.566	792.72
1038.853	792.72
1039.14	792.72
