Data from breadboard_white_FLMS001491_00031.txt Node
Date: Wed Feb 08 10:47:37 GMT 2017
User: dcchb
Spectrometer: FLMS00149
Trigger mode: 0
Integration Time (sec): 2.000000E-2
Scans to average: 10
Electric dark correction enabled: true
Nonlinearity correction enabled: false
Boxcar width: 0
XAxis mode: Wavelengths
Number of Pixels in Spectrum: 2048
>>>>>Begin Spectral Data<<<<<
341.393	-4.7
341.776	-4.7
342.16	-4.7
342.543	-76.11
342.927	-70.46
343.31	-64.36
343.693	-67.75
344.077	-70.24
344.46	-55.78
344.843	-59.62
345.226	-43.57
345.61	-41.54
345.993	4.34
346.376	-31.37
346.759	-7.87
347.142	32.58
347.525	49.53
347.908	68.52
348.291	66.26
348.674	96.99
349.057	123.88
349.44	127.5
349.823	152.81
350.206	158.46
350.588	209.53
350.971	218.12
351.354	217.66
351.737	250.66
352.119	261.73
352.502	266.25
352.884	271.9
353.267	285.46
353.65	300.37
354.032	305.57
354.414	305.12
354.797	308.06
355.179	302.86
355.562	338.11
355.944	323.88
356.326	345.57
356.709	332.69
357.091	330.66
357.473	341.28
357.855	348.96
358.238	374.72
358.62	362.52
359.002	334.5
359.384	351.67
359.766	341.05
360.148	345.12
360.53	343.08
360.912	352.58
361.294	335.17
361.676	346.7
362.057	334.5
362.439	339.02
362.821	352.58
363.203	328.85
363.584	326.59
363.966	330.2
364.348	346.02
364.729	334.5
365.111	336.08
365.493	328.85
365.874	333.14
366.256	332.46
366.637	321.39
367.019	332.01
367.4	346.93
367.781	308.06
368.163	350.32
368.544	359.81
368.925	343.76
369.306	324.1
369.688	339.69
370.069	347.38
370.45	313.93
370.831	348.96
371.212	331.11
371.593	325.91
371.974	316.87
372.355	346.7
372.736	338.79
373.117	347.15
373.498	328.85
373.879	346.93
374.26	355.51
374.641	326.14
375.021	346.7
375.402	364.78
375.783	348.73
376.163	364.33
376.544	373.37
376.925	366.59
377.305	345.57
377.686	352.35
378.066	353.03
378.447	358.23
378.827	358.45
379.208	371.56
379.588	369.52
379.968	361.16
380.349	364.1
380.729	372.46
381.109	377.43
381.489	382.18
381.87	366.59
382.25	393.03
382.63	367.49
383.01	376.76
383.39	386.92
383.77	381.05
384.15	392.57
384.53	396.64
384.91	420.14
385.29	396.87
385.67	413.59
386.049	382.86
386.429	410.2
386.809	404.78
387.189	411.33
387.568	398.9
387.948	411.11
388.328	409.3
388.707	429.86
389.087	427.15
389.466	440.03
389.846	428.73
390.225	432.8
390.605	428.96
390.984	432.57
391.363	449.75
391.743	429.86
392.122	458.56
392.501	456.75
392.881	465.11
393.26	475.06
393.639	471.89
394.018	493.14
394.397	490.88
394.776	463.76
395.155	483.65
395.534	506.02
395.913	496.53
396.292	513.7
396.671	476.41
397.05	535.17
397.429	511.67
397.808	541.72
398.186	549.63
398.565	536.07
398.944	522.51
399.323	544.66
399.701	561.38
400.08	545.79
400.458	593.93
400.837	574.49
401.215	601.83
401.594	608.39
401.972	609.74
402.351	626.69
402.729	630.76
403.107	639.8
403.486	631.21
403.864	697.43
404.242	638.67
404.62	665.34
404.999	676.63
405.377	681.61
405.755	709.18
406.133	721.83
406.511	733.81
406.889	759.12
407.267	753.47
407.645	761.38
408.023	776.75
408.401	786.46
408.779	831.43
409.156	825.56
409.534	817.87
409.912	833.69
410.29	848.16
410.667	910.98
411.045	895.84
411.422	911.2
411.8	936.74
412.178	963.18
412.555	966.34
412.933	980.81
413.31	1006.8
413.687	1010.41
414.065	1080.92
414.442	1013.58
414.819	1059.9
415.197	1077.53
415.574	1120.24
415.951	1123.4
416.328	1126.11
416.705	1157.3
417.082	1161.82
417.46	1170.41
417.837	1216.73
418.214	1203.85
418.591	1229.61
418.967	1234.59
419.344	1267.81
419.721	1271.87
420.098	1301.93
420.475	1291.99
420.852	1315.04
421.228	1303.51
421.605	1344.19
421.982	1379.89
422.358	1365.43
422.735	1395.49
423.111	1404.3
423.488	1439.55
423.864	1447.01
424.241	1452.21
424.617	1491.53
424.994	1475.94
425.37	1511.19
425.746	1498.53
426.123	1529.95
426.499	1555.93
426.875	1569.49
427.251	1597.29
427.627	1631.64
428.003	1639.77
428.379	1658.98
428.756	1677.74
429.132	1725.19
429.507	1768.13
429.883	1761.35
430.259	1789.37
430.635	1785.08
431.011	1825.53
431.387	1879.54
431.763	1913.44
432.138	1886.77
432.514	1936.49
432.89	1967.22
433.265	1974.45
433.641	2023.04
434.016	2056.49
434.392	2073.66
434.767	2116.82
435.143	2124.05
435.518	2138.52
435.894	2188.91
436.269	2189.36
436.644	2201.57
437.02	2229.36
437.395	2279.08
437.77	2286.54
438.145	2347.33
438.52	2341
438.895	2416.25
439.271	2330.6
439.646	2442.92
440.021	2449.47
440.395	2426.19
440.77	2435.91
441.145	2472.52
441.52	2518.62
441.895	2537.38
442.27	2550.03
442.645	2571.73
443.019	2604.72
443.394	2580.31
443.769	2631.39
444.143	2636.36
444.518	2692.85
444.892	2672.97
445.267	2685.17
445.641	2705.96
446.016	2740.08
446.39	2773.98
446.764	2781.66
447.139	2784.38
447.513	2849.91
447.887	2810.82
448.262	2813.98
448.636	2857.37
449.01	2887.2
449.384	2918.61
449.758	2937.37
450.132	2998.83
450.506	3003.35
450.88	3044.03
451.254	3034.76
451.628	3121.54
452.002	3104.37
452.376	3138.26
452.75	3206.51
453.123	3220.52
453.497	3253.52
453.871	3262.1
454.244	3342.33
454.618	3352.72
454.992	3418.26
455.365	3417.58
455.739	3468.2
456.112	3533.51
456.486	3569.67
456.859	3590.46
457.232	3657.12
457.606	3630.68
457.979	3705.93
458.352	3805.82
458.725	3826.83
459.099	3873.61
459.472	3905.02
459.845	3946.15
460.218	3951.12
460.591	4075.19
460.964	4069.31
461.337	4166.03
461.71	4226.15
462.083	4320.61
462.456	4299.59
462.829	4307.27
463.201	4386.37
463.574	4412.13
463.947	4459.59
464.32	4625.68
464.692	4616.87
465.065	4603.31
465.438	4725.34
465.81	4737.77
466.183	4841.5
466.555	4905
466.928	4976.41
467.3	4949.29
467.672	5041.72
468.045	5149.06
468.417	5143.41
468.789	5213.01
469.161	5270.41
469.534	5420.01
469.906	5565.32
470.278	5553.12
470.65	5584.08
471.022	5718.76
471.394	5803.73
471.766	5844.63
472.138	5950.39
472.51	6063.61
472.882	6163.27
473.253	6226.09
473.625	6308.58
473.997	6423.83
474.369	6513.54
474.74	6554.45
475.112	6681.22
475.484	6826.53
475.855	6940.88
476.227	7038.28
476.598	7190.81
476.97	7281.43
477.341	7417.25
477.713	7489.79
478.084	7615.66
478.455	7796.45
478.827	7897.91
479.198	8099.72
479.569	8045.03
479.94	8289.54
480.311	8391.69
480.682	8549.2
481.053	8729.98
481.424	8917.1
481.795	8902.18
482.166	9088.16
482.537	9208.61
482.908	9461.71
483.279	9479.12
483.65	9734.02
484.021	9922.27
484.391	9953.45
484.762	10096.27
485.133	10195.48
485.503	10341.92
485.874	10558.41
486.244	10679.54
486.615	10820.32
486.985	10982.13
487.356	11162.91
487.726	11317.94
488.097	11534.2
488.467	11609.45
488.837	11832.05
489.207	11956.79
489.578	12156.11
489.948	12171.25
490.318	12381.64
490.688	12465.93
491.058	12680.61
491.428	12874.51
491.798	12943.43
492.168	13277.21
492.538	13307.26
492.908	13398.56
493.278	13525.11
493.648	13606.92
494.017	13888.94
494.387	13931.65
494.757	14036.74
495.126	14134.81
495.496	14281.25
495.866	14417.06
496.235	14517.63
496.605	14651.18
496.974	14768.47
497.344	14872.65
497.713	14971.85
498.082	15125.07
498.452	15410.48
498.821	15315.35
499.19	15410.48
499.559	15626.75
499.928	15685.05
500.298	15789.23
500.667	15916.01
501.036	15994.42
501.405	16193.51
501.774	16154.42
502.143	16376.79
502.512	16416.79
502.88	16615.88
503.249	16632.6
503.618	16698.81
503.987	16816.32
504.356	16948.07
504.724	17094.28
505.093	17122.3
505.462	17284.56
505.83	17373.14
506.199	17516.64
506.567	17778.78
506.936	17778.33
507.304	17984.65
507.672	18000.47
508.041	18151.2
508.409	18281.82
508.777	18430.07
509.145	18607.91
509.514	18593.45
509.882	18685.2
510.25	18813.33
510.618	18907.79
510.986	19105.3
511.354	19346.65
511.722	19514.78
512.09	19571.05
512.458	19585.29
512.826	19870.03
513.193	19959.52
513.561	19984.15
513.929	20292.62
514.297	20434.76
514.664	20532.84
515.032	20597.92
515.4	20785.48
515.767	20876.33
516.135	20945.25
516.502	20920.62
516.869	21446.71
517.237	21354.96
517.604	21374.4
517.972	21611.23
518.339	21882.86
518.706	21886.47
519.073	22058.67
519.44	22270.42
519.808	22537.53
520.175	22484.87
520.542	22819.56
520.909	22892.77
521.276	23001.02
521.643	23211.64
522.009	23336.15
522.376	23587.22
522.743	23764.16
523.11	24035.57
523.477	24104.04
523.843	24295.67
524.21	24542.67
524.577	24631.49
524.943	24810.46
525.31	24990.57
525.676	25162.09
526.043	25431.01
526.409	25539.94
526.776	25824.67
527.142	25885.24
527.508	26030.09
527.874	26274.61
528.241	26461.95
528.607	26556.41
528.973	26743.97
529.339	26763.41
529.705	27061.03
530.071	27219.44
530.437	27421.02
530.803	27555.93
531.169	27632.76
531.535	27734.45
531.901	27824.62
532.267	28062.36
532.632	28299.19
532.998	28295.57
533.364	28493.08
533.73	28594.32
534.095	28867.76
534.461	28882.45
534.826	28982.56
535.192	29027.3
535.557	29327.63
535.923	29338.48
536.288	29421.87
536.653	29738.02
537.019	29494.41
537.384	29829.09
537.749	29980.72
538.114	29977.79
538.479	30020.27
538.845	30239.47
539.21	30225.24
539.575	30368.51
539.94	30468.85
540.305	30534.83
540.67	30648.73
541.034	30847.82
541.399	30886.69
541.764	31061.6
542.129	31227.02
542.494	31223.18
542.858	31270.86
543.223	31291.65
543.587	31475.6
543.952	31641.7
544.316	31749.49
544.681	31704.29
545.045	32017.96
545.41	32114.68
545.774	31960.56
546.138	32179.99
546.503	32378.63
546.867	32419.08
547.231	32591.28
547.595	32644.16
547.959	32870.59
548.324	32815.22
548.688	33045.28
549.052	33075.33
549.416	33125.05
549.779	33148.1
550.143	33353.97
550.507	33539.05
550.871	33665.82
551.235	33618.37
551.599	33863.11
551.962	33933.61
552.326	34050.9
552.689	34286.37
553.053	34108.52
553.417	34305.81
553.78	34882.06
554.143	34633.26
554.507	34783.08
554.87	35000.25
555.234	35155.95
555.597	35098.33
555.96	35293.35
556.323	35322.96
556.686	35504.65
557.05	35756.16
557.413	35817.41
557.776	35913.22
558.139	36163.61
558.502	36254.68
558.865	36316.38
559.228	36593.2
559.59	36605.41
559.953	36799.07
560.316	37083.14
560.679	37096.02
561.041	37352.05
561.404	37547.3
561.767	37601.99
562.129	37653.97
562.492	38054.41
562.854	38019.83
563.217	38174.86
563.579	38334.4
563.941	38494.85
564.304	38833.82
564.666	38931.22
565.028	38898.68
565.39	39080.82
565.753	39175.28
566.115	39445.33
566.477	39736.85
566.839	39747.92
567.201	40003.96
567.563	40048.93
567.925	40253.67
568.287	40360.79
568.648	40455.02
569.01	40627.22
569.372	40801.46
569.734	40734.79
570.095	41085.74
570.457	41149.02
570.819	41329.13
571.18	41149.24
571.542	41416.35
571.903	41560.31
572.265	41745.16
572.626	41690.7
572.987	41877.36
573.349	42043.68
573.71	42168.65
574.071	42174.75
574.432	42378.59
574.794	42564.57
575.155	42580.84
575.516	42522.77
575.877	42726.38
576.238	42760.05
576.599	42880.27
576.96	42849.99
577.32	42956.88
577.681	43077.55
578.042	43192.58
578.403	43118.23
578.763	43223.09
579.124	43310.09
579.485	43410.88
579.845	43363.42
580.206	43434.83
580.566	43459.46
580.927	43559.12
581.287	43665.79
581.648	43461.05
582.008	43719.8
582.368	43668.72
582.728	43670.08
583.089	43675.28
583.449	43708.05
583.809	43753.69
584.169	43779.23
584.529	43709.4
584.889	44110.52
585.249	43844.77
585.609	43820.81
585.969	44004.08
586.329	43793.02
586.688	43864.43
587.048	43713.47
587.408	43806.8
587.768	43842.96
588.127	43830.08
588.487	43746.69
588.846	44046.57
589.206	43796.18
589.565	43819.91
589.925	44012.44
590.284	43829.85
590.643	43880.47
591.003	43983.07
591.362	44026.23
591.721	44004.99
592.08	43939
592.44	44095.38
592.799	44014.25
593.158	43921.37
593.517	44164.3
593.876	44163.4
594.235	43941.94
594.593	44230.74
594.952	44115.72
595.311	43983.97
595.67	44139.45
596.029	44339.44
596.387	44345.32
596.746	44385.77
597.104	44094.48
597.463	44282.49
597.822	44314.36
598.18	44062.16
598.538	44071.43
598.897	44462.38
599.255	44117.3
599.613	44709.83
599.972	44450.85
600.33	44587.57
600.688	44381.7
601.046	44400
601.404	44579.66
601.762	44578.98
602.12	44800.67
602.478	44639.09
602.836	44706.21
603.194	44480.45
603.552	44706.44
603.91	44679.77
604.268	44829.6
604.625	44767
604.983	44825.3
605.341	44629.15
605.698	44874.12
606.056	45032.98
606.413	44943.72
606.771	45029.82
607.128	44982.14
607.485	44884.29
607.843	44910.95
608.2	45188.01
608.557	45165.63
608.914	45056.94
609.272	45437.04
609.629	45404.05
609.986	45524.27
610.343	45408.11
610.7	45625.96
611.057	45539.18
611.414	45491.5
611.771	45540.09
612.127	45651.72
612.484	45524.04
612.841	45787.09
613.198	45630.48
613.554	45661.44
613.911	45914.77
614.267	45752.74
614.624	45734.43
614.98	45877.71
615.337	46131.26
615.693	45921.32
616.05	45937.82
616.406	46223.01
616.762	46122.9
617.118	46173.52
617.475	46032.73
617.831	46144.59
618.187	46291.48
618.543	46276.57
618.899	46423.91
619.255	46379.84
619.611	46328.99
619.967	46460.97
620.323	46460.52
620.678	46387.07
621.034	46291.03
621.39	46312.72
621.746	46288.09
622.101	46519.05
622.457	46328.77
622.812	46447.41
623.168	46490.12
623.523	46514.07
623.879	46587.97
624.234	46305.49
624.589	46545.03
624.945	46504.13
625.3	46491.25
625.655	46460.52
626.01	46540.51
626.365	46558.37
626.72	46390.91
627.075	46311.14
627.43	46239.5
627.785	46388.65
628.14	46490.57
628.495	46372.61
628.85	46331.71
629.205	46234.98
629.559	46537.8
629.914	46333.74
630.269	46130.81
630.623	46115.89
630.978	46070.02
631.332	46172.16
631.687	46183.46
632.041	46103.69
632.396	46095.55
632.75	45832.96
633.104	45960.19
633.459	45799.74
633.813	45718.61
634.167	45691.5
634.521	45785.28
634.875	45965.39
635.229	45635.9
635.583	45490.15
635.937	45550.26
636.291	45625.96
636.645	45482.46
636.999	45385.06
637.352	45479.98
637.706	45181.68
638.06	45303.26
638.413	45278.85
638.767	45207.89
639.121	45258.06
639.474	44859.43
639.828	45022.59
640.181	44993.66
640.534	44997.73
640.888	44808.36
641.241	44733.33
641.594	44770.62
641.947	44911.4
642.301	44618.3
642.654	44680.68
643.007	44633.22
643.36	44561.81
643.713	44492.43
644.066	44715.02
644.419	44405.88
644.771	44156.62
645.124	43797.53
645.477	43605.68
645.83	43581.04
646.182	43282.75
646.535	43133.6
646.888	43164.33
647.24	43019.7
647.593	43145.35
647.945	43054.96
648.298	42838.92
648.65	42734.96
649.002	42679.37
649.355	42760.5
649.707	42731.35
650.059	42929.08
650.411	43370.43
650.763	43453.36
651.115	43704.43
651.467	43673.02
651.819	43525
652.171	43319.36
652.523	43379.92
652.875	43440.48
653.227	43101.73
653.578	43559.57
653.93	43262.86
654.282	43108.06
654.633	42973.6
654.985	43132.69
655.337	43060.38
655.688	43064.45
656.039	43188.29
656.391	42795.53
656.742	43051.79
657.094	43077.78
657.445	42980.83
657.796	42817.45
658.147	42814.74
658.498	42826.49
658.849	43007.27
659.2	42858.12
659.551	42729.77
659.902	42798.24
660.253	42652.93
660.604	42810.89
660.955	42458.59
661.306	42721.63
661.656	42555.99
662.007	42596.21
662.358	42709.43
662.708	42375.65
663.059	42601.41
663.409	42291.59
663.76	42588.08
664.11	42458.81
664.461	42602.09
664.811	42541.3
665.161	42443.45
665.511	42331.13
665.862	42366.61
666.212	42436.44
666.562	42556.44
666.912	42400.06
667.262	42419.49
667.612	42139.5
667.962	42284.35
668.312	42339.27
668.662	42464.91
669.011	42377.46
669.361	42139.73
669.711	42106.96
670.06	42274.41
670.41	42066.05
670.76	42256.56
671.109	42233.51
671.459	42113.51
671.808	41995.77
672.157	42075.09
672.507	41792.84
672.856	41874.87
673.205	41716.91
673.554	41961.42
673.904	41787.87
674.253	41982.67
674.602	41790.81
674.951	41260.43
675.3	41025.4
675.649	41699.06
675.998	41542.45
676.346	41699.06
676.695	41690.47
677.044	41353.53
677.393	41453.64
677.741	41515.56
678.09	41442.79
678.438	41319.41
678.787	41457.48
679.135	41327.54
679.484	41182.91
679.832	41223.37
680.181	41061.11
680.529	41188.56
680.877	40998.29
681.225	40993.99
681.573	41213.42
681.922	40726.43
682.27	40735.24
682.618	40716.49
682.966	40664.06
683.314	40776.6
683.661	40513.55
684.009	40398.08
684.357	40243.28
684.705	40413.67
685.053	40225.65
685.4	40142.04
685.748	40033.34
686.095	40112.66
686.443	39986.79
686.79	39895.26
687.138	40048.03
687.485	39823.4
687.832	39692.11
688.18	39796.51
688.527	39571.66
688.874	39513.58
689.221	39458.67
689.568	39217.99
689.915	39193.59
690.262	39237.43
690.609	38966.93
690.956	39000.15
691.303	38934.84
691.65	38807.16
691.997	38767.16
692.344	38448.97
692.69	38327.62
693.037	38378.92
693.383	38142.32
693.73	38248.3
694.077	38111.13
694.423	38122.43
694.769	37924.24
695.116	37765.83
695.462	37830.91
695.808	37745.04
696.155	37813.96
696.501	37484.48
696.847	37389.34
697.193	37162
697.539	37156.81
697.885	36929.69
698.231	36875.91
698.577	36921.33
698.923	36846.98
699.269	36796.81
699.614	36428.46
699.96	36461.68
700.306	36454
700.651	36383.04
700.997	36162.71
701.342	35985.54
701.688	36000.9
702.033	35898.53
702.379	35914.8
702.724	35759.33
703.069	35812.21
703.415	35209.96
703.76	35346.91
704.105	35383.07
704.45	35333.12
704.795	35070.76
705.14	34938.56
705.485	34989.18
705.83	34922.74
706.175	34843.65
706.52	34678.23
706.865	34612.24
707.209	34571.34
707.554	34410.44
707.899	34604.78
708.243	34313.26
708.588	34252.25
708.932	34106.72
709.277	34057.9
709.621	34047.96
709.966	33764.58
710.31	33828.76
710.654	33655.88
710.998	33673.73
711.342	33697.69
711.687	33407.53
712.031	33261.09
712.375	33196.23
712.719	33266.96
713.063	33325.04
713.407	33233.97
713.75	32973.41
714.094	32986.07
714.438	32991.04
714.782	33013.41
715.125	32815
715.469	32835.79
715.812	32759.18
716.156	32531.39
716.499	32552.18
716.843	32454.56
717.186	32322.13
717.53	32501.56
717.873	32381.79
718.216	32217.95
718.559	32161.23
718.902	32013.89
719.246	32102.7
719.589	31971.86
719.932	31821.58
720.275	31860.67
720.617	31780
720.96	31747
721.303	31679.21
721.646	31855.25
721.989	31528.25
722.331	31625.88
722.674	31501.59
723.016	31479.44
723.359	31393.57
723.701	31467.24
724.044	31174.36
724.386	31047.59
724.729	31211.2
725.071	30958.55
725.413	31053.46
725.755	31005.78
726.097	30784.54
726.439	30687.37
726.782	30732.57
727.124	30911.55
727.465	30676.75
727.807	30627.49
728.149	30402.86
728.491	30514.27
728.833	30470.2
729.175	30287.16
729.516	30313.14
729.858	30128.29
730.199	30183.2
730.541	30104.34
730.882	30229.53
731.224	30159.02
731.565	29947.96
731.906	29993.38
732.248	30047.61
732.589	29945.02
732.93	29787.51
733.271	29764.23
733.612	29848.98
733.953	29722.88
734.294	29630.9
734.635	29597.68
734.976	29631.81
735.317	29479.04
735.658	29531.02
735.999	29451.92
736.339	29295.32
736.68	29363.11
737.021	29224.36
737.361	29034.31
737.702	29292.61
738.042	29097.81
738.383	29105.49
738.723	29119.28
739.063	28932.84
739.404	28936.23
739.744	28906.85
740.084	28787.53
740.424	28722.45
740.764	28714.09
741.104	28762.68
741.444	28501.21
741.784	28529.69
742.124	28478.16
742.464	28548.44
742.804	28306.87
743.143	28254.21
743.483	28271.62
743.823	28177.83
744.162	28240.2
744.502	28252.41
744.841	27963.6
745.181	28216.48
745.52	27955.24
745.86	27996.59
746.199	27892.19
746.538	27938.97
746.877	27986.2
747.216	27997.27
747.556	27896.71
747.895	27881.12
748.234	27695.59
748.573	27615.36
748.911	27508.47
749.25	27459.43
749.589	27300.12
749.928	27456.95
750.267	27352.32
750.605	27224.64
750.944	27189.84
751.283	27075.94
751.621	27093.79
751.96	27021.25
752.298	26983.06
752.636	26978.32
752.975	26886.57
753.313	26688.83
753.651	26898.32
753.989	26616.07
754.327	26673.92
754.666	26546.69
755.004	26557.54
755.342	26497.42
755.679	26421.04
756.017	26297.2
756.355	26326.13
756.693	26085.68
757.031	26185.12
757.368	26009.98
757.706	26028.06
758.044	25837.78
758.381	25965.69
758.719	25726.82
759.056	25849.76
759.394	25649.31
759.731	25580.39
760.068	25466.04
760.405	25476.66
760.743	25300.85
761.08	25338.81
761.417	25197.57
761.754	25176.1
762.091	25156.67
762.428	24992.83
762.765	24801.2
763.102	24937.01
763.438	24719.62
763.775	24654.99
764.112	24602.11
764.449	24534.31
764.785	24426.52
765.122	24328.44
765.458	24207.77
765.795	24164.15
766.131	24174.77
766.467	24025.63
766.804	23898.4
767.14	23831.96
767.476	23796.25
767.812	23700.44
768.148	23684.84
768.485	23537.05
768.821	23415.92
769.157	23344.29
769.492	23353.33
769.828	23359.65
770.164	23028.14
770.5	23121.47
770.836	23109.04
771.171	22879.89
771.507	22902.72
771.842	22657.3
772.178	22686
772.513	22530.52
772.849	22614.59
773.184	22486.23
773.519	22446.23
773.855	22284.88
774.19	22152.45
774.525	22035.62
774.86	22055.96
775.195	22073.36
775.53	21965.11
775.865	21837.66
776.2	21704.78
776.535	21488.74
776.87	21551.11
777.205	21443.09
777.539	21314.28
777.874	21345.24
778.209	21212.59
778.543	21069.09
778.878	21019.83
779.212	21091.92
779.547	20814.18
779.881	20903
780.215	20827.07
780.55	20837.69
780.884	20672.95
781.218	20567.19
781.552	20619.61
781.886	20420.3
782.22	20393.18
782.554	20216.69
782.888	20008.78
783.222	20050.36
783.556	20013.53
783.889	19922
784.223	19678.4
784.557	19767.88
784.89	19737.6
785.224	19614.89
785.557	19623.26
785.891	19455.8
786.224	19434.33
786.558	19398.18
786.891	19152.31
787.224	19110.05
787.557	19084.06
787.891	18967.45
788.224	19016.72
788.557	19025.3
788.89	18839.77
789.223	18906.89
789.556	18773.11
789.888	18642.26
790.221	18632.77
790.554	18418.99
790.887	18472.78
791.219	18555.26
791.552	18336.06
791.884	18226
792.217	18227.13
792.549	18155.05
792.882	17984.88
793.214	18023.07
793.546	17981.49
793.879	17946.46
794.211	17667.37
794.543	17801.16
794.875	17772.46
795.207	17756.19
795.539	17614.95
795.871	17591.22
796.203	17392.13
796.535	17400.49
796.867	17286.59
797.198	17293.82
797.53	17233.49
797.862	17126.37
798.193	17211.12
798.525	17019.26
798.856	17042.31
799.188	16830.11
799.519	16796.21
799.85	16657.23
800.182	16753.05
800.513	16726.38
800.844	16545.82
801.175	16653.39
801.506	16554.41
801.837	16464.47
802.168	16411.14
802.499	16342.21
802.83	16318.94
803.161	16263.8
803.491	16264.93
803.822	16168.66
804.153	16154.42
804.483	16005.5
804.814	15936.8
805.145	15950.81
805.475	16056.8
805.805	15848.44
806.136	15828.55
806.466	15901.77
806.796	15715.79
807.126	15665.39
807.457	15640.31
807.787	15599.18
808.117	15573.42
808.447	15488.45
808.777	15518.73
809.107	15481.9
809.436	15361.22
809.766	15403.03
810.096	15282.58
810.426	15231.51
810.755	15297.49
811.085	15273.77
811.414	15173.2
811.744	15106.76
812.073	15057.5
812.403	15094.33
812.732	15022.02
813.061	14914
813.39	14808.24
813.719	14769.6
814.049	14859.76
814.378	14746.1
814.707	14818.64
815.036	14643.5
815.365	14632.43
815.693	14519.21
816.022	14570.28
816.351	14511.3
816.68	14448.02
817.008	14463.62
817.337	14293.68
817.665	14314.47
817.994	14321.47
818.322	14303.4
818.651	14253.9
818.979	14227.69
819.307	14226.11
819.636	14152.89
819.964	14043.06
820.292	14112.67
820.62	14044.64
820.948	14033.57
821.276	14040.13
821.604	13961.26
821.932	14044.42
822.259	14031.31
822.587	14049.84
822.915	13964.42
823.243	14036.06
823.57	13929.85
823.898	14006.91
824.225	13920.81
824.553	13871.77
824.88	13934.14
825.207	14012.78
825.535	14008.26
825.862	13917.19
826.189	13899.34
826.516	14023.4
826.843	14034.48
827.17	14002.39
827.497	14079.45
827.824	13953.12
828.151	14000.35
828.478	13917.42
828.805	13965.78
829.131	13956.96
829.458	13837.42
829.785	13916.74
830.111	13799.68
830.438	13937.3
830.764	13912.9
831.09	13890.98
831.417	13888.72
831.743	13918.32
832.069	13818.21
832.395	13801.71
832.722	13880.58
833.048	13793.13
833.374	13815.95
833.7	13732.56
834.026	13728.95
834.351	13755.39
834.677	13657.76
835.003	13798.78
835.329	13756.52
835.654	13639.46
835.98	13625.67
836.306	13684.43
836.631	13569.63
836.956	13637.65
837.282	13558.78
837.607	13460.71
837.932	13517.88
838.258	13536.64
838.583	13469.07
838.908	13420.93
839.233	13397.88
839.558	13337.09
839.883	13439.69
840.208	13271.56
840.533	13394.94
840.858	13272.01
841.182	13307.94
841.507	13299.81
841.832	13177.55
842.156	13215.97
842.481	13227.27
842.805	13220.49
843.13	12997.89
843.454	13055.52
843.778	12985.92
844.103	12943.88
844.427	12947.27
844.751	12953.6
845.075	12946.82
845.399	12941.4
845.723	12773.04
846.047	12802.87
846.371	12670.67
846.695	12719.93
847.019	12576.89
847.343	12487.85
847.666	12451.92
847.99	12507.96
848.313	12513.16
848.637	12373.05
848.96	12330.34
849.284	12351.81
849.607	12185.48
849.931	12126.5
850.254	12040.86
850.577	12000.4
850.9	11950.24
851.223	11971.25
851.546	11904.81
851.869	11777.36
852.192	11819.84
852.515	11741.43
852.838	11712.28
853.161	11630.47
853.483	11611.71
853.806	11509.34
854.129	11513.19
854.451	11568.55
854.774	11491.04
855.096	11417.14
855.419	11372.62
855.741	11318.61
856.063	11264.15
856.385	11203.59
856.708	11227.54
857.03	11133.08
857.352	11185.51
857.674	11113.87
857.996	11166.53
858.318	11027.32
858.64	11012.18
858.961	10956.14
859.283	10941.9
859.605	10867.1
859.926	10933.77
860.248	10905.29
860.57	10814
860.891	10844.73
861.212	10781.23
861.534	10739.65
861.855	10655.58
862.176	10756.37
862.498	10623.94
862.819	10684.06
863.14	10643.83
863.461	10648.12
863.782	10585.98
864.103	10589.82
864.424	10545.53
864.745	10517.73
865.065	10511.18
865.386	10447.9
865.707	10488.58
866.027	10524.06
866.348	10378.75
866.668	10414.46
866.989	10434.12
867.309	10289.72
867.63	10323.84
867.95	10310.96
868.27	10220.79
868.59	10251.07
868.91	10225.31
869.23	10295.14
869.55	10175.37
869.87	10187.57
870.19	10173.11
870.51	10193.67
870.83	10134.24
871.15	10060.79
871.469	10098.08
871.789	10051.53
872.109	10058.76
872.428	9957.07
872.748	10051.76
873.067	9993
873.386	9995.03
873.706	9943.51
874.025	9985.09
874.344	9861.25
874.663	9960.46
874.982	9905.77
875.301	9890.86
875.62	9874.81
875.939	9823.96
876.258	9786.45
876.577	9815.83
876.896	9828.48
877.214	9749.16
877.533	9768.37
877.852	9690.41
878.17	9774.25
878.489	9727.7
878.807	9739.67
879.125	9764.31
879.444	9657.87
879.762	9675.72
880.08	9643.63
880.398	9567.93
880.716	9574.48
881.034	9546.46
881.352	9557.98
881.67	9490.87
881.988	9498.1
882.306	9441.6
882.624	9494.48
882.941	9391.21
883.259	9366.8
883.577	9414.48
883.894	9400.25
884.212	9326.8
884.529	9370.87
884.846	9315.96
885.164	9292.91
885.481	9285.45
885.798	9312.57
886.115	9249.29
886.432	9229.18
886.75	9208.84
887.067	9205.9
887.383	9165.68
887.7	9184.66
888.017	9068.05
888.334	9156.64
888.651	9107.83
888.967	9087.94
889.284	9063.31
889.6	8984.89
889.917	8924.55
890.233	8948.96
890.55	8907.15
890.866	8908.06
891.182	8864.89
891.498	8869.41
891.815	8767.72
892.131	8793.71
892.447	8687.5
892.763	8679.59
893.079	8688.18
893.395	8697.21
893.71	8702.64
894.026	8634.62
894.342	8619.48
894.657	8552.13
894.973	8534.73
895.289	8515.75
895.604	8463.77
895.92	8421.74
896.235	8398.01
896.55	8450.67
896.865	8404.79
897.181	8371.12
897.496	8363.44
897.811	8309.43
898.126	8225.59
898.441	8183.78
898.756	8290.9
899.071	8190.11
899.386	8162.99
899.7	8138.81
900.015	8088.87
900.33	8009.78
900.644	7980.62
900.959	8035.54
901.273	7975.2
901.588	7912.83
901.902	7860.4
902.216	7920.29
902.531	7832.6
902.845	7839.61
903.159	7817.24
903.473	7792.15
903.787	7672.61
904.101	7709.67
904.415	7697.24
904.729	7689.56
905.042	7601.88
905.356	7590.35
905.67	7601.88
905.984	7542.89
906.297	7547.19
906.611	7489.11
906.924	7509.22
907.237	7441.43
907.551	7356.46
907.864	7342
908.177	7333.63
908.491	7254.31
908.804	7264.03
909.117	7281.21
909.43	7212.96
909.743	7165.73
910.056	7179.74
910.368	7106.75
910.681	7090.03
910.994	7047.77
911.307	7021.55
911.619	6967.09
911.932	6972.06
912.244	6956.7
912.557	6924.38
912.869	6877.6
913.181	6849.58
913.494	6846.42
913.806	6803.48
914.118	6701.56
914.43	6752.41
914.742	6747.66
915.054	6678.74
915.366	6735.91
915.678	6648
915.99	6592.19
916.302	6506.54
916.613	6482.58
916.925	6489.82
917.236	6540.21
917.548	6491.17
917.859	6506.31
918.171	6411.63
918.482	6378.86
918.794	6371.85
919.105	6368.69
919.416	6275.13
919.727	6318.29
920.038	6284.85
920.349	6175.7
920.66	6206.66
920.971	6166.66
921.282	6187.68
921.593	6087.57
921.903	6050.5
922.214	6037.85
922.525	6026.55
922.835	5995.82
923.146	5965.08
923.456	5921.92
923.767	5917.17
924.077	5881.02
924.387	5909.27
924.697	5835.37
925.008	5855.71
925.318	5864.75
925.628	5741.81
925.938	5807.12
926.248	5695.71
926.558	5676.73
926.867	5727.8
927.177	5677.41
927.487	5606.45
927.796	5568.71
928.106	5583.17
928.416	5520.8
928.725	5537.3
929.034	5495.94
929.344	5522.84
929.653	5512.44
929.962	5415.27
930.271	5451.65
930.581	5430.63
930.89	5369.62
931.199	5332.56
931.508	5304.08
931.817	5315.83
932.125	5289.85
932.434	5262.5
932.743	5218.44
933.051	5174.37
933.36	5181.6
933.669	5167.36
933.977	5176.86
934.286	5162.84
934.594	5170.3
934.902	5099.57
935.21	5062.06
935.519	5029.51
935.827	5040.59
936.135	5023.19
936.443	4960.14
936.751	4963.53
937.059	4902.51
937.367	4936.18
937.674	4901.38
937.982	4907.94
938.29	4847.6
938.597	4838.11
938.905	4826.13
939.213	4795.62
939.52	4738.45
939.827	4778.67
940.135	4685.79
940.442	4706.59
940.749	4694.16
941.056	4700.94
941.363	4650.32
941.67	4633.37
941.977	4587.72
942.284	4561.73
942.591	4545.91
942.898	4556.53
943.205	4564.44
943.511	4483.99
943.818	4496.87
944.125	4422.3
944.431	4479.47
944.738	4445.8
945.044	4415.52
945.35	4435.86
945.657	4358.12
945.963	4363.54
946.269	4352.02
946.575	4311.12
946.881	4271.34
947.187	4335.3
947.493	4288.97
947.799	4262.08
948.105	4227.73
948.41	4238.57
948.716	4206.49
949.022	4250.1
949.327	4226.82
949.633	4155.64
949.938	4108.63
950.244	4133.49
950.549	4087.84
950.854	4091.23
951.16	4053.95
951.465	4030.9
951.77	4055.75
952.075	4012.14
952.38	4011.46
952.685	3951.35
952.99	3958.81
953.294	3954.97
953.599	3902.54
953.904	3894.86
954.209	3833.39
954.513	3880.17
954.818	3835.2
955.122	3813.28
955.426	3816.67
955.731	3773.5
956.035	3777.34
956.339	3753.62
956.643	3750.23
956.948	3722.43
957.252	3707.29
957.556	3669.1
957.86	3659.38
958.163	3647.63
958.467	3607.63
958.771	3651.02
959.075	3620.96
959.378	3570.34
959.682	3624.58
959.985	3518.82
960.289	3547.29
960.592	3544.81
960.896	3537.35
961.199	3518.59
961.502	3518.37
961.805	3479.27
962.108	3473.85
962.411	3479.27
962.714	3396.56
963.017	3442.66
963.32	3413.74
963.623	3455.32
963.926	3378.94
964.228	3351.37
964.531	3329.67
964.833	3351.59
965.136	3269.33
965.438	3285.83
965.741	3275.21
966.043	3251.48
966.345	3265.95
966.648	3240.86
966.95	3216.45
967.252	3213.97
967.554	3153.18
967.856	3160.19
968.158	3156.57
968.46	3146.17
968.761	3149.11
969.063	3105.05
969.365	3112.95
969.666	3092.62
969.968	3072.28
970.269	3048.78
970.571	3046.06
970.872	3017.14
971.174	3057.36
971.475	3027.76
971.776	3031.83
972.077	2988.66
972.378	2956.57
972.679	2996.12
972.98	2947.54
973.281	2963.35
973.582	2960.87
973.883	2896.46
974.183	2912.73
974.484	2891.72
974.785	2860.31
975.085	2843.36
975.386	2870.48
975.686	2836.8
975.986	2835.22
976.287	2811.95
976.587	2793.19
976.887	2766.75
977.187	2811.04
977.487	2788.44
977.787	2779.4
978.087	2734.89
978.387	2767.88
978.687	2756.81
978.987	2722.23
979.286	2695.79
979.586	2703.47
979.885	2678.16
980.185	2676.81
980.484	2639.75
980.784	2674.1
981.083	2665.96
981.382	2620.76
981.682	2604.27
981.981	2590.93
982.28	2561.1
982.579	2564.27
982.878	2530.6
983.177	2550.03
983.475	2546.87
983.774	2524.04
984.073	2506.64
984.372	2491.05
984.67	2502.58
984.969	2463.25
985.267	2481.11
985.566	2436.81
985.864	2448.34
986.162	2420.09
986.461	2407.21
986.759	2434.1
987.057	2407.89
987.355	2384.84
987.653	2373.09
987.951	2339.64
988.249	2355.23
988.547	2358.17
988.844	2341.45
989.142	2324.5
989.44	2307.78
989.737	2310.49
990.035	2285.18
990.332	2263.94
990.63	2288.57
990.927	2272.98
991.224	2252.64
991.521	2218.52
991.819	2249.25
992.116	2235.01
992.413	2206.31
992.71	2179.19
993.006	2208.8
993.303	2195.24
993.6	2204.96
993.897	2163.6
994.193	2177.84
994.49	2119.53
994.787	2142.36
995.083	2124.05
995.379	2114.11
995.676	2104.62
995.972	2075.92
996.268	2082.25
996.565	2086.99
996.861	2052.64
997.157	2042.93
997.453	2017.39
997.749	2039.99
998.044	2017.84
998.34	2009.48
998.636	2004.74
998.932	1984.85
999.227	1974
999.523	1953.66
999.818	1966.09
1000.114	1942.36
1000.409	1958.18
1000.704	1926.77
1001	1922.48
1001.295	1909.82
1001.59	1894
1001.885	1899.88
1002.18	1851.75
1002.475	1882.93
1002.77	1852.65
1003.065	1854.23
1003.359	1846.77
1003.654	1832.54
1003.949	1806.77
1004.243	1820.33
1004.538	1778.53
1004.832	1778.98
1005.127	1780.56
1005.421	1758.41
1005.715	1769.04
1006.009	1747.57
1006.304	1732.88
1006.598	1717.74
1006.892	1712.77
1007.186	1696.95
1007.48	1710.05
1007.773	1712.77
1008.067	1661.92
1008.361	1710.96
1008.655	1670.96
1008.948	1668.7
1009.242	1672.77
1009.535	1650.17
1009.829	1607.01
1010.122	1630.73
1010.415	1580.79
1010.708	1602.71
1011.001	1557.52
1011.295	1564.75
1011.588	1563.62
1011.881	1543.96
1012.173	1568.59
1012.466	1554.58
1012.759	1538.53
1013.052	1534.47
1013.344	1533.79
1013.637	1529.95
1013.93	1505.77
1014.222	1486.78
1014.514	1473.9
1014.807	1455.6
1015.099	1461.25
1015.391	1469.16
1015.683	1463.05
1015.976	1450.63
1016.268	1430.51
1016.56	1411.3
1016.851	1394.81
1017.143	1403.4
1017.435	1378.31
1017.727	1407.46
1018.018	1395.26
1018.31	1355.26
1018.602	1349.61
1018.893	1369.72
1019.185	1346.22
1019.476	1333.79
1019.767	1316.39
1020.058	1325.88
1020.35	1305.32
1020.641	1304.19
1020.932	1307.8
1021.223	1281.14
1021.514	1255.15
1021.804	1271.42
1022.095	1280.01
1022.386	1245.66
1022.677	1267.35
1022.967	1228.03
1023.258	1236.62
1023.548	1240.46
1023.839	1202.5
1024.129	1202.04
1024.419	1175.38
1024.709	1185.77
1025	1183.97
1025.29	1142.16
1025.58	1196.17
1025.87	1138.77
1026.16	1150.52
1026.449	1146
1026.739	1155.94
1027.029	1139.22
1027.319	1131.09
1027.608	1096.51
1027.898	1132.22
1028.187	1082.95
1028.477	1089.28
1028.766	1113.01
1029.055	1092.67
1029.344	1061.94
1029.634	1070.52
1029.923	1044.53
1030.212	1076.17
1030.501	1026.46
1030.79	1047.92
1031.078	1057.87
1031.367	1035.72
1031.656	1024.65
1031.945	1014.03
1032.233	1025.33
1032.522	1016.96
1032.81	1021.26
1033.099	1000.47
1033.387	1018.55
1033.675	983.75
1033.963	950.53
1034.251	977.64
1034.54	976.74
1034.828	961.6
1035.116	961.82
1035.403	948.72
1035.691	946.46
1035.979	916.85
1036.267	948.72
1036.554	903.52
1036.842	930.19
1037.129	932.9
1037.417	922.5
1037.704	879.12
1037.992	900.81
1038.279	872.56
1038.566	889.74
1038.853	889.74
1039.14	889.74
