Data from breadboard_black_back_FLMS001491_00094.txt Node
Date: Wed Feb 08 10:51:11 GMT 2017
User: dcchb
Spectrometer: FLMS00149
Trigger mode: 0
Integration Time (sec): 2.000000E-2
Scans to average: 10
Electric dark correction enabled: true
Nonlinearity correction enabled: false
Boxcar width: 0
XAxis mode: Wavelengths
Number of Pixels in Spectrum: 2048
>>>>>Begin Spectral Data<<<<<
341.393	-18.56
341.776	-18.56
342.16	-18.56
342.543	-61.04
342.927	-59.46
343.31	-77.31
343.693	-68.5
344.077	-79.35
344.46	-49.07
344.843	-45.9
345.226	-25.11
345.61	-24.66
345.993	-37.77
346.376	-9.97
346.759	18.95
347.142	28.9
347.525	50.14
347.908	65.96
348.291	81.78
348.674	82.23
349.057	89.69
349.44	148.44
349.823	145.28
350.206	170.59
350.588	218.72
350.971	199.74
351.354	230.93
351.737	255.11
352.119	237.48
352.502	262.11
352.884	270.47
353.267	294.2
353.65	286.07
354.032	289.23
354.414	304.6
354.797	309.79
355.179	302.11
355.562	331.49
355.944	319.51
356.326	349.79
356.709	341.66
357.091	340.75
357.473	342.79
357.855	365.84
358.238	333.3
358.62	361.54
359.002	343.69
359.384	345.5
359.766	327.42
360.148	350.92
360.53	363.13
360.912	369.23
361.294	354.76
361.676	334.2
362.057	328.1
362.439	340.98
362.821	344.37
363.203	341.43
363.584	349.12
363.966	333.75
364.348	328.78
364.729	330.13
365.111	336.46
365.493	330.81
365.874	319.29
366.256	328.32
366.637	329.23
367.019	352.28
367.4	320.87
367.781	337.14
368.163	341.88
368.544	338.04
368.925	334.88
369.306	336.46
369.688	347.31
370.069	315.44
370.45	346.63
370.831	347.31
371.212	335.56
371.593	326.52
371.974	332.62
372.355	340.98
372.736	325.39
373.117	345.73
373.498	342.11
373.879	331.94
374.26	345.73
374.641	338.95
375.021	346.4
375.402	350.25
375.783	356.8
376.163	352.28
376.544	347.99
376.925	370.13
377.305	352.05
377.686	362
378.066	362.67
378.447	367.87
378.827	384.37
379.208	379.62
379.588	384.37
379.968	362.22
380.349	385.27
380.729	368.32
381.109	380.3
381.489	401.77
381.87	416.01
382.25	373.07
382.63	396.35
383.01	391.37
383.39	390.47
383.77	392.28
384.15	391.6
384.53	401.32
384.91	393.63
385.29	425.95
385.67	419.17
386.049	411.71
386.429	393.41
386.809	414.42
387.189	427.76
387.568	417.36
387.948	427.31
388.328	426.18
388.707	446.29
389.087	416.46
389.466	443.35
389.846	437.25
390.225	459.85
390.605	455.1
390.984	422.11
391.363	461.65
391.743	449.9
392.122	440.64
392.501	457.13
392.881	426.18
393.26	464.59
393.639	463.24
394.018	468.43
394.397	482.22
394.776	479.06
395.155	477.02
395.534	491.03
395.913	493.07
396.292	475.21
396.671	495.55
397.05	514.76
397.429	504.37
397.808	510.24
398.186	518.83
398.565	504.82
398.944	505.27
399.323	517.7
399.701	515.21
400.08	524.93
400.458	517.47
400.837	545.95
401.215	553.86
401.594	539.62
401.972	560.63
402.351	538.49
402.729	549.56
403.107	545.04
403.486	576.68
403.864	576.45
404.242	578.04
404.62	580.3
404.999	587.98
405.377	565.83
405.755	596.34
406.133	599.05
406.511	615.1
406.889	638.6
407.267	620.97
407.645	610.8
408.023	618.71
408.401	639.73
408.779	623.46
409.156	652.16
409.534	643.12
409.912	657.58
410.29	657.36
410.667	657.58
411.045	683.34
411.422	719.27
411.8	688.99
412.178	690.8
412.555	711.37
412.933	730.35
413.31	749.1
413.687	729.44
414.065	740.52
414.442	745.04
414.819	750.69
415.197	749.56
415.574	775.77
415.951	773.51
416.328	771.93
416.705	775.77
417.082	775.09
417.46	805.83
417.837	830.46
418.214	816.9
418.591	808.76
418.967	839.72
419.344	827.07
419.721	848.31
420.098	853.51
420.475	856.22
420.852	882.89
421.228	871.14
421.605	871.36
421.982	898.03
422.358	899.16
422.735	911.13
423.111	922.89
423.488	934.18
423.864	944.58
424.241	943.45
424.617	936.67
424.994	944.58
425.37	985.48
425.746	948.65
426.123	997.46
426.499	982.32
426.875	997.69
427.251	1041.53
427.627	1019.38
428.003	1054.18
428.379	1030.68
428.756	1067.74
429.132	1087.63
429.507	1084.69
429.883	1126.5
430.259	1104.8
430.635	1117.68
431.011	1147.51
431.387	1148.42
431.763	1183.44
432.138	1182.31
432.514	1163.56
432.89	1183.44
433.265	1215.31
433.641	1250.56
434.016	1244.91
434.392	1240.62
434.767	1250.11
435.143	1273.38
435.518	1276.55
435.894	1310.67
436.269	1328.3
436.644	1351.8
437.02	1352.25
437.395	1373.95
437.77	1411.23
438.145	1392.48
438.52	1405.13
438.895	1408.3
439.271	1459.14
439.646	1431.57
440.021	1457.79
440.395	1462.08
440.77	1479.48
441.145	1491.01
441.52	1511.8
441.895	1528.29
442.27	1528.97
442.645	1530.78
443.019	1547.05
443.394	1537.11
443.769	1589.76
444.143	1561.51
444.518	1610.1
444.892	1595.64
445.267	1600.83
445.641	1598.12
446.016	1629.99
446.39	1642.87
446.764	1655.97
447.139	1664.33
447.513	1672.92
447.887	1655.75
448.262	1692.81
448.636	1726.71
449.01	1701.62
449.384	1723.99
449.758	1732.81
450.132	1802.86
450.506	1787.04
450.88	1804.67
451.254	1804.44
451.628	1819.13
452.002	1848.28
452.376	1849.87
452.75	1885.35
453.123	1894.61
453.497	1936.19
453.871	1929.19
454.244	1996.3
454.618	1988.17
454.992	2008.05
455.365	2030.2
455.739	2061.16
456.112	2058
456.486	2126.92
456.859	2108.39
457.232	2169.18
457.606	2163.53
457.979	2187.71
458.352	2243.98
458.725	2261.38
459.099	2279.23
459.472	2322.85
459.845	2326.24
460.218	2376.18
460.591	2409.63
460.964	2403.3
461.337	2452.56
461.71	2498.89
462.083	2503.41
462.456	2504.31
462.829	2524.65
463.201	2607.13
463.574	2581.15
463.947	2665.44
464.32	2678.55
464.692	2681.94
465.065	2737.75
465.438	2758.77
465.81	2806.23
466.183	2853.46
466.555	2924.41
466.928	2899.56
467.3	2892.33
467.672	2971.42
468.045	3037.41
468.417	3073.56
468.789	3059.33
469.161	3139.1
469.534	3175.93
469.906	3248.02
470.278	3258.42
470.65	3255.71
471.022	3331.86
471.394	3403.95
471.766	3403.72
472.138	3508.81
472.51	3581.35
472.882	3644.62
473.253	3620.67
473.625	3708.57
473.997	3782.02
474.369	3815.01
474.74	3846.42
475.112	3928.68
475.484	4003.03
475.855	4058.62
476.227	4081.67
476.598	4171.16
476.97	4226.98
477.341	4360.99
477.713	4386.07
478.084	4371.16
478.455	4497.93
478.827	4525.73
479.198	4713.75
479.569	4727.98
479.94	4793.29
480.311	4884.59
480.682	4971.37
481.053	5096.33
481.424	5158.48
481.795	5207.74
482.166	5299.72
482.537	5373.84
482.908	5457.91
483.279	5566.61
483.65	5637.34
484.021	5750.1
484.391	5814.73
484.762	5891.34
485.133	5952.13
485.503	6026.93
485.874	6207.94
486.244	6215.4
486.615	6306.7
486.985	6352.35
487.356	6454.49
487.726	6585.56
488.097	6664.66
488.467	6746.46
488.837	6836.63
489.207	6892.67
489.578	7024.87
489.948	7039.79
490.318	7252.21
490.688	7214.47
491.058	7362.26
491.428	7383.51
491.798	7516.61
492.168	7632.99
492.538	7701.92
492.908	7791.41
493.278	7847
493.648	7954.79
494.017	8061.91
494.387	8148.23
494.757	8180.1
495.126	8264.39
495.496	8259.19
495.866	8296.7
496.235	8464.38
496.605	8566.07
496.974	8618.28
497.344	8656.24
497.713	8759.52
498.082	8795.9
498.452	8942.79
498.821	8940.53
499.19	8993.86
499.559	9052.62
499.928	9143.01
500.298	9215.1
500.667	9333.74
501.036	9290.57
501.405	9397.46
501.774	9400.18
502.143	9520.85
502.512	9561.98
502.88	9685.37
503.249	9681.53
503.618	9842.65
503.987	9814.85
504.356	9947.51
504.724	9968.52
505.093	9968.3
505.462	10088.52
505.83	10113.15
506.199	10241.06
506.567	10425.01
506.936	10360.15
507.304	10531.22
507.672	10544.33
508.041	10606.7
508.409	10709.07
508.777	10789.74
509.145	10896.18
509.514	10902.06
509.882	10939.35
510.25	10993.81
510.618	11081.26
510.986	11208.72
511.354	11311.09
511.722	11386.34
512.09	11504.98
512.458	11541.14
512.826	11572.77
513.193	11705.2
513.561	11752.43
513.929	11821.58
514.297	12003.05
514.664	12096.15
515.032	12062.71
515.4	12243.72
515.767	12298.86
516.135	12355.13
516.502	12345.18
516.869	12577.72
517.237	12586.99
517.604	12647.32
517.972	12828.11
518.339	12978.16
518.706	12960.31
519.073	12966.41
519.44	13180.19
519.808	13239.85
520.175	13305.61
520.542	13524.14
520.909	13472.39
521.276	13565.26
521.643	13748.54
522.009	13754.41
522.376	13883.45
522.743	14033.73
523.11	14198.24
523.477	14360.5
523.843	14340.61
524.21	14541.96
524.577	14619.93
524.943	14713.26
525.31	14823.08
525.676	14954.83
526.043	15027.83
526.409	15191.66
526.776	15278.44
527.142	15260.59
527.508	15435.05
527.874	15583.06
528.241	15642.27
528.607	15728.37
528.973	15901.7
529.339	15894.02
529.705	15992.55
530.071	16280.67
530.437	16282.93
530.803	16376.04
531.169	16604.28
531.535	16441.8
531.901	16602.02
532.267	16552.08
532.632	16906.65
532.998	16828.68
533.364	16853.31
533.73	16994.33
534.095	17107.32
534.461	17144.61
534.826	17346.86
535.192	17425.95
535.557	17491.26
535.923	17567.87
536.288	17597.93
536.653	17742.78
537.019	17697.13
537.384	17778.94
537.749	17891.25
538.114	17911.14
538.479	18034.53
538.845	18109.1
539.21	18024.36
539.575	18177.8
539.94	18246.27
540.305	18387.06
540.67	18374.4
541.034	18441.75
541.399	18585.02
541.764	18651.23
542.129	18707.95
542.494	18715.19
542.858	18849.65
543.223	18766.03
543.587	18988.85
543.952	18939.59
544.316	19050.09
544.681	19197.43
545.045	19338.67
545.41	19360.59
545.774	19360.59
546.138	19373.25
546.503	19466.35
546.867	19515.39
547.231	19690.98
547.595	19722.39
547.959	19775.95
548.324	19763.75
548.688	19942.05
549.052	19883.97
549.416	19977.3
549.779	20010.52
550.143	20207.35
550.507	20243.06
550.871	20381.81
551.235	20297.52
551.599	20561.01
551.962	20562.14
552.326	20610.28
552.689	20697.96
553.053	20659.77
553.417	20845.07
553.78	21111.28
554.143	20924.39
554.507	21096.37
554.87	21111.06
555.234	21328.22
555.597	21171.17
555.96	21444.15
556.323	21580.87
556.686	21622.91
557.05	21687.09
557.413	21819.74
557.776	21864.93
558.139	22031.26
558.502	22054.08
558.865	22088.66
559.228	22284.81
559.59	22313.74
559.953	22431.47
560.316	22660.62
560.679	22755.08
561.041	22785.81
561.404	22850.67
561.767	23021.97
562.129	22925.24
562.492	23173.15
562.854	23261.06
563.217	23365.46
563.579	23414.72
563.941	23567.71
564.304	23614.72
564.666	23694.49
565.028	23828.27
565.39	23860.81
565.753	24075.5
566.115	24076.4
566.477	24203.86
566.839	24343.74
567.201	24508.25
567.563	24471.42
567.925	24701.92
568.287	24710.51
568.648	24776.04
569.01	24872.99
569.372	25031.86
569.734	24986.21
570.095	25104.62
570.457	25298.06
570.819	25311.4
571.18	25353.43
571.542	25611.28
571.903	25667.77
572.265	25686.3
572.626	25808.56
572.987	25837.26
573.349	25923.13
573.71	26075.67
574.071	26041.32
574.432	26214.88
574.794	26354.31
575.155	26245.38
575.516	26197.7
575.877	26373.74
576.238	26491.7
576.599	26561.99
576.96	26673.39
577.32	26518.14
577.681	26745.48
578.042	26787.74
578.403	26765.37
578.763	26870.9
579.124	26726.27
579.485	27021.18
579.845	27040.84
580.206	26922.43
580.566	27106.83
580.927	27101.63
581.287	27065.93
581.648	27049.2
582.008	27233.83
582.368	27195.87
582.728	27269.54
583.089	27215.75
583.449	27212.82
583.809	27226.83
584.169	27258.01
584.529	27175.3
584.889	27481.28
585.249	27353.6
585.609	27246.71
585.969	27443.32
586.329	27272.47
586.688	27331
587.048	27321.29
587.408	27281.06
587.768	27447.39
588.127	27322.64
588.487	27442.64
588.846	27445.35
589.206	27365.35
589.565	27446.26
589.925	27513.6
590.284	27574.16
590.643	27502.3
591.003	27577.1
591.362	27691.67
591.721	27577.78
592.08	27574.16
592.44	27726.7
592.799	27598.79
593.158	27467.5
593.517	27581.17
593.876	27793.59
594.235	27564.67
594.593	27617.1
594.952	27725.34
595.311	27684.67
595.67	27787.04
596.029	27900.71
596.387	27920.37
596.746	28013.92
597.104	27806.47
597.463	27904.77
597.822	27972.12
598.18	27860.03
598.538	27778.22
598.897	27951.55
599.255	27811.22
599.613	28149.29
599.972	28056.86
600.33	28181.15
600.688	27994.94
601.046	28176.41
601.404	28152.9
601.762	28095.5
602.12	28180.02
602.478	28343.41
602.836	28302.5
603.194	28070.42
603.552	28184.54
603.91	28230.64
604.268	28437.42
604.625	28242.84
604.983	28413.46
605.341	28281.94
605.698	28340.7
606.056	28448.26
606.413	28528.94
606.771	28522.84
607.128	28645.09
607.485	28475.16
607.843	28575.04
608.2	28702.72
608.557	28735.26
608.914	28655.72
609.272	28898.42
609.629	28968.02
609.986	28988.14
610.343	28748.37
610.7	29029.72
611.057	28951.75
611.414	28989.72
611.771	29048.7
612.127	28981.81
612.484	29052.77
612.841	29269.03
613.198	29002.15
613.554	29100.9
613.911	29281.01
614.267	29299.31
614.624	29283.72
614.98	29309.71
615.337	29498.41
615.693	29401.01
616.05	29363.04
616.406	29558.74
616.762	29392.87
617.118	29449.59
617.475	29590.61
617.831	29575.01
618.187	29523.72
618.543	29504.05
618.899	29739.53
619.255	29723.48
619.611	29748.34
619.967	29807.32
620.323	29794.67
620.678	29644.62
621.034	29685.07
621.39	29637.38
621.746	29764.84
622.101	29979.97
622.457	29735.46
622.812	29822.69
623.168	29846.64
623.523	29908.11
623.879	29888.45
624.234	29760.32
624.589	29750.6
624.945	29848
625.3	29884.16
625.655	29896.59
626.01	29860.88
626.365	29874.67
626.72	29911.5
627.075	29810.26
627.43	29908.11
627.785	29804.84
628.14	29881.45
628.495	29907.21
628.85	29772.97
629.205	29732.07
629.559	29878.51
629.914	29836.7
630.269	29732.98
630.623	29742.92
630.978	29615.92
631.332	29836.02
631.687	29839.87
632.041	29593.77
632.396	29743.14
632.75	29574.56
633.104	29683.71
633.459	29413.44
633.813	29598.06
634.167	29480.33
634.521	29323.49
634.875	29434.23
635.229	29491.17
635.583	29284.17
635.937	29443.94
636.291	29283.72
636.645	29398.29
636.999	29241.91
637.352	29248.69
637.706	29159.43
638.06	29297.73
638.413	29220.9
638.767	29107.23
639.121	29182.93
639.474	29020
639.828	29057.29
640.181	29103.61
640.534	29068.13
640.888	28878.31
641.241	28855.48
641.594	29033.33
641.947	29021.13
642.301	28774.81
642.654	28881.7
643.007	28821.36
643.36	28803.28
643.713	28805.77
644.066	28818.2
644.419	28691.87
644.771	28523.52
645.124	28272.9
645.477	28202.85
645.83	28108.39
646.182	27919.92
646.535	27745
646.888	27818.9
647.24	27677.66
647.593	27757.66
647.945	27739.13
648.298	27504.11
648.65	27376.43
649.002	27540.49
649.355	27577.1
649.707	27511.56
650.059	27748.17
650.411	27944.32
650.763	28065.22
651.115	28327.36
651.467	28209.85
651.819	28164.2
652.171	28015.73
652.523	28028.39
652.875	27994.04
653.227	27860.93
653.578	28073.13
653.93	27841.05
654.282	27816.64
654.633	27837.66
654.985	27779.58
655.337	27907.03
655.688	27848.96
656.039	27930.99
656.391	27794.72
656.742	27712.46
657.094	27790.2
657.445	27912.01
657.796	27732.8
658.147	27675.85
658.498	27615.06
658.849	27778
659.2	27719.69
659.551	27651.67
659.902	27759.47
660.253	27699.81
660.604	27670.43
660.955	27635.63
661.306	27689.19
661.656	27537.55
662.007	27725.34
662.358	27692.8
662.708	27650.32
663.059	27597.44
663.409	27445.58
663.76	27665.68
664.11	27534.39
664.461	27643.54
664.811	27457.1
665.161	27558.34
665.511	27434.28
665.862	27491.23
666.212	27616.87
666.562	27554.95
666.912	27401.29
667.262	27322.19
667.612	27417.56
667.962	27496.2
668.312	27441.74
668.662	27605.12
669.011	27380.72
669.361	27364.22
669.711	27280.38
670.06	27262.53
670.41	27360.38
670.76	27164
671.109	27456.42
671.459	27284.68
671.808	27287.62
672.157	27307.73
672.507	27189.54
672.856	27105.7
673.205	27196.54
673.554	27236.54
673.904	27218.92
674.253	27309.54
674.602	27241.74
674.951	26804.24
675.3	26667.75
675.649	27069.54
675.998	26965.82
676.346	27071.8
676.695	27157
677.044	26886.72
677.393	26927.4
677.741	26936.89
678.09	26907.06
678.438	26884.46
678.787	26840.4
679.135	26823
679.484	26716.33
679.832	26838.14
680.181	26653.51
680.529	26845.59
680.877	26642.44
681.225	26693.06
681.573	26731.25
681.922	26654.19
682.27	26586.17
682.618	26530.57
682.966	26468.43
683.314	26505.04
683.661	26516.56
684.009	26299.39
684.357	26208.77
684.705	26218.04
685.053	26252.16
685.4	26277.25
685.748	26126.29
686.095	25919.29
686.443	26079.51
686.79	25800.88
687.138	25962.23
687.485	25971.27
687.832	25851.95
688.18	25838.39
688.527	25836.58
688.874	25775.79
689.221	25611.95
689.568	25603.82
689.915	25540.32
690.262	25503.03
690.609	25513.43
690.956	25319.31
691.303	25385.07
691.65	25333.54
691.997	25257.84
692.344	25083.83
692.69	25061.69
693.037	25140.33
693.383	24840.9
693.73	25113.66
694.077	24757.06
694.423	24745.08
694.769	24693.11
695.116	24699.66
695.462	24552.55
695.808	24423.74
696.155	24543.96
696.501	24300.58
696.847	24368.14
697.193	24223.52
697.539	24229.84
697.885	24133.57
698.231	24054.03
698.577	24091.99
698.923	23913.47
699.269	24012
699.614	23753.02
699.96	23739.23
700.306	23812.45
700.651	23520.26
700.997	23600.03
701.342	23536.08
701.688	23509.86
702.033	23525.23
702.379	23485.68
702.724	23381.5
703.069	23390.09
703.415	23188.06
703.76	23185.12
704.105	23039.14
704.45	23031.68
704.795	22868.07
705.14	22807.28
705.485	22940.39
705.83	22834.17
706.175	22820.61
706.52	22671.47
706.865	22682.77
707.209	22611.35
707.554	22541.53
707.899	22562.32
708.243	22481.19
708.588	22432.83
708.932	22250.46
709.277	22250.23
709.621	22322.32
709.966	22160.97
710.31	22158.94
710.654	21895.89
710.998	21978.38
711.342	22105.83
711.687	21991.94
712.031	21895.44
712.375	21819.74
712.719	21689.8
713.063	21798.27
713.407	21791.49
713.75	21686.86
714.094	21726.41
714.438	21546.98
714.782	21621.1
715.125	21469.92
715.469	21537.26
715.812	21370.71
716.156	21338.39
716.499	21311.5
716.843	21289.81
717.186	21196.02
717.53	21277.6
717.873	21289.36
718.216	21261.56
718.559	21091.85
718.902	21035.12
719.246	21024.28
719.589	20961.91
719.932	20893.89
720.275	20885.52
720.617	20878.52
720.96	20936.6
721.303	20839.42
721.646	20789.03
721.989	20722.14
722.331	20675.36
722.674	20617.06
723.016	20697.96
723.359	20579.32
723.701	20641.69
724.044	20508.59
724.386	20390.85
724.729	20412.99
725.071	20418.87
725.413	20419.32
725.755	20449.15
726.097	20309.49
726.439	20232.89
726.782	20219.55
727.124	20253.68
727.465	20222.49
727.807	20234.47
728.149	20141.59
728.491	20003.74
728.833	20135.04
729.175	20065.43
729.516	20046.22
729.858	20004.42
730.199	20043.96
730.541	19861.37
730.882	19899.34
731.224	19916.51
731.565	19721.04
731.906	19834.03
732.248	19884.65
732.589	19728.49
732.93	19708.83
733.271	19705.67
733.612	19721.94
733.953	19791.32
734.294	19650.53
734.635	19582.96
734.976	19512.68
735.317	19404.21
735.658	19551.55
735.999	19563.3
736.339	19411.44
736.68	19528.27
737.021	19356.3
737.361	19358.56
737.702	19295.51
738.042	19367.6
738.383	19187.49
738.723	19243.76
739.063	19206.47
739.404	19187.94
739.744	19182.07
740.084	19109.75
740.424	19167.83
740.764	19052.13
741.104	19121.5
741.444	19069.07
741.784	18904.79
742.124	19110.2
742.464	18964.67
742.804	18918.8
743.143	18831.79
743.483	18912.92
743.823	18807.16
744.162	18788.86
744.502	18859.14
744.841	18699.59
745.181	18883.09
745.52	18747.5
745.86	18731.91
746.199	18687.16
746.538	18668.18
746.877	18621.85
747.216	18694.85
747.556	18561.74
747.895	18602.65
748.234	18501.41
748.573	18371.92
748.911	18397
749.25	18397.23
749.589	18360.62
749.928	18370.11
750.267	18301.41
750.605	18280.17
750.944	18182.77
751.283	18138.7
751.621	18227.74
751.96	18120.17
752.298	17988.65
752.636	17953.17
752.975	17944.36
753.313	17808.09
753.651	17915.66
753.989	17848.77
754.327	17757.47
754.666	17685.83
755.004	17755.66
755.342	17708.66
755.679	17731.03
756.017	17608.1
756.355	17717.47
756.693	17607.87
757.031	17576.46
757.368	17442
757.706	17425.5
758.044	17332.4
758.381	17427.54
758.719	17354.54
759.056	17295.79
759.394	17207.43
759.731	17084.72
760.068	17150.03
760.405	17070.71
760.743	17057.83
761.08	17058.51
761.417	16949.36
761.754	16929.24
762.091	16933.09
762.428	16845.63
762.765	16710.49
763.102	16697.84
763.438	16700.78
763.775	16541.23
764.112	16664.62
764.449	16682.92
764.785	16547.56
765.122	16361.35
765.458	16377.85
765.795	16282.03
766.131	16350.73
766.467	16279.32
766.804	16151.41
767.14	16089.94
767.476	16126.33
767.812	16072.54
768.148	15972.21
768.485	15886.33
768.821	15807.24
769.157	15840.69
769.492	15757.98
769.828	15774.25
770.164	15595.04
770.5	15576.29
770.836	15589.39
771.171	15390.53
771.507	15423.07
771.842	15323.18
772.178	15403.41
772.513	15333.35
772.849	15118.22
773.184	15185.79
773.519	15097.2
773.855	15044.55
774.19	14988.5
774.525	14943.31
774.86	14967.49
775.195	14928.62
775.53	14883.42
775.865	14756.65
776.2	14650.43
776.535	14608.4
776.87	14517.1
777.205	14539.7
777.539	14454.05
777.874	14474.62
778.209	14380.16
778.543	14302.65
778.878	14206.6
779.212	14329.99
779.547	14137.23
779.881	14288.18
780.215	14045.03
780.55	14139.49
780.884	14055.87
781.218	13990.11
781.552	14007.51
781.886	13833.51
782.22	13851.58
782.554	13740.85
782.888	13619.73
783.222	13693.85
783.556	13596.68
783.889	13461.99
784.223	13456.79
784.557	13384.48
784.89	13501.76
785.224	13399.39
785.557	13246.18
785.891	13263.35
786.224	13230.36
786.558	13237.14
786.891	13115.11
787.224	13019.06
787.557	13076.01
787.891	12973.19
788.224	12977.26
788.557	12987.88
788.89	12875.57
789.223	12939.74
789.556	12776.36
789.888	12817.26
790.221	12691.62
790.554	12678.06
790.887	12634.22
791.219	12576.82
791.552	12540.43
791.884	12542.69
792.217	12429.02
792.549	12434
792.882	12315.13
793.214	12271.97
793.546	12345.41
793.879	12212.53
794.211	12189.93
794.543	12190.61
794.875	12162.14
795.207	12139.77
795.539	12008.47
795.871	12079.2
796.203	11991.07
796.535	11900.22
796.867	11873.56
797.198	11891.18
797.53	11868.13
797.862	11740.91
798.193	11871.75
798.525	11737.52
798.856	11742.26
799.188	11576.39
799.519	11549.5
799.85	11476.05
800.182	11627.46
800.513	11545.66
800.844	11379.11
801.175	11509.73
801.506	11438.54
801.837	11373.91
802.168	11382.5
802.499	11386.79
802.83	11246.23
803.161	11209.85
803.491	11227.25
803.822	11187.7
804.153	11108.38
804.483	11079.45
804.814	11020.7
805.145	11057.99
805.475	11002.62
805.805	10942.06
806.136	10961.94
806.466	10943.64
806.796	10988.61
807.126	10866.13
807.457	10815.51
807.787	10778.67
808.117	10809.86
808.447	10742.97
808.777	10721.05
809.107	10777.77
809.436	10628.62
809.766	10714.94
810.096	10594.72
810.426	10591.78
810.755	10572.8
811.085	10579.81
811.414	10547.27
811.744	10432.24
812.073	10440.6
812.403	10481.28
812.732	10401.05
813.061	10417.32
813.39	10332.13
813.719	10319.93
814.049	10393.37
814.378	10228.4
814.707	10254.84
815.036	10262.98
815.365	10162.19
815.693	10087.62
816.022	10121.97
816.351	10110.89
816.68	9986.6
817.008	10008.07
817.337	9940.5
817.665	9974.62
817.994	10012.14
818.322	9934.63
818.651	9960.61
818.979	9832.03
819.307	9899.82
819.636	9811.24
819.964	9778.25
820.292	9825.02
820.62	9831.58
820.948	9820.96
821.276	9818.47
821.604	9784.35
821.932	9839.26
822.259	9803.78
822.587	9787.51
822.915	9744.8
823.243	9745.7
823.57	9786.61
823.898	9820.96
824.225	9754.29
824.553	9744.8
824.88	9773.05
825.207	9770.56
825.535	9788.64
825.862	9848.75
826.189	9712.94
826.516	9775.99
826.843	9807.85
827.17	9775.08
827.497	9748.64
827.824	9734.41
828.151	9837.68
828.478	9711.13
828.805	9760.39
829.131	9790.67
829.458	9746.38
829.785	9690.11
830.111	9720.85
830.438	9770.34
830.764	9719.94
831.09	9766.72
831.417	9665.25
831.743	9741.41
832.069	9773.27
832.395	9813.95
832.722	9795.87
833.048	9705.25
833.374	9697.57
833.7	9695.54
834.026	9693.5
834.351	9651.92
834.677	9650.57
835.003	9698.93
835.329	9722.88
835.654	9631.81
835.98	9611.24
836.306	9591.58
836.631	9628.19
836.956	9645.59
837.282	9633.39
837.607	9592.94
837.932	9540.51
838.258	9514.98
838.583	9525.82
838.908	9477.91
839.233	9454.41
839.558	9423
839.883	9460.29
840.208	9404.7
840.533	9382.1
840.858	9379.61
841.182	9434.75
841.507	9455.54
841.832	9325.6
842.156	9326.28
842.481	9333.51
842.805	9302.1
843.13	9306.85
843.454	9294.87
843.778	9237.69
844.103	9190.69
844.427	9147.53
844.751	9201.99
845.075	9163.35
845.399	9149.56
845.723	9067.98
846.047	9078.83
846.371	9011.71
846.695	9016.91
847.019	8976.91
847.343	8930.36
847.666	8880.42
847.99	8875.9
848.313	8809.46
848.637	8834.32
848.96	8728.1
849.284	8739.18
849.607	8692.17
849.931	8637.94
850.254	8613.53
850.577	8619.18
850.9	8505.28
851.223	8471.61
851.546	8478.39
851.869	8411.05
852.192	8438.85
852.515	8346.64
852.838	8355.23
853.161	8355.01
853.483	8322.92
853.806	8229.36
854.129	8176.25
854.451	8179.19
854.774	8151.62
855.096	8155.92
855.419	8152.75
855.741	8050.38
856.063	8055.35
856.385	8037.05
856.708	8055.58
857.03	8003.6
857.352	8001.12
857.674	8001.8
857.996	7910.95
858.318	7908.46
858.64	7930.38
858.961	7943.04
859.283	7872.08
859.605	7861.69
859.926	7842.7
860.248	7876.15
860.57	7824.17
860.891	7876.15
861.212	7735.59
861.534	7805.42
861.855	7761.58
862.176	7647.23
862.498	7660.56
862.819	7687.45
863.14	7637.06
863.461	7617.4
863.782	7675.02
864.103	7656.04
864.424	7550.73
864.745	7651.75
865.065	7563.61
865.386	7550.51
865.707	7571.75
866.027	7596.61
866.348	7518.19
866.668	7503.05
866.989	7528.81
867.309	7418.53
867.63	7440.68
867.95	7441.13
868.27	7404.52
868.59	7444.97
868.91	7397.97
869.23	7430.51
869.55	7409.72
869.87	7385.54
870.19	7392.55
870.51	7402.94
870.83	7451.75
871.15	7296.96
871.469	7332.89
871.789	7327.91
872.109	7311.19
872.428	7249.27
872.748	7324.98
873.067	7291.08
873.386	7269.16
873.706	7284.3
874.025	7222.83
874.344	7237.97
874.663	7207.01
874.982	7229.61
875.301	7191.2
875.62	7201.36
875.939	7156.17
876.258	7160.24
876.577	7153.68
876.896	7106
877.214	7112.1
877.533	7077.3
877.852	7095.15
878.17	7137.64
878.489	7100.8
878.807	7088.15
879.125	7060.35
879.444	7057.41
879.762	7021.03
880.08	7074.36
880.398	7014.02
880.716	6994.59
881.034	7035.27
881.352	6999.11
881.67	7010.41
881.988	6962.95
882.306	6996.17
882.624	6944.2
882.941	6928.38
883.259	6883.18
883.577	6824.43
883.894	6919.56
884.212	6871.43
884.529	6847.7
884.846	6816.52
885.164	6809.96
885.481	6724.77
885.798	6796.86
886.115	6748.72
886.432	6759.12
886.75	6752.11
887.067	6704.88
887.383	6716.18
887.7	6731.32
888.017	6637.76
888.334	6632.57
888.651	6701.72
888.967	6628.5
889.284	6576.75
889.6	6602.96
889.917	6585.34
890.233	6559.8
890.55	6500.14
890.866	6555.96
891.182	6468.5
891.498	6493.59
891.815	6449.52
892.131	6485.68
892.447	6398.9
892.763	6368.84
893.079	6353.03
893.395	6355.51
893.71	6341.05
894.026	6348.28
894.342	6297.21
894.657	6284.1
894.973	6315.96
895.289	6310.31
895.604	6277.55
895.92	6194.39
896.235	6207.49
896.55	6270.77
896.865	6216.08
897.181	6225.57
897.496	6168.62
897.811	6107.38
898.126	6069.87
898.441	6096.31
898.756	6087.72
899.071	6054.05
899.386	6010.89
899.7	5994.62
900.015	5986.93
900.33	5927.5
900.644	5908.74
900.959	5918.69
901.273	5874.62
901.588	5884.11
901.902	5859.48
902.216	5819.93
902.531	5882.08
902.845	5788.29
903.159	5755.98
903.473	5728.18
903.787	5735.87
904.101	5670.33
904.415	5707.39
904.729	5702.19
905.042	5620.39
905.356	5658.58
905.67	5606.38
905.984	5630.11
906.297	5619.71
906.611	5528.41
906.924	5523.67
907.237	5537.23
907.551	5544.68
907.864	5473.73
908.177	5490.9
908.491	5453.61
908.804	5442.54
909.117	5371.58
909.43	5406.61
909.743	5352.37
910.056	5388.53
910.368	5318.48
910.681	5293.39
910.994	5269.21
911.307	5269.89
911.619	5237.12
911.932	5257.46
912.244	5179.95
912.557	5187.63
912.869	5161.19
913.181	5162.77
913.494	5150.34
913.806	5123.68
914.118	5082.1
914.43	5030.8
914.742	5082.55
915.054	5058.14
915.366	5023.34
915.678	5005.04
915.99	4946.28
916.302	4956.23
916.613	4899.05
916.925	4858.83
917.236	4827.42
917.548	4864.7
917.859	4826.96
918.171	4804.59
918.482	4855.21
918.794	4819.73
919.105	4798.94
919.416	4718.72
919.727	4751.94
920.038	4737.02
920.349	4677.14
920.66	4643.01
920.971	4705.16
921.282	4645.5
921.593	4622.22
921.903	4610.47
922.214	4608.89
922.525	4581.32
922.835	4524.37
923.146	4538.38
923.456	4474.2
923.767	4525.28
924.077	4499.29
924.387	4451.83
924.697	4443.02
925.008	4430.36
925.318	4410.7
925.628	4432.4
925.938	4434.88
926.248	4371.83
926.558	4346.07
926.867	4325.73
927.177	4306.75
927.487	4313.53
927.796	4221.56
928.106	4258.39
928.416	4204.15
928.725	4199.41
929.034	4207.32
929.344	4186.3
929.653	4213.42
929.962	4157.15
930.271	4135.91
930.581	4141.33
930.89	4096.36
931.199	4061.11
931.508	4051.39
931.817	4075.12
932.125	4017.49
932.434	4015.46
932.743	3968.68
933.051	3963.26
933.36	3984.05
933.669	3941.34
933.977	3923.94
934.286	3940.66
934.594	3919.19
934.902	3906.76
935.21	3866.08
935.519	3851.62
935.827	3853.43
936.135	3828.8
936.443	3801.91
936.751	3772.98
937.059	3784.96
937.367	3804.39
937.674	3723.94
937.982	3768.23
938.29	3716.03
938.597	3712.87
938.905	3695.92
939.213	3673.32
939.52	3608.69
939.827	3641.91
940.135	3627.67
940.442	3642.59
940.749	3629.25
941.056	3573.66
941.363	3584.96
941.67	3537.51
941.977	3551.52
942.284	3497.96
942.591	3508.13
942.898	3521.46
943.205	3516.72
943.511	3462.48
943.818	3448.02
944.125	3413.44
944.431	3432.42
944.738	3430.84
945.044	3391.3
945.35	3348.81
945.657	3362.14
945.963	3374.12
946.269	3332.99
946.575	3315.36
946.881	3329.15
947.187	3294.35
947.493	3257.29
947.799	3268.36
948.105	3289.15
948.41	3235.14
948.716	3263.61
949.022	3212.77
949.327	3251.86
949.633	3155.82
949.938	3218.64
950.244	3208.02
950.549	3173
950.854	3173
951.16	3142.71
951.465	3141.13
951.77	3104.97
952.075	3075.15
952.38	3090.96
952.685	3074.69
952.99	3048.48
953.294	3067.69
953.599	3036.5
953.904	3029.72
954.209	3003.51
954.513	2953.79
954.818	2976.39
955.122	2980.23
955.426	3001.25
955.731	2963.06
956.035	2968.93
956.339	2931.19
956.643	2936.84
956.948	2881.7
957.252	2880.8
957.556	2897.07
957.86	2852.1
958.163	2853.46
958.467	2846.22
958.771	2842.61
959.075	2813.46
959.378	2842.38
959.682	2789.5
959.985	2773.46
960.289	2772.55
960.592	2767.58
960.896	2752.89
961.199	2746.57
961.502	2727.58
961.805	2731.43
962.108	2755.61
962.411	2703.4
962.714	2686.91
963.017	2679.22
963.32	2678.32
963.623	2647.59
963.926	2664.53
964.228	2605.1
964.531	2637.87
964.833	2626.57
965.136	2593.12
965.438	2591.54
965.741	2565.1
966.043	2591.77
966.345	2579.56
966.648	2550.19
966.95	2557.87
967.252	2536.63
967.554	2514.93
967.856	2490.98
968.158	2476.06
968.46	2495.95
968.761	2483.97
969.063	2475.16
969.365	2445.78
969.666	2436.52
969.968	2390.19
970.269	2434.71
970.571	2425.44
970.872	2417.08
971.174	2423.64
971.475	2379.57
971.776	2397.87
972.077	2388.84
972.378	2364.2
972.679	2391.32
972.98	2359.01
973.281	2313.13
973.582	2365.11
973.883	2313.13
974.183	2299.12
974.484	2278.78
974.785	2250.31
975.085	2250.76
975.386	2283.53
975.686	2280.59
975.986	2229.07
976.287	2232.23
976.587	2246.69
976.887	2242.85
977.187	2197.65
977.487	2219.8
977.787	2191.33
978.087	2146.58
978.387	2182.74
978.687	2151.33
978.987	2161.72
979.286	2139.8
979.586	2129.18
979.885	2126.02
980.185	2114.72
980.484	2079.69
980.784	2098.45
981.083	2095.74
981.382	2102.97
981.682	2065
981.981	2084.66
982.28	2068.62
982.579	2049.64
982.878	2058
983.177	2031.1
983.475	2027.26
983.774	2014.16
984.073	1978.9
984.372	1984.1
984.67	1999.47
984.969	1976.42
985.267	1956.76
985.566	1970.77
985.864	1972.35
986.162	1972.8
986.461	1937.55
986.759	1923.76
987.057	1890.32
987.355	1896.42
987.653	1887.38
987.951	1880.37
988.249	1887.83
988.547	1895.74
988.844	1886.02
989.142	1908.17
989.44	1865.23
989.737	1892.8
990.035	1850.54
990.332	1853.03
990.63	1836.99
990.927	1840.15
991.224	1827.49
991.521	1820.26
991.819	1815.74
992.116	1803.54
992.413	1803.77
992.71	1764.67
993.006	1776.87
993.303	1782.75
993.6	1738.91
993.897	1733.71
994.193	1740.72
994.49	1719.7
994.787	1747.72
995.083	1711.79
995.379	1729.87
995.676	1716.08
995.972	1694.16
996.268	1687.16
996.565	1651.23
996.861	1666.37
997.157	1656.65
997.453	1663.66
997.749	1665.69
998.044	1640.61
998.34	1644.67
998.636	1627.05
998.932	1633.15
999.227	1602.19
999.523	1631.57
999.818	1592.92
1000.114	1570.1
1000.409	1570.78
1000.704	1587.27
1001	1577.11
1001.295	1533.49
1001.59	1539.37
1001.885	1558.57
1002.18	1526.71
1002.475	1510.89
1002.77	1541.4
1003.065	1528.75
1003.359	1531.46
1003.654	1497.11
1003.949	1482.64
1004.243	1469.54
1004.538	1472.7
1004.832	1493.72
1005.127	1465.47
1005.421	1474.96
1005.715	1420.95
1006.009	1424.57
1006.304	1433.15
1006.598	1437.67
1006.892	1405.81
1007.186	1405.36
1007.48	1422.99
1007.773	1432.48
1008.067	1376.66
1008.361	1382.99
1008.655	1377.56
1008.948	1400.61
1009.242	1368.07
1009.535	1321.29
1009.829	1348.86
1010.122	1332.82
1010.415	1329.65
1010.708	1296.66
1011.001	1334.17
1011.295	1319.49
1011.588	1317.9
1011.881	1317.45
1012.173	1277.68
1012.466	1297.34
1012.759	1278.36
1013.052	1263.67
1013.344	1255.76
1013.637	1264.35
1013.93	1250.79
1014.222	1266.83
1014.514	1234.97
1014.807	1260.73
1015.099	1230.9
1015.391	1236.55
1015.683	1217.11
1015.976	1228.64
1016.268	1211.01
1016.56	1171.01
1016.851	1181.64
1017.143	1200.62
1017.435	1201.75
1017.727	1201.07
1018.018	1180.05
1018.31	1140.73
1018.602	1160.39
1018.893	1131.02
1019.185	1129.66
1019.476	1134.41
1019.767	1114.97
1020.058	1116.78
1020.35	1105.25
1020.641	1101.64
1020.932	1115.87
1021.223	1085.14
1021.514	1065.03
1021.804	1065.93
1022.095	1083.11
1022.386	1072.49
1022.677	1065.48
1022.967	1064.35
1023.258	1052.15
1023.548	1054.41
1023.839	1032.71
1024.129	1014.18
1024.419	1021.19
1024.709	1020.96
1025	1021.41
1025.29	1002.66
1025.58	978.7
1025.87	1018.93
1026.16	1024.35
1026.449	987.74
1026.739	990
1027.029	974.64
1027.319	972.6
1027.608	985.03
1027.898	955.43
1028.187	968.76
1028.477	948.42
1028.766	917.69
1029.055	934.64
1029.344	942.09
1029.634	907.07
1029.923	938.03
1030.212	927.86
1030.501	911.13
1030.79	922.21
1031.078	888.08
1031.367	899.84
1031.656	903.45
1031.945	889.21
1032.233	877.91
1032.522	892.6
1032.81	887.18
1033.099	875.43
1033.387	870.46
1033.675	849.44
1033.963	855.99
1034.251	868.88
1034.54	866.16
1034.828	825.71
1035.116	831.36
1035.403	822.32
1035.691	836.11
1035.979	811.93
1036.267	825.49
1036.554	804.24
1036.842	800.85
1037.129	824.36
1037.417	802.21
1037.704	795.88
1037.992	766.73
1038.279	781.19
1038.566	781.19
1038.853	781.19
1039.14	781.19
