Data from breadboard_white_FLMS001491_00065.txt Node
Date: Wed Feb 08 10:48:05 GMT 2017
User: dcchb
Spectrometer: FLMS00149
Trigger mode: 0
Integration Time (sec): 2.000000E-2
Scans to average: 10
Electric dark correction enabled: true
Nonlinearity correction enabled: false
Boxcar width: 0
XAxis mode: Wavelengths
Number of Pixels in Spectrum: 2048
>>>>>Begin Spectral Data<<<<<
341.393	-2.6
341.776	-2.6
342.16	-2.6
342.543	-71.75
342.927	-65.87
343.31	-69.49
343.693	-52.99
344.077	-77.4
344.46	-48.02
344.843	-51.64
345.226	-43.05
345.61	-32.43
345.993	-18.42
346.376	5.08
346.759	-1.69
347.142	18.42
347.525	60
347.908	55.48
348.291	86.66
348.674	76.72
349.057	92.77
349.44	133.67
349.823	139.09
350.206	157.4
350.588	203.72
350.971	213.67
351.354	252.31
351.737	256.6
352.119	280.33
352.502	270.39
352.884	288.92
353.267	286.89
353.65	298.64
354.032	314.68
354.414	330.05
354.797	321.46
355.179	328.47
355.562	342.7
355.944	358.52
356.326	345.41
356.709	363.27
357.091	342.02
357.473	358.07
357.855	343.83
358.238	344.74
358.62	341.12
359.002	342.48
359.384	361.01
359.766	361.91
360.148	344.74
360.53	348.58
360.912	349.71
361.294	350.84
361.676	358.52
362.057	354.91
362.439	351.97
362.821	332.31
363.203	351.29
363.584	354
363.966	345.19
364.348	364.17
364.729	337.73
365.111	348.58
365.493	315.58
365.874	334.34
366.256	343.83
366.637	359.2
367.019	358.07
367.4	325.3
367.781	342.48
368.163	345.19
368.544	332.53
368.925	341.8
369.306	368.69
369.688	358.52
370.069	352.87
370.45	333.66
370.831	338.18
371.212	342.48
371.593	341.57
371.974	347.67
372.355	352.65
372.736	352.19
373.117	372.76
373.498	362.59
373.879	354.91
374.26	350.39
374.641	335.92
375.021	350.39
375.402	370.27
375.783	351.97
376.163	373.66
376.544	369.82
376.925	370.05
377.305	350.39
377.686	384.96
378.066	368.01
378.447	396.49
378.827	380.67
379.208	384.06
379.588	399.42
379.968	398.29
380.349	388.13
380.729	402.81
381.109	400.1
381.489	398.29
381.87	387.67
382.25	385.41
382.63	380.22
383.01	399.88
383.39	393.1
383.77	402.14
384.15	406.88
384.53	413.66
384.91	410.27
385.29	417.96
385.67	425.86
386.049	440.78
386.429	423.15
386.809	436.94
387.189	429.48
387.568	446.2
387.948	429.48
388.328	456.82
388.707	436.03
389.087	443.49
389.466	443.72
389.846	457.05
390.225	464.28
390.605	462.02
390.984	466.77
391.363	485.3
391.743	478.52
392.122	488.24
392.501	483.26
392.881	508.57
393.26	516.48
393.639	516.71
394.018	512.42
394.397	507.22
394.776	523.04
395.155	507.22
395.534	539.99
395.913	525.07
396.292	544.73
396.671	566.88
397.05	571.4
397.429	567.56
397.808	585.18
398.186	589.02
398.565	587.44
398.944	595.35
399.323	603.49
399.701	589.93
400.08	593.09
400.458	632.86
400.837	647.78
401.215	640.1
401.594	635.12
401.972	641.68
402.351	663.6
402.729	682.13
403.107	681.9
403.486	690.26
403.864	689.81
404.242	701.56
404.62	725.29
404.999	746.31
405.377	749.47
405.755	759.87
406.133	792.86
406.511	776.82
406.889	806.65
407.267	810.04
407.645	812.97
408.023	850.71
408.401	843.25
408.779	866.76
409.156	928.68
409.534	873.54
409.912	902.01
410.29	948.34
410.667	936.36
411.045	951.27
411.422	985.62
411.8	989.69
412.178	996.02
412.555	1035.11
412.933	1036.47
413.31	1083.7
413.687	1099.52
414.065	1121.44
414.442	1101.78
414.819	1150.37
415.197	1139.97
415.574	1188.1
415.951	1199.4
416.328	1182.45
416.705	1218.61
417.082	1224.71
417.46	1237.14
417.837	1259.97
418.214	1283.47
418.591	1292.73
418.967	1323.24
419.344	1342.68
419.721	1375.9
420.098	1344.03
420.475	1377.48
420.852	1376.35
421.228	1389.45
421.605	1430.81
421.982	1436.91
422.358	1466.06
422.735	1485.05
423.111	1489.34
423.488	1526.63
423.864	1531.6
424.241	1541.77
424.617	1559.62
424.994	1565.72
425.37	1605.27
425.746	1582.67
426.123	1641.2
426.499	1677.58
426.875	1640.97
427.251	1705.6
427.627	1716.9
428.003	1749.45
428.379	1768.43
428.756	1772.04
429.132	1820.86
429.507	1859.5
429.883	1879.61
430.259	1904.92
430.635	1902.89
431.011	1951.47
431.387	1991.25
431.763	1989.44
432.138	2037.35
432.514	2053.17
432.89	2088.87
433.265	2127.97
433.641	2114.41
434.016	2158.47
434.392	2192.82
434.767	2218.13
435.143	2234.4
435.518	2297.45
435.894	2298.58
436.269	2369.09
436.644	2357.34
437.02	2384.01
437.395	2410.67
437.77	2428.07
438.145	2465.81
438.52	2499.71
438.895	2535.87
439.271	2519.59
439.646	2585.58
440.021	2584
440.395	2621.74
440.77	2600.95
441.145	2647.5
441.52	2718.23
441.895	2681.17
442.27	2705.35
442.645	2760.27
443.019	2782.41
443.394	2757.33
443.769	2820.38
444.143	2795.75
444.518	2855.86
444.892	2851.11
445.267	2898.34
445.641	2886.14
446.016	2931.56
446.39	2944.44
446.764	2959.36
447.139	3008.4
447.513	3044.78
447.887	3027.15
448.262	3029.64
448.636	3043.42
449.01	3078.68
449.384	3106.47
449.758	3134.95
450.132	3193.25
450.506	3195.28
450.88	3220.59
451.254	3241.84
451.628	3320.93
452.002	3365.22
452.376	3307.14
452.75	3423.07
453.123	3414.94
453.497	3460.59
453.871	3472.79
454.244	3594.37
454.618	3588.04
454.992	3602.96
455.365	3621.49
455.739	3725.89
456.112	3735.38
456.486	3796.4
456.859	3880.46
457.232	3908.48
457.606	3900.8
457.979	3974.7
458.352	4082.27
458.725	4098.54
459.099	4132.43
459.472	4260.34
459.845	4272.32
460.218	4276.38
460.591	4293.79
460.964	4345.54
461.337	4433.22
461.71	4513.44
462.083	4562.48
462.456	4582.82
462.829	4613.1
463.201	4713.89
463.574	4758.18
463.947	4781.23
464.32	4856.71
464.692	4868.46
465.065	4988.68
465.438	5029.36
465.81	5145.51
466.183	5196.36
466.555	5308
466.928	5297.6
467.3	5287.88
467.672	5412.63
468.045	5577.82
468.417	5576.01
468.789	5629.12
469.161	5684.71
469.534	5800.41
469.906	5937.36
470.278	5923.35
470.65	6005.15
471.022	6129.22
471.394	6249.21
471.766	6325.6
472.138	6402.43
472.51	6524.91
472.882	6611.24
473.253	6663.21
473.625	6717.9
473.997	6917.22
474.369	6978.46
474.74	7056.2
475.112	7196.31
475.484	7319.24
475.855	7419.13
476.227	7450.09
476.598	7711.55
476.97	7790.87
477.341	7901.37
477.713	8033.8
478.084	8081.48
478.455	8316.5
478.827	8394.69
479.198	8657.06
479.569	8640.11
479.94	8907.68
480.311	9008.24
480.682	9272.41
481.053	9399.87
481.424	9590.6
481.795	9671.95
482.166	9823.36
482.537	9982.68
482.908	10152.61
483.279	10179.73
483.65	10515.32
484.021	10666.73
484.391	10724.8
484.762	10894.06
485.133	10932.25
485.503	11205.69
485.874	11417.89
486.244	11452.24
486.615	11654.95
486.985	11840.25
487.356	12081.6
487.726	12132.9
488.097	12372.9
488.467	12441.14
488.837	12705.54
489.207	12795.48
489.578	13045.65
489.948	13139.43
490.318	13284.96
490.688	13458.29
491.058	13610.15
491.428	13883.59
491.798	13941.89
492.168	14164.71
492.538	14247.65
492.908	14470.92
493.278	14633.85
493.648	14652.61
494.017	14860.51
494.387	14973.28
494.757	15172.82
495.126	15213.72
495.496	15348.86
495.866	15560.38
496.235	15679.25
496.605	15813.03
496.974	15872.01
497.344	16123.3
497.713	16167.82
498.082	16324.43
498.452	16522.84
498.821	16587.02
499.19	16607.13
499.559	16814.59
499.928	16983.85
500.298	17035.37
500.667	17200.56
501.036	17204.18
501.405	17367.57
501.774	17390.16
502.143	17600.33
502.512	17721.91
502.88	17895.91
503.249	17917.83
503.618	18106.08
503.987	18183.59
504.356	18321.21
504.724	18388.56
505.093	18576.35
505.462	18659.51
505.83	18756
506.199	18988.77
506.567	19263.11
506.936	19180.63
507.304	19312.15
507.672	19477.57
508.041	19550.11
508.409	19655.64
508.777	19897.22
509.145	20058.79
509.514	20084.33
509.882	20281.16
510.25	20391.89
510.618	20482.06
510.986	20600.93
511.354	20804.99
511.722	20957.08
512.09	21149.84
512.458	21231.65
512.826	21400
513.193	21478.19
513.561	21481.58
513.929	21868.69
514.297	21934
514.664	22156.82
515.032	22255.35
515.4	22395.91
515.767	22594.32
516.135	22707.31
516.502	22599.52
516.869	23116.79
517.237	23170.58
517.604	23227.98
517.972	23530.79
518.339	23651.69
518.706	23738.47
519.073	23856.66
519.44	23949.54
519.808	24418.68
520.175	24355.63
520.542	24588.17
520.909	24742.29
521.276	24820.25
521.643	25093.01
522.009	25229.05
522.376	25525.77
522.743	25690.96
523.11	25974.57
523.477	26161.91
523.843	26358.06
524.21	26659.98
524.577	26786.3
524.943	26970.03
525.31	27090.25
525.676	27333.63
526.043	27482.1
526.409	27575.89
526.776	27961.41
527.142	27997.79
527.508	28145.14
527.874	28491.34
528.241	28696.53
528.607	28664.44
528.973	28984.89
529.339	29018.33
529.705	29332.45
530.071	29421.03
530.437	29670.52
530.803	29879.33
531.169	30050.85
531.535	29966.33
531.901	30237.28
532.267	30281.8
532.632	30541.23
532.998	30708.23
533.364	30861.9
533.73	31107.32
534.095	31240.65
534.461	31158.62
534.826	31523.13
535.192	31759.05
535.557	31957.69
535.923	31767.87
536.288	31856.68
536.653	32157.69
537.019	32105.71
537.384	32280.62
537.749	32476.32
538.114	32546.38
538.479	32660.27
538.845	32813.94
539.21	32764.9
539.575	33028.4
539.94	33032.24
540.305	33396.52
540.67	33274.49
541.034	33393.81
541.399	33481.27
541.764	33658.44
542.129	33756.74
542.494	33846.45
542.858	34031.08
543.223	34168.48
543.587	34310.4
543.952	34319.21
544.316	34425.65
544.681	34529.37
545.045	34705.19
545.41	34819.76
545.774	35036.25
546.138	35008.23
546.503	35024.95
546.867	35172.75
547.231	35412.52
547.595	35473.53
547.959	35495.9
548.324	35670.14
548.688	35872.62
549.052	35944.7
549.416	35966.17
549.779	35999.17
550.143	36270.57
550.507	36434.18
550.871	36401.42
551.235	36430.57
551.599	36768.41
551.962	36846.6
552.326	36967.5
552.689	37288.62
553.053	37205.69
553.417	37222.86
553.78	37738.33
554.143	37574.72
554.507	37894.03
554.87	37997.53
555.234	38301.03
555.597	38110.3
555.96	38360.01
556.323	38403.85
556.686	38529.95
557.05	38749.6
557.413	38845.87
557.776	38939.88
558.139	39172.19
558.502	39391.17
558.865	39506.64
559.228	39754.32
559.59	39852.17
559.953	40034.09
560.316	40401.54
560.679	40300.3
561.041	40681.98
561.404	40774.41
561.767	41088.52
562.129	40890.79
562.492	41356.09
562.854	41294.39
563.217	41374.62
563.579	41670.43
563.941	41916.98
564.304	42013.02
564.666	42252.56
565.028	42310.64
565.39	42404.65
565.753	42702.04
566.115	42797.41
566.477	43067
566.839	43086.21
567.201	43354.68
567.563	43302.25
567.925	43572.98
568.287	43671.51
568.648	43804.16
569.01	44045.51
569.372	44368.44
569.734	44234.2
570.095	44523.91
570.457	44541.99
570.819	44679.62
571.18	44604.59
571.542	45011.81
571.903	44979.27
572.265	45292.48
572.626	45332.48
572.987	45412.03
573.349	45513.04
573.71	45606.15
574.071	45727.95
574.432	45911.67
574.794	46084.55
575.155	46058.79
575.516	46020.15
575.877	46220.59
576.238	46257.2
576.599	46412.45
576.96	46474.82
577.32	46524.31
577.681	46619.9
578.042	46761.82
578.403	46860.12
578.763	46872.1
579.124	46884.76
579.485	46969.73
579.845	47109.61
580.206	47027.35
580.566	47078.65
580.927	47049.27
581.287	47356.38
581.648	47087.69
582.008	47426.89
582.368	47192.77
582.728	47325.42
583.089	47251.07
583.449	47267.8
583.809	47294.46
584.169	47374.01
584.529	47372.2
584.889	47632.76
585.249	47390.73
585.609	47145.77
585.969	47480.67
586.329	47395.25
586.688	47394.8
587.048	47443.16
587.408	47368.81
587.768	47361.13
588.127	47315.93
588.487	47241.13
588.846	47691.06
589.206	47376.72
589.565	47351.41
589.925	47635.92
590.284	47471.18
590.643	47461.24
591.003	47567
591.362	47613.1
591.721	47617.39
592.08	47530.39
592.44	47639.76
592.799	47675.24
593.158	47501.91
593.517	47649.71
593.876	47662.14
594.235	47658.75
594.593	47609.03
594.952	47714.79
595.311	47535.13
595.67	47646.77
596.029	47837.95
596.387	47868.23
596.746	47852.64
597.104	47709.59
597.463	47843.6
597.822	47951.62
598.18	47832.75
598.538	47855.35
598.897	47936.03
599.255	47655.58
599.613	48364.49
599.972	48004.95
600.33	48051.96
600.688	48122.92
601.046	48039.3
601.404	48231.39
601.762	48060.54
602.12	48382.8
602.478	48352.06
602.836	48397.94
603.194	48274.1
603.552	48318.84
603.91	48231.16
604.268	48381.89
604.625	48303.93
604.983	48433.42
605.341	48299.41
605.698	48447.43
606.056	48562.45
606.413	48437.03
606.771	48594.99
607.128	48644.94
607.485	48493.75
607.843	48549.8
608.2	48707.31
608.557	48863.91
608.914	48773.29
609.272	48933.29
609.629	49057.58
609.986	48974.87
610.343	48993.4
610.7	49122.89
611.057	49034.3
611.414	49044.7
611.771	49107.3
612.127	49284.24
612.484	49242.89
612.841	49313.62
613.198	49176.67
613.554	49310.45
613.911	49382.77
614.267	49408.53
614.624	49373.73
614.98	49454.63
615.337	49564.01
615.693	49635.64
616.05	49480.62
616.406	49749.99
616.762	49613.72
617.118	49524.91
617.475	49582.54
617.831	49635.64
618.187	49707.51
618.543	49720.39
618.899	49958.57
619.255	49892.59
619.611	49797.67
619.967	49911.34
620.323	50023.66
620.678	49872.25
621.034	49807.39
621.39	49860.04
621.746	49794.28
622.101	50098.46
622.457	49864.34
622.812	49874.28
623.168	49965.58
623.523	50092.81
623.879	50142.52
624.234	49882.19
624.589	49985.69
624.945	50060.94
625.3	50079.7
625.655	50025.92
626.01	50056.42
626.365	50052.36
626.72	50067.5
627.075	49923.32
627.43	49956.09
627.785	49750.22
628.14	49870.67
628.495	49971.91
628.85	49862.53
629.205	49849.42
629.559	50015.52
629.914	49734.17
630.269	49762.42
630.623	49797.9
630.978	49571.92
631.332	49768.75
631.687	49720.39
632.041	49540.96
632.396	49741.86
632.75	49571.69
633.104	49622.99
633.459	49398.81
633.813	49494.63
634.167	49443.33
634.521	49374.41
634.875	49408.98
635.229	49398.36
635.583	49228.42
635.937	49239.04
636.291	49083.79
636.645	49179.84
636.999	49022.78
637.352	48983.23
637.706	48808.1
638.06	49015.77
638.413	48854.87
638.767	48785.04
639.121	48838.38
639.474	48594.09
639.828	48759.96
640.181	48656.91
640.534	48640.42
640.888	48544.37
641.241	48420.76
641.594	48574.65
641.947	48682.22
642.301	48391.38
642.654	48401.55
643.007	48386.19
643.36	48282.01
643.713	48331.72
644.066	48366.98
644.419	48160.65
644.771	47996.14
645.124	47702.36
645.477	47594.79
645.83	47212.43
646.182	47104.64
646.535	46851.99
646.888	47035.71
647.24	46780.13
647.593	47071.87
647.945	46780.8
648.298	46637.53
648.65	46665.78
649.002	46414.71
649.355	46630.3
649.707	46550.98
650.059	46766.57
650.411	47140.79
650.763	47304.86
651.115	47569.71
651.467	47363.84
651.819	47423.95
652.171	47344.4
652.523	47178.08
652.875	47193.9
653.227	46974.02
653.578	47308.02
653.93	47138.31
654.282	47042.49
654.633	46942.38
654.985	46934.25
655.337	46969.27
655.688	46952.78
656.039	47025.32
656.391	46803.85
656.742	46799.56
657.094	46823.51
657.445	46936.51
657.796	46744.19
658.147	46665.1
658.498	46636.4
658.849	46738.09
659.2	46634.37
659.551	46631.66
659.902	46622.16
660.253	46658.1
660.604	46653.12
660.955	46350.98
661.306	46651.09
661.656	46480.92
662.007	46501.49
662.358	46428.04
662.708	46470.3
663.059	46422.17
663.409	46238.67
663.76	46467.59
664.11	46349.85
664.461	46410.87
664.811	46373.58
665.161	46303.98
665.511	46315.73
665.862	46236.19
666.212	46221.04
666.562	46351.44
666.912	46132.01
667.262	46175.62
667.612	46236.19
667.962	46152.57
668.312	46068.05
668.662	46217.43
669.011	46173.36
669.361	45980.15
669.711	46006.36
670.06	46014.72
670.41	45904.89
670.76	45956.87
671.109	45882.07
671.459	45865.35
671.808	45915.52
672.157	45988.73
672.507	45628.97
672.856	45677.56
673.205	45729.53
673.554	45871.22
673.904	45645.92
674.253	45754.62
674.602	45664
674.951	45226.95
675.3	45033.73
675.649	45608.41
675.998	45532.7
676.346	45502.65
676.695	45575.19
677.044	45384.68
677.393	45327.51
677.741	45465.36
678.09	45240.05
678.438	45146.04
678.787	45490.44
679.135	45208.87
679.484	44962.09
679.832	45262.88
680.181	44955.99
680.529	45104.01
680.877	44878.03
681.225	44820.86
681.573	45011.58
681.922	44565.27
682.27	44681.88
682.618	44655.89
682.966	44531.6
683.314	44619.28
683.661	44423.8
684.009	44351.94
684.357	44290.47
684.705	44172.51
685.053	44186.52
685.4	44191.27
685.748	44000.09
686.095	44010.26
686.443	43819.07
686.79	43565.3
687.138	43739.3
687.485	43855.23
687.832	43495.47
688.18	43652.52
688.527	43300.67
688.874	43469.48
689.221	43265.42
689.568	43018.42
689.915	42977.06
690.262	43105.65
690.609	42888.02
690.956	42738.88
691.303	42779.1
691.65	42674.7
691.997	42468.6
692.344	42387.02
692.69	42311.09
693.037	42320.36
693.383	42131.89
693.73	42122.17
694.077	41801.05
694.423	41898.45
694.769	41706.14
695.116	41568.96
695.462	41597.66
695.808	41573.94
696.155	41575.29
696.501	41221.63
696.847	41326.94
697.193	40746.61
697.539	41187.28
697.885	40805.82
698.231	40718.14
698.577	40649.21
698.923	40577.13
699.269	40354.08
699.614	40186.85
699.96	40149.57
700.306	40141.43
700.651	40005.16
700.997	39874.77
701.342	39917.48
701.688	39565.4
702.033	39382.58
702.379	39650.6
702.724	39415.57
703.069	39512.29
703.415	38915.7
703.76	39038.86
704.105	38972.87
704.45	38924.29
704.795	38792.77
705.14	38596.39
705.485	38657.85
705.83	38448.14
706.175	38533.34
706.52	38423.74
706.865	38283.4
707.209	38246.11
707.554	38113.69
707.899	38171.31
708.243	37833.02
708.588	37953.69
708.932	37648.84
709.277	37698.33
709.621	37486.36
709.966	37322.07
710.31	37447.72
710.654	37014.06
710.998	36946.71
711.342	37008.41
711.687	36932.48
712.031	36874.4
712.375	36838.92
712.719	36858.58
713.063	36725.48
713.407	36874.62
713.75	36565.48
714.094	36528.64
714.438	36397.8
714.782	36466.05
715.125	36263.79
715.469	36377.69
715.812	36049.56
716.156	35886.85
716.499	35896.8
716.843	35857.48
717.186	35666.75
717.53	35906.29
717.873	35756.91
718.216	35738.61
718.559	35661.1
718.902	35444.83
719.246	35437.83
719.589	35329.13
719.932	35231.5
720.275	35137.27
720.617	35127.32
720.96	35119.87
721.303	35049.59
721.646	35078.51
721.989	34678.3
722.331	35009.59
722.674	34793.55
723.016	34886.43
723.359	34611.63
723.701	34572.54
724.044	34434.24
724.386	34350.17
724.729	34435.14
725.071	34347.91
725.413	34320.57
725.755	34284.64
726.097	34235.6
726.439	33896.17
726.782	33875.38
727.124	34168.71
727.465	33917.19
727.807	33869.73
728.149	33809.39
728.491	33606.24
728.833	33713.8
729.175	33621.15
729.516	33383.87
729.858	33502.96
730.199	33591.55
730.541	33535.05
730.882	33319.91
731.224	33473.81
731.565	33095.74
731.906	33075.4
732.248	33271.33
732.589	33061.16
732.93	32914.95
733.271	32945.01
733.612	32932.58
733.953	32908.85
734.294	32809.65
734.635	32814.84
734.976	32702.08
735.317	32599.03
735.658	32540.95
735.999	32709.99
736.339	32489.43
736.68	32574.62
737.021	32431.12
737.361	32175.54
737.702	32368.08
738.042	32222.54
738.383	32110.68
738.723	32364.91
739.063	32069.1
739.404	32128.76
739.744	32013.06
740.084	31925.15
740.424	31839.5
740.764	31935.77
741.104	32012.38
741.444	31700.07
741.784	31584.82
742.124	31759.73
742.464	31566.74
742.804	31564.71
743.143	31509.57
743.483	31489.45
743.823	31286.07
744.162	31282.91
744.502	31408.33
744.841	31312.74
745.181	31317.93
745.52	31049.24
745.86	31089.92
746.199	30990.71
746.538	30868.91
746.877	31098.73
747.216	30952.07
747.556	30726.99
747.895	30883.14
748.234	30830.26
748.573	30668.91
748.911	30612.19
749.25	30582.81
749.589	30444.28
749.928	30402.25
750.267	30462.59
750.605	30332.42
750.944	30154.12
751.283	30087.01
751.621	30253.78
751.96	29925.2
752.298	30017.63
752.636	29969.95
752.975	29861.47
753.313	29747.35
753.651	29872.1
753.989	29620.35
754.327	29585.32
754.666	29583.06
755.004	29569.28
755.342	29431.88
755.679	29471.88
756.017	29244.54
756.355	29260.81
756.693	29158.22
757.031	29153.02
757.368	29030.31
757.706	29080.7
758.044	28905.57
758.381	28882.74
758.719	28810.43
759.056	28651.79
759.394	28627.61
759.731	28365.92
760.068	28392.36
760.405	28240.5
760.743	28259.93
761.08	28207.73
761.417	28032.82
761.754	28009.32
762.091	27929.77
762.428	27898.81
762.765	27528.43
763.102	27774.98
763.438	27487.75
763.775	27464.7
764.112	27459.5
764.449	27439.39
764.785	27260.19
765.122	27048.89
765.458	27038.95
765.795	27113.52
766.131	26935.22
766.467	26756.02
766.804	26700.88
767.14	26535.46
767.476	26537.04
767.812	26364.62
768.148	26377.27
768.485	26243.49
768.821	26102.93
769.157	26064.51
769.492	26013.67
769.828	25921.24
770.164	25781.36
770.5	25721.02
770.836	25638.31
771.171	25459.1
771.507	25337.53
771.842	25257.98
772.178	25329.16
772.513	25188.15
772.849	25155.84
773.184	24919.23
773.519	25011.88
773.855	24883.3
774.19	24708.84
774.525	24612.8
774.86	24628.62
775.195	24552.91
775.53	24559.69
775.865	24339.36
776.2	24176.88
776.535	24002.87
776.87	24082.64
777.205	23868.64
777.539	23876.55
777.874	23813.27
778.209	23706.83
778.543	23568.98
778.878	23448.08
779.212	23444.47
779.547	23221.2
779.881	23368.99
780.215	23124.7
780.55	23282.89
780.884	23013.97
781.218	22907.76
781.552	22879.06
781.886	22707.54
782.22	22576.24
782.554	22525.85
782.888	22385.51
783.222	22361.78
783.556	22216.25
783.889	22158.4
784.223	22034.56
784.557	22015.58
784.89	21971.06
785.224	21866.43
785.557	21725.42
785.891	21664.18
786.224	21647.68
786.558	21581.92
786.891	21417.4
787.224	21324.52
787.557	21379.89
787.891	21239.33
788.224	21265.54
788.557	21153.68
788.89	21068.49
789.223	21043.85
789.556	20898.55
789.888	20803.18
790.221	20714.14
790.554	20544.66
790.887	20570.65
791.219	20619.68
791.552	20489.74
791.884	20455.39
792.217	20416.75
792.549	20262.86
792.882	20101.05
793.214	20097.89
793.546	20016.99
793.879	19904.22
794.211	19826.26
794.543	19932.02
794.875	19700.61
795.207	19786.94
795.539	19681.4
795.871	19662.42
796.203	19440.73
796.535	19436.89
796.867	19346.5
797.198	19361.64
797.53	19400.28
797.862	19127.07
798.193	19210
798.525	19099.5
798.856	19093.4
799.188	18963
799.519	18861.31
799.85	18791.71
800.182	18785.83
800.513	18749.9
800.844	18444.15
801.175	18580.87
801.506	18525.05
801.837	18439.63
802.168	18428.55
802.499	18366.41
802.83	18240.99
803.161	18220.2
803.491	18178.39
803.822	18158.96
804.153	18079.41
804.483	17937.95
804.814	17806.88
805.145	17805.75
805.475	17973.43
805.805	17757.39
806.136	17834.67
806.466	17839.19
806.796	17775.24
807.126	17533.21
807.457	17540.22
807.787	17503.83
808.117	17422.25
808.447	17350.62
808.777	17427
809.107	17254.57
809.436	17251.41
809.766	17096.39
810.096	17097.06
810.426	17079.66
810.755	17083.28
811.085	17068.59
811.414	16951.98
811.744	16805.77
812.073	16789.95
812.403	16840.35
812.732	16709.73
813.061	16652.33
813.39	16604.65
813.719	16629.96
814.049	16650.52
814.378	16481.71
814.707	16524.42
815.036	16569.62
815.365	16437.65
815.693	16187.26
816.022	16282.85
816.351	16174.38
816.68	16099.58
817.008	16203.98
817.337	16046.24
817.665	15966.02
817.994	16017.09
818.322	16034.72
818.651	15925.12
818.979	15895.97
819.307	15949.98
819.636	15801.51
819.964	15725.35
820.292	15795.86
820.62	15793.14
820.948	15643.09
821.276	15778
821.604	15741.85
821.932	15711.34
822.259	15745.01
822.587	15695.07
822.915	15622.08
823.243	15678.34
823.57	15629.08
823.898	15699.81
824.225	15514.28
824.553	15573.94
824.88	15518.8
825.207	15699.59
825.535	15594.73
825.862	15540.5
826.189	15609.42
826.516	15679.7
826.843	15666.14
827.17	15700.94
827.497	15580.95
827.824	15672.47
828.151	15651.45
828.478	15593.83
828.805	15686.48
829.131	15560.61
829.458	15620.27
829.785	15388.18
830.111	15475.86
830.438	15682.41
830.764	15548.86
831.09	15566.03
831.417	15496.88
831.743	15560.16
832.069	15585.69
832.395	15418.69
832.722	15481.06
833.048	15380.27
833.374	15441.51
833.7	15313.83
834.026	15381.63
834.351	15422.53
834.677	15369.65
835.003	15383.89
835.329	15376.88
835.654	15439.26
835.98	15270.45
836.306	15298.47
836.631	15200.17
836.956	15274.97
837.282	15205.14
837.607	15172.14
837.932	15168.08
838.258	15083.56
838.583	15092.6
838.908	15057.12
839.233	15034.75
839.558	15075.65
839.883	14998.81
840.208	14952.94
840.533	15028.42
840.858	14905.71
841.182	14907.52
841.507	14823.9
841.832	14799.72
842.156	14878.59
842.481	14770.57
842.805	14755.66
843.13	14688.31
843.454	14736
843.778	14527.41
844.103	14564.02
844.427	14567.87
844.751	14610.12
845.075	14468.43
845.399	14424.37
845.723	14279.74
846.047	14327.87
846.371	14203.81
846.695	14232.06
847.019	14099.86
847.343	14098.05
847.666	13994.77
847.99	13890.14
848.313	14011.95
848.637	13865.96
848.96	13842.46
849.284	13787.1
849.607	13688.11
849.931	13736.25
850.254	13530.83
850.577	13458.29
850.9	13415.58
851.223	13382.13
851.546	13245.64
851.869	13239.76
852.192	13276.15
852.515	13160.9
852.838	13098.75
853.161	13026.44
853.483	13020.56
853.806	12946.67
854.129	12948.02
854.451	12958.64
854.774	12834.35
855.096	12808.14
855.419	12795.26
855.741	12823.05
856.063	12746.9
856.385	12654.24
856.708	12679.1
857.03	12570.86
857.352	12596.62
857.674	12491.99
857.996	12424.65
858.318	12367.92
858.64	12449.5
858.961	12342.16
859.283	12336.51
859.605	12203.18
859.926	12347.58
860.248	12231.66
860.57	12131.77
860.891	12205.89
861.212	12030.53
861.534	12095.84
861.855	12090.19
862.176	12043.19
862.498	12014.26
862.819	11974.26
863.14	11991.21
863.461	11919.12
863.782	11887.71
864.103	11882.29
864.424	11814.04
864.745	11906.47
865.065	11817.2
865.386	11777.2
865.707	11752.8
866.027	11746.7
866.348	11748.5
866.668	11729.3
866.989	11647.04
867.309	11561.62
867.63	11564.33
867.95	11504.9
868.27	11458.57
868.59	11534.72
868.91	11514.61
869.23	11497.44
869.55	11391.9
869.87	11476.42
870.19	11529.08
870.51	11489.98
870.83	11412.69
871.15	11356.42
871.469	11354.84
871.789	11378.34
872.109	11305.35
872.428	11274.39
872.748	11275.07
873.067	11238.46
873.386	11240.5
873.706	11295.41
874.025	11048.86
874.344	11086.38
874.663	11163.89
874.982	11131.12
875.301	11122.76
875.62	11004.57
875.939	11032.14
876.258	11031.01
876.577	10960.05
876.896	10980.16
877.214	10983.1
877.533	10954.18
877.852	11011.57
878.17	10905.36
878.489	11025.59
878.807	10950.56
879.125	10862.43
879.444	10867.4
879.762	10867.62
880.08	10879.15
880.398	10771.58
880.716	10863.33
881.034	10770.45
881.352	10805.48
881.67	10713.73
881.988	10758.47
882.306	10677.35
882.624	10630.34
882.941	10591.25
883.259	10569.55
883.577	10611.81
883.894	10550.57
884.212	10466.96
884.529	10565.48
884.846	10493.85
885.164	10471.02
885.481	10475.09
885.798	10511.7
886.115	10419.05
886.432	10368.88
886.75	10347.41
887.067	10294.31
887.383	10286.17
887.7	10347.86
888.017	10216.79
888.334	10179.51
888.651	10237.36
888.967	10196
889.284	10197.81
889.6	10100.64
889.917	10083.24
890.233	10050.47
890.55	9996.01
890.866	10094.54
891.182	10030.81
891.498	10044.59
891.815	9954.2
892.131	9899.29
892.447	9868.55
892.763	9807.76
893.079	9847.76
893.395	9779.52
893.71	9801.44
894.026	9712.63
894.342	9737.03
894.657	9683.7
894.973	9579.52
895.289	9624.49
895.604	9597.15
895.92	9535.46
896.235	9490.94
896.55	9499.52
896.865	9479.19
897.181	9476.25
897.496	9351.28
897.811	9285.52
898.126	9345.86
898.441	9262.69
898.756	9226.99
899.071	9204.16
899.386	9128.91
899.7	9102.02
900.015	9052.3
900.33	9003.49
900.644	8970.05
900.959	9058.63
901.273	9004.4
901.588	8912.87
901.902	8959.88
902.216	8907.22
902.531	8869.94
902.845	8753.33
903.159	8791.75
903.473	8732.31
903.787	8752.43
904.101	8695.48
904.415	8635.59
904.729	8618.19
905.042	8542.71
905.356	8550.62
905.67	8524.18
905.984	8538.65
906.297	8504.52
906.611	8336.62
906.924	8384.75
907.237	8340.23
907.551	8308.37
907.864	8348.59
908.177	8321.93
908.491	8276.05
908.804	8190.63
909.117	8172.78
909.43	8160.58
909.743	8102.72
910.056	8011.65
910.368	8011.65
910.681	7974.82
910.994	7997.42
911.307	7882.17
911.619	7842.84
911.932	7874.03
912.244	7798.1
912.557	7830.64
912.869	7748.84
913.181	7750.19
913.494	7730.76
913.806	7642.4
914.118	7623.87
914.43	7613.47
914.742	7595.62
915.054	7539.8
915.366	7556.52
915.678	7464.32
915.99	7475.85
916.302	7316.08
916.613	7386.13
916.925	7420.03
917.236	7369.41
917.548	7279.7
917.859	7335.51
918.171	7217.1
918.482	7269.75
918.794	7207.83
919.105	7155.41
919.416	7131.45
919.727	7064.56
920.038	7077.22
920.349	7000.83
920.66	6971.23
920.971	6997.9
921.282	6963.55
921.593	6971.23
921.903	6887.39
922.214	6841.29
922.525	6798.13
922.835	6808.52
923.146	6769.88
923.456	6726.94
923.767	6729.43
924.077	6691.24
924.387	6703.21
924.697	6568.3
925.008	6605.36
925.318	6591.35
925.628	6540.96
925.938	6546.38
926.248	6420.96
926.558	6385.26
926.867	6416.44
927.177	6402.88
927.487	6329.44
927.796	6270.68
928.106	6294.64
928.416	6272.72
928.725	6272.04
929.034	6206.96
929.344	6260.06
929.653	6177.58
929.962	6133.96
930.271	6109.33
930.581	6057.58
930.89	6085.15
931.199	6034.76
931.508	6003.57
931.817	6022.33
932.125	5947.98
932.434	5882.9
932.743	5930.8
933.051	5866.85
933.36	5886.51
933.669	5834.08
933.977	5843.35
934.286	5792.05
934.594	5722.9
934.902	5718.83
935.21	5646.07
935.519	5689.68
935.827	5674.31
936.135	5578.05
936.443	5579.85
936.751	5544.37
937.059	5563.81
937.367	5522.23
937.674	5527.88
937.982	5478.61
938.29	5451.27
938.597	5482.23
938.905	5346.64
939.213	5444.72
939.52	5389.35
939.827	5364.49
940.135	5338.5
940.442	5265.74
940.749	5253.08
941.056	5255.79
941.363	5214.21
941.67	5211.73
941.977	5194.78
942.284	5166.98
942.591	5152.07
942.898	5124.95
943.205	5125.18
943.511	5094.22
943.818	5062.58
944.125	5000.21
944.431	5043.14
944.738	4983.94
945.044	5016.25
945.35	4922.24
945.657	4961.56
945.963	4922.92
946.269	4879.53
946.575	4869.14
946.881	4790.27
947.187	4830.72
947.493	4778.74
947.799	4814.68
948.105	4768.12
948.41	4786.88
948.716	4743.27
949.022	4679.31
949.327	4678.63
949.633	4612.87
949.938	4630.5
950.244	4608.13
950.549	4590.5
950.854	4616.04
951.16	4571.52
951.465	4527.68
951.77	4516.6
952.075	4464.18
952.38	4458.3
952.685	4413.1
952.99	4436.15
953.294	4446.55
953.599	4394.12
953.904	4385.31
954.209	4341.92
954.513	4319.77
954.818	4348.47
955.122	4282.26
955.426	4313.45
955.731	4289.72
956.035	4253.11
956.339	4220.57
956.643	4207.69
956.948	4179.21
957.252	4180.34
957.556	4143.05
957.86	4124.07
958.163	4165.65
958.467	4160.68
958.771	4028.48
959.075	4083.17
959.378	4053.11
959.682	4016.5
959.985	4002.49
960.289	4006.11
960.592	3978.77
960.896	3983.29
961.199	3979.22
961.502	3945.32
961.805	3900.8
962.108	3876.85
962.411	3837.53
962.714	3847.7
963.017	3800.69
963.32	3889.28
963.623	3797.98
963.926	3784.19
964.228	3729.05
964.531	3758.88
964.833	3737.42
965.136	3743.52
965.438	3725.66
965.741	3679.56
966.043	3669.85
966.345	3671.88
966.648	3632.56
966.95	3598.89
967.252	3581.49
967.554	3580.58
967.856	3585.1
968.158	3532.45
968.46	3581.04
968.761	3523.18
969.063	3514.6
969.365	3538.55
969.666	3463.52
969.968	3454.94
970.269	3442.51
970.571	3428.72
970.872	3376.3
971.174	3423.3
971.475	3436.86
971.776	3392.79
972.077	3335.62
972.378	3311.89
972.679	3368.84
972.98	3347.14
973.281	3314.15
973.582	3303.75
973.883	3293.81
974.183	3302.85
974.484	3262.4
974.785	3272.34
975.085	3235.06
975.386	3225.56
975.686	3240.25
975.986	3202.97
976.287	3178.56
976.587	3116.64
976.887	3175.62
977.187	3141.05
977.487	3113.48
977.787	3092.01
978.087	3095.85
978.387	3074.83
978.687	3047.94
978.987	3048.62
979.286	3046.59
979.586	3012.01
979.885	3011.33
980.185	2989.19
980.484	2943.54
980.784	2958.45
981.083	2962.29
981.382	2931.56
981.682	2913.26
981.981	2926.59
982.28	2892.92
982.579	2876.65
982.878	2873.48
983.177	2879.13
983.475	2890.43
983.774	2825.12
984.073	2810.66
984.372	2786.71
984.67	2814.28
984.969	2783.77
985.267	2750.32
985.566	2729.98
985.864	2728.63
986.162	2738.57
986.461	2711.45
986.759	2732.47
987.057	2689.31
987.355	2656.99
987.653	2657.22
987.951	2643.66
988.249	2635.75
988.547	2642.98
988.844	2637.78
989.142	2588.29
989.44	2590.33
989.737	2572.7
990.035	2575.86
990.332	2591.91
990.63	2529.76
990.927	2561.4
991.224	2538.13
991.521	2524.79
991.819	2504.45
992.116	2474.62
992.413	2470.78
992.71	2425.13
993.006	2449.54
993.303	2451.12
993.6	2418.81
993.897	2414.51
994.193	2419.48
994.49	2382.2
994.787	2389.43
995.083	2374.29
995.379	2379.94
995.676	2355.53
995.972	2359.37
996.268	2321.63
996.565	2346.72
996.861	2336.77
997.157	2309.88
997.453	2299.04
997.749	2296.78
998.044	2257.45
998.34	2218.13
998.636	2264.01
998.932	2220.17
999.227	2202.09
999.523	2225.59
999.818	2201.19
1000.114	2210.9
1000.409	2167.29
1000.704	2159.38
1001	2146.72
1001.295	2150.56
1001.59	2125.03
1001.885	2099.27
1002.18	2101.07
1002.475	2084.35
1002.77	2074.41
1003.065	2055.2
1003.359	2056.78
1003.654	2038.25
1003.949	2008.2
1004.243	2010.46
1004.538	2018.82
1004.832	2008.42
1005.127	1966.61
1005.421	1973.39
1005.715	1974.3
1006.009	1969.1
1006.304	1918.48
1006.598	1943.56
1006.892	1908.99
1007.186	1897.46
1007.48	1882.78
1007.773	1879.61
1008.067	1881.42
1008.361	1869.22
1008.655	1859.05
1008.948	1832.16
1009.242	1851.14
1009.535	1829.67
1009.829	1812.27
1010.122	1823.57
1010.415	1819.5
1010.708	1800.74
1011.001	1764.36
1011.295	1765.49
1011.588	1761.2
1011.881	1735.21
1012.173	1735.21
1012.466	1713.06
1012.759	1709.45
1013.052	1688.88
1013.344	1717.36
1013.637	1665.61
1013.93	1641.65
1014.222	1683.01
1014.514	1663.8
1014.807	1635.1
1015.099	1643.01
1015.391	1629.22
1015.683	1595.78
1015.976	1599.39
1016.268	1586.29
1016.56	1574.99
1016.851	1559.85
1017.143	1566.63
1017.435	1557.81
1017.727	1527.76
1018.018	1525.04
1018.31	1536.34
1018.602	1524.82
1018.893	1479.85
1019.185	1501.32
1019.476	1451.37
1019.767	1464.48
1020.058	1462.9
1020.35	1446.4
1020.641	1450.7
1020.932	1453.41
1021.223	1425.16
1021.514	1422.9
1021.804	1397.14
1022.095	1389.23
1022.386	1384.03
1022.677	1381.55
1022.967	1349.46
1023.258	1363.69
1023.548	1349.23
1023.839	1318.27
1024.129	1347.65
1024.419	1340.87
1024.709	1318.5
1025	1307.2
1025.29	1303.36
1025.58	1306.75
1025.87	1259.29
1026.16	1276.24
1026.449	1262.23
1026.739	1270.81
1027.029	1253.41
1027.319	1244.6
1027.608	1217.03
1027.898	1231.72
1028.187	1217.71
1028.477	1212.28
1028.766	1221.1
1029.055	1186.52
1029.344	1193.08
1029.634	1167.77
1029.923	1191.49
1030.212	1160.99
1030.501	1179.29
1030.79	1171.16
1031.078	1161.21
1031.367	1128.67
1031.656	1124.83
1031.945	1126.64
1032.233	1123.93
1032.522	1141.55
1032.81	1088.9
1033.099	1081.67
1033.387	1080.31
1033.675	1051.61
1033.963	1071.5
1034.251	1062.01
1034.54	1076.24
1034.828	1046.41
1035.116	1067.66
1035.403	1032.63
1035.691	1038.28
1035.979	1021.78
1036.267	1017.26
1036.554	1029.92
1036.842	1012.52
1037.129	1004.61
1037.417	981.78
1037.704	1002.35
1037.992	974.1
1038.279	952.86
1038.566	941.11
1038.853	941.11
1039.14	941.11
