Data from breadboard_black_back_FLMS001491_00034.txt Node
Date: Wed Feb 08 10:50:18 GMT 2017
User: dcchb
Spectrometer: FLMS00149
Trigger mode: 0
Integration Time (sec): 2.000000E-2
Scans to average: 10
Electric dark correction enabled: true
Nonlinearity correction enabled: false
Boxcar width: 0
XAxis mode: Wavelengths
Number of Pixels in Spectrum: 2048
>>>>>Begin Spectral Data<<<<<
341.393	-5.82
341.776	-5.82
342.16	-5.82
342.543	-68.42
342.927	-74.29
343.31	-57.12
343.693	-63.9
344.077	-87.62
344.46	-48.3
344.843	-56.67
345.226	-36.55
345.61	-21.86
345.993	-27.97
346.376	-3.56
346.759	9.32
347.142	26.95
347.525	37.34
347.908	61.98
348.291	68.3
348.674	96.33
349.057	103.33
349.44	118.02
349.823	125.02
350.206	147.62
350.588	206.6
350.971	204.8
351.354	233.5
351.737	236.21
352.119	245.25
352.502	253.16
352.884	276.21
353.267	276.89
353.65	290.44
354.032	288.41
354.414	295.64
354.797	316.21
355.179	331.57
355.562	335.87
355.944	315.08
356.326	301.97
356.709	362.53
357.091	333.61
357.473	329.09
357.855	335.64
358.238	337.67
358.62	351.46
359.002	338.8
359.384	352.14
359.766	352.82
360.148	358.92
360.53	356.21
360.912	333.61
361.294	330.9
361.676	329.31
362.057	350.78
362.439	353.27
362.821	338.58
363.203	348.3
363.584	339.03
363.966	323.89
364.348	344
364.729	343.55
365.111	333.83
365.493	333.83
365.874	331.12
366.256	342.65
366.637	343.32
367.019	310.56
367.4	330.67
367.781	342.87
368.163	331.57
368.544	339.03
368.925	341.06
369.306	336.77
369.688	338.35
370.069	343.55
370.45	347.84
370.831	329.54
371.212	348.97
371.593	330.44
371.974	360.72
372.355	356.21
372.736	357.56
373.117	374.51
373.498	368.18
373.879	322.76
374.26	342.65
374.641	362.53
375.021	351.46
375.402	345.36
375.783	358.92
376.163	380.84
376.544	391.01
376.925	371.57
377.305	374.06
377.686	380.61
378.066	371.12
378.447	381.06
378.827	386.49
379.208	371.12
379.588	397.11
379.968	385.58
380.349	396.2
380.729	383.55
381.109	398.92
381.489	405.47
381.87	396.43
382.25	406.6
382.63	411.35
383.01	386.04
383.39	424.9
383.77	406.6
384.15	417.45
384.53	432.36
384.91	413.38
385.29	407.05
385.67	430.55
386.049	428.29
386.429	417.45
386.809	442.08
387.189	426.49
387.568	438.69
387.948	442.98
388.328	456.32
388.707	466.94
389.087	454.96
389.466	461.06
389.846	473.26
390.225	466.48
390.605	463.55
390.984	461.29
391.363	475.3
391.743	463.32
392.122	495.41
392.501	511.23
392.881	491.79
393.26	480.27
393.639	496.54
394.018	499.7
394.397	531.79
394.776	502.87
395.155	518.91
395.534	508.29
395.913	527.73
396.292	520.49
396.671	531.79
397.05	517.56
397.429	532.92
397.808	548.74
398.186	537.22
398.565	534.28
398.944	547.84
399.323	559.59
399.701	524.79
400.08	556.43
400.458	580.83
400.837	573.15
401.215	614.05
401.594	561.4
401.972	573.6
402.351	604.33
402.729	598.23
403.107	617.22
403.486	602.53
403.864	619.93
404.242	610.44
404.62	629.19
404.999	633.49
405.377	612.02
405.755	639.59
406.133	647.27
406.511	645.01
406.889	684.11
407.267	657.89
407.645	707.38
408.023	681.39
408.401	693.6
408.779	709.87
409.156	699.02
409.534	703.77
409.912	733.82
410.29	732.47
410.667	734.95
411.045	748.51
411.422	748.06
411.8	769.08
412.178	764.1
412.555	790.32
412.933	774.5
413.31	785.35
413.687	800.94
414.065	806.59
414.442	814.5
414.819	835.06
415.197	843.88
415.574	861.95
415.951	860.82
416.328	869.86
416.705	875.74
417.082	886.36
417.46	882.07
417.837	878.23
418.214	882.52
418.591	923.65
418.967	916.42
419.344	912.12
419.721	955.51
420.098	951.44
420.475	941.05
420.852	943.31
421.228	980.6
421.605	986.92
421.982	978.56
422.358	987.38
422.735	1010.65
423.111	1007.49
423.488	1029.63
423.864	1042.97
424.241	1058.33
424.617	1065.34
424.994	1052.68
425.37	1073.93
425.746	1048.84
426.123	1107.82
426.499	1102.85
426.875	1108.05
427.251	1138.11
427.627	1144.89
428.003	1156.64
428.379	1173.36
428.756	1162.29
429.132	1228.72
429.507	1216.3
429.883	1223.53
430.259	1234.15
430.635	1259.46
431.011	1282.73
431.387	1283.41
431.763	1320.7
432.138	1326.58
432.514	1328.38
432.89	1339.46
433.265	1356.86
433.641	1405.67
434.016	1381.26
434.392	1446.57
434.767	1431.21
435.143	1442.96
435.518	1480.02
435.894	1496.29
436.269	1498.32
436.644	1533.35
437.02	1497.42
437.395	1515.95
437.77	1581.71
438.145	1594.14
438.52	1617.42
438.895	1582.39
439.271	1615.61
439.646	1624.65
440.021	1626.23
440.395	1702.84
440.77	1675.49
441.145	1687.24
441.52	1723.18
441.895	1705.1
442.27	1732.89
442.645	1729.73
443.019	1756.85
443.394	1758.2
443.769	1759.78
444.143	1767.47
444.518	1782.61
444.892	1790.52
445.267	1826.45
445.641	1854.7
446.016	1833
446.39	1860.57
446.764	1882.04
447.139	1851.31
447.513	1895.15
447.887	1899.89
448.262	1945.99
448.636	1941.93
449.01	1964.3
449.384	1959.1
449.758	2030.06
450.132	1998.2
450.506	2010.63
450.88	2027.57
451.254	2045.65
451.628	2077.06
452.002	2092.2
452.376	2124.29
452.75	2128.59
453.123	2111.41
453.497	2183.5
453.871	2201.13
454.244	2235.25
454.618	2260.34
454.992	2261.24
455.365	2316.38
455.739	2334.46
456.112	2348.47
456.486	2369.26
456.859	2417.17
457.232	2453.33
457.606	2472.08
457.979	2491.52
458.352	2544.4
458.725	2553.44
459.099	2566.32
459.472	2607.67
459.845	2651.51
460.218	2654.22
460.591	2689.93
460.964	2719.76
461.337	2779.64
461.71	2825.07
462.083	2847.44
462.456	2908.68
462.829	2877.49
463.201	2926.31
463.574	2948.68
463.947	2992.75
464.32	3077.26
464.692	3072.29
465.065	3092.63
465.438	3159.97
465.81	3169.69
466.183	3251.5
466.555	3284.94
466.928	3289.24
467.3	3338.73
467.672	3394.09
468.045	3501.21
468.417	3487.87
468.789	3503.47
469.161	3570.81
469.534	3601.32
469.906	3678.83
470.278	3703.01
470.65	3710.24
471.022	3840.18
471.394	3893.74
471.766	3909.56
472.138	3958.14
472.51	4091.47
472.882	4146.39
473.253	4145.71
473.625	4186.84
473.997	4339.38
474.369	4310
474.74	4366.95
475.112	4490.33
475.484	4575.53
475.855	4644.91
476.227	4650.1
476.598	4800.61
476.97	4794.73
477.341	4862.53
477.713	4976.87
478.084	5012.58
478.455	5163.76
478.827	5198.79
479.198	5361.5
479.569	5385.45
479.94	5549.06
480.311	5529.18
480.682	5683.97
481.053	5785.89
481.424	5882.16
481.795	5980.24
482.166	6057.52
482.537	6141.36
482.908	6238.54
483.279	6328.25
483.65	6413.45
484.021	6551.52
484.391	6619.09
484.762	6691.63
485.133	6817.05
485.503	6860.22
485.874	7062.24
486.244	7050.94
486.615	7163.71
486.985	7286.87
487.356	7414.78
487.726	7422.23
488.097	7701.32
488.467	7658.84
488.837	7824.94
489.207	7927.31
489.578	8063.8
489.948	8177.92
490.318	8242.33
490.688	8310.35
491.058	8410.23
491.428	8494.07
491.798	8583.11
492.168	8758.7
492.538	8825.59
492.908	8879.37
493.278	9013.6
493.648	9017.67
494.017	9156.2
494.387	9278
494.757	9309.19
495.126	9415.63
495.496	9529.52
495.866	9500.15
496.235	9701.72
496.605	9742.85
496.974	9770.42
497.344	9951.66
497.713	9955.73
498.082	9989.62
498.452	10154.14
498.821	10239.79
499.19	10224.65
499.559	10351.2
499.928	10408.37
500.298	10494.47
500.667	10703.05
501.036	10610.4
501.405	10676.61
501.774	10794.12
502.143	10865.76
502.512	10831.18
502.88	11004.74
503.249	11015.13
503.618	11162.7
503.987	11153.66
504.356	11254.68
504.724	11316.6
505.093	11467.1
505.462	11501
505.83	11470.72
506.199	11608.56
506.567	11845.39
506.936	11757.94
507.304	11913.19
507.672	12015.33
508.041	12037.48
508.409	12184.37
508.777	12275.89
509.145	12357.47
509.514	12375.1
509.882	12510.01
510.25	12548.65
510.618	12694.64
510.986	12708.65
511.354	12805.14
511.722	12937.12
512.09	13055.98
512.458	13048.07
512.826	13141.41
513.193	13270.22
513.561	13344.56
513.929	13456.2
514.297	13541.62
514.664	13713.82
515.032	13767.38
515.4	13860.26
515.767	13993.13
516.135	14001.04
516.502	13971.44
516.869	14210.3
517.237	14258.89
517.604	14261.15
517.972	14484.42
518.339	14584.31
518.706	14570.75
519.073	14728.71
519.44	14871.08
519.808	14965.09
520.175	15055.93
520.542	15181.13
520.909	15264.06
521.276	15292.54
521.643	15574.11
522.009	15677.38
522.376	15800.77
522.743	15848.45
523.11	16079.18
523.477	16186.98
523.843	16243.92
524.21	16354.2
524.577	16561.2
524.943	16701.09
525.31	16774.76
525.676	16852.27
526.043	17038.25
526.409	17141.53
526.776	17312.82
527.142	17403.44
527.508	17543.1
527.874	17613.15
528.241	17763.88
528.607	17832.58
528.973	17924.56
529.339	17978.34
529.705	18221.95
530.071	18344.88
530.437	18372
530.803	18520.93
531.169	18690.41
531.535	18732.22
531.901	18760.47
532.267	18926.11
532.632	19037.07
532.998	19023.29
533.364	19181.02
533.73	19225.54
534.095	19356.61
534.461	19424.18
534.826	19590.28
535.192	19631.4
535.557	19804.28
535.923	19762.7
536.288	19836.82
536.653	19960.21
537.019	19857.39
537.384	20055.57
537.749	20182.58
538.114	20229.81
538.479	20280.43
538.845	20428.9
539.21	20323.59
539.575	20563.36
539.94	20604.03
540.305	20838.38
540.67	20702.79
541.034	20852.84
541.399	20925.83
541.764	20898.26
542.129	20971.26
542.494	21044.7
542.858	21182.1
543.223	21265.26
543.587	21274.3
543.952	21307.52
544.316	21532.15
544.681	21512.49
545.045	21655.98
545.41	21739.82
545.774	21685.59
546.138	21798.58
546.503	21876.54
546.867	21969.42
547.231	22101.62
547.595	22096.42
547.959	22196.54
548.324	22269.08
548.688	22299.58
549.052	22418.45
549.416	22380.48
549.779	22534.15
550.143	22540.71
550.507	22733.7
550.871	22881.49
551.235	22832.45
551.599	23072.22
551.962	23080.13
552.326	23111.31
552.689	23290.97
553.053	23304.08
553.417	23283.96
553.78	23540
554.143	23650.96
554.507	23634.69
554.87	23807.11
555.234	24016.15
555.597	23991.29
555.96	23985.41
556.323	24078.97
556.686	24090.72
557.05	24271.73
557.413	24375.01
557.776	24422.24
558.139	24574.78
558.502	24589.69
558.865	24681.44
559.228	24885.28
559.59	24978.61
559.953	25035.78
560.316	25296.79
560.679	25348.77
561.041	25484.13
561.404	25590.57
561.767	25693.62
562.129	25602.1
562.492	26017.68
562.854	26004.57
563.217	25995.98
563.579	26171.35
563.941	26273.26
564.304	26425.35
564.666	26563.2
565.028	26590.54
565.39	26696.53
565.753	26957.99
566.115	27043.87
566.477	27188.72
566.839	27299.23
567.201	27471.2
567.563	27345.78
567.925	27500.58
568.287	27621.48
568.648	27739.67
569.01	27815.6
569.372	27982.37
569.734	27930.85
570.095	28134.23
570.457	28194.8
570.819	28366.99
571.18	28356.37
571.542	28345.3
571.903	28560.21
572.265	28785.51
572.626	28632.3
572.987	28808.11
573.349	28951.39
573.71	29009.92
574.071	29053.98
574.432	29072.51
574.794	29303.47
575.155	29364.71
575.516	29278.38
575.877	29267.08
576.238	29445.61
576.599	29526.06
576.96	29582.78
577.32	29628.66
577.681	29692.16
578.042	29801.98
578.403	29878.37
578.763	29797.01
579.124	29802.21
579.485	29969.21
579.845	30111.36
580.206	30020.96
580.566	29989.55
580.927	30077.46
581.287	30211.92
581.648	30052.6
582.008	30098.93
582.368	30251.69
582.728	30349.09
583.089	30184.12
583.449	30190.9
583.809	30182.77
584.169	30397.68
584.529	30265.25
584.889	30529.42
585.249	30322.65
585.609	30332.37
585.969	30492.14
586.329	30323.78
586.688	30308.19
587.048	30344.12
587.408	30246.72
587.768	30472.93
588.127	30273.38
588.487	30373.72
588.846	30477.67
589.206	30291.24
589.565	30340.5
589.925	30491.46
590.284	30321.29
590.643	30463.21
591.003	30567.84
591.362	30552.02
591.721	30538.69
592.08	30625.69
592.44	30598.12
592.799	30741.62
593.158	30620.04
593.517	30615.75
593.876	30565.58
594.235	30678.12
594.593	30507.73
594.952	30763.99
595.311	30587.27
595.67	30565.13
596.029	30825.01
596.387	30943.2
596.746	30934.84
597.104	30820.49
597.463	30736.88
597.822	30983.65
598.18	30808.29
598.538	30759.93
598.897	30944.55
599.255	30777.55
599.613	31049.86
599.972	30927.83
600.33	31098.22
600.688	31041.73
601.046	30990.43
601.404	31147.49
601.762	31087.15
602.12	31219.12
602.478	31191.78
602.836	31250.53
603.194	31142.06
603.552	31054.38
603.91	31094.15
604.268	31189.74
604.625	31192.23
604.983	31301.15
605.341	31225.45
605.698	31355.39
606.056	31423.64
606.413	31537.98
606.771	31479.91
607.128	31586.34
607.485	31539.11
607.843	31541.6
608.2	31750.63
608.557	31739.11
608.914	31612.33
609.272	31857.98
609.629	31843.74
609.986	31945.66
610.343	31718.32
610.7	32162.83
611.057	32025.88
611.414	31794.25
611.771	31865.21
612.127	32040.34
612.484	31963.74
612.841	32078.54
613.198	32035.15
613.554	32030.17
613.911	32303.61
614.267	32247.8
614.624	32088.25
614.98	32311.75
615.337	32382.48
615.693	32426.77
616.05	32293.9
616.406	32503.16
616.762	32467.9
617.118	32390.62
617.475	32390.17
617.831	32617.5
618.187	32450.95
618.543	32559.88
618.899	32715.58
619.255	32669.71
619.611	32524.85
619.967	32730.27
620.323	32824.73
620.678	32614.57
621.034	32645.07
621.39	32515.13
621.746	32596.94
622.101	32883.71
622.457	32725.07
622.812	32765.07
623.168	32794
623.523	32836.48
623.879	32801.91
624.234	32700.44
624.589	32810.27
624.945	32873.99
625.3	32892.07
625.655	32672.42
626.01	32801.45
626.365	32774.34
626.72	32701.34
627.075	32711.29
627.43	32795.58
627.785	32772.08
628.14	32673.77
628.495	32781.57
628.85	32742.7
629.205	32646.66
629.559	32840.55
629.914	32582.93
630.269	32567.79
630.623	32675.13
630.978	32541.57
631.332	32657.73
631.687	32731.85
632.041	32668.35
632.396	32535.02
632.75	32423.16
633.104	32522.37
633.459	32416.15
633.813	32353.1
634.167	32475.13
634.521	32294.57
634.875	32278.53
635.229	32244.41
635.583	32161.02
635.937	32238.08
636.291	32051.42
636.645	32122.38
636.999	32086.67
637.352	32102.26
637.706	31974.81
638.06	32024.53
638.413	32039.21
638.767	31858.2
639.121	31986.79
639.474	31771.42
639.828	31789.05
640.181	31769.16
640.534	31661.82
640.888	31716.06
641.241	31398.78
641.594	31504.09
641.947	31683.29
642.301	31560.58
642.654	31596.29
643.007	31480.36
643.36	31453.69
643.713	31411.66
644.066	31375.28
644.419	31168.05
644.771	31235.62
645.124	30949.3
645.477	30811
645.83	30510.89
646.182	30449.88
646.535	30292.82
646.888	30508.18
647.24	30128.08
647.593	30308.19
647.945	30265.02
648.298	29942.77
648.65	30005.14
649.002	29934.18
649.355	30102.09
649.707	30118.13
650.059	30204.23
650.411	30561.29
650.763	30591.12
651.115	30893.71
651.467	30714.73
651.819	30733.71
652.171	30665.69
652.523	30574.17
652.875	30532.59
653.227	30579.37
653.578	30654.62
653.93	30349.77
654.282	30477
654.633	30296.89
654.985	30317.23
655.337	30408.52
655.688	30333.5
656.039	30490.78
656.391	30164.24
656.742	30326.72
657.094	30371.24
657.445	30445.13
657.796	30289.88
658.147	30307.73
658.498	30156.1
658.849	30199.94
659.2	30274.51
659.551	30162.88
659.902	30211.24
660.253	30202.88
660.604	30117.46
660.955	29964.69
661.306	30167.62
661.656	30096.89
662.007	30136.67
662.358	29989.32
662.708	30040.17
663.059	29982.54
663.409	29866.16
663.76	30014.86
664.11	30025.03
664.461	29964.69
664.811	30020.51
665.161	30029.55
665.511	29859.61
665.862	29924.24
666.212	29978.03
666.562	29967.86
666.912	29863.68
667.262	29729.67
667.612	29897.8
667.962	29876.33
668.312	29797.24
668.662	29949.55
669.011	29743.68
669.361	29681.99
669.711	29715.89
670.06	29728.99
670.41	29636.79
670.76	29652.38
671.109	29720.86
671.459	29650.12
671.808	29674.53
672.157	29651.48
672.507	29405.39
672.856	29531.26
673.205	29498.04
673.554	29640.63
673.904	29389.79
674.253	29576.68
674.602	29381.66
674.951	29060.99
675.3	28861.9
675.649	29232.96
675.998	29420.3
676.346	29280.19
676.695	29440.64
677.044	29149.8
677.393	29176.46
677.741	29225.5
678.09	29139.86
678.438	29080.87
678.787	29215.79
679.135	29103.02
679.484	28962.23
679.832	29080.42
680.181	28883.36
680.529	29068.9
680.877	28951.61
681.225	28900.09
681.573	28972.63
681.922	28918.39
682.27	28726.76
682.618	28868.45
682.966	28616.25
683.314	28653.54
683.661	28681.56
684.009	28568.8
684.357	28453.55
684.705	28373.55
685.053	28445.41
685.4	28338.07
685.748	28255.36
686.095	28234.34
686.443	28096.49
686.79	28103.27
687.138	28027.79
687.485	27972.65
687.832	28000.9
688.18	28010.85
688.527	27827.8
688.874	27792.55
689.221	27810.17
689.568	27738.08
689.915	27555.04
690.262	27622.38
690.609	27652.66
690.956	27463.52
691.303	27466.45
691.65	27378.55
691.997	27305.55
692.344	27091.77
692.69	27176.52
693.037	27216.52
693.383	26939.01
693.73	27015.62
694.077	26801.16
694.423	26765
694.769	26695.17
695.116	26645.01
695.462	26613.14
695.808	26511
696.155	26525.01
696.501	26509.42
696.847	26377.89
697.193	26161.63
697.539	26244.79
697.885	26088.86
698.231	25981.52
698.577	25980.84
698.923	25986.49
699.269	25859.26
699.614	25715.54
699.96	25677.8
700.306	25663.34
700.651	25573.85
700.997	25444.13
701.342	25459.5
701.688	25412.5
702.033	25243.46
702.379	25356.45
702.724	25297.02
703.069	25286.85
703.415	24968.44
703.76	24950.36
704.105	24877.59
704.45	24921.89
704.795	24785.17
705.14	24764.6
705.485	24718.05
705.83	24643.02
706.175	24647.77
706.52	24525.06
706.865	24461.33
707.209	24461.56
707.554	24251.85
707.899	24323.94
708.243	24273.32
708.588	24285.29
708.932	23972.08
709.277	24103.15
709.621	24028.58
709.966	23951.74
710.31	23949.26
710.654	23747
710.998	23796.49
711.342	23728.92
711.687	23758.98
712.031	23562.15
712.375	23539.32
712.719	23633.11
713.063	23526.44
713.407	23526.67
713.75	23396.5
714.094	23468.14
714.438	23229.05
714.782	23361.48
715.125	23192.67
715.469	23207.81
715.812	23050.75
716.156	23001.71
716.499	23010.52
716.843	22968.49
717.186	22895.5
717.53	22975.5
717.873	22984.76
718.216	22908.61
718.559	22686.92
718.902	22609.18
719.246	22681.95
719.589	22558.11
719.932	22534.15
720.275	22470.43
720.617	22460.71
720.96	22468.39
721.303	22526.02
721.646	22495.06
721.989	22361.05
722.331	22372.35
722.674	22339.81
723.016	22193.15
723.359	22233.6
723.701	22229.53
724.044	22032.02
724.386	22022.75
724.729	22002.42
725.071	22000.38
725.413	21984.79
725.755	21897.56
726.097	21942.53
726.439	21742.54
726.782	21752.25
727.124	21928.75
727.465	21735.76
727.807	21728.98
728.149	21466.61
728.491	21570.11
728.833	21616.44
729.175	21549.55
729.516	21530.79
729.858	21564.01
730.199	21528.53
730.541	21435.88
730.882	21319.04
731.224	21484.46
731.565	21236.11
731.906	21346.84
732.248	21232.04
732.589	21077.69
732.93	21179.84
733.271	21138.26
733.612	21059.16
733.953	21143.68
734.294	21071.59
734.635	21013.29
734.976	20980.07
735.317	20965.83
735.658	20907.98
735.999	20796.8
736.339	20781.66
736.68	20906.17
737.021	20794.31
737.361	20656.01
737.702	20801.32
738.042	20651.04
738.383	20640.19
738.723	20739.85
739.063	20569.23
739.404	20576.69
739.744	20629.57
740.084	20498.05
740.424	20504.38
740.764	20507.09
741.104	20577.82
741.444	20351.84
741.784	20294.66
742.124	20296.92
742.464	20348.22
742.804	20280.43
743.143	20289.47
743.483	20225.51
743.823	20101.67
744.162	20199.07
744.502	20177.15
744.841	20033.2
745.181	20103.71
745.52	20046.76
745.86	20016.93
746.199	20015.12
746.538	19908.46
746.877	20018.97
747.216	19966.76
747.556	19911.85
747.895	19844.73
748.234	19800.44
748.573	19724.74
748.911	19680.44
749.25	19714.11
749.589	19566.1
749.928	19610.61
750.267	19524.06
750.605	19461.24
750.944	19506.89
751.283	19340.11
751.621	19373.33
751.96	19366.1
752.298	19393.44
752.636	19289.72
752.975	19160.68
753.313	19078.65
753.651	19212.43
753.989	19042.49
754.327	19054.02
754.666	19046.56
755.004	18976.28
755.342	18950.52
755.679	18904.64
756.017	18722.5
756.355	18876.4
756.693	18693.58
757.031	18807.92
757.368	18712.33
757.706	18602.96
758.044	18576.97
758.381	18643.18
758.719	18497.88
759.056	18452.45
759.394	18453.81
759.731	18247.03
760.068	18285
760.405	18179.92
760.743	18110.77
761.08	18180.14
761.417	18115.29
761.754	18091.78
762.091	18055.4
762.428	17929.98
762.765	17828.97
763.102	17832.58
763.438	17746.48
763.775	17683.89
764.112	17727.73
764.449	17739.93
764.785	17538.8
765.122	17418.81
765.458	17379.71
765.795	17381.52
766.131	17307.17
766.467	17257.91
766.804	17218.81
767.14	17184.92
767.476	17118.25
767.812	17034.41
768.148	17106.95
768.485	16929.1
768.821	16920.06
769.157	16831.03
769.492	16880.74
769.828	16765.49
770.164	16577.25
770.5	16666.51
770.836	16499.28
771.171	16458.15
771.507	16476.23
771.842	16288.44
772.178	16282.79
772.513	16118.05
772.849	16272.4
773.184	16170.25
773.519	16102.01
773.855	16108.56
774.19	15979.98
774.525	15973.42
774.86	15919.86
775.195	15941.11
775.53	15883.48
775.865	15710.83
776.2	15559.2
776.535	15542.25
776.87	15508.12
777.205	15425.41
777.539	15378.18
777.874	15406.43
778.209	15286.66
778.543	15284.17
778.878	15240.11
779.212	15118.3
779.547	15058.87
779.881	15059.55
780.215	14946.56
780.55	14909.27
780.884	14911.3
781.218	14814.58
781.552	14922.38
781.886	14798.31
782.22	14735.94
782.554	14696.85
782.888	14469.96
783.222	14453.91
783.556	14446.46
783.889	14355.61
784.223	14381.6
784.557	14259.34
784.89	14303.64
785.224	14126.92
785.557	14092.57
785.891	14042.4
786.224	13970.99
786.558	14015.06
786.891	13954.49
787.224	13885.34
787.557	13785.68
787.891	13781.16
788.224	13753.59
788.557	13758.56
788.89	13650.55
789.223	13681.28
789.556	13533.94
789.888	13520.83
790.221	13531.9
790.554	13473.83
790.887	13368.97
791.219	13338.69
791.552	13385.24
791.884	13196.77
792.217	13205.36
792.549	13142.31
792.882	13065.25
793.214	13038.58
793.546	13056.21
793.879	12946.61
794.211	12929.43
794.543	12922.65
794.875	12857.57
795.207	12798.36
795.539	12801.53
795.871	12783.68
796.203	12624.13
796.535	12541.42
796.867	12655.77
797.198	12602.89
797.53	12524.47
797.862	12477.69
798.193	12509.33
798.525	12430.01
798.856	12476.34
799.188	12267.08
799.519	12263.91
799.85	12217.14
800.182	12232.28
800.513	12166.29
800.844	12081.55
801.175	12063.47
801.506	12086.07
801.837	11994.77
802.168	11942.12
802.499	11896.01
802.83	11988.67
803.161	11853.3
803.491	11858.28
803.822	11831.16
804.153	11775.34
804.483	11721.1
804.814	11689.24
805.145	11689.47
805.475	11669.58
805.805	11595.91
806.136	11655.57
806.466	11637.94
806.796	11522.01
807.126	11479.98
807.457	11449.02
807.787	11395.24
808.117	11364.05
808.447	11331.28
808.777	11372.86
809.107	11311.17
809.436	11247.22
809.766	11257.61
810.096	11204.73
810.426	11179.42
810.755	11135.58
811.085	11179.88
811.414	11040.22
811.744	11070.95
812.073	10979.43
812.403	11049.03
812.732	10901.69
813.061	11003.16
813.39	10880
813.719	10891.3
814.049	10951.18
814.378	10860.34
814.707	10823.5
815.036	10753.67
815.365	10711.64
815.693	10703.05
816.022	10696.72
816.351	10639.1
816.68	10541.02
817.008	10626.9
817.337	10485.66
817.665	10500.35
817.994	10535.6
818.322	10574.02
818.651	10466.45
818.979	10340.8
819.307	10384.87
819.636	10427.35
819.964	10306.23
820.292	10387.58
820.62	10316.85
820.948	10341.71
821.276	10329.05
821.604	10369.05
821.932	10352.1
822.259	10435.71
822.587	10361.14
822.915	10303.51
823.243	10316.4
823.57	10247.47
823.898	10326.11
824.225	10275.04
824.553	10282.27
824.88	10299.22
825.207	10399.56
825.535	10283.63
825.862	10289.28
826.189	10294.7
826.516	10250.63
826.843	10263.74
827.17	10325.21
827.497	10309.16
827.824	10331.99
828.151	10322.5
828.478	10395.72
828.805	10436.39
829.131	10294.7
829.458	10331.31
829.785	10268.26
830.111	10264.19
830.438	10256.28
830.764	10343.29
831.09	10297.86
831.417	10263.74
831.743	10260.35
832.069	10241.6
832.395	10183.29
832.722	10257.19
833.048	10232.78
833.374	10224.19
833.7	10149.62
834.026	10209.96
834.351	10193.23
834.677	10250.18
835.003	10219.67
835.329	10217.41
835.654	10124.54
835.98	10113.46
836.306	10134.03
836.631	10128.15
836.956	10097.64
837.282	10106.46
837.607	10045.22
837.932	9999.57
838.258	9989.4
838.583	9951.43
838.908	9933.35
839.233	9984.43
839.558	9901.04
839.883	9880.25
840.208	9842.96
840.533	9849.29
840.858	9862.62
841.182	9858.78
841.507	9864.66
841.832	9800.93
842.156	9788.73
842.481	9803.64
842.805	9785.34
843.13	9734.72
843.454	9680.25
843.778	9675.06
844.103	9647.94
844.427	9610.43
844.751	9594.83
845.075	9633.48
845.399	9561.16
845.723	9539.24
846.047	9515.74
846.371	9399.81
846.695	9468.73
847.019	9405.46
847.343	9284.56
847.666	9291.11
847.99	9262.86
848.313	9309.87
848.637	9169.76
848.96	9141.51
849.284	9136.77
849.607	9063.1
849.931	9080.04
850.254	9044.34
850.577	9007.96
850.9	8937
851.223	8920.73
851.546	8924.57
851.869	8842.31
852.192	8879.15
852.515	8785.14
852.838	8733.61
853.161	8692.71
853.483	8624.24
853.806	8677.12
854.129	8586.27
854.451	8584.46
854.774	8573.62
855.096	8549.44
855.419	8593.5
855.741	8523.22
856.063	8433.73
856.385	8451.59
856.708	8416.78
857.03	8370.68
857.352	8381.31
857.674	8349.89
857.996	8292.72
858.318	8255.21
858.64	8284.13
858.961	8282.78
859.283	8240.07
859.605	8208.65
859.926	8215.89
860.248	8249.78
860.57	8170.46
860.891	8128.88
861.212	8113.29
861.534	8086.4
861.855	8079.62
862.176	8078.49
862.498	8029
862.819	8085.27
863.14	8088.66
863.461	7989.68
863.782	7988.55
864.103	7987.19
864.424	7999.85
864.745	8016.34
865.065	7926.18
865.386	7884.82
865.707	7922.56
866.027	7958.94
866.348	7887.31
866.668	7854.54
866.989	7891.6
867.309	7783.81
867.63	7833.52
867.95	7839.85
868.27	7753.3
868.59	7771.38
868.91	7806.63
869.23	7758.27
869.55	7725.28
869.87	7786.07
870.19	7715.11
870.51	7658.84
870.83	7731.6
871.15	7724.6
871.469	7697.48
871.789	7655
872.109	7662.45
872.428	7668.1
872.748	7642.79
873.067	7560.99
873.386	7626.97
873.706	7565.06
874.025	7604.15
874.344	7504.72
874.663	7558.28
874.982	7538.84
875.301	7485.96
875.62	7476.92
875.939	7490.03
876.258	7453.19
876.577	7488.45
876.896	7518.5
877.214	7457.49
877.533	7437.83
877.852	7419.07
878.17	7375
878.489	7368.45
878.807	7371.16
879.125	7401.9
879.444	7395.34
879.762	7316.25
880.08	7330.94
880.398	7312.63
880.716	7366.42
881.034	7311.05
881.352	7324.16
881.67	7256.14
881.988	7232.41
882.306	7241
882.624	7238.51
882.941	7194.22
883.259	7203.48
883.577	7184.95
883.894	7181.11
884.212	7111.28
884.529	7200.09
884.846	7104.28
885.164	7125.29
885.481	7062.02
885.798	7125.07
886.115	7076.93
886.432	7037.61
886.75	7008.69
887.067	7006.2
887.383	6984.96
887.7	6956.48
888.017	6956.94
888.334	6983.83
888.651	6896.37
888.967	6914
889.284	6914.9
889.6	6820.44
889.917	6801.23
890.233	6797.39
890.55	6822.02
890.866	6851.18
891.182	6746.77
891.498	6742.03
891.815	6771.18
892.131	6723.72
892.447	6685.53
892.763	6671.29
893.079	6646.89
893.395	6598.08
893.71	6609.15
894.026	6538.64
894.342	6583.39
894.657	6593.78
894.973	6558.3
895.289	6510.62
895.604	6539.77
895.92	6467.91
896.235	6463.62
896.55	6466.55
896.865	6469.49
897.181	6426.33
897.496	6441.92
897.811	6374.58
898.126	6378.87
898.441	6294.35
898.756	6315.14
899.071	6271.76
899.386	6274.47
899.7	6227.46
900.015	6217.52
900.33	6126.9
900.644	6180.23
900.959	6164.87
901.273	6111.08
901.588	6057.98
901.902	6063.17
902.216	6054.36
902.531	5968.26
902.845	6077.41
903.159	6024.53
903.473	5979.79
903.787	5867.02
904.101	5904.99
904.415	5902.73
904.729	5909.73
905.042	5856.85
905.356	5867.47
905.67	5863.41
905.984	5823.86
906.297	5813.91
906.611	5725.78
906.924	5753.35
907.237	5723.3
907.551	5714.71
907.864	5719.68
908.177	5723.07
908.491	5667.7
908.804	5614.6
909.117	5625.67
909.43	5571.44
909.743	5589.51
910.056	5541.38
910.368	5529.4
910.681	5491.44
910.994	5461.16
911.307	5429.97
911.619	5461.16
911.932	5471.1
912.244	5368.28
912.557	5365.79
912.869	5383.19
913.181	5313.36
913.494	5336.87
913.806	5290.09
914.118	5253.7
914.43	5248.73
914.742	5268.17
915.054	5212.57
915.366	5200.6
915.678	5201.28
915.99	5153.82
916.302	5100.26
916.613	5059.36
916.925	5074.73
917.236	5104.78
917.548	5007.61
917.859	5034.95
918.171	4999.47
918.482	5006.7
918.794	4969.19
919.105	4970.32
919.416	4909.98
919.727	4878.12
920.038	4915.18
920.349	4856.65
920.66	4866.14
920.971	4854.84
921.282	4808.29
921.593	4827.05
921.903	4770.33
922.214	4777.78
922.525	4703.89
922.835	4684
923.146	4721.06
923.456	4666.83
923.767	4629.77
924.077	4654.62
924.387	4614.62
924.697	4600.39
925.008	4573.72
925.318	4573.72
925.628	4545.47
925.938	4527.4
926.248	4509.99
926.558	4508.86
926.867	4484.23
927.177	4401.07
927.487	4443.33
927.796	4394.07
928.106	4392.48
928.416	4378.7
928.725	4360.39
929.034	4316.78
929.344	4324.91
929.653	4305.25
929.962	4273.84
930.271	4300.73
930.581	4252.83
930.89	4222.09
931.199	4188.87
931.508	4208.53
931.817	4188.19
932.125	4201.98
932.434	4190.23
932.743	4116.11
933.051	4101.42
933.36	4096.45
933.669	4138.25
933.977	4100.51
934.286	4069.33
934.594	4018.93
934.902	4036.33
935.21	3984.36
935.519	3960.18
935.827	3988.2
936.135	3959.5
936.443	3916.11
936.751	3903
937.059	3925.83
937.367	3896.68
937.674	3905.94
937.982	3898.71
938.29	3834.76
938.597	3819.84
938.905	3813.97
939.213	3774.42
939.52	3782.1
939.827	3770.35
940.135	3729.22
940.442	3739.85
940.749	3719.51
941.056	3692.84
941.363	3663.46
941.67	3677.47
941.977	3637.25
942.284	3644.03
942.591	3598.15
942.898	3625.5
943.205	3601.32
943.511	3598.61
943.818	3533.97
944.125	3542.34
944.431	3491.04
944.738	3538.27
945.044	3486.74
945.35	3459.85
945.657	3537.59
945.963	3482
946.269	3446.75
946.575	3418.27
946.881	3395.9
947.187	3391.15
947.493	3374.88
947.799	3353.19
948.105	3352.06
948.41	3309.57
948.716	3311.38
949.022	3287.43
949.327	3335.11
949.633	3294.66
949.938	3310.25
950.244	3294.66
950.549	3270.48
950.854	3191.39
951.16	3229.58
951.465	3169.69
951.77	3224.6
952.075	3153.19
952.38	3168.33
952.685	3162.01
952.99	3131.05
953.294	3122.91
953.599	3098.73
953.904	3103.03
954.209	3098.51
954.513	3091.5
954.818	3080.2
955.122	3066.64
955.426	3047.21
955.731	3014.44
956.035	3006.08
956.339	3019.41
956.643	3012.86
956.948	2948.68
957.252	2994.78
957.556	2967.89
957.86	2946.19
958.163	2978.28
958.467	2982.12
958.771	2915.01
959.075	2890.15
959.378	2868.23
959.682	2842.69
959.985	2890.83
960.289	2843.15
960.592	2847.67
960.896	2847.67
961.199	2812.41
961.502	2808.12
961.805	2769.25
962.108	2752.75
962.411	2815.8
962.714	2762.7
963.017	2742.13
963.32	2746.2
963.623	2702.58
963.926	2719.53
964.228	2686.09
964.531	2716.82
964.833	2715.92
965.136	2683.38
965.438	2702.13
965.741	2621.23
966.043	2648.35
966.345	2632.08
966.648	2625.98
966.95	2596.15
967.252	2602.25
967.554	2580.33
967.856	2592.3
968.158	2533.78
968.46	2559.99
968.761	2563.38
969.063	2509.14
969.365	2491.74
969.666	2509.82
969.968	2496.49
970.269	2516.83
970.571	2460.33
970.872	2473.89
971.174	2422.59
971.475	2458.07
971.776	2426.43
972.077	2428.47
972.378	2410.39
972.679	2428.47
972.98	2386.66
973.281	2411.29
973.582	2395.02
973.883	2374.01
974.183	2368.58
974.484	2362.48
974.785	2358.41
975.085	2349.15
975.386	2331.07
975.686	2332.65
975.986	2314.35
976.287	2296.49
976.587	2287.23
976.887	2303.27
977.187	2265.76
977.487	2253.33
977.787	2254.46
978.087	2224.86
978.387	2211.75
978.687	2238.87
978.987	2221.02
979.286	2219.66
979.586	2224.18
979.885	2171.98
980.185	2190.51
980.484	2137.63
980.784	2174.01
981.083	2166.55
981.382	2122.94
981.682	2132.2
981.981	2114.35
982.28	2080.23
982.579	2093.79
982.878	2114.8
983.177	2078.65
983.475	2097.18
983.774	2043.62
984.073	2060.79
984.372	2037.74
984.67	2040.68
984.969	2060.34
985.267	2043.39
985.566	2000.91
985.864	1997.29
986.162	1977.86
986.461	1998.2
986.759	2000.91
987.057	1968.37
987.355	1963.85
987.653	1937.86
987.951	1962.04
988.249	1959.33
988.547	1939.44
988.844	1943.96
989.142	1923.4
989.44	1929.72
989.737	1922.27
990.035	1901.02
990.332	1881.14
990.63	1908.71
990.927	1861.25
991.224	1863.06
991.521	1889.95
991.819	1843.17
992.116	1829.84
992.413	1842.72
992.71	1822.16
993.006	1783.29
993.303	1795.94
993.6	1792.78
993.897	1794.13
994.193	1818.31
994.49	1776.51
994.787	1781.03
995.083	1778.99
995.379	1724.98
995.676	1737.86
995.972	1746
996.268	1748.49
996.565	1723.85
996.861	1688.6
997.157	1692.89
997.453	1681.59
997.749	1687.47
998.044	1672.78
998.34	1663.97
998.636	1667.81
998.932	1652.89
999.227	1646.57
999.523	1609.73
999.818	1623.06
1000.114	1621.48
1000.409	1596.17
1000.704	1577.87
1001	1621.48
1001.295	1574.93
1001.59	1554.14
1001.885	1582.61
1002.18	1563.41
1002.475	1565.89
1002.77	1512.11
1003.065	1520.69
1003.359	1533.8
1003.654	1554.14
1003.949	1551.65
1004.243	1531.77
1004.538	1520.02
1004.832	1483.18
1005.127	1485.67
1005.421	1498.1
1005.715	1484.31
1006.009	1480.7
1006.304	1439.34
1006.598	1471.2
1006.892	1446.57
1007.186	1428.04
1007.48	1419.45
1007.773	1437.98
1008.067	1437.31
1008.361	1406.8
1008.655	1403.86
1008.948	1417.19
1009.242	1390.98
1009.535	1371.32
1009.829	1379.23
1010.122	1378.78
1010.415	1394.37
1010.708	1344.2
1011.001	1338.78
1011.295	1327.48
1011.588	1323.19
1011.881	1317.54
1012.173	1327.48
1012.466	1320.93
1012.759	1296.52
1013.052	1311.43
1013.344	1273.24
1013.637	1286.12
1013.93	1291.77
1014.222	1256.75
1014.514	1263.75
1014.807	1249.06
1015.099	1249.74
1015.391	1247.03
1015.683	1245.45
1015.976	1224.66
1016.268	1240.93
1016.56	1176.75
1016.851	1195.28
1017.143	1181.04
1017.435	1183.75
1017.727	1176.75
1018.018	1200.02
1018.31	1157.31
1018.602	1173.13
1018.893	1167.71
1019.185	1174.71
1019.476	1156.18
1019.767	1129.07
1020.058	1146.47
1020.35	1137.65
1020.641	1134.49
1020.932	1101.04
1021.223	1117.77
1021.514	1099.69
1021.804	1122.51
1022.095	1071.44
1022.386	1084.77
1022.677	1051.33
1022.967	1051.1
1023.258	1074.15
1023.548	1032.8
1023.839	1047.71
1024.129	1043.87
1024.419	1011.78
1024.709	1035.06
1025	1007.26
1025.29	1049.07
1025.58	1016.98
1025.87	998.9
1026.16	1014.27
1026.449	1002.06
1026.739	991.89
1027.029	998.22
1027.319	948.73
1027.608	979.69
1027.898	969.75
1028.187	979.01
1028.477	982.63
1028.766	938.11
1029.055	923.87
1029.344	930.88
1029.634	942.4
1029.923	920.94
1030.212	916.19
1030.501	929.07
1030.79	925.23
1031.078	888.39
1031.367	902.86
1031.656	892.24
1031.945	875.74
1032.233	875.06
1032.522	878.9
1032.81	862.63
1033.099	880.49
1033.387	868.28
1033.675	859.02
1033.963	842.75
1034.251	854.5
1034.54	848.62
1034.828	849.75
1035.116	822.41
1035.403	836.87
1035.691	836.64
1035.979	822.63
1036.267	819.47
1036.554	828.06
1036.842	805.46
1037.129	807.27
1037.417	816.76
1037.704	787.15
1037.992	787.61
1038.279	789.41
1038.566	814.95
1038.853	814.95
1039.14	814.95
