Data from breadboard_black_back_FLMS001491_00042.txt Node
Date: Wed Feb 08 10:50:26 GMT 2017
User: dcchb
Spectrometer: FLMS00149
Trigger mode: 0
Integration Time (sec): 2.000000E-2
Scans to average: 10
Electric dark correction enabled: true
Nonlinearity correction enabled: false
Boxcar width: 0
XAxis mode: Wavelengths
Number of Pixels in Spectrum: 2048
>>>>>Begin Spectral Data<<<<<
341.393	-33.69
341.776	-33.69
342.16	-33.69
342.543	-63.74
342.927	-79.79
343.31	-77.3
343.693	-79.11
344.077	-67.36
344.46	-49.73
344.843	-36.62
345.226	-38.21
345.61	-33.91
345.993	-14.7
346.376	-2.05
346.759	2.25
347.142	20.32
347.525	43.37
347.908	53.77
348.291	76.37
348.674	107.1
349.057	95.8
349.44	101.45
349.823	130.15
350.206	165.86
350.588	190.94
350.971	211.73
351.354	209.92
351.737	218.06
352.119	235.91
352.502	268.68
352.884	289.7
353.267	273.88
353.65	284.95
354.032	308.68
354.414	303.48
354.797	314.55
355.179	319.07
355.562	315.68
355.944	340.99
356.326	320.43
356.709	350.26
357.091	348.45
357.473	329.92
357.855	350.03
358.238	336.25
358.62	332.63
359.002	336.7
359.384	336.47
359.766	355.46
360.148	368.79
360.53	340.99
360.912	344.84
361.294	365.85
361.676	336.25
362.057	353.42
362.439	332.18
362.821	337.38
363.203	345.06
363.584	366.53
363.966	357.49
364.348	341.9
364.729	330.37
365.111	332.41
365.493	327.89
365.874	316.81
366.256	318.85
366.637	334.44
367.019	335.34
367.4	333.31
367.781	336.02
368.163	348.23
368.544	324.05
368.925	345.29
369.306	331.05
369.688	328.79
370.069	334.67
370.45	322.69
370.831	347.32
371.212	328.79
371.593	355
371.974	350.71
372.355	331.95
372.736	347.1
373.117	359.3
373.498	341.9
373.879	350.26
374.26	340.32
374.641	339.41
375.021	345.97
375.402	371.95
375.783	363.37
376.163	377.6
376.544	369.47
376.925	376.7
377.305	353.65
377.686	357.04
378.066	390.26
378.447	383.48
378.827	380.77
379.208	373.76
379.588	397.72
379.968	388
380.349	392.07
380.729	389.58
381.109	403.37
381.489	417.15
381.87	398.17
382.25	372.41
382.63	397.26
383.01	397.49
383.39	396.13
383.77	402.69
384.15	381.9
384.53	400.43
384.91	411.05
385.29	425.96
385.67	429.81
386.049	430.93
386.429	421.22
386.809	438.84
387.189	448.11
387.568	449.01
387.948	460.76
388.328	418.96
388.707	430.93
389.087	446.53
389.466	444.72
389.846	445.85
390.225	467.77
390.605	463.93
390.984	452.86
391.363	468.9
391.743	468.45
392.122	475
392.501	472.97
392.881	494.66
393.26	508.67
393.639	489.24
394.018	493.98
394.397	484.49
394.776	488.33
395.155	522.91
395.534	484.49
395.913	506.87
396.292	516.81
396.671	533.53
397.05	528.33
397.429	538.95
397.808	542.34
398.186	553.64
398.565	545.06
398.944	527.66
399.323	539.86
399.701	568.33
400.08	549.12
400.458	563.13
400.837	572.17
401.215	569.46
401.594	595.9
401.972	563.59
402.351	572.85
402.729	607.65
403.107	592.51
403.486	598.84
403.864	616.92
404.242	597.03
404.62	622.57
404.999	623.02
405.377	623.02
405.755	645.39
406.133	621.21
406.511	644.94
406.889	656.92
407.267	681.78
407.645	687.2
408.023	674.54
408.401	692.62
408.779	691.72
409.156	708.44
409.534	719.51
409.912	723.36
410.29	727.2
410.667	752.73
411.045	738.5
411.422	723.58
411.8	754.99
412.178	762.23
412.555	782.79
412.933	767.2
413.31	806.07
413.687	806.52
414.065	797.48
414.442	831.6
414.819	811.04
415.197	845.39
415.574	819.85
415.951	833.18
416.328	875.44
416.705	868.21
417.082	854.2
417.46	858.72
417.837	847.2
418.214	874.54
418.591	909.11
418.967	898.27
419.344	920.87
419.721	934.65
420.098	925.61
420.475	939.85
420.852	973.07
421.228	973.07
421.605	936.91
421.982	968.32
422.358	976.23
422.735	999.51
423.111	981.2
423.488	1018.26
423.864	1009.22
424.241	1009.22
424.617	1049.68
424.994	1023.24
425.37	1038.38
425.746	1057.13
426.123	1086.74
426.499	1085.61
426.875	1094.87
427.251	1110.47
427.627	1131.03
428.003	1136.91
428.379	1164.48
428.756	1164.25
429.132	1180.07
429.507	1225.72
429.883	1217.81
430.259	1226.39
430.635	1229.33
431.011	1264.81
431.387	1267.98
431.763	1297.58
432.138	1301.87
432.514	1342.32
432.89	1343
433.265	1384.36
433.641	1368.76
434.016	1377.8
434.392	1431.13
434.767	1404.02
435.143	1446.05
435.518	1436.56
435.894	1455.54
436.269	1482.43
436.644	1515.65
437.02	1497.57
437.395	1517.01
437.77	1532.37
438.145	1560.85
438.52	1573.05
438.895	1579.61
439.271	1602.2
439.646	1604.46
440.021	1632.49
440.395	1645.14
440.77	1629.1
441.145	1627.29
441.52	1647.63
441.895	1676.1
442.27	1707.96
442.645	1683.33
443.019	1732.82
443.394	1731.92
443.769	1762.65
444.143	1744.57
444.518	1770.56
444.892	1774.85
445.267	1777.57
445.641	1820.28
446.016	1836.77
446.39	1833.61
446.764	1846.72
447.139	1853.27
447.513	1871.35
447.887	1884.46
448.262	1854.85
448.636	1868.41
449.01	1912.03
449.384	1947.28
449.758	1959.48
450.132	1982.31
450.506	1981.18
450.88	2009.42
451.254	2002.87
451.628	2033.38
452.002	2067.95
452.376	2059.14
452.75	2107.73
453.123	2104.34
453.497	2171.23
453.871	2145.01
454.244	2208.29
454.618	2211.45
454.992	2245.58
455.365	2253.71
455.739	2310.21
456.112	2328.74
456.486	2328.29
456.859	2378.91
457.232	2434.72
457.606	2443.54
457.979	2434.5
458.352	2518.56
458.725	2535.51
459.099	2566.02
459.472	2587.71
459.845	2614.38
460.218	2620.71
460.591	2670.88
460.964	2709.75
461.337	2730.99
461.71	2798.56
462.083	2852.11
462.456	2846.92
462.829	2846.01
463.201	2906.8
463.574	2906.8
463.947	2948.38
464.32	3018.66
464.692	3014.6
465.065	3040.81
465.438	3140.92
465.81	3176.4
466.183	3217.98
466.555	3270.18
466.928	3304.98
467.3	3263.18
467.672	3352.21
468.045	3427.92
468.417	3447.13
468.789	3467.92
469.161	3501.81
469.534	3562.83
469.906	3644.86
470.278	3640.12
470.65	3709.04
471.022	3801.02
471.394	3826.33
471.766	3866.32
472.138	3881.24
472.51	3958.98
472.882	4040.78
473.253	4081.01
473.625	4136.15
473.997	4222.7
474.369	4279.65
474.74	4307.67
475.112	4387.44
475.484	4438.74
475.855	4538.4
476.227	4619.53
476.598	4766.87
476.97	4764.15
477.341	4820.88
477.713	4938.16
478.084	5006.18
478.455	5126.63
478.827	5143.13
479.198	5307.19
479.569	5314.65
479.94	5485.04
480.311	5534.98
480.682	5617.24
481.053	5766.16
481.424	5822.21
481.795	5932.49
482.166	5965.7
482.537	6067.85
482.908	6216.09
483.279	6207.96
483.65	6359.14
484.021	6552.81
484.391	6536.99
484.762	6670.09
485.133	6661.28
485.503	6779.24
485.874	6925.91
486.244	6989.41
486.615	7141.72
486.985	7209.97
487.356	7284.77
487.726	7330.87
488.097	7538.54
488.467	7594.36
488.837	7783.96
489.207	7798.65
489.578	7941.25
489.948	8001.81
490.318	8193.44
490.688	8202.93
491.058	8349.37
491.428	8447.67
491.798	8484.06
492.168	8698.06
492.538	8611.74
492.908	8783.48
493.278	8947.55
493.648	8906.42
494.017	9057.83
494.387	9119.75
494.757	9268.89
495.126	9302.57
495.496	9448.55
495.866	9439.51
496.235	9551.83
496.605	9565.84
496.974	9711.59
497.344	9780.29
497.713	9946.17
498.082	9976.22
498.452	10037.01
498.821	10160.17
499.19	10213.95
499.559	10239.04
499.928	10315.65
500.298	10382.76
500.667	10471.12
501.036	10540.05
501.405	10588.63
501.774	10571.46
502.143	10779.82
502.512	10792.92
502.88	10945.23
503.249	10899.81
503.618	11044.89
503.987	11020.94
504.356	11112.24
504.724	11282.63
505.093	11231.78
505.462	11272.68
505.83	11468.38
506.199	11561.04
506.567	11651.2
506.936	11671.32
507.304	11780.02
507.672	11932.33
508.041	11962.61
508.409	12055.49
508.777	12149.04
509.145	12239.89
509.514	12233.56
509.882	12350.85
510.25	12433.33
510.618	12584.51
510.986	12645.53
511.354	12771.85
511.722	12871.29
512.09	12975.69
512.458	12855.69
512.826	13110.6
513.193	13210.71
513.561	13202.8
513.929	13346.08
514.297	13484.6
514.664	13503.59
515.032	13685.05
515.4	13818.61
515.767	13803.46
516.135	13891.37
516.502	13881.43
516.869	14136.79
517.237	14184.25
517.604	14174.53
517.972	14381.75
518.339	14501.3
518.706	14548.53
519.073	14588.53
519.44	14693.84
519.808	14878.92
520.175	14869.88
520.542	15035.75
520.909	15278.45
521.276	15231.22
521.643	15442.74
522.009	15535.85
522.376	15592.34
522.743	15784.66
523.11	15872.11
523.477	16030.75
523.843	16137.64
524.21	16324.75
524.577	16470.06
524.943	16577.4
525.31	16703.73
525.676	16747.79
526.043	16954.12
526.409	17009.03
526.776	17283.83
527.142	17266.65
527.508	17377.16
527.874	17592.29
528.241	17645.85
528.607	17621.44
528.973	17934.88
529.339	18000.19
529.705	18100.98
530.071	18256.45
530.437	18340.29
530.803	18409.67
531.169	18424.81
531.535	18487.64
531.901	18625.94
532.267	18739.15
532.632	18926.04
532.998	18947.74
533.364	18996.32
533.73	19034.29
534.095	19223.21
534.461	19271.57
534.826	19407.84
535.192	19488.96
535.557	19731.22
535.923	19638.57
536.288	19740.48
536.653	19918.78
537.019	19769.86
537.384	19989.52
537.749	20045.56
538.114	20241.94
538.479	20158.78
538.845	20286.01
539.21	20335.04
539.575	20470.41
539.94	20503.18
540.305	20618.88
540.67	20601.48
541.034	20666.11
541.399	20784.07
541.764	20841.25
542.129	20913.56
542.494	20948.59
542.858	21046.89
543.223	21085.53
543.587	21226.09
543.952	21252.99
544.316	21396.26
544.681	21383.38
545.045	21486.2
545.41	21554.67
545.774	21616.37
546.138	21666.53
546.503	21801.22
546.867	21748.11
547.231	22023.81
547.595	21982.01
547.959	22202.57
548.324	22131.83
548.688	22172.06
549.052	22367.53
549.416	22443.46
549.779	22344.03
550.143	22536.12
550.507	22678.26
550.871	22637.58
551.235	22635.55
551.599	22910.12
551.962	22972.49
552.326	23092.49
552.689	23297
553.053	23024.01
553.417	23249.32
553.78	23519.14
554.143	23525.24
554.507	23574.28
554.87	23555.3
555.234	23948.96
555.597	23762.07
555.96	23886.14
556.323	24002.97
556.686	24027.15
557.05	24204.55
557.413	24363.87
557.776	24344.43
558.139	24552.56
558.502	24559.57
558.865	24757.08
559.228	24783.06
559.59	24994.58
559.953	25054.69
560.316	25244.07
560.679	25244.97
561.041	25446.1
561.404	25552.31
561.767	25709.37
562.129	25655.81
562.492	25890.38
562.854	25851.96
563.217	25853.54
563.579	26052.41
563.941	26188.22
564.304	26325.4
564.666	26498.05
565.028	26451.49
565.39	26639.51
565.753	26811.48
566.115	26871.6
566.477	27029.78
566.839	27193.85
567.201	27397.23
567.563	27342.32
567.925	27480.62
568.287	27577.57
568.648	27550.9
569.01	27743.89
569.372	27887.61
569.734	27814.62
570.095	28122.18
570.457	28151.56
570.819	28128.29
571.18	28287.83
571.542	28365.12
571.903	28439.01
572.265	28572.34
572.626	28697.08
572.987	28730.3
573.349	28756.29
573.71	28926.91
574.071	28858.21
574.432	29054.36
574.794	29309.95
575.155	29279.22
575.516	29135.72
575.877	29333.68
576.238	29231.76
576.599	29632.88
576.96	29375.71
577.32	29587.91
577.681	29650.05
578.042	29748.81
578.403	29675.14
578.763	29751.07
579.124	29824.06
579.485	29818.64
579.845	30010.72
580.206	29914
580.566	30030.16
580.927	29941.12
581.287	30225.63
581.648	30053.21
582.008	30129.82
582.368	30085.3
582.728	30302.24
583.089	30197.38
583.449	30302.01
583.809	30287.33
584.169	30331.39
584.529	30077.39
584.889	30378.85
585.249	30267.66
585.609	30160.55
585.969	30365.06
586.329	30265.4
586.688	30388.11
587.048	30335.23
587.408	30262.02
587.768	30238.51
588.127	30326.42
588.487	30244.61
588.846	30526.19
589.206	30385.4
589.565	30435.8
589.925	30572.52
590.284	30321.67
590.643	30385.63
591.003	30581.1
591.362	30528.22
591.721	30570.93
592.08	30504.27
592.44	30664.94
592.799	30670.59
593.158	30460.65
593.517	30471.05
593.876	30677.37
594.235	30504.49
594.593	30529.13
594.952	30598.96
595.311	30503.82
595.67	30626.98
596.029	30883.02
596.387	30775.45
596.746	30845.5
597.104	30721.21
597.463	30674.43
597.822	30882.11
598.18	30843.47
598.538	30884.15
598.897	30963.69
599.255	30722.34
599.613	31174.31
599.972	30968.21
600.33	31043.92
600.688	30883.02
601.046	31095.44
601.404	31115.1
601.762	31098.83
602.12	31214.08
602.478	31194.87
602.836	31227.87
603.194	31124.82
603.552	31228.77
603.91	31094.08
604.268	31317.58
604.625	31258.15
604.983	31374.53
605.341	31223.8
605.698	31382.21
606.056	31432.15
606.413	31426.96
606.771	31532.94
607.128	31630.79
607.485	31464.47
607.843	31407.07
608.2	31685.25
608.557	31793.73
608.914	31592.15
609.272	31780.17
609.629	31859.71
609.986	31992.59
610.343	31775.2
610.7	32042.76
611.057	31987.17
611.414	32084.11
611.771	31977
612.127	32092.02
612.484	32070.56
612.841	32080.72
613.198	32064.91
613.554	32122.31
613.911	32384.9
614.267	32259.7
614.624	32230.78
614.98	32266.48
615.337	32486.82
615.693	32518.23
616.05	32321.17
616.406	32627.6
616.762	32470.32
617.118	32468.28
617.475	32479.13
617.831	32599.35
618.187	32549.64
618.543	32667.15
618.899	32786.47
619.255	32630.31
619.611	32699.92
619.967	32875.96
620.323	32782.85
620.678	32713.48
621.034	32708.73
621.39	32714.38
621.746	32712.35
622.101	33110.08
622.457	32706.92
622.812	32795.06
623.168	32819.69
623.523	32882.74
623.879	32939.23
624.234	32628.51
624.589	32841.61
624.945	32857.65
625.3	32906.01
625.655	32993.69
626.01	32885.9
626.365	32946.46
626.72	32875.05
627.075	32863.08
627.43	32762.29
627.785	32849.29
628.14	32865.34
628.495	32797.77
628.85	32835.73
629.205	32723.87
629.559	32911.44
629.914	32744.44
630.269	32629.86
630.623	32678.45
630.978	32720.26
631.332	32755.73
631.687	32802.29
632.041	32651.33
632.396	32694.72
632.75	32464.89
633.104	32674.38
633.459	32434.61
633.813	32588.28
634.167	32390.32
634.521	32364.56
634.875	32447.27
635.229	32423.77
635.583	32247.73
635.937	32296.09
636.291	32298.57
636.645	32199.37
636.999	32186.71
637.352	32104.23
637.706	32041.18
638.06	32158.69
638.413	32170.21
638.767	31941.07
639.121	31908.07
639.474	31880.73
639.828	31906.27
640.181	31866.72
640.534	31857.45
640.888	31754.63
641.241	31714.18
641.594	31711.24
641.947	31748.53
642.301	31644.8
642.654	31789.43
643.007	31671.47
643.36	31648.19
643.713	31587.63
644.066	31533.62
644.419	31422.44
644.771	31272.38
645.124	30931.15
645.477	31056.8
645.83	30691.61
646.182	30565.96
646.535	30507.43
646.888	30531.39
647.24	30252.07
647.593	30447.09
647.945	30291.84
648.298	30122.81
648.65	30265.18
649.002	30072.64
649.355	30299.53
649.707	30184.73
650.059	30408
650.411	30830.36
650.763	30753.3
651.115	30973.41
651.467	30852.28
651.819	30801.44
652.171	30812.96
652.523	30738.39
652.875	30677.15
653.227	30580.42
653.578	30775.67
653.93	30736.8
654.282	30644.83
654.633	30458.17
654.985	30487.09
655.337	30478.05
655.688	30480.99
656.039	30652.74
656.391	30276.93
656.742	30388.79
657.094	30369.36
657.445	30498.17
657.796	30365.74
658.147	30318.06
658.498	30226.99
658.849	30491.84
659.2	30294.56
659.551	30343.37
659.902	30424.5
660.253	30320.54
660.604	30353.09
660.955	30184.28
661.306	30264.27
661.656	30198.06
662.007	30172.98
662.358	30177.5
662.708	30130.04
663.059	30176.37
663.409	29931.18
663.76	30084.39
664.11	30183.6
664.461	30046.2
664.811	30111.74
665.161	30119.19
665.511	29932.31
665.862	29939.76
666.212	30048.46
666.562	30074.68
666.912	30016.82
667.262	29960.1
667.612	30014.56
667.962	29962.81
668.312	29913.1
668.662	30055.47
669.011	29977.28
669.361	29935.47
669.711	29833.78
670.06	29811.18
670.41	30000.78
670.76	29910.39
671.109	29899.31
671.459	29977.5
671.808	29838.75
672.157	29757.17
672.507	29708.36
672.856	29661.8
673.205	29592.43
673.554	29848.01
673.904	29676.72
674.253	29791.29
674.602	29565.99
674.951	29195.83
675.3	29234.92
675.649	29632.43
675.998	29519.66
676.346	29557.4
676.695	29661.58
677.044	29375.71
677.393	29434.01
677.741	29444.41
678.09	29354.47
678.438	29358.08
678.787	29277.86
679.135	29302.94
679.484	29154.7
679.832	29161.03
680.181	29070.63
680.529	29150.18
680.877	29132.55
681.225	29039.67
681.573	29203.74
681.922	29014.82
682.27	28914.93
682.618	28883.75
682.966	28820.02
683.314	28951.09
683.661	28784.54
684.009	28695.5
684.357	28654.83
684.705	28536.41
685.053	28552.91
685.4	28501.61
685.748	28445.34
686.095	28378.9
686.443	28223.2
686.79	28098.68
687.138	28260.03
687.485	28321.28
687.832	28138
688.18	28147.95
688.527	28031.34
688.874	27928.97
689.221	27911.34
689.568	27834.06
689.915	27818.92
690.262	27805.36
690.609	27758.8
690.956	27757.45
691.303	27577.79
691.65	27445.37
691.997	27411.02
692.344	27233.17
692.69	27259.61
693.037	27263
693.383	27149.33
693.73	27243.56
694.077	27001.31
694.423	26950.69
694.769	26955.66
695.116	26733.29
695.462	26845.38
695.808	26692.62
696.155	26859.62
696.501	26523.81
696.847	26530.59
697.193	26341.21
697.539	26412.17
697.885	26263.93
698.231	26189.35
698.577	26191.84
698.923	26000.43
699.269	26022.58
699.614	25862.58
699.96	25792.98
700.306	25853.77
700.651	25646.09
700.997	25583.72
701.342	25614.45
701.688	25560.44
702.033	25519.54
702.379	25435.7
702.724	25506.21
703.069	25494.91
703.415	25174.01
703.76	25211.3
704.105	25151.64
704.45	25116.39
704.795	24877.98
705.14	24904.64
705.485	24856.28
705.83	24737.87
706.175	24834.81
706.52	24729.73
706.865	24559.34
707.209	24609.73
707.554	24520.02
707.899	24539.68
708.243	24448.16
708.588	24449.96
708.932	24202.97
709.277	24235.05
709.621	24271.44
709.966	24102.18
710.31	24088.39
710.654	23808.4
710.998	23916.19
711.342	23943.54
711.687	23842.3
712.031	23715.75
712.375	23733.37
712.719	23823.31
713.063	23692.24
713.407	23728.18
713.75	23605.01
714.094	23507.62
714.438	23468.3
714.782	23466.04
715.125	23283.44
715.469	23431.46
715.812	23237.11
716.156	23174.52
716.499	23101.75
716.843	23197.79
717.186	22987.4
717.53	23209.77
717.873	23101.98
718.216	23070.79
718.559	22919.84
718.902	22770.69
719.246	22835.09
719.589	22842.55
719.932	22641.2
720.275	22814.75
720.617	22715.32
720.96	22681.2
721.303	22632.16
721.646	22647.3
721.989	22558.49
722.331	22531.14
722.674	22473.52
723.016	22436.23
723.359	22415.89
723.701	22427.42
724.044	22208.89
724.386	22114.21
724.729	22276.01
725.071	22122.79
725.413	22218.16
725.755	22191.27
726.097	22124.38
726.439	21977.71
726.782	21852.74
727.124	22121.89
727.465	21905.62
727.807	21899.07
728.149	21800.77
728.491	21770.03
728.833	21839.41
729.175	21742.47
729.516	21679.64
729.858	21700.88
730.199	21697.72
730.541	21640.32
730.882	21586.31
731.224	21611.17
731.565	21528.91
731.906	21535.92
732.248	21536.14
732.589	21361.91
732.93	21321.01
733.271	21384.96
733.612	21290.95
733.953	21279.43
734.294	21175.02
734.635	21176.15
734.976	21199.65
735.317	21260.67
735.658	21214.57
735.999	21124.4
736.339	21135.25
736.68	21155.59
737.021	21011.86
737.361	20937.97
737.702	21103.16
738.042	20960.34
738.383	20851.64
738.723	20925.31
739.063	20747.24
739.404	20865.2
739.744	20786.33
740.084	20674.47
740.424	20671.31
740.764	20651.87
741.104	20784.07
741.444	20532.33
741.784	20521.71
742.124	20571.65
742.464	20507.7
742.804	20511.76
743.143	20423.86
743.483	20544.3
743.823	20323.75
744.162	20340.02
744.502	20368.26
744.841	20281.26
745.181	20344.31
745.52	20241.71
745.86	20286.01
746.199	20227.93
746.538	20139.8
746.877	20144.99
747.216	20087.82
747.556	20080.81
747.895	20058.67
748.234	19964.88
748.573	20008.73
748.911	19965.79
749.25	19808.28
749.589	19752.23
749.928	19704.1
750.267	19862.97
750.605	19688.06
750.944	19618
751.283	19594.05
751.621	19653.48
751.96	19506.14
752.298	19557.89
752.636	19530.55
752.975	19410.1
753.313	19306.82
753.651	19389.08
753.989	19201.06
754.327	19232.02
754.666	19125.81
755.004	19187.5
755.342	19222.53
755.679	19197.67
756.017	19023.89
756.355	19060.95
756.693	18991.8
757.031	18987.74
757.368	18866.83
757.706	18874.07
758.044	18758.36
758.381	18732.83
758.719	18729.44
759.056	18755.88
759.394	18657.8
759.731	18580.29
760.068	18516.56
760.405	18421.42
760.743	18376.68
761.08	18416.22
761.417	18260.07
761.754	18278.15
762.091	18349.11
762.428	18218.26
762.765	18056.46
763.102	18023.92
763.438	17934.43
763.775	17842.91
764.112	17931.49
764.449	17929.91
764.785	17828.44
765.122	17719.97
765.458	17628.67
765.795	17624.16
766.131	17574.21
766.467	17443.37
766.804	17398.85
767.14	17415.57
767.476	17322.69
767.812	17308.01
768.148	17258.97
768.485	17120.89
768.821	17138.07
769.157	17078.86
769.492	17025.3
769.828	16998.63
770.164	16718.42
770.5	16764.52
770.836	16669.38
771.171	16684.97
771.507	16621.24
771.842	16498.08
772.178	16562.71
772.513	16509.38
772.849	16452.21
773.184	16258.09
773.519	16375.37
773.855	16188.49
774.19	16284.08
774.525	16154.59
774.86	16135.15
775.195	16160.01
775.53	15942.39
775.865	15901.71
776.2	15785.79
776.535	15693.36
776.87	15800.47
777.205	15720.48
777.539	15628.28
777.874	15610.87
778.209	15502.63
778.543	15396.19
778.878	15351.45
779.212	15444.1
779.547	15277.55
779.881	15426.25
780.215	15141.51
780.55	15274.16
780.884	15179.47
781.218	15005.47
781.552	15077.78
781.886	14901.97
782.22	14903.1
782.554	14856.32
782.888	14673.27
783.222	14711.69
783.556	14623.33
783.889	14597.57
784.223	14388.76
784.557	14380.85
784.89	14546.95
785.224	14319.38
785.557	14277.58
785.891	14276.45
786.224	14247.75
786.558	14177.01
786.891	14044.14
787.224	13959.17
787.557	14002.56
787.891	14010.24
788.224	13917.81
788.557	13889.34
788.89	13791.04
789.223	13836.91
789.556	13759.85
789.888	13674.2
790.221	13697.7
790.554	13556.47
790.887	13612.51
791.219	13498.61
791.552	13462.91
791.884	13443.47
792.217	13428.33
792.549	13347.21
792.882	13317.83
793.214	13251.84
793.546	13220.66
793.879	13179.98
794.211	13041
794.543	13140.66
794.875	13071.73
795.207	13059.98
795.539	12942.24
795.871	12943.15
796.203	12879.2
796.535	12758.97
796.867	12808.01
797.198	12691.4
797.53	12734.11
797.862	12619.32
798.193	12692.76
798.525	12549.94
798.856	12603.95
799.188	12443.05
799.519	12410.73
799.85	12365.76
800.182	12375.25
800.513	12370.06
800.844	12227.46
801.175	12349.49
801.506	12303.62
801.837	12220.68
802.168	12173.45
802.499	12157.41
802.83	12126.67
803.161	12020.69
803.491	12030.86
803.822	12014.36
804.153	11932.33
804.483	11901.82
804.814	11886.68
805.145	11862.95
805.475	11840.13
805.805	11711.09
806.136	11781.82
806.466	11798.32
806.796	11772.33
807.126	11650.75
807.457	11568.5
807.787	11583.86
808.117	11516.52
808.447	11524.2
808.777	11608.72
809.107	11476.29
809.436	11473.81
809.766	11396.97
810.096	11372.79
810.426	11292.34
810.755	11295.51
811.085	11277.66
811.414	11333.7
811.744	11228.84
812.073	11093.71
812.403	11165.57
812.732	11053.03
813.061	11143.42
813.39	11089.19
813.719	10979.36
814.049	11089.64
814.378	11080.37
814.707	11018.23
815.036	10935.29
815.365	10941.62
815.693	10809.19
816.022	10869.76
816.351	10797.89
816.68	10785.46
817.008	10750.21
817.337	10652.81
817.665	10647.62
817.994	10644.9
818.322	10658.01
818.651	10639.03
818.979	10581.18
819.307	10634.28
819.636	10573.27
819.964	10558.8
820.292	10558.35
820.62	10540.27
820.948	10506.38
821.276	10596.32
821.604	10456.43
821.932	10568.3
822.259	10502.53
822.587	10452.59
822.915	10479.48
823.243	10497.79
823.57	10453.95
823.898	10432.03
824.225	10439.26
824.553	10436.77
824.88	10455.3
825.207	10495.08
825.535	10475.42
825.862	10468.41
826.189	10384.35
826.516	10498.92
826.843	10530.56
827.17	10486.26
827.497	10498.69
827.824	10470.67
828.151	10534.85
828.478	10469.77
828.805	10526.04
829.131	10498.69
829.458	10484.46
829.785	10453.27
830.111	10419.82
830.438	10493.95
830.764	10445.36
831.09	10498.69
831.417	10367.4
831.743	10383.44
832.069	10361.97
832.395	10337.12
832.722	10370.56
833.048	10311.58
833.374	10418.24
833.7	10333.73
834.026	10363.33
834.351	10369.66
834.677	10334.4
835.003	10367.4
835.329	10340.28
835.654	10285.82
835.98	10291.01
836.306	10267.74
836.631	10272.94
836.956	10269.55
837.282	10257.57
837.607	10225.25
837.932	10145.48
838.258	10226.84
838.583	10199.49
838.908	10110
839.233	10130.57
839.558	10019.16
839.883	10174.86
840.208	9973.28
840.533	10037.91
840.858	10126.05
841.182	10102.55
841.507	10024.81
841.832	9912.72
842.156	9940.52
842.481	9935.09
842.805	9932.61
843.13	9867.3
843.454	9836.79
843.778	9848.09
844.103	9814.64
844.427	9843.57
844.751	9830.01
845.075	9780.29
845.399	9729.45
845.723	9674.31
846.047	9665.04
846.371	9619.62
846.695	9625.5
847.019	9576.91
847.343	9551.37
847.666	9501.43
847.99	9440.64
848.313	9378.27
848.637	9415.78
848.96	9265.73
849.284	9296.69
849.607	9232.06
849.931	9280.19
850.254	9182.12
850.577	9143.02
850.9	9055.57
851.223	9003.36
851.546	9042.91
851.869	8931.28
852.192	8956.13
852.515	9022.8
852.838	8845.63
853.161	8916.81
853.483	8848.57
853.806	8766.31
854.129	8743.26
854.451	8742.35
854.774	8730.38
855.096	8685.63
855.419	8664.62
855.741	8593.88
856.063	8602.25
856.385	8571.29
856.708	8574.45
857.03	8519.99
857.352	8511.63
857.674	8543.94
857.996	8458.97
858.318	8433.89
858.64	8386.88
858.961	8403.38
859.283	8296.04
859.605	8414.91
859.926	8347.56
860.248	8336.49
860.57	8252.65
860.891	8287.45
861.212	8253.78
861.534	8188.7
861.855	8206.1
862.176	8254.46
862.498	8178.75
862.819	8214.91
863.14	8110.28
863.461	8123.84
863.782	8137.17
864.103	8127.68
864.424	8114.57
864.745	8131.98
865.065	8089.26
865.386	8114.57
865.707	8060.11
866.027	8036.38
866.348	8013.33
866.668	8029.61
866.989	8003.17
867.309	7929.95
867.63	7966.78
867.95	7951.87
868.27	7938.76
868.59	7912.32
868.91	7857.86
869.23	7919.55
869.55	7839.33
869.87	7900.12
870.19	7805.43
870.51	7861.7
870.83	7909.83
871.15	7811.98
871.469	7813.34
871.789	7826.9
872.109	7758.88
872.428	7783.28
872.748	7836.62
873.067	7768.37
873.386	7771.53
873.706	7748.26
874.025	7703.06
874.344	7645.21
874.663	7668.94
874.982	7640.69
875.301	7639.33
875.62	7652.89
875.939	7635.94
876.258	7620.8
876.577	7614.47
876.896	7645.66
877.214	7545.78
877.533	7639.78
877.852	7595.04
878.17	7597.75
878.489	7574.48
878.807	7536.74
879.125	7482.5
879.444	7548.04
879.762	7579.67
880.08	7497.64
880.398	7475.5
880.716	7479.34
881.034	7421.49
881.352	7441.82
881.67	7397.98
881.988	7442.05
882.306	7404.08
882.624	7346.01
882.941	7356.4
883.259	7295.16
883.577	7359.79
883.894	7335.16
884.212	7274.82
884.529	7289.74
884.846	7223.75
885.164	7188.05
885.481	7148.5
885.798	7230.08
886.115	7201.6
886.432	7144.88
886.75	7142.4
887.067	7146.69
887.383	7115.5
887.7	7127.03
888.017	7087.94
888.334	7106.47
888.651	7026.24
888.967	7023.3
889.284	7052.68
889.6	7009.97
889.917	6933.36
890.233	6906.02
890.55	6881.39
890.866	6900.6
891.182	6912.8
891.498	6877.09
891.815	6879.58
892.131	6838.22
892.447	6812.69
892.763	6786.7
893.079	6704.89
893.395	6717.55
893.71	6773.14
894.026	6735.4
894.342	6745.57
894.657	6692.69
894.973	6659.7
895.289	6642.98
895.604	6659.7
895.92	6578.34
896.235	6565.69
896.55	6597.33
896.865	6555.29
897.181	6564.56
897.496	6542.41
897.811	6473.26
898.126	6477.1
898.441	6484.11
898.756	6472.81
899.071	6411.12
899.386	6415.86
899.7	6361.17
900.015	6318.92
900.33	6289.31
900.644	6262.42
900.959	6293.38
901.273	6281.4
901.588	6196.43
901.902	6194.4
902.216	6147.62
902.531	6161.18
902.845	6099.26
903.159	6046.83
903.473	6099.71
903.787	6045.48
904.101	6048.41
904.415	6101.29
904.729	5986.5
905.042	6000.96
905.356	6010.68
905.67	5955.08
905.984	5967.29
906.297	5997.57
906.611	5867.85
906.924	5902.2
907.237	5857.46
907.551	5770
907.864	5809.32
908.177	5812.04
908.491	5764.35
908.804	5760.74
909.117	5707.86
909.43	5703.79
909.743	5685.49
910.056	5647.75
910.368	5562.78
910.681	5615.21
910.994	5547.64
911.307	5569.78
911.619	5572.95
911.932	5508.09
912.244	5474.42
912.557	5494.76
912.869	5461.76
913.181	5468.32
913.494	5414.08
913.806	5408.66
914.118	5371.6
914.43	5362.78
914.742	5360.97
915.054	5350.58
915.366	5273.29
915.678	5266.97
915.99	5290.02
916.302	5213.41
916.613	5235.78
916.925	5213.86
917.236	5241.43
917.548	5141.32
917.859	5165.73
918.171	5142.22
918.482	5114.65
918.794	5083.92
919.105	5094.54
919.416	5040.76
919.727	4996.69
920.038	4957.37
920.349	4949.69
920.66	4920.76
920.971	4926.86
921.282	4887.77
921.593	4901.78
921.903	4855.68
922.214	4837.37
922.525	4831.95
922.835	4791.72
923.146	4813.64
923.456	4784.04
923.767	4755.79
924.077	4722.12
924.387	4745.62
924.697	4707.88
925.008	4644.61
925.318	4643.93
925.628	4646.19
925.938	4650.49
926.248	4605.29
926.558	4594.67
926.867	4586.76
927.177	4542.92
927.487	4517.38
927.796	4500.88
928.106	4467.21
928.416	4490.26
928.725	4457.04
929.034	4443.94
929.344	4443.94
929.653	4427.67
929.962	4407.78
930.271	4353.32
930.581	4358.52
930.89	4321
931.199	4325.75
931.508	4259.31
931.817	4262.7
932.125	4235.35
932.434	4267.22
932.743	4250.27
933.051	4192.19
933.36	4167.11
933.669	4147.67
933.977	4144.06
934.286	4130.5
934.594	4125.08
934.902	4124.85
935.21	4056.83
935.519	4112.87
935.827	4073.78
936.135	4048.02
936.443	4014.34
936.751	3969.6
937.059	4018.64
937.367	3988.13
937.674	3964.63
937.982	3915.36
938.29	3940.45
938.597	3909.49
938.905	3876.49
939.213	3891.63
939.52	3846.44
939.827	3841.92
940.135	3841.92
940.442	3779.32
940.749	3816.16
941.056	3810.06
941.363	3737.29
941.67	3704.52
941.977	3695.26
942.284	3712.88
942.591	3715.14
942.898	3691.87
943.205	3699.32
943.511	3648.48
943.818	3655.93
944.125	3631.08
944.431	3618.42
944.738	3598.76
945.044	3544.53
945.35	3582.26
945.657	3559.67
945.963	3556.5
946.269	3526.9
946.575	3531.42
946.881	3521.7
947.187	3465.43
947.493	3495.49
947.799	3469.95
948.105	3456.17
948.41	3431.31
948.716	3423.62
949.022	3344.08
949.327	3381.82
949.633	3351.54
949.938	3385.21
950.244	3390.41
950.549	3303.63
950.854	3302.95
951.16	3264.76
951.465	3238.54
951.77	3283.29
952.075	3271.76
952.38	3241.26
952.685	3254.36
952.99	3212.78
953.294	3177.98
953.599	3200.81
953.904	3177.76
954.209	3149.51
954.513	3155.38
954.818	3161.26
955.122	3077.42
955.426	3122.84
955.731	3115.84
956.035	3078.1
956.339	3058.21
956.643	3082.39
956.948	3083.75
957.252	3049.4
957.556	3017.76
957.86	3015.05
958.163	2996.52
958.467	3006.23
958.771	2991.77
959.075	2996.52
959.378	2960.36
959.682	2960.59
959.985	2930.08
960.289	2909.06
960.592	2895.95
960.896	2887.59
961.199	2914.03
961.502	2856.63
961.805	2836.3
962.108	2845.56
962.411	2808.73
962.714	2823.19
963.017	2776.86
963.32	2819.35
963.623	2817.76
963.926	2759.46
964.228	2762.4
964.531	2732.57
964.833	2760.59
965.136	2737.32
965.438	2692.57
965.741	2705
966.043	2683.53
966.345	2654.83
966.648	2654.83
966.95	2687.15
967.252	2637.2
967.554	2616.87
967.856	2646.7
968.158	2620.93
968.46	2609.41
968.761	2599.01
969.063	2590.2
969.365	2585.68
969.666	2556.3
969.968	2579.13
970.269	2539.13
970.571	2510.88
970.872	2532.8
971.174	2531.22
971.475	2490.54
971.776	2476.53
972.077	2455.29
972.378	2468.62
972.679	2482.18
972.98	2469.3
973.281	2438.79
973.582	2442.86
973.883	2431.56
974.183	2394.5
974.484	2424.55
974.785	2394.5
975.085	2335.07
975.386	2406.48
975.686	2411.67
975.986	2362.18
976.287	2379.81
976.587	2330.09
976.887	2319.92
977.187	2299.81
977.487	2306.14
977.787	2293.03
978.087	2282.41
978.387	2308.85
978.687	2268.85
978.987	2275.41
979.286	2265.91
979.586	2228.18
979.885	2262.98
980.185	2253.94
980.484	2208.06
980.784	2186.14
981.083	2198.57
981.382	2186.6
981.682	2152.02
981.981	2188.85
982.28	2175.75
982.579	2153.15
982.878	2140.04
983.177	2116.77
983.475	2137.56
983.774	2121.96
984.073	2090.78
984.372	2084.22
984.67	2069.76
984.969	2080.38
985.267	2055.75
985.566	2068.86
985.864	2025.7
986.162	2046.03
986.461	2040.84
986.759	2001.06
987.057	2039.93
987.355	1992.25
987.653	2018.69
987.951	1987.5
988.249	1997
988.547	1982.53
988.844	1944.79
989.142	1984.79
989.44	1946.15
989.737	1942.76
990.035	1960.84
990.332	1944.79
990.63	1906.15
990.927	1932.59
991.224	1932.82
991.521	1908.64
991.819	1901.4
992.116	1879.71
992.413	1858.92
992.71	1829.32
993.006	1866.6
993.303	1821.63
993.6	1802.2
993.897	1845.14
994.193	1813.72
994.49	1801.97
994.787	1821.18
995.083	1804.23
995.379	1768.3
995.676	1748.64
995.972	1781.41
996.268	1767.4
996.565	1760.84
996.861	1757.68
997.157	1737.79
997.453	1739.83
997.749	1726.27
998.044	1692.82
998.34	1711.58
998.636	1687.4
998.932	1675.87
999.227	1665.25
999.523	1682.2
999.818	1662.99
1000.114	1650.56
1000.409	1612.82
1000.704	1666.16
1001	1666.61
1001.295	1658.7
1001.59	1619.38
1001.885	1625.93
1002.18	1599.27
1002.475	1602.88
1002.77	1575.09
1003.065	1579.15
1003.359	1567.18
1003.654	1578.48
1003.949	1554.52
1004.243	1545.93
1004.538	1543.22
1004.832	1521.53
1005.127	1514.07
1005.421	1494.86
1005.715	1504.81
1006.009	1499.38
1006.304	1514.3
1006.598	1498.93
1006.892	1494.86
1007.186	1480.62
1007.48	1479.95
1007.773	1468.2
1008.067	1425.71
1008.361	1433.17
1008.655	1409.89
1008.948	1418.48
1009.242	1404.47
1009.535	1413.96
1009.829	1397.01
1010.122	1364.24
1010.415	1362.89
1010.708	1347.3
1011.001	1339.16
1011.295	1358.59
1011.588	1346.17
1011.881	1337.35
1012.173	1343.23
1012.466	1338.93
1012.759	1339.61
1013.052	1319.27
1013.344	1303.91
1013.637	1319.95
1013.93	1318.82
1014.222	1277.69
1014.514	1304.13
1014.807	1296.9
1015.099	1292.16
1015.391	1259.16
1015.683	1275.21
1015.976	1250.12
1016.268	1263.91
1016.56	1214.42
1016.851	1241.08
1017.143	1199.5
1017.435	1238.6
1017.727	1234.53
1018.018	1202.89
1018.31	1188.2
1018.602	1190.92
1018.893	1174.64
1019.185	1165.15
1019.476	1145.27
1019.767	1166.28
1020.058	1144.59
1020.35	1161.09
1020.641	1121.31
1020.932	1119.05
1021.223	1125.61
1021.514	1117.24
1021.804	1113.4
1022.095	1104.14
1022.386	1103.23
1022.677	1116.57
1022.967	1103.01
1023.258	1074.76
1023.548	1076.79
1023.839	1067.3
1024.129	1074.53
1024.419	1059.17
1024.709	1066.4
1025	1049.22
1025.29	1051.48
1025.58	1034.99
1025.87	1015.55
1026.16	1013.07
1026.449	1022.56
1026.739	992.05
1027.029	979.17
1027.319	982.33
1027.608	976.01
1027.898	986.63
1028.187	962.9
1028.477	984.14
1028.766	951.37
1029.055	982.56
1029.344	942.56
1029.634	960.86
1029.923	944.14
1030.212	938.72
1030.501	936.23
1030.79	933.75
1031.078	929.68
1031.367	897.59
1031.656	878.61
1031.945	914.99
1032.233	905.5
1032.522	903.46
1032.81	877.02
1033.099	906.63
1033.387	880.41
1033.675	865.95
1033.963	888.78
1034.251	867.99
1034.54	866.4
1034.828	858.27
1035.116	843.35
1035.403	874.77
1035.691	842.45
1035.979	821.66
1036.267	835.22
1036.554	849
1036.842	827.76
1037.129	813.98
1037.417	808.55
1037.704	804.26
1037.992	792.73
1038.279	800.19
1038.566	775.33
1038.853	775.33
1039.14	775.33
